# Flux units: erg / (cm m2 s)
# Wavelength units: Angstrom
wave	flux
19000.0	6.926928924289704e+17
19001.0	6.925507654320127e+17
19002.0	6.924319388423508e+17
19003.0	6.923007881292458e+17
19004.0	6.921700160918868e+17
19005.0	6.920389831688191e+17
19006.0	6.919082352487081e+17
19007.0	6.917734306676736e+17
19008.0	6.916387074561363e+17
19009.0	6.915133518031529e+17
19010.0	6.91326859695445e+17
19011.0	6.912518705031849e+17
19012.0	6.911107824353277e+17
19013.0	6.909928212004861e+17
19014.0	6.908548915134461e+17
19015.0	6.907274465378303e+17
19016.0	6.905957845390675e+17
19017.0	6.904485859994282e+17
19018.0	6.903384042897407e+17
19019.0	6.902081126399999e+17
19020.0	6.900707128333652e+17
19021.0	6.899439835458217e+17
19022.0	6.898175656853503e+17
19023.0	6.896821916576426e+17
19024.0	6.895541331252564e+17
19025.0	6.894255917585748e+17
19026.0	6.892926347684521e+17
19027.0	6.891625867378687e+17
19028.0	6.890346585784319e+17
19029.0	6.889022542577663e+17
19030.0	6.887751530053631e+17
19031.0	6.886454716268543e+17
19032.0	6.885148645654527e+17
19033.0	6.883736463343615e+17
19034.0	6.882518443753471e+17
19035.0	6.881195895816191e+17
19036.0	6.876381363306492e+17
19037.0	6.878617199968256e+17
19038.0	6.877301130133504e+17
19039.0	6.87602090901504e+17
19040.0	6.874726046979412e+17
19041.0	6.873414425903103e+17
19042.0	6.87201114460433e+17
19043.0	6.870816178307072e+17
19044.0	6.869503291250003e+17
19045.0	6.868215691651753e+17
19046.0	6.866838930937174e+17
19047.0	6.865611444802899e+17
19048.0	6.864052432491859e+17
19049.0	6.86292487844659e+17
19050.0	6.861587602210815e+17
19051.0	6.85977215644467e+17
19052.0	6.859011817209855e+17
19053.0	6.857733159867731e+17
19054.0	6.85644282138897e+17
19055.0	6.854843397657942e+17
19056.0	6.853814683085481e+17
19057.0	6.852540014526461e+17
19058.0	6.851215612706815e+17
19059.0	6.849945548095488e+17
19060.0	6.848624535273472e+17
19061.0	6.847356762849279e+17
19062.0	6.846050146975743e+17
19063.0	6.844758712385536e+17
19064.0	6.843300712196778e+17
19065.0	6.841939137658879e+17
19066.0	6.840788433851731e+17
19067.0	6.83955246473762e+17
19068.0	6.838267846590463e+17
19069.0	6.836973929671337e+17
19070.0	6.835641067940521e+17
19071.0	6.834373823299583e+17
19072.0	6.833084866843988e+17
19073.0	6.831779981819903e+17
19074.0	6.830496015187965e+17
19075.0	6.8292004282368e+17
19076.0	6.827877110644735e+17
19077.0	6.826599717885268e+17
19078.0	6.825231044487849e+17
19079.0	6.824016330009257e+17
19080.0	6.822708460737876e+17
19081.0	6.821371860484095e+17
19082.0	6.820055251681279e+17
19083.0	6.818703433793535e+17
19084.0	6.817248970801151e+17
19085.0	6.816238049165311e+17
19086.0	6.814482926578345e+17
19087.0	6.813565421180244e+17
19088.0	6.812287880222036e+17
19089.0	6.810802724711082e+17
19090.0	6.809749362311167e+17
19091.0	6.808468168813225e+17
19092.0	6.807108593560234e+17
19093.0	6.805909309926057e+17
19094.0	6.804611423098198e+17
19095.0	6.80331991720482e+17
19096.0	6.802013546698067e+17
19097.0	6.800749458270889e+17
19098.0	6.799454727656787e+17
19099.0	6.798158080245759e+17
19100.0	6.796869158742698e+17
19101.0	6.79558794706944e+17
19102.0	6.794190651741523e+17
19103.0	6.793001454709418e+17
19104.0	6.791721465675775e+17
19105.0	6.790428145046867e+17
19106.0	6.78912458752e+17
19107.0	6.787830934842025e+17
19108.0	6.786565931357523e+17
19109.0	6.784912986210301e+17
19110.0	6.783988010756778e+17
19111.0	6.7827020609181e+17
19112.0	6.781414561983146e+17
19113.0	6.780124951216128e+17
19114.0	6.778834107323731e+17
19115.0	6.777491229594964e+17
19116.0	6.776237738076842e+17
19117.0	6.774956486557695e+17
19118.0	6.773577739840169e+17
19119.0	6.769316005412858e+17
19120.0	6.771073501975891e+17
19121.0	6.769817200274089e+17
19122.0	6.768550479921151e+17
19123.0	6.767244966450516e+17
19124.0	6.765959672321364e+17
19125.0	6.764687502169428e+17
19126.0	6.763393905415508e+17
19127.0	6.760141391134716e+17
19128.0	6.760520651287209e+17
19129.0	6.759443311449428e+17
19130.0	6.758256928795306e+17
19131.0	6.756977887674367e+17
19132.0	6.755702199899476e+17
19133.0	6.753701798608896e+17
19134.0	6.752979271024639e+17
19135.0	6.751851787583487e+17
19136.0	6.750577026050729e+17
19137.0	6.749103439129257e+17
19138.0	6.747956489923241e+17
19139.0	6.746729247058601e+17
19140.0	6.745449423699965e+17
19141.0	6.744168228803923e+17
19142.0	6.742857018769407e+17
19143.0	6.741530583411369e+17
19144.0	6.740278297056595e+17
19145.0	6.739038151813801e+17
19146.0	6.737056668232362e+17
19147.0	6.736376771553961e+17
19148.0	6.735198185411923e+17
19149.0	6.733914726290772e+17
19150.0	6.732628790433107e+17
19151.0	6.731358032363519e+17
19152.0	6.730056302854143e+17
19153.0	6.728780248776704e+17
19154.0	6.727376787122857e+17
19155.0	6.72625025159441e+17
19156.0	6.724968604412585e+17
19157.0	6.723684912507561e+17
19158.0	6.722155040123561e+17
19159.0	6.721113017723561e+17
19160.0	6.719813724405759e+17
19161.0	6.718546052644864e+17
19162.0	6.716731370242047e+17
19163.0	6.71602180165905e+17
19164.0	6.714752048824319e+17
19165.0	6.713455909623123e+17
19166.0	6.71207068410402e+17
19167.0	6.710869694786217e+17
19168.0	6.709456247193597e+17
19169.0	6.708268461544787e+17
19170.0	6.7070933874333e+17
19171.0	6.705783873295699e+17
19172.0	6.704535372999338e+17
19173.0	6.70326795079953e+17
19174.0	6.701923581995689e+17
19175.0	6.700717760140628e+17
19176.0	6.699436726026237e+17
19177.0	6.69799028953361e+17
19178.0	6.696888201205076e+17
19179.0	6.695576055141716e+17
19180.0	6.694259305829715e+17
19181.0	6.692949540033875e+17
19182.0	6.691672400330752e+17
19183.0	6.690510085991081e+17
19184.0	6.689074286253395e+17
19185.0	6.687946179259049e+17
19186.0	6.686694927499264e+17
19187.0	6.685322311456083e+17
19188.0	6.684144079033684e+17
19189.0	6.68286681489954e+17
19190.0	6.681591662597459e+17
19191.0	6.680290818086227e+17
19192.0	6.679058388964691e+17
19193.0	6.677728044515327e+17
19194.0	6.67647038595618e+17
19195.0	6.675235171117737e+17
19196.0	6.673950968206676e+17
19197.0	6.672689819287551e+17
19198.0	6.671426877303465e+17
19199.0	6.666678812628307e+17
19200.0	6.666676516246868e+17
19201.0	6.66761504629282e+17
19202.0	6.666348045620563e+17
19203.0	6.665071021260797e+17
19204.0	6.663776399698601e+17
19205.0	6.662519384266068e+17
19206.0	6.661242457074346e+17
19207.0	6.659892439941119e+17
19208.0	6.658463185414825e+17
19209.0	6.65743389692177e+17
19210.0	6.656164983646889e+17
19211.0	6.654906026251604e+17
19212.0	6.65364210070323e+17
19213.0	6.652249363884714e+17
19214.0	6.650963107861844e+17
19215.0	6.649825172914175e+17
19216.0	6.648517909719721e+17
19217.0	6.64728541209122e+17
19218.0	6.645064893726716e+17
19219.0	6.644560841845417e+17
19220.0	6.643456452242089e+17
19221.0	6.641823142029993e+17
19222.0	6.640950573705897e+17
19223.0	6.639647611770195e+17
19224.0	6.638278300139519e+17
19225.0	6.636942018652841e+17
19226.0	6.635835823401642e+17
19227.0	6.634566013943808e+17
19228.0	6.633332499895635e+17
19229.0	6.632063473374548e+17
19230.0	6.630763358672211e+17
19231.0	6.629490550986067e+17
19232.0	6.628183800195753e+17
19233.0	6.626899435803988e+17
19234.0	6.625682920570879e+17
19235.0	6.624400422644394e+17
19236.0	6.623179469837652e+17
19237.0	6.621886469373951e+17
19238.0	6.620531241517055e+17
19239.0	6.619374081277951e+17
19240.0	6.617735788232703e+17
19241.0	6.616709523133779e+17
19242.0	6.615524545571497e+17
19243.0	6.614068945223679e+17
19244.0	6.613019655492948e+17
19245.0	6.611745913176063e+17
19246.0	6.610463394278057e+17
19247.0	6.609193651230036e+17
19248.0	6.607945587141289e+17
19249.0	6.606673242226685e+17
19250.0	6.605378294207828e+17
19251.0	6.604025295623507e+17
19252.0	6.602440219907412e+17
19253.0	6.601563563535017e+17
19254.0	6.600265163603968e+17
19255.0	6.598791703909715e+17
19256.0	6.597750508486655e+17
19257.0	6.596500402470911e+17
19258.0	6.595228219736063e+17
19259.0	6.593850876712276e+17
19260.0	6.592590048657408e+17
19261.0	6.591364937198249e+17
19262.0	6.590034485794132e+17
19263.0	6.588776008646655e+17
19264.0	6.586950941846185e+17
19265.0	6.586061840973821e+17
19266.0	6.584843815791273e+17
19267.0	6.583739022136659e+17
19268.0	6.582454462010708e+17
19269.0	6.581180824551423e+17
19270.0	6.579910433483433e+17
19271.0	6.578247619138902e+17
19272.0	6.577312683611476e+17
19273.0	6.566639419348294e+17
19274.0	6.570285092306938e+17
19275.0	6.573525578721962e+17
19276.0	6.572223581476179e+17
19277.0	6.57094861791778e+17
19278.0	6.569650181636095e+17
19279.0	6.568225431792297e+17
19280.0	6.56689782202914e+17
19281.0	6.565713499477331e+17
19282.0	6.564450303038803e+17
19283.0	6.563115093196799e+17
19284.0	6.561751431293609e+17
19285.0	6.560327363024211e+17
19286.0	6.559273941204991e+17
19287.0	6.558032320266239e+17
19288.0	6.555949280002047e+17
19289.0	6.552969588419237e+17
19290.0	6.554171870281727e+17
19291.0	6.552561204417876e+17
19292.0	6.551590541109929e+17
19293.0	6.550291931463679e+17
19294.0	6.548996058600788e+17
19295.0	6.547718000345087e+17
19296.0	6.546415632602452e+17
19297.0	6.545095367764649e+17
19298.0	6.543793453006847e+17
19299.0	6.542533192581119e+17
19300.0	6.541235196002303e+17
19301.0	6.539922582274047e+17
19302.0	6.538618001337002e+17
19303.0	6.537208350987603e+17
19304.0	6.535947020315306e+17
19305.0	6.534697205104639e+17
19306.0	6.533399159592276e+17
19307.0	6.532033982846292e+17
19308.0	6.53075642650897e+17
19309.0	6.529364306952191e+17
19310.0	6.527977042302292e+17
19311.0	6.526805745161558e+17
19312.0	6.525503745119572e+17
19313.0	6.524059301620394e+17
19314.0	6.521378984777041e+17
19315.0	6.52017216048333e+17
19316.0	6.520248254944595e+17
19317.0	6.51891061170722e+17
19318.0	6.51757504045602e+17
19319.0	6.51626338792243e+17
19320.0	6.514885619875839e+17
19321.0	6.513464195416063e+17
19322.0	6.511955929989119e+17
19323.0	6.510717496721408e+17
19324.0	6.509433462980608e+17
19325.0	6.508004750917631e+17
19326.0	6.506734692597759e+17
19327.0	6.505366380609536e+17
19328.0	6.504044915501737e+17
19329.0	6.502683737325567e+17
19330.0	6.501268515542356e+17
19331.0	6.499897220704938e+17
19332.0	6.498576089743359e+17
19333.0	6.497180241450323e+17
19334.0	6.495768201745748e+17
19335.0	6.494430069172905e+17
19336.0	6.493040539598847e+17
19337.0	6.491640931811327e+17
19338.0	6.489903048512851e+17
19339.0	6.488696222821034e+17
19340.0	6.487216064124244e+17
19341.0	6.4858669201053e+17
19342.0	6.483963110839635e+17
19343.0	6.4830253315741e+17
19344.0	6.481578418328916e+17
19345.0	6.47764872248251e+17
19346.0	6.478094323242326e+17
19347.0	6.477176707394217e+17
19348.0	6.475796680015871e+17
19349.0	6.474287777753769e+17
19350.0	6.472822386502314e+17
19351.0	6.471319017925289e+17
19352.0	6.469793143412052e+17
19353.0	6.46838337282594e+17
19354.0	6.466868404901204e+17
19355.0	6.465233184183636e+17
19356.0	6.46381831192576e+17
19357.0	6.462267651173034e+17
19358.0	6.460644243712682e+17
19359.0	6.458515471553876e+17
19360.0	6.457346815426559e+17
19361.0	6.455745238619476e+17
19362.0	6.454209117421567e+17
19363.0	6.452590106290857e+17
19364.0	6.450950015287296e+17
19365.0	6.449304015208447e+17
19366.0	6.447649873985533e+17
19367.0	6.445971341486761e+17
19368.0	6.444275092247891e+17
19369.0	6.442371680043008e+17
19370.0	6.439621359566847e+17
19371.0	6.438762461877587e+17
19372.0	6.437053118720682e+17
19373.0	6.43522132775185e+17
19374.0	6.433421160437075e+17
19375.0	6.431576231510013e+17
19376.0	6.429702381458772e+17
19377.0	6.427725460581033e+17
19378.0	6.425457878630399e+17
19379.0	6.423395817575764e+17
19380.0	6.421409763601065e+17
19381.0	6.419369953329151e+17
19382.0	6.41720619298543e+17
19383.0	6.415014924298921e+17
19384.0	6.412712917598208e+17
19385.0	6.410523418907988e+17
19386.0	6.408295918425427e+17
19387.0	6.406013564835156e+17
19388.0	6.403227233462953e+17
19389.0	6.400838290025129e+17
19390.0	6.398398654229162e+17
19391.0	6.392468306832036e+17
19392.0	6.392547897245695e+17
19393.0	6.389908792235348e+17
19394.0	6.386984821981183e+17
19395.0	6.384147101996372e+17
19396.0	6.381290792856233e+17
19397.0	6.378365886573225e+17
19398.0	6.375305639886845e+17
19399.0	6.371169988334931e+17
19400.0	6.368488148260179e+17
19401.0	6.365187438630228e+17
19402.0	6.36173184803362e+17
19403.0	6.358116979441663e+17
19404.0	6.353976414262612e+17
19405.0	6.349873373424297e+17
19406.0	6.345809412314452e+17
19407.0	6.341348307238911e+17
19408.0	6.335724207647405e+17
19409.0	6.33185088184866e+17
19410.0	6.326450610591059e+17
19411.0	6.321300691047763e+17
19412.0	6.315258903090518e+17
19413.0	6.309519973242195e+17
19414.0	6.302481281013075e+17
19415.0	6.295597564122451e+17
19416.0	6.287882409650857e+17
19417.0	6.279509431025663e+17
19418.0	6.270266940325889e+17
19419.0	6.260672743953748e+17
19420.0	6.252010006031018e+17
19421.0	6.243520302022656e+17
19422.0	6.234037767809705e+17
19423.0	6.22443110736418e+17
19424.0	6.214192830174548e+17
19425.0	6.202723271005524e+17
19426.0	6.190805617562962e+17
19427.0	6.177683125829631e+17
19428.0	6.163741211099136e+17
19429.0	6.148283766407168e+17
19430.0	6.13097987235294e+17
19431.0	6.110758812603734e+17
19432.0	6.089396799406077e+17
19433.0	6.063479074411862e+17
19434.0	6.03455009779439e+17
19435.0	6.010464135107922e+17
19436.0	5.98475181007394e+17
19437.0	5.957004802304681e+17
19438.0	5.922109515628541e+17
19439.0	5.890636034430294e+17
19440.0	5.850052354375677e+17
19441.0	5.801298350484137e+17
19442.0	5.74243098136849e+17
19443.0	5.6873924896139936e+17
19444.0	5.6266682433972864e+17
19445.0	5.553648396402691e+17
19446.0	5.463077056501073e+17
19447.0	5.364917669112485e+17
19448.0	5.244459431581019e+17
19449.0	5.0855083724417696e+17
19450.0	4.7678627323576096e+17
19451.0	4.648384593919994e+17
19452.0	4.9474641529405485e+17
19453.0	5.172850465964037e+17
19454.0	5.30446374369143e+17
19455.0	5.408980893433855e+17
19456.0	5.502096767276374e+17
19457.0	5.581335299795622e+17
19458.0	5.6432098233985715e+17
19459.0	5.699430087568045e+17
19460.0	5.754882857020073e+17
19461.0	5.807151211610111e+17
19462.0	5.848794391729494e+17
19463.0	5.884073661344424e+17
19464.0	5.914790596356777e+17
19465.0	5.94188986028305e+17
19466.0	5.966263519368531e+17
19467.0	5.988274901002922e+17
19468.0	6.012363190829057e+17
19469.0	6.036806666900818e+17
19470.0	6.059502805712895e+17
19471.0	6.077766267742888e+17
19472.0	6.093557040764242e+17
19473.0	6.107487024097962e+17
19474.0	6.119934102863871e+17
19475.0	6.13001231422805e+17
19476.0	6.140998803521535e+17
19477.0	6.150116252232362e+17
19478.0	6.158637789609983e+17
19479.0	6.166068572367529e+17
19480.0	6.173208555640148e+17
19481.0	6.179754732421119e+17
19482.0	6.185647360442368e+17
19483.0	6.192556058607616e+17
19484.0	6.199514146799613e+17
19485.0	6.205855642244435e+17
19486.0	6.211433791138474e+17
19487.0	6.216575990366205e+17
19488.0	6.220754383273983e+17
19489.0	6.224606331404287e+17
19490.0	6.226673277424977e+17
19491.0	6.231211184401066e+17
19492.0	6.234194074140671e+17
19493.0	6.236814037745664e+17
19494.0	6.238869773789865e+17
19495.0	6.24130632327714e+17
19496.0	6.242671596492115e+17
19497.0	6.244632390270975e+17
19498.0	6.246257497123498e+17
19499.0	6.242680558321656e+17
19500.0	6.24900706402304e+17
19501.0	6.249985007943679e+17
19502.0	6.250857507760809e+17
19503.0	6.25185659097361e+17
19504.0	6.252665940650665e+17
19505.0	6.253258005807103e+17
19506.0	6.253753610360148e+17
19507.0	6.254126678321834e+17
19508.0	6.254552198152191e+17
19509.0	6.254986919586474e+17
19510.0	6.254958449349972e+17
19511.0	6.251693367536296e+17
19512.0	6.255504774922236e+17
19513.0	6.254322188113233e+17
19514.0	6.255106654382761e+17
19515.0	6.255718300647425e+17
19516.0	6.256187539805524e+17
19517.0	6.255962034449066e+17
19518.0	6.255793864529235e+17
19519.0	6.255640538251263e+17
19520.0	6.255480874379946e+17
19521.0	6.255161494907561e+17
19522.0	6.254713968962218e+17
19523.0	6.254347394482176e+17
19524.0	6.253889328949929e+17
19525.0	6.253467512690004e+17
19526.0	6.253150140891136e+17
19527.0	6.252730438560425e+17
19528.0	6.25223508566562e+17
19529.0	6.251643555282944e+17
19530.0	6.251043678235305e+17
19531.0	6.250418369025364e+17
19532.0	6.249758377115647e+17
19533.0	6.249099411412307e+17
19534.0	6.248614305901225e+17
19535.0	6.247877342920704e+17
19536.0	6.247132928060073e+17
19537.0	6.246433797002579e+17
19538.0	6.245642159172266e+17
19539.0	6.244230941551277e+17
19540.0	6.24408622338321e+17
19541.0	6.243320171506346e+17
19542.0	6.242500005418324e+17
19543.0	6.241673241690111e+17
19544.0	6.240844549281108e+17
19545.0	6.239610204061692e+17
19546.0	6.238023109487274e+17
19547.0	6.238314049481385e+17
19548.0	6.237570565057194e+17
19549.0	6.236553129667242e+17
19550.0	6.235787330147668e+17
19551.0	6.234886571906388e+17
19552.0	6.233973094438227e+17
19553.0	6.233032226067796e+17
19554.0	6.2320750886912e+17
19555.0	6.23117506515217e+17
19556.0	6.230248437142868e+17
19557.0	6.229298174929578e+17
19558.0	6.228342902620159e+17
19559.0	6.227349805378217e+17
19560.0	6.226386166131369e+17
19561.0	6.22541388661828e+17
19562.0	6.22446271144482e+17
19563.0	6.223482462055082e+17
19564.0	6.222500505583615e+17
19565.0	6.221501474100563e+17
19566.0	6.220476096795988e+17
19567.0	6.219507212571988e+17
19568.0	6.218471208998228e+17
19569.0	6.217468894773247e+17
19570.0	6.216484133710505e+17
19571.0	6.215467976884223e+17
19572.0	6.214402144818516e+17
19573.0	6.213407571880618e+17
19574.0	6.212271664179881e+17
19575.0	6.211359904279209e+17
19576.0	6.210328459913898e+17
19577.0	6.209230031115604e+17
19578.0	6.208331035880106e+17
19579.0	6.207303252443136e+17
19580.0	6.206265383103146e+17
19581.0	6.205227935290708e+17
19582.0	6.204198901252095e+17
19583.0	6.203146350450004e+17
19584.0	6.202090863635114e+17
19585.0	6.200895553404927e+17
19586.0	6.199794681424553e+17
19587.0	6.198866059722751e+17
19588.0	6.19727398511138e+17
19589.0	6.196739912499199e+17
19590.0	6.195617936179199e+17
19591.0	6.19463894577971e+17
19592.0	6.193575801563818e+17
19593.0	6.192478839373823e+17
19594.0	6.191124625839443e+17
19595.0	6.190325807360681e+17
19596.0	6.188533710585855e+17
19597.0	6.188177990964564e+17
19598.0	6.186795504325971e+17
19599.0	6.186030141713066e+17
19600.0	6.184955413528575e+17
19601.0	6.18379427848738e+17
19602.0	6.182741105530195e+17
19603.0	6.181199572981075e+17
19604.0	6.180560098208425e+17
19605.0	6.179157769715712e+17
19606.0	6.178415654032724e+17
19607.0	6.177340388278272e+17
19608.0	6.176236727784788e+17
19609.0	6.175092753738409e+17
19610.0	6.174070059390292e+17
19611.0	6.172965581007529e+17
19612.0	6.171883818975232e+17
19613.0	6.170769593029971e+17
19614.0	6.16964016902417e+17
19615.0	6.16859206628147e+17
19616.0	6.167469737639935e+17
19617.0	6.166394206945279e+17
19618.0	6.164720409116671e+17
19619.0	6.163393279601321e+17
19620.0	6.16234899157811e+17
19621.0	6.161989163636052e+17
19622.0	6.160892054645418e+17
19623.0	6.159792876464809e+17
19624.0	6.15867765297425e+17
19625.0	6.157585793155072e+17
19626.0	6.15646907998754e+17
19627.0	6.15537827713297e+17
19628.0	6.154182418847062e+17
19629.0	6.153061823152127e+17
19630.0	6.152018914355882e+17
19631.0	6.147324118040573e+17
19632.0	6.149844489295188e+17
19633.0	6.148685858253481e+17
19634.0	6.147633728279892e+17
19635.0	6.146476865836372e+17
19636.0	6.145405695120723e+17
19637.0	6.143823300962986e+17
19638.0	6.143189447256746e+17
19639.0	6.142079919631018e+17
19640.0	6.140907350218067e+17
19641.0	6.139167448061271e+17
19642.0	6.13875117597218e+17
19643.0	6.137617070424063e+17
19644.0	6.13647287128337e+17
19645.0	6.135128268297555e+17
19646.0	6.134325902136659e+17
19647.0	6.133215230164991e+17
19648.0	6.132098625350314e+17
19649.0	6.13098402681105e+17
19650.0	6.129880930451455e+17
19651.0	6.128761671341396e+17
19652.0	6.127648519837012e+17
19653.0	6.126545113797972e+17
19654.0	6.12542089142818e+17
19655.0	6.124304377490089e+17
19656.0	6.123200306653865e+17
19657.0	6.122087570385578e+17
19658.0	6.120983890318676e+17
19659.0	6.119869767832916e+17
19660.0	6.118762505131348e+17
19661.0	6.11764424286754e+17
19662.0	6.116537431752703e+17
19663.0	6.115370738559658e+17
19664.0	6.11428820197922e+17
19665.0	6.113199450838356e+17
