# Flux units: erg / (cm m2 s)
# Wavelength units: Angstrom
wave	flux
19000.0	6.672004113498111e+17
19001.0	6.670073666207743e+17
19002.0	6.669587472973823e+17
19003.0	6.668339887734783e+17
19004.0	6.667128840475988e+17
19005.0	6.665852065677311e+17
19006.0	6.664619771472553e+17
19007.0	6.663364122684074e+17
19008.0	6.661856380846079e+17
19009.0	6.659811065550163e+17
19010.0	6.658137069191167e+17
19011.0	6.658102572438867e+17
19012.0	6.656519253437096e+17
19013.0	6.656039191576575e+17
19014.0	6.654472696627197e+17
19015.0	6.6533770919936e+17
19016.0	6.652387206889471e+17
19017.0	6.651175971586047e+17
19018.0	6.649953568948223e+17
19019.0	6.648763258328403e+17
19020.0	6.647497087429292e+17
19021.0	6.646411114315775e+17
19022.0	6.645159889818964e+17
19023.0	6.643665277550591e+17
19024.0	6.642568977361577e+17
19025.0	6.641402293955241e+17
19026.0	6.640130706112511e+17
19027.0	6.63890227765794e+17
19028.0	6.637749730454185e+17
19029.0	6.636458980933631e+17
19030.0	6.635425665209684e+17
19031.0	6.634205344344746e+17
19032.0	6.632884056096767e+17
19033.0	6.630827950953811e+17
19034.0	6.629658560124243e+17
19035.0	6.625271851515903e+17
19036.0	6.609779471067817e+17
19037.0	6.623655257003348e+17
19038.0	6.624820616407721e+17
19039.0	6.624196803166205e+17
19040.0	6.623177158776148e+17
19041.0	6.621995600270676e+17
19042.0	6.619767372076371e+17
19043.0	6.619642149033302e+17
19044.0	6.618373984441683e+17
19045.0	6.617152837997907e+17
19046.0	6.615673741159081e+17
19047.0	6.61435149591074e+17
19048.0	6.612756643971071e+17
19049.0	6.610622044525906e+17
19050.0	6.610140328711508e+17
19051.0	6.60704659120674e+17
19052.0	6.606929656108372e+17
19053.0	6.607069242545491e+17
19054.0	6.606117049554259e+17
19055.0	6.60310232155205e+17
19056.0	6.603646575837183e+17
19057.0	6.602655236707667e+17
19058.0	6.600938789797887e+17
19059.0	6.600074180165631e+17
19060.0	6.599033271353343e+17
19061.0	6.597863199648426e+17
19062.0	6.596611555721215e+17
19063.0	6.59536334692898e+17
19064.0	6.593729346753876e+17
19065.0	6.59190454489361e+17
19066.0	6.591155649118205e+17
19067.0	6.590506946876755e+17
19068.0	6.589398633502036e+17
19069.0	6.588193704334676e+17
19070.0	6.58683842404898e+17
19071.0	6.585730751703721e+17
19072.0	6.584408840601597e+17
19073.0	6.58334508192017e+17
19074.0	6.582166738348713e+17
19075.0	6.580952185350825e+17
19076.0	6.579696047226879e+17
19077.0	6.578413496172543e+17
19078.0	6.577094014271488e+17
19079.0	6.576078189494271e+17
19080.0	6.57478352249378e+17
19081.0	6.573294892001961e+17
19082.0	6.572365423749801e+17
19083.0	6.570492145522003e+17
19084.0	6.568337949589504e+17
19085.0	6.56866706194432e+17
19086.0	6.564558746069672e+17
19087.0	6.565802255144275e+17
19088.0	6.564285938750803e+17
19089.0	6.562539020921517e+17
19090.0	6.562455675207679e+17
19091.0	6.56134728703454e+17
19092.0	6.559514877405866e+17
19093.0	6.559104900967082e+17
19094.0	6.557923107580585e+17
19095.0	6.556748480162474e+17
19096.0	6.555523462376104e+17
19097.0	6.554333225156605e+17
19098.0	6.552913485408938e+17
19099.0	6.55166146748962e+17
19100.0	6.550609880678399e+17
19101.0	6.549349899173887e+17
19102.0	6.547893643116543e+17
19103.0	6.547010183583059e+17
19104.0	6.545877072084991e+17
19105.0	6.544173558311596e+17
19106.0	6.543373692654931e+17
19107.0	6.541958627459071e+17
19108.0	6.540617851775658e+17
19109.0	6.539276859386537e+17
19110.0	6.53826257321984e+17
19111.0	6.537124949349715e+17
19112.0	6.535997974118399e+17
19113.0	6.534948659920895e+17
19114.0	6.533615865298941e+17
19115.0	6.532235996605098e+17
19116.0	6.531052698162515e+17
19117.0	6.529639254065151e+17
19118.0	6.526060576724308e+17
19119.0	6.501342704391489e+17
19120.0	6.524865787286868e+17
19121.0	6.524881646649343e+17
19122.0	6.523974834629289e+17
19123.0	6.52279458754287e+17
19124.0	6.521306763056467e+17
19125.0	6.520021315136169e+17
19126.0	6.517645278969855e+17
19127.0	6.512429684315475e+17
19128.0	6.514931792172372e+17
19129.0	6.514622992831827e+17
19130.0	6.514252934283263e+17
19131.0	6.513270800951977e+17
19132.0	6.512108409017684e+17
19133.0	6.510645969158143e+17
19134.0	6.509654913843199e+17
19135.0	6.508513492729856e+17
19136.0	6.507260970795008e+17
19137.0	6.505760503278249e+17
19138.0	6.504778116191571e+17
19139.0	6.503753007322452e+17
19140.0	6.502598347587583e+17
19141.0	6.501406908000938e+17
19142.0	6.49999848378641e+17
19143.0	6.498817897660415e+17
19144.0	6.49747653337634e+17
19145.0	6.49654814445841e+17
19146.0	6.491009913454596e+17
19147.0	6.493948513441108e+17
19148.0	6.492800486998015e+17
19149.0	6.491585643195048e+17
19150.0	6.490586122376531e+17
19151.0	6.489353796714495e+17
19152.0	6.488127052972031e+17
19153.0	6.486405781913597e+17
19154.0	6.485424543367168e+17
19155.0	6.484398876655615e+17
19156.0	6.483243392040959e+17
19157.0	6.481854329432746e+17
19158.0	6.480407396614144e+17
19159.0	6.479494885234003e+17
19160.0	6.478229309227007e+17
19161.0	6.47687820157474e+17
19162.0	6.475220242836137e+17
19163.0	6.474344450490367e+17
19164.0	6.473496241984852e+17
19165.0	6.47198309159185e+17
19166.0	6.470837996268201e+17
19167.0	6.469960475170131e+17
19168.0	6.468898421473279e+17
19169.0	6.467747758910121e+17
19170.0	6.466608490872831e+17
19171.0	6.465383495456084e+17
19172.0	6.464175035383808e+17
19173.0	6.463014974783487e+17
19174.0	6.461672386461695e+17
19175.0	6.460586753086804e+17
19176.0	6.459420971455827e+17
19177.0	6.457193999455571e+17
19178.0	6.457038511712937e+17
19179.0	6.455822544535551e+17
19180.0	6.454558982493523e+17
19181.0	6.4529753454237e+17
19182.0	6.452013671208276e+17
19183.0	6.451058749822292e+17
19184.0	6.449865536744105e+17
19185.0	6.448601947439104e+17
19186.0	6.447463727977811e+17
19187.0	6.445734677184511e+17
19188.0	6.445012629848063e+17
19189.0	6.443785265348608e+17
19190.0	6.442546802021716e+17
19191.0	6.441059373197994e+17
19192.0	6.439990651256832e+17
19193.0	6.438557122734761e+17
19194.0	6.437008590591316e+17
19195.0	6.435648785350655e+17
19196.0	6.433814510654803e+17
19197.0	6.431645942240596e+17
19198.0	6.428460399809875e+17
19199.0	6.423135658180607e+17
19200.0	6.422562649844393e+17
19201.0	6.425093894133076e+17
19202.0	6.425794319133354e+17
19203.0	6.425521027372371e+17
19204.0	6.424872200699903e+17
19205.0	6.423961995487914e+17
19206.0	6.422978396946431e+17
19207.0	6.421004856677714e+17
19208.0	6.420195847438335e+17
19209.0	6.419632843915263e+17
19210.0	6.418602171301887e+17
19211.0	6.417558854260052e+17
19212.0	6.416328261544618e+17
19213.0	6.414462468751357e+17
19214.0	6.41358344888866e+17
19215.0	6.412678444613631e+17
19216.0	6.411409800473257e+17
19217.0	6.409663153176576e+17
19218.0	6.407103508556457e+17
19219.0	6.406068092884307e+17
19220.0	6.406263585199444e+17
19221.0	6.404819754767699e+17
19222.0	6.404032691524948e+17
19223.0	6.403041783709695e+17
19224.0	6.401692475413844e+17
19225.0	6.400637036833449e+17
19226.0	6.399568821004969e+17
19227.0	6.398477252689919e+17
19228.0	6.397496514663764e+17
19229.0	6.396320184358227e+17
19230.0	6.395118464532479e+17
19231.0	6.393863808395945e+17
19232.0	6.392735232338602e+17
19233.0	6.391148573272745e+17
19234.0	6.390327871711914e+17
19235.0	6.388927461414227e+17
19236.0	6.388011241570301e+17
19237.0	6.386748293294762e+17
19238.0	6.385112298029055e+17
19239.0	6.384453609848831e+17
19240.0	6.383264463847424e+17
19241.0	6.38194766979618e+17
19242.0	6.380788697617748e+17
19243.0	6.378498586662226e+17
19244.0	6.378529263102633e+17
19245.0	6.377285443649535e+17
19246.0	6.376102022174038e+17
19247.0	6.374851412841812e+17
19248.0	6.37374626337041e+17
19249.0	6.372532049412095e+17
19250.0	6.371164319733076e+17
19251.0	6.369460082442235e+17
19252.0	6.36673592463633e+17
19253.0	6.367643568526676e+17
19254.0	6.366587976155135e+17
19255.0	6.363935838743206e+17
19256.0	6.364090858121898e+17
19257.0	6.36297823859507e+17
19258.0	6.361786051024212e+17
19259.0	6.359936829926057e+17
19260.0	6.358776149966847e+17
19261.0	6.35796309811746e+17
19262.0	6.356333687909034e+17
19263.0	6.354753052562771e+17
19264.0	6.352389422448639e+17
19265.0	6.352003856859135e+17
19266.0	6.350942412734463e+17
19267.0	6.350822239633408e+17
19268.0	6.349631495602176e+17
19269.0	6.34838739722786e+17
19270.0	6.34687995318545e+17
19271.0	6.344970323623936e+17
19272.0	6.344501326337364e+17
19273.0	6.342130423999146e+17
19274.0	6.339618290357582e+17
19275.0	6.341273712241322e+17
19276.0	6.339987165413373e+17
19277.0	6.338816272323924e+17
19278.0	6.337610700729001e+17
19279.0	6.336193142718461e+17
19280.0	6.334924639087274e+17
19281.0	6.333879764560553e+17
19282.0	6.332769796532905e+17
19283.0	6.331507707390633e+17
19284.0	6.330037758328832e+17
19285.0	6.328639355704659e+17
19286.0	6.327222424043519e+17
19287.0	6.325483683009876e+17
19288.0	6.31622235079748e+17
19289.0	6.312001298322769e+17
19290.0	6.321657665465001e+17
19291.0	6.31969552950887e+17
19292.0	6.320590858922665e+17
19293.0	6.31946715734562e+17
19294.0	6.318211299540991e+17
19295.0	6.317116630936233e+17
19296.0	6.315649282342911e+17
19297.0	6.314462243280212e+17
19298.0	6.313264234714452e+17
19299.0	6.31199829729826e+17
19300.0	6.310995005101395e+17
19301.0	6.309782807205204e+17
19302.0	6.308427292737533e+17
19303.0	6.306872955677356e+17
19304.0	6.305988028836521e+17
19305.0	6.304671956205565e+17
19306.0	6.303459182990676e+17
19307.0	6.301978560124244e+17
19308.0	6.300721441232211e+17
19309.0	6.299415181874515e+17
19310.0	6.297938410777258e+17
19311.0	6.296714392633343e+17
19312.0	6.295492727493972e+17
19313.0	6.293511162822655e+17
19314.0	6.259989973478065e+17
19315.0	6.260605347779944e+17
19316.0	6.289507192143872e+17
19317.0	6.289346892136447e+17
19318.0	6.288330545168383e+17
19319.0	6.287277086299476e+17
19320.0	6.285965093328212e+17
19321.0	6.284559504463188e+17
19322.0	6.283404704219135e+17
19323.0	6.282132626341887e+17
19324.0	6.280934995263487e+17
19325.0	6.279705628682921e+17
19326.0	6.278462711005183e+17
19327.0	6.277207889892692e+17
19328.0	6.275601543462912e+17
19329.0	6.274715786848938e+17
19330.0	6.273365907428691e+17
19331.0	6.271841358315519e+17
19332.0	6.270867481471657e+17
19333.0	6.269475919058259e+17
19334.0	6.268255317174954e+17
19335.0	6.266163222806528e+17
19336.0	6.265594472387926e+17
19337.0	6.264274306815315e+17
19338.0	6.261519019584166e+17
19339.0	6.261495411245055e+17
19340.0	6.259526973347156e+17
19341.0	6.25783680934434e+17
19342.0	6.256177821603156e+17
19343.0	6.255438439208276e+17
19344.0	6.252887560683519e+17
19345.0	6.24604304655428e+17
19346.0	6.245931395579901e+17
19347.0	6.248984455326378e+17
19348.0	6.24891350937327e+17
19349.0	6.247581510970025e+17
19350.0	6.246234663332521e+17
19351.0	6.244933118372521e+17
19352.0	6.24304282874675e+17
19353.0	6.242489412703571e+17
19354.0	6.241101531490985e+17
19355.0	6.23893736639693e+17
19356.0	6.238232643633151e+17
19357.0	6.236771574611965e+17
19358.0	6.235280699468458e+17
19359.0	6.233622020008617e+17
19360.0	6.231878397504169e+17
19361.0	6.230831184652969e+17
19362.0	6.229453832541524e+17
19363.0	6.227981506707455e+17
19364.0	6.226488609909418e+17
19365.0	6.224922491049302e+17
19366.0	6.223412519239679e+17
19367.0	6.221841100876457e+17
19368.0	6.220256242565119e+17
19369.0	6.218421972063572e+17
19370.0	6.21686677447202e+17
19371.0	6.215011087155199e+17
19372.0	6.213788339186345e+17
19373.0	6.211998569551188e+17
19374.0	6.210427145595561e+17
19375.0	6.208768658374655e+17
19376.0	6.207054025501353e+17
19377.0	6.205268682255018e+17
19378.0	6.203502053993129e+17
19379.0	6.201719744626687e+17
19380.0	6.199908377821183e+17
19381.0	6.197939523289087e+17
19382.0	6.1954843489949e+17
19383.0	6.193832030197075e+17
19384.0	6.192237890590036e+17
19385.0	6.190370849991337e+17
19386.0	6.188416610511529e+17
19387.0	6.186367311325865e+17
19388.0	6.184220382025044e+17
19389.0	6.181892246208511e+17
19390.0	6.178326102846121e+17
19391.0	6.162817433818446e+17
19392.0	6.17066289832482e+17
19393.0	6.172736476239188e+17
19394.0	6.171039309146793e+17
19395.0	6.168711480213504e+17
19396.0	6.166505579697492e+17
19397.0	6.164091552923648e+17
19398.0	6.161040585435818e+17
19399.0	6.156815724533076e+17
19400.0	6.155087630740137e+17
19401.0	6.153551336876714e+17
19402.0	6.151054775986857e+17
19403.0	6.14817064952354e+17
19404.0	6.145377009576617e+17
19405.0	6.142215480934399e+17
19406.0	6.139084419017385e+17
19407.0	6.135461138748756e+17
19408.0	6.130471173881855e+17
19409.0	6.1284388714141e+17
19410.0	6.125839092198058e+17
19411.0	6.122390656385023e+17
19412.0	6.118685843040938e+17
19413.0	6.114817700702889e+17
19414.0	6.110817913842346e+17
19415.0	6.106573499793408e+17
19416.0	6.101401175676243e+17
19417.0	6.097792676833964e+17
19418.0	6.093080265140906e+17
19419.0	6.088192345593172e+17
19420.0	6.083117295075327e+17
19421.0	6.077739626921983e+17
19422.0	6.071859210616831e+17
19423.0	6.066259475038207e+17
19424.0	6.060175562986838e+17
19425.0	6.05384739004962e+17
19426.0	6.04700595593762e+17
19427.0	6.039658890089812e+17
19428.0	6.031894323920895e+17
19429.0	6.023482555673257e+17
19430.0	6.013736724026708e+17
19431.0	6.003525035928234e+17
19432.0	5.995621636898815e+17
19433.0	5.985664457768959e+17
19434.0	5.974764116683433e+17
19435.0	5.961940450235731e+17
19436.0	5.948102036247892e+17
19437.0	5.932680674454186e+17
19438.0	5.894499156885505e+17
19439.0	5.894873169264637e+17
19440.0	5.885542665289727e+17
19441.0	5.866710282272767e+17
19442.0	5.844881810740566e+17
19443.0	5.820067426074623e+17
19444.0	5.791912649468584e+17
19445.0	5.758775965952682e+17
19446.0	5.7197767289733114e+17
19447.0	5.672130124797266e+17
19448.0	5.611618442412034e+17
19449.0	5.529872508125183e+17
19450.0	5.399946012393463e+17
19451.0	5.303916811343192e+17
19452.0	5.4745161936841376e+17
19453.0	5.5715888501882906e+17
19454.0	5.638551347658748e+17
19455.0	5.6894186355425274e+17
19456.0	5.7296285241180186e+17
19457.0	5.76152562512691e+17
19458.0	5.71082842815427e+17
19459.0	5.801994657376956e+17
19460.0	5.836675711587667e+17
19461.0	5.856562305652052e+17
19462.0	5.873335820178772e+17
19463.0	5.888295823911593e+17
19464.0	5.901846194771284e+17
19465.0	5.91430196133888e+17
19466.0	5.925229108920319e+17
19467.0	5.935629805638996e+17
19468.0	5.944653757721258e+17
19469.0	5.952117725113001e+17
19470.0	5.960412925962921e+17
19471.0	5.967950394337961e+17
19472.0	5.974514905120767e+17
19473.0	5.980472312070143e+17
19474.0	5.985544479703037e+17
19475.0	5.988303690705577e+17
19476.0	5.99527396824405e+17
19477.0	6.000421348835327e+17
19478.0	6.004628537038164e+17
19479.0	6.008106707670356e+17
19480.0	6.011607655470419e+17
19481.0	6.014967290178217e+17
19482.0	6.018064487983785e+17
19483.0	6.020875837680298e+17
19484.0	6.023327548877482e+17
19485.0	6.025571404349439e+17
19486.0	6.027467631711574e+17
19487.0	6.029700098250067e+17
19488.0	6.031257546784768e+17
19489.0	6.030918983264938e+17
19490.0	6.030455477021353e+17
19491.0	6.035166715707391e+17
19492.0	6.037314909590868e+17
19493.0	6.038546450219007e+17
19494.0	6.039525925060605e+17
19495.0	6.040118469066751e+17
19496.0	6.039351311291731e+17
19497.0	6.040045987299327e+17
19498.0	6.032016685050536e+17
19499.0	6.019527041788586e+17
19500.0	6.041074800437929e+17
19501.0	6.043766503418537e+17
19502.0	6.044703273254911e+17
19503.0	6.045253234589695e+17
19504.0	6.045566932877311e+17
19505.0	6.045766418868906e+17
19506.0	6.04594249924608e+17
19507.0	6.045836848223572e+17
19508.0	6.045810000483668e+17
19509.0	6.045088771036499e+17
19510.0	6.04193678303778e+17
19511.0	5.994046103923354e+17
19512.0	6.034004354531325e+17
19513.0	6.034725109323091e+17
19514.0	6.03640145728853e+17
19515.0	6.042630371322538e+17
19516.0	6.044090026164223e+17
19517.0	6.044228700340223e+17
19518.0	6.04422900093201e+17
19519.0	6.043941402400084e+17
19520.0	6.043318885198505e+17
19521.0	6.043372990322004e+17
19522.0	6.0427430526976e+17
19523.0	6.042536421709139e+17
19524.0	6.041919217991679e+17
19525.0	6.041640305863338e+17
19526.0	6.041181540581375e+17
19527.0	6.040549546349908e+17
19528.0	6.03997666873617e+17
19529.0	6.03934667309056e+17
19530.0	6.038838542248618e+17
19531.0	6.038255987676499e+17
19532.0	6.037597044342784e+17
19533.0	6.036949746494121e+17
19534.0	6.03631768445474e+17
19535.0	6.035452390451882e+17
19536.0	6.034603183702015e+17
19537.0	6.033918668395859e+17
19538.0	6.031935072283306e+17
19539.0	6.030961744194218e+17
19540.0	6.031407162501802e+17
19541.0	6.030964264271872e+17
19542.0	6.030204299728212e+17
19543.0	6.029037349284522e+17
19544.0	6.028134011546282e+17
19545.0	6.025098949558271e+17
19546.0	6.023916205462868e+17
19547.0	6.025731777757183e+17
19548.0	6.025387312851625e+17
19549.0	6.023994978686291e+17
19550.0	6.02398165967394e+17
19551.0	6.023167258656768e+17
19552.0	6.022300915378857e+17
19553.0	6.021365891072e+17
19554.0	6.02046664417826e+17
19555.0	6.019597894068905e+17
19556.0	6.018851724591103e+17
19557.0	6.01801063731473e+17
19558.0	6.017125432251732e+17
19559.0	6.016239866478592e+17
19560.0	6.015055012648276e+17
19561.0	6.014251309902506e+17
19562.0	6.01337644519697e+17
19563.0	6.012629624203946e+17
19564.0	6.011694466378409e+17
19565.0	6.010761101617833e+17
19566.0	6.009716735300948e+17
19567.0	6.008893509468159e+17
19568.0	6.007770158814548e+17
19569.0	6.006901245127337e+17
19570.0	6.006077791404031e+17
19571.0	6.005149714262698e+17
19572.0	6.003927734550528e+17
19573.0	6.003159343650132e+17
19574.0	6.001556535814824e+17
19575.0	6.001291783656788e+17
19576.0	6.000291939876864e+17
19577.0	5.999147258391208e+17
19578.0	5.998268996998484e+17
19579.0	5.997192355512319e+17
19580.0	5.996251304689663e+17
19581.0	5.995531556530858e+17
19582.0	5.994594298058068e+17
19583.0	5.993603441273514e+17
19584.0	5.992587606010537e+17
19585.0	5.990741447453353e+17
19586.0	5.989541308181165e+17
19587.0	5.989184186963284e+17
19588.0	5.987128940953599e+17
19589.0	5.986992642151764e+17
19590.0	5.985946764487337e+17
19591.0	5.985510432440319e+17
19592.0	5.98462046474513e+17
19593.0	5.983478476701695e+17
19594.0	5.980839776441682e+17
19595.0	5.981460712390655e+17
19596.0	5.980333563794772e+17
19597.0	5.979386271148714e+17
19598.0	5.976540258325844e+17
19599.0	5.977296839464276e+17
19600.0	5.97645608493602e+17
19601.0	5.97506034499584e+17
19602.0	5.973743193030655e+17
19603.0	5.972140302008319e+17
19604.0	5.971698915125932e+17
19605.0	5.969734638676655e+17
19606.0	5.970284866349737e+17
19607.0	5.969362778674516e+17
19608.0	5.968321212055551e+17
19609.0	5.967126171658921e+17
19610.0	5.966228682877609e+17
19611.0	5.96510116028962e+17
19612.0	5.964351768887295e+17
19613.0	5.963260607419731e+17
19614.0	5.961977249660927e+17
19615.0	5.961123283774121e+17
19616.0	5.959733797541204e+17
19617.0	5.958253299804842e+17
19618.0	5.954902148775933e+17
19619.0	5.95304568201762e+17
19620.0	5.953233999975763e+17
19621.0	5.95394563075823e+17
19622.0	5.95372211559902e+17
19623.0	5.952801971284649e+17
19624.0	5.951671426001578e+17
19625.0	5.950721632851284e+17
19626.0	5.949482640343039e+17
19627.0	5.948270405397162e+17
19628.0	5.946643553015124e+17
19629.0	5.94340266324787e+17
19630.0	5.940642296015529e+17
19631.0	5.936904307823956e+17
19632.0	5.940722195409577e+17
19633.0	5.941035570036735e+17
19634.0	5.94096406274594e+17
19635.0	5.93989856203025e+17
19636.0	5.938919176667135e+17
19637.0	5.935371370102788e+17
19638.0	5.937237639648595e+17
19639.0	5.936153998568106e+17
19640.0	5.933592748228608e+17
19641.0	5.930167359417005e+17
19642.0	5.932916522964308e+17
19643.0	5.931962560675839e+17
19644.0	5.93053627851298e+17
19645.0	5.929338170682025e+17
19646.0	5.92863860761122e+17
19647.0	5.928101733903018e+17
19648.0	5.927074822881279e+17
19649.0	5.92605172867618e+17
19650.0	5.925050111404714e+17
19651.0	5.923968861077501e+17
19652.0	5.922911516884991e+17
19653.0	5.921929310153386e+17
19654.0	5.92081823343138e+17
19655.0	5.91973893415458e+17
19656.0	5.918782425224532e+17
19657.0	5.917696547181908e+17
19658.0	5.91669935280401e+17
19659.0	5.915649999459668e+17
19660.0	5.914636150898687e+17
19661.0	5.913550451813034e+17
19662.0	5.912502710479529e+17
19663.0	5.911341645343402e+17
19664.0	5.910333491249151e+17
19665.0	5.909382217509546e+17
19666.0	5.908296581338452e+17
