# Flux units: erg / (cm m2 s)
# Wavelength units: Angstrom
wave	flux
19000.0	4.9959843565404154e+17
19001.0	4.9950236973465594e+17
19002.0	4.99413165277184e+17
19003.0	4.9932038790184954e+17
19004.0	4.992276421236053e+17
19005.0	4.991349997349546e+17
19006.0	4.99042529522483e+17
19007.0	4.989464101257216e+17
19008.0	4.988551481524224e+17
19009.0	4.9876415293685754e+17
19010.0	4.98653545505314e+17
19011.0	4.985787068186623e+17
19012.0	4.984776390519466e+17
19013.0	4.983945013755904e+17
19014.0	4.983001614123006e+17
19015.0	4.9820831097815046e+17
19016.0	4.9811535240888314e+17
19017.0	4.980237911719935e+17
19018.0	4.979314969804798e+17
19019.0	4.978396330546515e+17
19020.0	4.977461905326079e+17
19021.0	4.976545939237546e+17
19022.0	4.975626863771647e+17
19023.0	4.9746912550584314e+17
19024.0	4.973773457457151e+17
19025.0	4.9728542163162445e+17
19026.0	4.9719199302068896e+17
19027.0	4.970953064841215e+17
19028.0	4.970090084696062e+17
19029.0	4.969160292783445e+17
19030.0	4.9682476534770336e+17
19031.0	4.9673275021721594e+17
19032.0	4.966404256169983e+17
19033.0	4.965451830394879e+17
19034.0	4.964555950129151e+17
19035.0	4.9636285937090554e+17
19036.0	4.9579878105743296e+17
19037.0	4.9617946328869536e+17
19038.0	4.960869272955562e+17
19039.0	4.9599551726332576e+17
19040.0	4.959036311076864e+17
19041.0	4.9581130965319674e+17
19042.0	4.957162885349375e+17
19043.0	4.956275819413503e+17
19044.0	4.9553516387805856e+17
19045.0	4.9544335021397325e+17
19046.0	4.953494481360213e+17
19047.0	4.952596373919061e+17
19048.0	4.951597523490132e+17
19049.0	4.9507339162965325e+17
19050.0	4.9498229819746976e+17
19051.0	4.948175429304318e+17
19052.0	4.947967624609792e+17
19053.0	4.947075358436009e+17
19054.0	4.9461665876759885e+17
19055.0	4.94516050207266e+17
19056.0	4.9443201522947405e+17
19057.0	4.9434098813719885e+17
19058.0	4.9424814735796896e+17
19059.0	4.941576372835668e+17
19060.0	4.9406524312780794e+17
19061.0	4.9397444881940474e+17
19062.0	4.938826011115519e+17
19063.0	4.937910572810239e+17
19064.0	4.936949010442921e+17
19065.0	4.936018320250196e+17
19066.0	4.9351413486059514e+17
19067.0	4.934241896890368e+17
19068.0	4.9333305599153485e+17
19069.0	4.9324156451990176e+17
19070.0	4.931489565245439e+17
19071.0	4.9305806658600954e+17
19072.0	4.9296695015505914e+17
19073.0	4.928753627736746e+17
19074.0	4.9278409688569165e+17
19075.0	4.926926556758014e+17
19076.0	4.9260042181236045e+17
19077.0	4.925094608502784e+17
19078.0	4.9241677791668896e+17
19079.0	4.9232700778741754e+17
19080.0	4.922352896835583e+17
19081.0	4.92142774452224e+17
19082.0	4.9205124446289914e+17
19083.0	4.919584726100649e+17
19084.0	4.9186272909284685e+17
19085.0	4.917787544431274e+17
19086.0	4.916750117590356e+17
19087.0	4.9158394027704314e+17
19088.0	4.915031510614015e+17
19089.0	4.914016098276692e+17
19090.0	4.9132217383430816e+17
19091.0	4.912313935069183e+17
19092.0	4.9113614995073683e+17
19093.0	4.910498494895444e+17
19094.0	4.909585754226687e+17
19095.0	4.9086744815643296e+17
19096.0	4.9077569342231885e+17
19097.0	4.906855544040106e+17
19098.0	4.905943774352725e+17
19099.0	4.9050329882296314e+17
19100.0	4.9041164663958176e+17
19101.0	4.9032135893319674e+17
19102.0	4.902268496598356e+17
19103.0	4.901395074034346e+17
19104.0	4.9004884787199994e+17
19105.0	4.899577479386451e+17
19106.0	4.898646838826324e+17
19107.0	4.8977552171772576e+17
19108.0	4.8968534327295994e+17
19109.0	4.895532690440191e+17
19110.0	4.8950369516694176e+17
19111.0	4.894128094926164e+17
19112.0	4.8932219714710176e+17
19113.0	4.892238278557695e+17
19114.0	4.891309768004949e+17
19115.0	4.8903785500289696e+17
19116.0	4.8894898210515616e+17
19117.0	4.8885847762315936e+17
19118.0	4.8876369991434234e+17
19119.0	4.885110894275239e+17
19120.0	4.885829058385237e+17
19121.0	4.8849423084202656e+17
19122.0	4.8840600379719674e+17
19123.0	4.883153551709525e+17
19124.0	4.8822264315685536e+17
19125.0	4.881342473611947e+17
19126.0	4.8804324040157856e+17
19127.0	4.878920414046889e+17
19128.0	4.878391860439722e+17
19129.0	4.8776944483478176e+17
19130.0	4.8768159954152083e+17
19131.0	4.8759080998666234e+17
19132.0	4.87501095641634e+17
19133.0	4.873986311017813e+17
19134.0	4.873086559409493e+17
19135.0	4.872298627945812e+17
19136.0	4.871398599513429e+17
19137.0	4.8704380647505914e+17
19138.0	4.869572732299947e+17
19139.0	4.8686898781443405e+17
19140.0	4.867787600166911e+17
19141.0	4.866885328480938e+17
19142.0	4.865974438199296e+17
19143.0	4.865058887346858e+17
19144.0	4.8641683240605005e+17
19145.0	4.863275739818666e+17
19146.0	4.862163606831104e+17
19147.0	4.8614419216029005e+17
19148.0	4.860571441343146e+17
19149.0	4.8596691598704634e+17
19150.0	4.858769137030483e+17
19151.0	4.857870242458281e+17
19152.0	4.856964985825962e+17
19153.0	4.8560631118998176e+17
19154.0	4.8551272627131725e+17
19155.0	4.854270694260734e+17
19156.0	4.853371450862249e+17
19157.0	4.852469788049407e+17
19158.0	4.8513173156440736e+17
19159.0	4.850666798667093e+17
19160.0	4.8497652309251405e+17
19161.0	4.848855592643242e+17
19162.0	4.8473910332620794e+17
19163.0	4.8470787225900365e+17
19164.0	4.8461819111888205e+17
19165.0	4.845268869928276e+17
19166.0	4.844331747071317e+17
19167.0	4.8434331279250765e+17
19168.0	4.842566144316756e+17
19169.0	4.8416703374513485e+17
19170.0	4.8407959103515296e+17
19171.0	4.839861863317504e+17
19172.0	4.838999900291072e+17
19173.0	4.8381042122642765e+17
19174.0	4.837188028770987e+17
19175.0	4.836312548201813e+17
19176.0	4.835415218804053e+17
19177.0	4.8344692522571085e+17
19178.0	4.8336202566205434e+17
19179.0	4.832673954529279e+17
19180.0	4.831802269106175e+17
19181.0	4.8308937164499616e+17
19182.0	4.8300317240634016e+17
19183.0	4.829145494891178e+17
19184.0	4.828229099585536e+17
19185.0	4.8273544921306445e+17
19186.0	4.8264641895901856e+17
19187.0	4.825545393744555e+17
19188.0	4.824672663240704e+17
19189.0	4.823772999013716e+17
19190.0	4.822876782504617e+17
19191.0	4.821977822920704e+17
19192.0	4.8211013049603405e+17
19193.0	4.8201951332706976e+17
19194.0	4.819304948170751e+17
19195.0	4.817968390559059e+17
19196.0	4.816215626569044e+17
19197.0	4.8153263886827514e+17
19198.0	4.814436408404651e+17
19199.0	4.8104102757225786e+17
19200.0	4.810767099144874e+17
19201.0	4.811761729404927e+17
19202.0	4.81087157576226e+17
19203.0	4.8099719380991994e+17
19204.0	4.8090785101032096e+17
19205.0	4.808194794018134e+17
19206.0	4.807301133238272e+17
19207.0	4.8063873083419296e+17
19208.0	4.8054413592712525e+17
19209.0	4.80463079604224e+17
19210.0	4.803741300206249e+17
19211.0	4.802855907098624e+17
19212.0	4.801965304665428e+17
19213.0	4.80101879845137e+17
19214.0	4.800113652968106e+17
19215.0	4.7992862195493536e+17
19216.0	4.798404451019434e+17
19217.0	4.7975169985085434e+17
19218.0	4.7963445933725e+17
19219.0	4.795689750669993e+17
19220.0	4.794841756073983e+17
19221.0	4.7938454753553056e+17
19222.0	4.793075131307349e+17
19223.0	4.792177625748821e+17
19224.0	4.7912775630629536e+17
19225.0	4.790356459651071e+17
19226.0	4.7895127530318496e+17
19227.0	4.7886255766459725e+17
19228.0	4.7877472858931194e+17
19229.0	4.786859502731263e+17
19230.0	4.7859605962752e+17
19231.0	4.785073775706111e+17
19232.0	4.7841901008650234e+17
19233.0	4.78328485122321e+17
19234.0	4.78241379983906e+17
19235.0	4.781523923020458e+17
19236.0	4.780649086276949e+17
19237.0	4.7797556855439354e+17
19238.0	4.7788398844313594e+17
19239.0	4.777990258950143e+17
19240.0	4.7770555604008954e+17
19241.0	4.776198366298111e+17
19242.0	4.77532528906513e+17
19243.0	4.7743869925021005e+17
19244.0	4.7735586747842554e+17
19245.0	4.7726714669410976e+17
19246.0	4.771781759292757e+17
19247.0	4.7708990980751354e+17
19248.0	4.770016006242304e+17
19249.0	4.7691291269529594e+17
19250.0	4.7682386692232525e+17
19251.0	4.767333090328575e+17
19252.0	4.766364653497002e+17
19253.0	4.765581511229439e+17
19254.0	4.76469808594944e+17
19255.0	4.763749537808383e+17
19256.0	4.76292493274863e+17
19257.0	4.7620491068484256e+17
19258.0	4.761165074792447e+17
19259.0	4.7602542509206176e+17
19260.0	4.7593123046140576e+17
19261.0	4.758506981468842e+17
19262.0	4.757606407077887e+17
19263.0	4.7567239919261005e+17
19264.0	4.7556723449965216e+17
19265.0	4.754900985227946e+17
19266.0	4.7540139493512525e+17
19267.0	4.7532045521387514e+17
19268.0	4.7523200286501536e+17
19269.0	4.751439596705108e+17
19270.0	4.7505562602045434e+17
19271.0	4.749553109914966e+17
19272.0	4.748775594306219e+17
19273.0	4.746529197785084e+17
19274.0	4.7463285912152736e+17
19275.0	4.7461346556859725e+17
19276.0	4.745243314356224e+17
19277.0	4.7443605322028384e+17
19278.0	4.743476907693396e+17
19279.0	4.742574977144148e+17
19280.0	4.741674855738026e+17
19281.0	4.7408184886121805e+17
19282.0	4.7399397826232314e+17
19283.0	4.7390015433823565e+17
19284.0	4.7380894765984416e+17
19285.0	4.7372165028249594e+17
19286.0	4.736389052628992e+17
19287.0	4.7355157621855565e+17
19288.0	4.733655860292266e+17
19289.0	4.730362689224696e+17
19290.0	4.7328606279434234e+17
19291.0	4.731887375351808e+17
19292.0	4.7310899158275405e+17
19293.0	4.730201444100778e+17
19294.0	4.729314713010175e+17
19295.0	4.728432701909674e+17
19296.0	4.727543933086377e+17
19297.0	4.726650531654315e+17
19298.0	4.725762826786132e+17
19299.0	4.724886931679915e+17
19300.0	4.723999294619647e+17
19301.0	4.7231104502988794e+17
19302.0	4.7222235961753594e+17
19303.0	4.7213056433848314e+17
19304.0	4.720433377749674e+17
19305.0	4.719555248477524e+17
19306.0	4.7186683573043194e+17
19307.0	4.717762215673854e+17
19308.0	4.716884123451391e+17
19309.0	4.715884499173375e+17
19310.0	4.714940023002453e+17
19311.0	4.713992723365887e+17
19312.0	4.7126263938853536e+17
19313.0	4.711729744663893e+17
19314.0	4.70649546158898e+17
19315.0	4.7060925385714445e+17
19316.0	4.7090587657393485e+17
19317.0	4.7081703918796794e+17
19318.0	4.707276236171946e+17
19319.0	4.7063882586740045e+17
19320.0	4.705491727592106e+17
19321.0	4.7046001269145594e+17
19322.0	4.7036682140822176e+17
19323.0	4.702748883462826e+17
19324.0	4.70190874759441e+17
19325.0	4.700902836054698e+17
19326.0	4.7001169283426976e+17
19327.0	4.699212575582889e+17
19328.0	4.698318279365972e+17
19329.0	4.69741869343266e+17
19330.0	4.6965025064441165e+17
19331.0	4.695599702780587e+17
19332.0	4.6947119713484794e+17
19333.0	4.693801395639636e+17
19334.0	4.6928990358732794e+17
19335.0	4.6919951836337485e+17
19336.0	4.6910865394018976e+17
19337.0	4.69017841176849e+17
19338.0	4.689198091075583e+17
19339.0	4.6883573148767565e+17
19340.0	4.6874059901064525e+17
19341.0	4.686529216992597e+17
19342.0	4.6854754421527885e+17
19343.0	4.6847006829008205e+17
19344.0	4.683779149572778e+17
19345.0	4.682052691558397e+17
19346.0	4.6817627602944e+17
19347.0	4.6809936647509325e+17
19348.0	4.680092450728619e+17
19349.0	4.6791522247857485e+17
19350.0	4.678225016564394e+17
19351.0	4.677289161785344e+17
19352.0	4.676345658692949e+17
19353.0	4.675435662497109e+17
19354.0	4.674496960484692e+17
19355.0	4.673522224507562e+17
19356.0	4.6726106980898125e+17
19357.0	4.671663639625727e+17
19358.0	4.6707039884629325e+17
19359.0	4.669687997311658e+17
19360.0	4.668790000320511e+17
19361.0	4.6678287567202976e+17
19362.0	4.6668823274018125e+17
19363.0	4.6659142072401914e+17
19364.0	4.6649397571747834e+17
19365.0	4.6639675937041056e+17
19366.0	4.662987588982102e+17
19367.0	4.662003323546281e+17
19368.0	4.661014331129855e+17
19369.0	4.659988112168276e+17
19370.0	4.658860625231872e+17
19371.0	4.6579944825815034e+17
19372.0	4.6570021647810554e+17
19373.0	4.655975262147924e+17
19374.0	4.6549572164867405e+17
19375.0	4.653926772462932e+17
19376.0	4.652888687116287e+17
19377.0	4.6518377755880096e+17
19378.0	4.650301193016661e+17
19379.0	4.6488498093424634e+17
19380.0	4.647776058430804e+17
19381.0	4.6466895757093536e+17
19382.0	4.645567393169408e+17
19383.0	4.6444540249593165e+17
19384.0	4.643373437332138e+17
19385.0	4.6422431527949645e+17
19386.0	4.6411017379730765e+17
19387.0	4.639944923764053e+17
19388.0	4.638773272204628e+17
19389.0	4.637585816507732e+17
19390.0	4.63638019318306e+17
19391.0	4.6308384969850797e+17
19392.0	4.633914082940244e+17
19393.0	4.632658878048937e+17
19394.0	4.631372503886506e+17
19395.0	4.6300601509041485e+17
19396.0	4.6287329710571514e+17
19397.0	4.627387796946943e+17
19398.0	4.625994637901822e+17
19399.0	4.624323597828095e+17
19400.0	4.623130688836949e+17
19401.0	4.6216671270010874e+17
19402.0	4.619352406665898e+17
19403.0	4.6174513796218874e+17
19404.0	4.615856059318271e+17
19405.0	4.6142018321121274e+17
19406.0	4.612508317559466e+17
19407.0	4.610764794320213e+17
19408.0	4.608685133266943e+17
19409.0	4.607079782285311e+17
19410.0	4.604562176475137e+17
19411.0	4.601732954849279e+17
19412.0	4.599640163527338e+17
19413.0	4.597468437501268e+17
19414.0	4.595192369774591e+17
19415.0	4.5913943953462624e+17
19416.0	4.588554095864491e+17
19417.0	4.5859656223948794e+17
19418.0	4.581656210614955e+17
19419.0	4.578340669227007e+17
19420.0	4.573836552262997e+17
19421.0	4.569651642804906e+17
19422.0	4.563492812794539e+17
19423.0	4.5577692487789203e+17
19424.0	4.550834456450389e+17
19425.0	4.5426853075572026e+17
19426.0	4.533056485807447e+17
19427.0	4.521198779454805e+17
19428.0	4.513209943151957e+17
19429.0	4.506608702149973e+17
19430.0	4.499431949511338e+17
19431.0	4.4910260442016435e+17
19432.0	4.4836181630429856e+17
19433.0	4.4741670197002234e+17
19434.0	4.464584795269802e+17
19435.0	4.4542258318759245e+17
19436.0	4.4420257647602336e+17
19437.0	4.429910488995155e+17
19438.0	4.4077925489704915e+17
19439.0	4.398309152129023e+17
19440.0	4.376462619923801e+17
19441.0	4.344653304998567e+17
19442.0	4.295512893860523e+17
19443.0	4.2573198587330554e+17
19444.0	4.2222505063437626e+17
19445.0	4.182384833811798e+17
19446.0	4.132474707771392e+17
19447.0	4.0428873194318464e+17
19448.0	3.938593013760006e+17
19449.0	3.777834835247101e+17
19450.0	3.358768744103927e+17
19451.0	3.242668835471353e+17
19452.0	3.5883501381222586e+17
19453.0	3.879140667162633e+17
19454.0	3.98494426586589e+17
19455.0	4.091686972730021e+17
19456.0	4.153012726180523e+17
19457.0	4.1948360817158803e+17
19458.0	4.2202634478332755e+17
19459.0	4.2619399628827296e+17
19460.0	4.308958187618312e+17
19461.0	4.347295117432149e+17
19462.0	4.371454316161705e+17
19463.0	4.3888602177863686e+17
19464.0	4.4025252832870374e+17
19465.0	4.414173100376063e+17
19466.0	4.4249787166010016e+17
19467.0	4.4342346346659834e+17
19468.0	4.442481937962325e+17
19469.0	4.45007445168401e+17
19470.0	4.457454244287829e+17
19471.0	4.4637047729684474e+17
19472.0	4.469373921482068e+17
19473.0	4.474507065906516e+17
19474.0	4.47964866814498e+17
19475.0	4.487758468874239e+17
19476.0	4.496902773713582e+17
19477.0	4.504337587197268e+17
19478.0	4.510180309991423e+17
19479.0	4.5150041461664416e+17
19480.0	4.518848400545108e+17
19481.0	4.5218651725714765e+17
19482.0	4.525152670842879e+17
19483.0	4.526943255571114e+17
19484.0	4.5291329157420365e+17
19485.0	4.5309991202761376e+17
19486.0	4.5318503346995194e+17
19487.0	4.533291942849196e+17
19488.0	4.5348933882347514e+17
19489.0	4.5354085193700685e+17
19490.0	4.535314450918057e+17
19491.0	4.536189051382442e+17
19492.0	4.537370075114155e+17
19493.0	4.538059606108843e+17
19494.0	4.538195307222357e+17
19495.0	4.538268662104063e+17
19496.0	4.538154578433366e+17
19497.0	4.5382667557928954e+17
19498.0	4.538083347966635e+17
19499.0	4.530801844682741e+17
19500.0	4.5379394525812045e+17
19501.0	4.538448938183338e+17
19502.0	4.5386005657681914e+17
19503.0	4.538339538851158e+17
19504.0	4.538040230521513e+17
19505.0	4.5377225651213645e+17
19506.0	4.5373755458846714e+17
19507.0	4.536992073951914e+17
19508.0	4.5366029907394554e+17
19509.0	4.5361830010989216e+17
19510.0	4.5356737210176845e+17
19511.0	4.5266408329707424e+17
19512.0	4.5340439500991085e+17
19513.0	4.532266868233552e+17
19514.0	4.532528761973416e+17
19515.0	4.533052759168341e+17
19516.0	4.532739239837696e+17
19517.0	4.5321630906668365e+17
19518.0	4.5316253850883405e+17
19519.0	4.531045648389459e+17
19520.0	4.530450106155008e+17
19521.0	4.5298638109627725e+17
19522.0	4.529242392668842e+17
19523.0	4.5286392237916154e+17
19524.0	4.5280126444066125e+17
19525.0	4.527367136127658e+17
19526.0	4.526735449478486e+17
19527.0	4.526084517265407e+17
19528.0	4.525426463124137e+17
19529.0	4.5247625124904954e+17
19530.0	4.5240977195007994e+17
19531.0	4.523421929046015e+17
19532.0	4.522740397987157e+17
19533.0	4.5226920376620365e+17
19534.0	4.5221732043543885e+17
19535.0	4.5214677133339296e+17
19536.0	4.520758702593364e+17
19537.0	4.5200658000773114e+17
19538.0	4.5193447062459725e+17
19539.0	4.5184198062899194e+17
19540.0	4.5179097963997856e+17
19541.0	4.517196273287168e+17
19542.0	4.5164678869592736e+17
19543.0	4.5157390329664845e+17
19544.0	4.515007478540969e+17
19545.0	4.514155772684969e+17
19546.0	4.51317378126097e+17
19547.0	4.5127932341562016e+17
19548.0	4.512051126861823e+17
19549.0	4.511269289022804e+17
19550.0	4.5105563153640096e+17
19551.0	4.509806621971797e+17
19552.0	4.509053438918656e+17
19553.0	4.5082925222679885e+17
19554.0	4.507525639219882e+17
19555.0	4.506778729447423e+17
19556.0	4.506023617713493e+17
19557.0	4.505259976163327e+17
19558.0	4.5044962213669536e+17
19559.0	4.5037276585000954e+17
19560.0	4.5029564406388045e+17
19561.0	4.502187816954538e+17
19562.0	4.5014258111829325e+17
19563.0	4.500657298647723e+17
19564.0	4.499885764116478e+17
19565.0	4.499111541735423e+17
19566.0	4.498327352989013e+17
19567.0	4.497562317531819e+17
19568.0	4.4967774332299936e+17
19569.0	4.496001038199466e+17
19570.0	4.4952306053720736e+17
19571.0	4.494450496984405e+17
19572.0	4.493658147520511e+17
19573.0	4.492885100243625e+17
19574.0	4.4920737603693216e+17
19575.0	4.4913243549859834e+17
19576.0	4.490540623418708e+17
19577.0	4.489730529951743e+17
19578.0	4.488957461703338e+17
19579.0	4.4881775965853e+17
19580.0	4.4873937496746656e+17
19581.0	4.4866088199345485e+17
19582.0	4.4858284473057274e+17
19583.0	4.485040787073706e+17
19584.0	4.4842509458036045e+17
19585.0	4.483424572145664e+17
19586.0	4.482624610719061e+17
19587.0	4.481859888436564e+17
19588.0	4.4809268403459405e+17
19589.0	4.480293411662506e+17
19590.0	4.479477390245888e+17
19591.0	4.47871964029474e+17
19592.0	4.4779299164651514e+17
19593.0	4.4771317788617376e+17
19594.0	4.4762534985946445e+17
19595.0	4.4755468855978656e+17
19596.0	4.474256818350762e+17
19597.0	4.4739617616472736e+17
19598.0	4.4730440465339725e+17
19599.0	4.4723786174081696e+17
19600.0	4.471587942170623e+17
19601.0	4.4707704870010874e+17
19602.0	4.469985409062228e+17
19603.0	4.469005392456361e+17
19604.0	4.4683951736531616e+17
19605.0	4.467508483806549e+17
19606.0	4.4668164222484474e+17
19607.0	4.466025357639679e+17
19608.0	4.465224091085483e+17
19609.0	4.464415052485973e+17
19610.0	4.463638556792149e+17
19611.0	4.46283847373073e+17
19612.0	4.462047316148224e+17
19613.0	4.4612465270456314e+17
19614.0	4.4604412961751034e+17
19615.0	4.4596589473300474e+17
19616.0	4.4588254699192314e+17
19617.0	4.4580638367416314e+17
19618.0	4.4570886652559354e+17
19619.0	4.4562134146744314e+17
19620.0	4.455442866503679e+17
19621.0	4.4548780363612154e+17
19622.0	4.454084046225407e+17
19623.0	4.453287375929343e+17
19624.0	4.452487427784702e+17
19625.0	4.451693190184959e+17
19626.0	4.450894701658111e+17
19627.0	4.4501003403263994e+17
19628.0	4.4492196958699514e+17
19629.0	4.448475487928319e+17
19630.0	4.447681426489343e+17
19631.0	4.4430306214324864e+17
19632.0	4.4461147295143245e+17
19633.0	4.4453025598668794e+17
19634.0	4.444522954096639e+17
19635.0	4.443713316410708e+17
19636.0	4.442926374103721e+17
19637.0	4.4420085038011725e+17
19638.0	4.4413325763324576e+17
19639.0	4.440535580278783e+17
19640.0	4.4397227961658016e+17
19641.0	4.4386268944356704e+17
19642.0	4.438146758475776e+17
19643.0	4.4373457953095674e+17
19644.0	4.4365357724467194e+17
19645.0	4.4356644141793274e+17
19646.0	4.4349639381483514e+17
19647.0	4.4341684401602554e+17
19648.0	4.433370809368575e+17
19649.0	4.4325735322965325e+17
19650.0	4.431779686165162e+17
19651.0	4.4309817359073274e+17
19652.0	4.4301855878021126e+17
19653.0	4.429390060453887e+17
19654.0	4.428593664884734e+17
19655.0	4.4277959858585594e+17
