# Flux units: erg / (cm m2 s)
# Wavelength units: Angstrom
wave	flux
19000.0	6.797282986251604e+17
19001.0	6.795640402433363e+17
19002.0	6.794755711871657e+17
19003.0	6.793464742150143e+17
19004.0	6.792185380164948e+17
19005.0	6.790916032779603e+17
19006.0	6.789645177541972e+17
19007.0	6.787977598468095e+17
19008.0	6.786862400143359e+17
19009.0	6.785439555911679e+17
19010.0	6.782858142154748e+17
19011.0	6.783123896052393e+17
19012.0	6.781075052647762e+17
19013.0	6.780723504960852e+17
19014.0	6.779224086719145e+17
19015.0	6.778045933289471e+17
19016.0	6.776727560082771e+17
19017.0	6.775474908823551e+17
19018.0	6.774282265471657e+17
19019.0	6.773049655295997e+17
19020.0	6.771679594283008e+17
19021.0	6.770496339181565e+17
19022.0	6.769268521697279e+17
19023.0	6.767854124793855e+17
19024.0	6.76665889076019e+17
19025.0	6.765384683574612e+17
19026.0	6.764034316217002e+17
19027.0	6.762268647751679e+17
19028.0	6.761644719166803e+17
19029.0	6.760305340885674e+17
19030.0	6.759142448431103e+17
19031.0	6.757895837668692e+17
19032.0	6.756614301635923e+17
19033.0	6.754986353841492e+17
19034.0	6.754008895062015e+17
19035.0	6.752636330049535e+17
19036.0	6.704309181874176e+17
19037.0	6.750205879779327e+17
19038.0	6.748900243275773e+17
19039.0	6.747707821522943e+17
19040.0	6.746457859511635e+17
19041.0	6.745152494938793e+17
19042.0	6.743559470317567e+17
19043.0	6.742639834213033e+17
19044.0	6.741331254706175e+17
19045.0	6.740087804351828e+17
19046.0	6.738593724760063e+17
19047.0	6.737483967146666e+17
19048.0	6.735502645744979e+17
19049.0	6.734743163546281e+17
19050.0	6.73356695277841e+17
19051.0	6.725443550620321e+17
19052.0	6.729741147744936e+17
19053.0	6.729852423329108e+17
19054.0	6.728656122544128e+17
19055.0	6.726413705718444e+17
19056.0	6.726046003669674e+17
19057.0	6.724842901121705e+17
19058.0	6.723461208604671e+17
19059.0	6.722329536451923e+17
19060.0	6.720982472108714e+17
19061.0	6.719813476941823e+17
19062.0	6.718523727762772e+17
19063.0	6.717267797256874e+17
19064.0	6.71548515164706e+17
19065.0	6.714040951417514e+17
19066.0	6.713247726043135e+17
19067.0	6.712144761804116e+17
19068.0	6.710927750245033e+17
19069.0	6.709671471611903e+17
19070.0	6.708293138732372e+17
19071.0	6.707099135726932e+17
19072.0	6.7058675496605e+17
19073.0	6.704582840636755e+17
19074.0	6.703353597788159e+17
19075.0	6.702088317479594e+17
19076.0	6.700742946936148e+17
19077.0	6.699502506693972e+17
19078.0	6.6981113378461e+17
19079.0	6.697007150967465e+17
19080.0	6.695688518412969e+17
19081.0	6.694334991346344e+17
19082.0	6.693045149892608e+17
19083.0	6.691515415920639e+17
19084.0	6.689765990596608e+17
19085.0	6.689379248504832e+17
19086.0	6.68665031758097e+17
19087.0	6.685404595311958e+17
19088.0	6.68526776033826e+17
19089.0	6.682918595679572e+17
19090.0	6.68298555354863e+17
19091.0	6.68172839620881e+17
19092.0	6.680029974320468e+17
19093.0	6.679309762691072e+17
19094.0	6.678052236252499e+17
19095.0	6.676796127488681e+17
19096.0	6.675461392302079e+17
19097.0	6.674264268734463e+17
19098.0	6.672998009055913e+17
19099.0	6.671728519763284e+17
19100.0	6.67040263246097e+17
19101.0	6.669192671526911e+17
19102.0	6.667596868179284e+17
19103.0	6.666684328138067e+17
19104.0	6.665451501955753e+17
19105.0	6.664168870510591e+17
19106.0	6.662649328697343e+17
19107.0	6.661586904503636e+17
19108.0	6.66039923839249e+17
19109.0	6.654785170877093e+17
19110.0	6.657737261842431e+17
19111.0	6.656608966104403e+17
19112.0	6.655363124297728e+17
19113.0	6.654100654871892e+17
19114.0	6.652825095023273e+17
19115.0	6.65131435635507e+17
19116.0	6.650239328277843e+17
19117.0	6.648960496872105e+17
19118.0	6.647259583567188e+17
19119.0	6.6332797879801e+17
19120.0	6.644841827358035e+17
19121.0	6.643735184015359e+17
19122.0	6.642779696398335e+17
19123.0	6.641501104766975e+17
19124.0	6.640021085181268e+17
19125.0	6.638941110621524e+17
19126.0	6.637695414916436e+17
19127.0	6.629817784292692e+17
19128.0	6.632625781342204e+17
19129.0	6.633654649006761e+17
19130.0	6.63262517666338e+17
19131.0	6.631357724404394e+17
19132.0	6.630182012059647e+17
19133.0	6.627486688695639e+17
19134.0	6.626530356625409e+17
19135.0	6.626396840045225e+17
19136.0	6.625180936481449e+17
19137.0	6.623301781334697e+17
19138.0	6.622458537487017e+17
19139.0	6.621401256209065e+17
19140.0	6.620159294832639e+17
19141.0	6.61890294489634e+17
19142.0	6.617538713965908e+17
19143.0	6.616169690344105e+17
19144.0	6.614970326319104e+17
19145.0	6.613844273135615e+17
19146.0	6.610312904747693e+17
19147.0	6.610955223258452e+17
19148.0	6.61007989018897e+17
19149.0	6.608817602516308e+17
19150.0	6.607564112396287e+17
19151.0	6.606332101307049e+17
19152.0	6.605019010826239e+17
19153.0	6.603771471025494e+17
19154.0	6.60209762705954e+17
19155.0	6.601328009325225e+17
19156.0	6.600075614617599e+17
19157.0	6.598748755634858e+17
19158.0	6.594525574550865e+17
19159.0	6.596241504862207e+17
19160.0	6.594947803949738e+17
19161.0	6.593577635981994e+17
19162.0	6.58580572698488e+17
19163.0	6.591084824799914e+17
19164.0	6.590061995535017e+17
19165.0	6.588649351850665e+17
19166.0	6.586984031409491e+17
19167.0	6.585661042371242e+17
19168.0	6.584785663164413e+17
19169.0	6.583531235617449e+17
19170.0	6.582544717141331e+17
19171.0	6.580882555011071e+17
19172.0	6.57999579386129e+17
19173.0	6.578778213974015e+17
19174.0	6.577317809050964e+17
19175.0	6.576295782296233e+17
19176.0	6.575029867249663e+17
19177.0	6.573206069925204e+17
19178.0	6.572376289094314e+17
19179.0	6.570736830032556e+17
19180.0	6.569735869868716e+17
19181.0	6.568390323863551e+17
19182.0	6.567366785761279e+17
19183.0	6.566248045346815e+17
19184.0	6.564780676481023e+17
19185.0	6.563724813576873e+17
19186.0	6.562532071658836e+17
19187.0	6.560969915716948e+17
19188.0	6.559991567745023e+17
19189.0	6.558674217249449e+17
19190.0	6.557396909075113e+17
19191.0	6.556097765354153e+17
19192.0	6.555013158185641e+17
19193.0	6.553623911727103e+17
19194.0	6.552394013868031e+17
19195.0	6.55124719468544e+17
19196.0	6.549953072944467e+17
19197.0	6.548716998972756e+17
19198.0	6.547414684357971e+17
19199.0	6.507956079514953e+17
19200.0	6.518049969187512e+17
19201.0	6.543684092821504e+17
19202.0	6.542513292705791e+17
19203.0	6.541184839188479e+17
19204.0	6.539922987024383e+17
19205.0	6.538734061223935e+17
19206.0	6.537451733166762e+17
19207.0	6.535851854353747e+17
19208.0	6.534275024639316e+17
19209.0	6.53371080057378e+17
19210.0	6.532491449292115e+17
19211.0	6.531291841298431e+17
19212.0	6.530035831799808e+17
19213.0	6.528168361983999e+17
19214.0	6.526627550156116e+17
19215.0	6.526134505526612e+17
19216.0	6.525010587243859e+17
19217.0	6.523766417566377e+17
19218.0	6.51935568468377e+17
19219.0	6.520683980215635e+17
19220.0	6.519923854890323e+17
19221.0	6.517513967195476e+17
19222.0	6.5174977918621e+17
19223.0	6.516195505209343e+17
19224.0	6.514803741469353e+17
19225.0	6.513182280865107e+17
19226.0	6.512435382976511e+17
19227.0	6.511181417502036e+17
19228.0	6.510028891269802e+17
19229.0	6.508773310289236e+17
19230.0	6.507392568481108e+17
19231.0	6.506155651454291e+17
19232.0	6.504939575924052e+17
19233.0	6.503489713384105e+17
19234.0	6.502416681795583e+17
19235.0	6.50112183234287e+17
19236.0	6.500014002711209e+17
19237.0	6.498688027328511e+17
19238.0	6.497107115158185e+17
19239.0	6.496251563824467e+17
19240.0	6.494531883106301e+17
19241.0	6.493503026626559e+17
19242.0	6.492403191338323e+17
19243.0	6.490560060369576e+17
19244.0	6.489985497344682e+17
19245.0	6.48871273439778e+17
19246.0	6.487404288409597e+17
19247.0	6.486176633804115e+17
19248.0	6.484957990660778e+17
19249.0	6.483680595804159e+17
19250.0	6.482373088641021e+17
19251.0	6.480640109182973e+17
19252.0	6.478860541493247e+17
19253.0	6.47858271429154e+17
19254.0	6.477344916460883e+17
19255.0	6.475468928013651e+17
19256.0	6.474649667895295e+17
19257.0	6.473619013457236e+17
19258.0	6.472370588658346e+17
19259.0	6.470846411440127e+17
19260.0	6.468976686486867e+17
19261.0	6.468528876726953e+17
19262.0	6.467096793841664e+17
19263.0	6.465812548288511e+17
19264.0	6.462750519721979e+17
19265.0	6.46279446274594e+17
19266.0	6.461626929293996e+17
19267.0	6.461005341130751e+17
19268.0	6.459709566134953e+17
19269.0	6.45844055499298e+17
19270.0	6.457184374226943e+17
19271.0	6.454629065119063e+17
19272.0	6.454507916842323e+17
19273.0	6.440243502077257e+17
19274.0	6.444407797929292e+17
19275.0	6.450841721154217e+17
19276.0	6.449492714848255e+17
19277.0	6.448222027382783e+17
19278.0	6.446961095868415e+17
19279.0	6.445521109516287e+17
19280.0	6.444087438387881e+17
19281.0	6.443110126409044e+17
19282.0	6.441894861078527e+17
19283.0	6.439965969874943e+17
19284.0	6.438379947644243e+17
19285.0	6.437244043438761e+17
19286.0	6.436625954024104e+17
19287.0	6.435484255387647e+17
19288.0	6.420031318873412e+17
19289.0	6.403376310211885e+17
19290.0	6.431626224817491e+17
19291.0	6.429316079768918e+17
19292.0	6.429035328438272e+17
19293.0	6.427719420783274e+17
19294.0	6.426421693338964e+17
19295.0	6.42518416953617e+17
19296.0	6.423856659737257e+17
19297.0	6.422454650710697e+17
19298.0	6.421161985092266e+17
19299.0	6.419967894006442e+17
19300.0	6.418657559882409e+17
19301.0	6.417330384229716e+17
19302.0	6.415961356413609e+17
19303.0	6.414412340527103e+17
19304.0	6.413231648145408e+17
19305.0	6.412015290897748e+17
19306.0	6.410709534157481e+17
19307.0	6.409207295945385e+17
19308.0	6.407957095557801e+17
19309.0	6.405329749977769e+17
19310.0	6.40351201412164e+17
19311.0	6.403831370525353e+17
19312.0	6.402740192979626e+17
19313.0	6.401354396336127e+17
19314.0	6.369855682205038e+17
19315.0	6.369821938330305e+17
19316.0	6.39707342053922e+17
19317.0	6.395374311484073e+17
19318.0	6.394002922274815e+17
19319.0	6.392701416461652e+17
19320.0	6.39132695142946e+17
19321.0	6.389983373251923e+17
19322.0	6.38814501540113e+17
19323.0	6.386595710806698e+17
19324.0	6.385824720136873e+17
19325.0	6.383211396115116e+17
19326.0	6.383085806769491e+17
19327.0	6.381669212749823e+17
19328.0	6.380333944886611e+17
19329.0	6.378949237364052e+17
19330.0	6.377394090104148e+17
19331.0	6.375968180535295e+17
19332.0	6.374692938055679e+17
19333.0	6.373222754811903e+17
19334.0	6.371844316375721e+17
19335.0	6.3704321767069e+17
19336.0	6.368986128187391e+17
19337.0	6.367555648924329e+17
19338.0	6.365311636165971e+17
19339.0	6.364652304859135e+17
19340.0	6.362935296611667e+17
19341.0	6.361630998091091e+17
19342.0	6.35869985068373e+17
19343.0	6.358757616036521e+17
19344.0	6.357231817719807e+17
19345.0	6.348729587422537e+17
19346.0	6.350814565455183e+17
19347.0	6.352489643245567e+17
19348.0	6.351234148248234e+17
19349.0	6.349551866041683e+17
19350.0	6.348032111017983e+17
19351.0	6.346454870960809e+17
19352.0	6.344738150722217e+17
19353.0	6.343467682758655e+17
19354.0	6.341882572789076e+17
19355.0	6.33990327304192e+17
19356.0	6.338668189625002e+17
19357.0	6.337031904253267e+17
19358.0	6.335236636584618e+17
19359.0	6.332380604268544e+17
19360.0	6.330939350537556e+17
19361.0	6.329292282309289e+17
19362.0	6.327759504670719e+17
19363.0	6.326039549924692e+17
19364.0	6.324299691808084e+17
19365.0	6.322541983432703e+17
19366.0	6.320789956242089e+17
19367.0	6.319002852786176e+17
19368.0	6.317213088743423e+17
19369.0	6.314928187113472e+17
19370.0	6.311880516348585e+17
19371.0	6.311256536733012e+17
19372.0	6.309563766669311e+17
19373.0	6.307547118742186e+17
19374.0	6.305636874016084e+17
19375.0	6.302433787510783e+17
19376.0	6.300451971880276e+17
19377.0	6.29838176129297e+17
19378.0	6.296339885326335e+17
19379.0	6.294252954146131e+17
19380.0	6.292135015175508e+17
19381.0	6.289957076686163e+17
19382.0	6.287501215225171e+17
19383.0	6.284755507784361e+17
19384.0	6.281601778450431e+17
19385.0	6.279284510774612e+17
19386.0	6.276929796352682e+17
19387.0	6.274499758522365e+17
19388.0	6.272031324635136e+17
19389.0	6.268840981124438e+17
19390.0	6.264862200736426e+17
19391.0	6.221874322560288e+17
19392.0	6.258351423182158e+17
19393.0	6.25665080697378e+17
19394.0	6.251335526296234e+17
19395.0	6.248358219874303e+17
19396.0	6.245358220170579e+17
19397.0	6.240128609550339e+17
19398.0	6.236074717566292e+17
19399.0	6.230142815480489e+17
19400.0	6.225606596711764e+17
19401.0	6.222336448178857e+17
19402.0	6.215211824447488e+17
19403.0	6.210731410893484e+17
19404.0	6.202183580123137e+17
19405.0	6.196971233957203e+17
19406.0	6.190612379686227e+17
19407.0	6.186100263485439e+17
19408.0	6.178805889280686e+17
19409.0	6.176523165193556e+17
19410.0	6.171719874816682e+17
19411.0	6.166561404485631e+17
19412.0	6.161183266570239e+17
19413.0	6.155622536620714e+17
19414.0	6.148934325327188e+17
19415.0	6.142761494730068e+17
19416.0	6.135739483247956e+17
19417.0	6.12922991924565e+17
19418.0	6.122175701101228e+17
19419.0	6.114434407727103e+17
19420.0	6.106973996406102e+17
19421.0	6.097258209957204e+17
19422.0	6.088480615213734e+17
19423.0	6.077643548000255e+17
19424.0	6.066538256444074e+17
19425.0	6.054051609313281e+17
19426.0	6.03952259198703e+17
19427.0	6.02266365766314e+17
19428.0	6.002421559285075e+17
19429.0	5.977538004254714e+17
19430.0	5.94914831656551e+17
19431.0	5.924946295390216e+17
19432.0	5.913770431873021e+17
19433.0	5.894422882069162e+17
19434.0	5.873167902616233e+17
19435.0	5.850244923959976e+17
19436.0	5.824257955201021e+17
19437.0	5.801523455983615e+17
19438.0	5.722787907895315e+17
19439.0	5.737670068142085e+17
19440.0	5.70138455703552e+17
19441.0	5.6498680663900256e+17
19442.0	5.582714361785002e+17
19443.0	5.527248981458943e+17
19444.0	5.4675689547584826e+17
19445.0	5.397517476823044e+17
19446.0	5.303404399514967e+17
19447.0	5.1827811356945005e+17
19448.0	5.047186457537202e+17
19449.0	4.8444640745663155e+17
19450.0	4.5008783552457056e+17
19451.0	4.401248660881406e+17
19452.0	4.682635247528624e+17
19453.0	4.957447958910297e+17
19454.0	5.117507099339428e+17
19455.0	5.237644295755099e+17
19456.0	5.347148273025025e+17
19457.0	5.4239375752779066e+17
19458.0	5.4412688770116794e+17
19459.0	5.536713629761552e+17
19460.0	5.599659974896288e+17
19461.0	5.658658138488836e+17
19462.0	5.700428351493462e+17
19463.0	5.733101358896469e+17
19464.0	5.761256619944617e+17
19465.0	5.786040275042304e+17
19466.0	5.807979829220691e+17
19467.0	5.829264062545919e+17
19468.0	5.848689522944682e+17
19469.0	5.864856319513939e+17
19470.0	5.88302789972241e+17
19471.0	5.89841218666496e+17
19472.0	5.918887010194772e+17
19473.0	5.944031125875372e+17
19474.0	5.963525612634113e+17
19475.0	5.977095201794721e+17
19476.0	5.992510019775148e+17
19477.0	6.003908879755946e+17
19478.0	6.013766942588928e+17
19479.0	6.021666926056788e+17
19480.0	6.029268218456746e+17
19481.0	6.036017050025983e+17
19482.0	6.042359298348372e+17
19483.0	6.047494363065001e+17
19484.0	6.053154268730708e+17
19485.0	6.057642748630356e+17
19486.0	6.06179088802338e+17
19487.0	6.065760806546089e+17
19488.0	6.069935418288809e+17
19489.0	6.073158772370089e+17
19490.0	6.072066765750268e+17
19491.0	6.079532603801599e+17
19492.0	6.082399953747967e+17
19493.0	6.084921282002943e+17
19494.0	6.087262793454931e+17
19495.0	6.089395713780393e+17
19496.0	6.090549259927547e+17
19497.0	6.096314453109418e+17
19498.0	6.093601768822098e+17
19499.0	6.042910954181961e+17
19500.0	6.107710202314751e+17
19501.0	6.110743307659946e+17
19502.0	6.112844257602218e+17
19503.0	6.116273340896596e+17
19504.0	6.117139318571007e+17
19505.0	6.119607344911702e+17
19506.0	6.121607270847827e+17
19507.0	6.12213611176482e+17
19508.0	6.123030645658963e+17
19509.0	6.125614775926783e+17
19510.0	6.12528418787601e+17
19511.0	6.062088499057987e+17
19512.0	6.115408040602277e+17
19513.0	6.109379954737125e+17
19514.0	6.114994485723117e+17
19515.0	6.126812950866606e+17
19516.0	6.128973972329811e+17
19517.0	6.128826110530899e+17
19518.0	6.128993905060521e+17
19519.0	6.12964289950515e+17
19520.0	6.130213732395689e+17
19521.0	6.130161887302996e+17
19522.0	6.129799567245312e+17
19523.0	6.129711056246099e+17
19524.0	6.129424546136063e+17
19525.0	6.129010879408809e+17
19526.0	6.128767303592618e+17
19527.0	6.128379615685289e+17
19528.0	6.127988578626217e+17
19529.0	6.128706828020393e+17
19530.0	6.128359505395712e+17
19531.0	6.127910990992724e+17
19532.0	6.127406005179732e+17
19533.0	6.126911769367891e+17
19534.0	6.126357609534806e+17
19535.0	6.125741490044927e+17
19536.0	6.125090973766996e+17
19537.0	6.124680667376297e+17
19538.0	6.123764754415616e+17
19539.0	6.121670618819245e+17
19540.0	6.122863295026516e+17
19541.0	6.122306011135999e+17
19542.0	6.121618531855018e+17
19543.0	6.120919272871252e+17
19544.0	6.120241157373951e+17
19545.0	6.117657874355539e+17
19546.0	6.115597954493098e+17
19547.0	6.118730689937405e+17
19548.0	6.11820033417762e+17
19549.0	6.117063968598697e+17
19550.0	6.116675114674858e+17
19551.0	6.115902111438164e+17
19552.0	6.115103636193279e+17
19553.0	6.114204619287209e+17
19554.0	6.113336927540566e+17
19555.0	6.112609317158912e+17
19556.0	6.111827272400895e+17
19557.0	6.110980156511572e+17
19558.0	6.110128292670122e+17
19559.0	6.109238166989482e+17
19560.0	6.108316814016512e+17
19561.0	6.107443710219604e+17
19562.0	6.106650558944596e+17
19563.0	6.105792897875965e+17
19564.0	6.104896670182057e+17
19565.0	6.103990613136724e+17
19566.0	6.102979573361321e+17
19567.0	6.102187889393663e+17
19568.0	6.101157912335702e+17
19569.0	6.100269444803241e+17
19570.0	6.099427513073663e+17
19571.0	6.098478837705385e+17
19572.0	6.097429178176852e+17
19573.0	6.096530270322687e+17
19574.0	6.09533404783138e+17
19575.0	6.094715662019241e+17
19576.0	6.093766620348415e+17
19577.0	6.092649433923583e+17
19578.0	6.091672389681151e+17
19579.0	6.090778977763327e+17
19580.0	6.089808343116458e+17
19581.0	6.088890801367721e+17
19582.0	6.087974786345642e+17
19583.0	6.086994123117908e+17
19584.0	6.085956531301033e+17
19585.0	6.084600331763711e+17
19586.0	6.083453853018796e+17
19587.0	6.082760228383401e+17
19588.0	6.08022301629918e+17
19589.0	6.080899424714751e+17
19590.0	6.079690453636435e+17
19591.0	6.07900031586577e+17
19592.0	6.078021043748863e+17
19593.0	6.076935729141076e+17
19594.0	6.075076309592744e+17
19595.0	6.074786636278441e+17
19596.0	6.068389597063853e+17
19597.0	6.072649275583148e+17
19598.0	6.070706723531433e+17
19599.0	6.070887739905364e+17
19600.0	6.069888688848895e+17
19601.0	6.068604515997012e+17
19602.0	6.067623228517034e+17
19603.0	6.064717426589692e+17
19604.0	6.065469754703872e+17
19605.0	6.063588069692758e+17
19606.0	6.063663274961577e+17
19607.0	6.062639622214996e+17
19608.0	6.061556776654164e+17
19609.0	6.060358189274452e+17
19610.0	6.059538245484544e+17
19611.0	6.058459234915667e+17
19612.0	6.057463965723305e+17
19613.0	6.056373263532031e+17
19614.0	6.055210719204692e+17
19615.0	6.054300602772137e+17
19616.0	6.052913032637098e+17
19617.0	6.052206960006484e+17
19618.0	6.0490057294807e+17
19619.0	6.047537860094629e+17
19620.0	6.046545876440403e+17
19621.0	6.04797212295168e+17
19622.0	6.046947685171199e+17
19623.0	6.045899769075028e+17
19624.0	6.045007700732586e+17
19625.0	6.044369568836266e+17
19626.0	6.043270162066089e+17
19627.0	6.042245325826729e+17
19628.0	6.040190371321174e+17
19629.0	6.039758515994623e+17
19630.0	6.036001607297705e+17
19631.0	5.996944640617137e+17
19632.0	6.036884797696682e+17
19633.0	6.035662780934825e+17
19634.0	6.034800241890644e+17
19635.0	6.033579300967764e+17
19636.0	6.032617400259924e+17
19637.0	6.030091110842368e+17
19638.0	6.030482570827092e+17
19639.0	6.02937433854225e+17
19640.0	6.027947390883158e+17
19641.0	6.024730194739204e+17
19642.0	6.026211703302825e+17
19643.0	6.025094853121363e+17
19644.0	6.023862221275135e+17
19645.0	6.0220057349434e+17
19646.0	6.021966199433897e+17
19647.0	6.020897693499391e+17
19648.0	6.019806475408724e+17
19649.0	6.018720075175252e+17
19650.0	6.017672736494931e+17
19651.0	6.016577861670228e+17
19652.0	6.015488877046442e+17
19653.0	6.014425355343188e+17
19654.0	6.013328069492736e+17
19655.0	6.012235953821012e+17
19656.0	6.011189848266067e+17
19657.0	6.010112230905172e+17
19658.0	6.009054030375594e+17
19659.0	6.007975107887104e+17
19660.0	6.006914084590932e+17
19661.0	6.005818526094676e+17
19662.0	6.004757884480169e+17
19663.0	6.003473246060543e+17
19664.0	6.002406020786858e+17
19665.0	6.001522340353363e+17
