# Flux units: erg / (cm m2 s)
# Wavelength units: Angstrom
wave	flux
19000.0	7.671912852706644e+17
19001.0	7.670472964920659e+17
19002.0	7.66915328868352e+17
19003.0	7.667770710469288e+17
19004.0	7.66638788059682e+17
19005.0	7.66500547994146e+17
19006.0	7.663620432680275e+17
19007.0	7.662226187310419e+17
19008.0	7.660818539741181e+17
19009.0	7.659378126269096e+17
19010.0	7.657858792772948e+17
19011.0	7.656659158914387e+17
19012.0	7.655200262542675e+17
19013.0	7.653896686840489e+17
19014.0	7.652470553575421e+17
19015.0	7.651094676460883e+17
19016.0	7.649706236007764e+17
19017.0	7.648356562108415e+17
19018.0	7.647046675376808e+17
19019.0	7.64565492282163e+17
19020.0	7.644250360862038e+17
19021.0	7.642873426782889e+17
19022.0	7.641477812671828e+17
19023.0	7.640052670660607e+17
19024.0	7.63870079894596e+17
19025.0	7.637534936225108e+17
19026.0	7.63612040999731e+17
19027.0	7.634686040517289e+17
19028.0	7.633332855985491e+17
19029.0	7.631931643876691e+17
19030.0	7.630539789260118e+17
19031.0	7.629135959905619e+17
19032.0	7.62773031162129e+17
19033.0	7.626265917915135e+17
19034.0	7.624890099520851e+17
19035.0	7.623329864570196e+17
19036.0	7.618296162899284e+17
19037.0	7.620580253630461e+17
19038.0	7.619264115987796e+17
19039.0	7.617888582806186e+17
19040.0	7.616486614324563e+17
19041.0	7.615081249854804e+17
19042.0	7.613618389865811e+17
19043.0	7.612266476208125e+17
19044.0	7.610856516179284e+17
19045.0	7.60944643870993e+17
19046.0	7.608012039869778e+17
19047.0	7.606600460839594e+17
19048.0	7.605123140288511e+17
19049.0	7.603745519741609e+17
19050.0	7.602342287376383e+17
19051.0	7.600389760570706e+17
19052.0	7.599345079681024e+17
19053.0	7.598141968744445e+17
19054.0	7.596741721325565e+17
19055.0	7.595175825462614e+17
19056.0	7.593906160708264e+17
19057.0	7.592501070266368e+17
19058.0	7.591078867064148e+17
19059.0	7.589675687826772e+17
19060.0	7.588254284338518e+17
19061.0	7.586848058638335e+17
19062.0	7.585430270640127e+17
19063.0	7.584012948209663e+17
19064.0	7.582545759698943e+17
19065.0	7.58107344155443e+17
19066.0	7.579726424047612e+17
19067.0	7.578350524563453e+17
19068.0	7.576933740402003e+17
19069.0	7.575516373232297e+17
19070.0	7.574085807986004e+17
19071.0	7.572680579132074e+17
19072.0	7.571262255661056e+17
19073.0	7.569841883971583e+17
19074.0	7.568424943222781e+17
19075.0	7.567005397811199e+17
19076.0	7.565577567251114e+17
19077.0	7.564156454567935e+17
19078.0	7.562733995513172e+17
19079.0	7.561324885529942e+17
19080.0	7.559895540826111e+17
19081.0	7.558456230455977e+17
19082.0	7.557044159294121e+17
19083.0	7.555564554245458e+17
19084.0	7.554065831559165e+17
19085.0	7.552791555866621e+17
19086.0	7.551121005128362e+17
19087.0	7.549885135279444e+17
19088.0	7.548452783259647e+17
19089.0	7.546951804037802e+17
19090.0	7.545648204567892e+17
19091.0	7.544238129894739e+17
19092.0	7.542787640306345e+17
19093.0	7.541411582836736e+17
19094.0	7.539990917545983e+17
19095.0	7.538568184463356e+17
19096.0	7.537139008929791e+17
19097.0	7.535719388020735e+17
19098.0	7.534295206505128e+17
19099.0	7.532870186128723e+17
19100.0	7.531440740761599e+17
19101.0	7.530017584054271e+17
19102.0	7.528551129546751e+17
19103.0	7.527170800877565e+17
19104.0	7.525744620077053e+17
19105.0	7.524309467660287e+17
19106.0	7.522878392107008e+17
19107.0	7.521448629370879e+17
19108.0	7.520007227441152e+17
19109.0	7.518380646989821e+17
19110.0	7.517106699851092e+17
19111.0	7.515745121118888e+17
19112.0	7.514327485513728e+17
19113.0	7.512902726582271e+17
19114.0	7.511474431852544e+17
19115.0	7.510021790586195e+17
19116.0	7.50860201029359e+17
19117.0	7.507171844904275e+17
19118.0	7.505679320001194e+17
19119.0	7.502579631478097e+17
19120.0	7.502843577630717e+17
19121.0	7.501442236896595e+17
19122.0	7.500043285517651e+17
19123.0	7.498614470694227e+17
19124.0	7.497154388732585e+17
19125.0	7.495744411926525e+17
19126.0	7.494270677505363e+17
19127.0	7.492056178666153e+17
19128.0	7.491359030815402e+17
19129.0	7.489967473994408e+17
19130.0	7.488587680798036e+17
19131.0	7.487167037876906e+17
19132.0	7.485733187092479e+17
19133.0	7.484260642455551e+17
19134.0	7.482846915941718e+17
19135.0	7.481436469373608e+17
19136.0	7.480002492760064e+17
19137.0	7.478502749459795e+17
19138.0	7.477126943648425e+17
19139.0	7.47570607423488e+17
19140.0	7.474274386313215e+17
19141.0	7.472840269889535e+17
19142.0	7.471389997006845e+17
19143.0	7.469946816692224e+17
19144.0	7.468507763572733e+17
19145.0	7.467098677357226e+17
19146.0	7.465301875272362e+17
19147.0	7.464190619593385e+17
19148.0	7.462788070899711e+17
19149.0	7.461352129953791e+17
19150.0	7.459914163159039e+17
19151.0	7.458478046052351e+17
19152.0	7.45695391986483e+17
19153.0	7.455476237205503e+17
19154.0	7.453996809715711e+17
19155.0	7.452604741189632e+17
19156.0	7.451162252935168e+17
19157.0	7.449692602368e+17
19158.0	7.448174934010536e+17
19159.0	7.446812039664982e+17
19160.0	7.44539031461342e+17
19161.0	7.443917010807466e+17
19162.0	7.442165452679848e+17
19163.0	7.440971467150675e+17
19164.0	7.439627326936404e+17
19165.0	7.438192812053846e+17
19166.0	7.436698928196264e+17
19167.0	7.435282137044306e+17
19168.0	7.433863127105533e+17
19169.0	7.432425528011434e+17
19170.0	7.430986811834368e+17
19171.0	7.429534141207891e+17
19172.0	7.428097878698666e+17
19173.0	7.426654800445439e+17
19174.0	7.425185562318163e+17
19175.0	7.423763480750761e+17
19176.0	7.422318042502484e+17
19177.0	7.420777724903423e+17
19178.0	7.419407538061311e+17
19179.0	7.417953761536681e+17
19180.0	7.41651731587618e+17
19181.0	7.415020804986195e+17
19182.0	7.413610966592169e+17
19183.0	7.412172908920832e+17
19184.0	7.410718531212628e+17
19185.0	7.409266685465939e+17
19186.0	7.40781486069077e+17
19187.0	7.406313667559424e+17
19188.0	7.404904136747689e+17
19189.0	7.40344817918498e+17
19190.0	7.401987504428374e+17
19191.0	7.40051005804817e+17
19192.0	7.399070729502719e+17
19193.0	7.397604969851561e+17
19194.0	7.396127015960573e+17
19195.0	7.394654674048339e+17
19196.0	7.393150451231402e+17
19197.0	7.391598811807743e+17
19198.0	7.389827474740564e+17
19199.0	7.386291484928681e+17
19200.0	7.385165447124308e+17
19201.0	7.385483520770047e+17
19202.0	7.384299289793876e+17
19203.0	7.382911924480681e+17
19204.0	7.381482700013568e+17
19205.0	7.3800368549178e+17
19206.0	7.378583920050173e+17
19207.0	7.377057173820756e+17
19208.0	7.375567522015913e+17
19209.0	7.374186698418857e+17
19210.0	7.372727449725609e+17
19211.0	7.371255826437459e+17
19212.0	7.369779948726953e+17
19213.0	7.368246458056701e+17
19214.0	7.366764241354751e+17
19215.0	7.365341367063892e+17
19216.0	7.363872598698666e+17
19217.0	7.362372349285718e+17
19218.0	7.360551624288938e+17
19219.0	7.359236119986173e+17
19220.0	7.357760362512383e+17
19221.0	7.35616825364753e+17
19222.0	7.354788699526484e+17
19223.0	7.353330934218748e+17
19224.0	7.351811642665641e+17
19225.0	7.350298558682454e+17
19226.0	7.348852449345533e+17
19227.0	7.347362260669782e+17
19228.0	7.345889897786024e+17
19229.0	7.344395758075903e+17
19230.0	7.342852455530496e+17
19231.0	7.34133283402547e+17
19232.0	7.339838501377364e+17
19233.0	7.338301581164543e+17
19234.0	7.336833841801897e+17
19235.0	7.335326167072768e+17
19236.0	7.333835065436842e+17
19237.0	7.332322199557459e+17
19238.0	7.330767758338726e+17
19239.0	7.32931255575074e+17
19240.0	7.327796523171839e+17
19241.0	7.326272278145705e+17
19242.0	7.32476318294562e+17
19243.0	7.323150211612671e+17
19244.0	7.321738784975532e+17
19245.0	7.320217295607123e+17
19246.0	7.318688227131391e+17
19247.0	7.317167481552893e+17
19248.0	7.315641709800106e+17
19249.0	7.314111135569236e+17
19250.0	7.31256743596305e+17
19251.0	7.310914245449044e+17
19252.0	7.309062945374207e+17
19253.0	7.307700545956521e+17
19254.0	7.306172377858045e+17
19255.0	7.304505835476308e+17
19256.0	7.303069900122794e+17
19257.0	7.301535246232233e+17
19258.0	7.299983093705385e+17
19259.0	7.298379050647552e+17
19260.0	7.296794375487487e+17
19261.0	7.295308866256893e+17
19262.0	7.293717260708521e+17
19263.0	7.292126459068415e+17
19264.0	7.290357621806419e+17
19265.0	7.288939515041108e+17
19266.0	7.287383342972927e+17
19267.0	7.285893533182632e+17
19268.0	7.284313502515199e+17
19269.0	7.282727426457597e+17
19270.0	7.281122438283261e+17
19271.0	7.279390938715476e+17
19272.0	7.2778540660381e+17
19273.0	7.275682142180691e+17
19274.0	7.274047198287187e+17
19275.0	7.272773024656041e+17
19276.0	7.271155001982975e+17
19277.0	7.269541971929769e+17
19278.0	7.267923893332649e+17
19279.0	7.266291990309544e+17
19280.0	7.264642970331817e+17
19281.0	7.263025495714474e+17
19282.0	7.261396247685802e+17
19283.0	7.259735533988522e+17
19284.0	7.25806353621538e+17
19285.0	7.256388224942079e+17
19286.0	7.254760421152084e+17
19287.0	7.253082273131177e+17
19288.0	7.249720485347325e+17
19289.0	7.246906048643067e+17
19290.0	7.247598173115731e+17
19291.0	7.24579642315025e+17
19292.0	7.244202134645417e+17
19293.0	7.242437542019071e+17
19294.0	7.240736165942612e+17
19295.0	7.239041613998761e+17
19296.0	7.237333873765033e+17
19297.0	7.235619129043625e+17
19298.0	7.233888341109417e+17
19299.0	7.232116415441576e+17
19300.0	7.229819044145833e+17
19301.0	7.228083221648723e+17
19302.0	7.226334140956671e+17
19303.0	7.224553678482089e+17
19304.0	7.222825974759423e+17
19305.0	7.22106473058577e+17
19306.0	7.219298105120083e+17
19307.0	7.217494751532372e+17
19308.0	7.215711724939945e+17
19309.0	7.213438384209919e+17
19310.0	7.21121973440785e+17
19311.0	7.209486761241258e+17
19312.0	7.207697823476393e+17
19313.0	7.205861959838378e+17
19314.0	7.201258200891391e+17
19315.0	7.199624021759319e+17
19316.0	7.20029434843409e+17
19317.0	7.198324088111104e+17
19318.0	7.196032472798547e+17
19319.0	7.194000361870676e+17
19320.0	7.191962787162793e+17
19321.0	7.190043382775807e+17
19322.0	7.188076568772607e+17
19323.0	7.186148076726953e+17
19324.0	7.184211988796756e+17
19325.0	7.18222048572211e+17
19326.0	7.180273658975572e+17
19327.0	7.178288148163241e+17
19328.0	7.17628925612305e+17
19329.0	7.174280633297577e+17
19330.0	7.17222665326865e+17
19331.0	7.170151223569065e+17
19332.0	7.168103672010067e+17
19333.0	7.166013447602175e+17
19334.0	7.163905734344705e+17
19335.0	7.161513982820352e+17
19336.0	7.159167580110845e+17
19337.0	7.157010642501632e+17
19338.0	7.154720590266365e+17
19339.0	7.15265192178483e+17
19340.0	7.150409281961983e+17
19341.0	7.14817638830353e+17
19342.0	7.145808534525268e+17
19343.0	7.143689953826131e+17
19344.0	7.141387187257343e+17
19345.0	7.13824569410628e+17
19346.0	7.136155956237651e+17
19347.0	7.133693734813693e+17
19348.0	7.13138321297681e+17
19349.0	7.128990285649236e+17
19350.0	7.126586766305961e+17
19351.0	7.124157355524093e+17
19352.0	7.121676297480872e+17
19353.0	7.119255663979178e+17
19354.0	7.116762695510697e+17
19355.0	7.113828728132947e+17
19356.0	7.110621993981267e+17
19357.0	7.107996246431059e+17
19358.0	7.105332579576489e+17
19359.0	7.102564442395987e+17
19360.0	7.09968688001843e+17
19361.0	7.096932563069608e+17
19362.0	7.094143556430505e+17
19363.0	7.0902366629178e+17
19364.0	7.087128206901247e+17
19365.0	7.084202162563753e+17
19366.0	7.081231956399444e+17
19367.0	7.078215548578472e+17
19368.0	7.075150486831104e+17
19369.0	7.07102152729122e+17
19370.0	7.067243727465129e+17
19371.0	7.064031796570793e+17
19372.0	7.060799812709033e+17
19373.0	7.057445910216704e+17
19374.0	7.054022449386836e+17
19375.0	7.048649589303977e+17
19376.0	7.04471627726848e+17
19377.0	7.040986956606122e+17
19378.0	7.03733016175138e+17
19379.0	7.033624480186367e+17
19380.0	7.028450194533033e+17
19381.0	7.023834009261395e+17
19382.0	7.019922661397844e+17
19383.0	7.015998289521321e+17
19384.0	7.012057727631359e+17
19385.0	7.005784346984445e+17
19386.0	7.000971491497299e+17
19387.0	6.996488473979561e+17
19388.0	6.992301577120425e+17
19389.0	6.987460980506624e+17
19390.0	6.981959541937491e+17
19391.0	6.974462303229266e+17
19392.0	6.972342446063615e+17
19393.0	6.967545593244329e+17
19394.0	6.961455244334422e+17
19395.0	6.956349910941693e+17
19396.0	6.951097502182057e+17
19397.0	6.945703815981738e+17
19398.0	6.940132787617792e+17
19399.0	6.934023764268371e+17
19400.0	6.926695805572435e+17
19401.0	6.920710944806227e+17
19402.0	6.914446116345171e+17
19403.0	6.907776764040532e+17
19404.0	6.901059533056681e+17
19405.0	6.892351356141568e+17
19406.0	6.884587002484052e+17
19407.0	6.877114304648532e+17
19408.0	6.869128760874324e+17
19409.0	6.861445979439103e+17
19410.0	6.851169540374525e+17
19411.0	6.842327144333311e+17
19412.0	6.833647058769236e+17
19413.0	6.824362121013929e+17
19414.0	6.815126191603711e+17
19415.0	6.802944998856023e+17
19416.0	6.792246835107156e+17
19417.0	6.781732409136468e+17
19418.0	6.770745254346751e+17
19419.0	6.758513755116886e+17
19420.0	6.746371917523625e+17
19421.0	6.731197709287425e+17
19422.0	6.717672433647615e+17
19423.0	6.703707511062527e+17
19424.0	6.688285122363392e+17
19425.0	6.6727365326493e+17
19426.0	6.656885055466153e+17
19427.0	6.64017511190801e+17
19428.0	6.622346459392682e+17
19429.0	6.602583974783658e+17
19430.0	6.581603683095892e+17
19431.0	6.559793991559849e+17
19432.0	6.537387307958271e+17
19433.0	6.51302838276369e+17
19434.0	6.487207665729535e+17
19435.0	6.459340847666515e+17
19436.0	6.429883390842198e+17
19437.0	6.397503119294464e+17
19438.0	6.359220172270249e+17
19439.0	6.324681958577494e+17
19440.0	6.283475861984595e+17
19441.0	6.238600143656275e+17
19442.0	6.188717589572266e+17
19443.0	6.133366869633706e+17
19444.0	6.071288920189608e+17
19445.0	6.000974979487064e+17
19446.0	5.92025624912418e+17
19447.0	5.825761516016975e+17
19448.0	5.7124086573520256e+17
19449.0	5.57087788699921e+17
19450.0	5.37955953278975e+17
19451.0	5.266395975647236e+17
19452.0	5.484719059763199e+17
19453.0	5.6441852458434624e+17
19454.0	5.767520091548325e+17
19455.0	5.868143022265684e+17
19456.0	5.952803920936963e+17
19457.0	6.025590052225019e+17
19458.0	6.085210273742853e+17
19459.0	6.14505862974669e+17
19460.0	6.19539679359795e+17
19461.0	6.240120034994858e+17
19462.0	6.280885470319958e+17
19463.0	6.317963476991997e+17
19464.0	6.351603007225855e+17
19465.0	6.382894289256448e+17
19466.0	6.411159332716541e+17
19467.0	6.437323944230911e+17
19468.0	6.461436106637311e+17
19469.0	6.483967619017385e+17
19470.0	6.505054872447657e+17
19471.0	6.52469205012753e+17
19472.0	6.543023118046548e+17
19473.0	6.561312588955647e+17
19474.0	6.577236711484074e+17
19475.0	6.591602518654973e+17
19476.0	6.605528572624895e+17
19477.0	6.618514720817151e+17
19478.0	6.63179185304371e+17
19479.0	6.643679609487359e+17
19480.0	6.654720020054015e+17
19481.0	6.666835151814651e+17
19482.0	6.677535852418388e+17
19483.0	6.687186561444521e+17
19484.0	6.696138221901139e+17
19485.0	6.704296649992873e+17
19486.0	6.712040431288319e+17
19487.0	6.721420964222292e+17
19488.0	6.729104233594879e+17
19489.0	6.735567092624042e+17
19490.0	6.741610556205738e+17
19491.0	6.747931452724563e+17
19492.0	6.755558986088445e+17
19493.0	6.761591566849363e+17
19494.0	6.766776211734527e+17
19495.0	6.77171721998609e+17
19496.0	6.776271199535103e+17
19497.0	6.782561999126527e+17
19498.0	6.786526784520191e+17
19499.0	6.78681507091797e+17
19500.0	6.795083988860927e+17
19501.0	6.798671258233514e+17
19502.0	6.802825957517994e+17
19503.0	6.806894804991999e+17
19504.0	6.809886385329494e+17
19505.0	6.812722727485439e+17
19506.0	6.815405459548842e+17
19507.0	6.817933237245268e+17
19508.0	6.820817673388031e+17
19509.0	6.823846561360553e+17
19510.0	6.825883787941204e+17
19511.0	6.8229003781079e+17
19512.0	6.829400286123347e+17
19513.0	6.831662409886374e+17
19514.0	6.833649441133907e+17
19515.0	6.836072714949972e+17
19516.0	6.838441701889366e+17
19517.0	6.841576629556563e+17
19518.0	6.843726704585385e+17
19519.0	6.845029758795775e+17
19520.0	6.846260076085247e+17
19521.0	6.847454233580884e+17
19522.0	6.85063055413521e+17
19523.0	6.851780191890089e+17
19524.0	6.852799946730153e+17
19525.0	6.853766159182505e+17
19526.0	6.854966431973375e+17
19527.0	6.857089764818941e+17
19528.0	6.858607847014399e+17
19529.0	6.859345183287977e+17
19530.0	6.859985781435049e+17
19531.0	6.860563274181289e+17
19532.0	6.861086263345151e+17
19533.0	6.862931575351976e+17
19534.0	6.863503362446676e+17
19535.0	6.863876610064384e+17
19536.0	6.864194752217087e+17
19537.0	6.864500997226495e+17
19538.0	6.864663136436223e+17
19539.0	6.865526095609856e+17
19540.0	6.866299747565567e+17
19541.0	6.866445914865664e+17
19542.0	6.866531564650496e+17
19543.0	6.866710692888575e+17
19544.0	6.86677270008081e+17
19545.0	6.866499025939114e+17
19546.0	6.866419390786217e+17
19547.0	6.867543558630057e+17
19548.0	6.867423955255293e+17
19549.0	6.867186487743828e+17
19550.0	6.867051717066751e+17
19551.0	6.866836738714281e+17
19552.0	6.866596693103956e+17
19553.0	6.86632343909171e+17
19554.0	6.866036202668031e+17
19555.0	6.86582759686144e+17
19556.0	6.866073600480596e+17
19557.0	6.86572665184802e+17
19558.0	6.865361944532308e+17
19559.0	6.864978622196393e+17
19560.0	6.864557885969748e+17
19561.0	6.864135578976255e+17
19562.0	6.863712803618815e+17
19563.0	6.863254250149204e+17
19564.0	6.862777654880937e+17
19565.0	6.862283871354879e+17
19566.0	6.861758687870975e+17
19567.0	6.861471082348543e+17
19568.0	6.86111755215394e+17
19569.0	6.86057432687138e+17
19570.0	6.860006202103124e+17
19571.0	6.859418115943081e+17
19572.0	6.858796041939625e+17
19573.0	6.858179854641833e+17
19574.0	6.857484143340201e+17
19575.0	6.856886501856595e+17
19576.0	6.856217712394239e+17
19577.0	6.855531757742761e+17
19578.0	6.854822355533823e+17
19579.0	6.854116520580436e+17
19580.0	6.853398434065065e+17
19581.0	6.852674301460479e+17
19582.0	6.851938089260372e+17
19583.0	6.851184049171113e+17
19584.0	6.850787248439295e+17
19585.0	6.850258874488148e+17
19586.0	6.849455670864554e+17
19587.0	6.848725225133395e+17
19588.0	6.847729256890367e+17
19589.0	6.847124320114004e+17
19590.0	6.846303278814547e+17
19591.0	6.845515672409427e+17
19592.0	6.844674427147604e+17
19593.0	6.844379494875135e+17
19594.0	6.843516494457513e+17
19595.0	6.842774842245119e+17
19596.0	6.841791336677375e+17
19597.0	6.841017537921023e+17
19598.0	6.839972917149695e+17
19599.0	6.839236997851817e+17
19600.0	6.838333044249939e+17
19601.0	6.837383181893632e+17
19602.0	6.836484673197395e+17
19603.0	6.835916990229161e+17
19604.0	6.835145124347903e+17
19605.0	6.834101497626624e+17
19606.0	6.833327151513597e+17
19607.0	6.832388397771433e+17
19608.0	6.831435935645695e+17
19609.0	6.830458936841555e+17
19610.0	6.829525493088255e+17
19611.0	6.828559555362815e+17
19612.0	6.827636261126143e+17
19613.0	6.826737064564052e+17
19614.0	6.825737019457535e+17
19615.0	6.825116902795946e+17
19616.0	6.824172997749417e+17
19617.0	6.823195385178793e+17
19618.0	6.821900460927657e+17
19619.0	6.820819509794132e+17
19620.0	6.819880889570644e+17
19621.0	6.819166436021587e+17
19622.0	6.81816675721762e+17
19623.0	6.81714834874914e+17
19624.0	6.816123443303764e+17
19625.0	6.815092609908733e+17
19626.0	6.814054549028863e+17
19627.0	6.812999306182655e+17
19628.0	6.811940691815081e+17
19629.0	6.811166286981802e+17
19630.0	6.809624058178217e+17
19631.0	6.806832713214634e+17
19632.0	6.808156097915561e+17
19633.0	6.807242811288234e+17
19634.0	6.806239268831232e+17
19635.0	6.805162552546644e+17
19636.0	6.804126084803242e+17
19637.0	6.802816444137472e+17
19638.0	6.801980931091113e+17
19639.0	6.800898885244243e+17
19640.0	6.799756192557737e+17
19641.0	6.798394425780906e+17
19642.0	6.797656203111081e+17
19643.0	6.796562320938323e+17
19644.0	6.795431177966932e+17
19645.0	6.794261942326612e+17
19646.0	6.793288071774207e+17
19647.0	6.792194527941972e+17
19648.0	6.791094927534761e+17
19649.0	6.7899915515549e+17
19650.0	6.788887781310464e+17
19651.0	6.787928381106857e+17
19652.0	6.786880801254057e+17
19653.0	6.785768662674092e+17
19654.0	6.784655804770985e+17
19655.0	6.783537885741055e+17
19656.0	6.782419611593385e+17
19657.0	6.781303317157204e+17
19658.0	6.78018193293312e+17
19659.0	6.779058153062397e+17
19660.0	6.777933668548608e+17
19661.0	6.776806577973929e+17
19662.0	6.775676204657322e+17
19663.0	6.77452489756945e+17
19664.0	6.773406051598333e+17
19665.0	6.772281191694335e+17
