# Flux units: erg / (cm m2 s)
# Wavelength units: Angstrom
wave	flux
19000.0	5.4300209714298874e+17
19001.0	5.4289764806819834e+17
19002.0	5.4281032140062714e+17
19003.0	5.42713640596275e+17
19004.0	5.426177380450303e+17
19005.0	5.4251953338013e+17
19006.0	5.42423188050193e+17
19007.0	5.4232663314486605e+17
19008.0	5.4222829999445325e+17
19009.0	5.4212701069858125e+17
19010.0	5.4203071227494394e+17
19011.0	5.4193826890601805e+17
19012.0	5.4183763427109536e+17
19013.0	5.417501106809515e+17
19014.0	5.4165089155372365e+17
19015.0	5.4155538144952314e+17
19016.0	5.414631610777598e+17
19017.0	5.413677486309375e+17
19018.0	5.41270870274867e+17
19019.0	5.411751601722708e+17
19020.0	5.4107860995058336e+17
19021.0	5.409838425178111e+17
19022.0	5.4088734961827834e+17
19023.0	5.407878103258453e+17
19024.0	5.406918611479209e+17
19025.0	5.405988209295358e+17
19026.0	5.405023431294975e+17
19027.0	5.404069185191935e+17
19028.0	5.4031038787092474e+17
19029.0	5.402132255604736e+17
19030.0	5.4011868301230074e+17
19031.0	5.4002217431422285e+17
19032.0	5.399237955857065e+17
19033.0	5.398169030492158e+17
19034.0	5.397175580928681e+17
19035.0	5.395929181279572e+17
19036.0	5.394488849596415e+17
19037.0	5.3940727816301216e+17
19038.0	5.39335192547601e+17
19039.0	5.392497770146474e+17
19040.0	5.391578883424255e+17
19041.0	5.3906359102122656e+17
19042.0	5.389016112649556e+17
19043.0	5.3887474919451296e+17
19044.0	5.3877833759457274e+17
19045.0	5.386821965272403e+17
19046.0	5.3858485071598925e+17
19047.0	5.384889389372756e+17
19048.0	5.383823501382996e+17
19049.0	5.381641748873214e+17
19050.0	5.3819397248122874e+17
19051.0	5.3809281908080634e+17
19052.0	5.380036283946325e+17
19053.0	5.379143064267434e+17
19054.0	5.378220184567807e+17
19055.0	5.376904102849195e+17
19056.0	5.3762625330216954e+17
19057.0	5.375387631965524e+17
19058.0	5.3737879006522e+17
19059.0	5.3732434128841376e+17
19060.0	5.3725392395741856e+17
19061.0	5.3715855562069325e+17
19062.0	5.370631049357994e+17
19063.0	5.369677899366399e+17
19064.0	5.368702978140841e+17
19065.0	5.367684146047657e+17
19066.0	5.3665502977501856e+17
19067.0	5.365862708019199e+17
19068.0	5.364929501244073e+17
19069.0	5.363979689219413e+17
19070.0	5.363009244015273e+17
19071.0	5.362071937307988e+17
19072.0	5.36088974406451e+17
19073.0	5.3601784348453536e+17
19074.0	5.3592251275673594e+17
19075.0	5.358276564047188e+17
19076.0	5.3573237516970656e+17
19077.0	5.356369127407615e+17
19078.0	5.355407941129556e+17
19079.0	5.354473401963862e+17
19080.0	5.353517125817685e+17
19081.0	5.352539070747988e+17
19082.0	5.351626170695679e+17
19083.0	5.35061512392977e+17
19084.0	5.349562324964692e+17
19085.0	5.348768820669097e+17
19086.0	5.3472160229184845e+17
19087.0	5.3463317322137594e+17
19088.0	5.345549555335167e+17
19089.0	5.344850987013462e+17
19090.0	5.3440209230670496e+17
19091.0	5.343046290549418e+17
19092.0	5.3416031731493555e+17
19093.0	5.341204127066793e+17
19094.0	5.340258129761621e+17
19095.0	5.339308277192021e+17
19096.0	5.3383648691705165e+17
19097.0	5.3374190473270605e+17
19098.0	5.336202620174334e+17
19099.0	5.3351983660837536e+17
19100.0	5.334557897960106e+17
19101.0	5.333614535376894e+17
19102.0	5.3326611127555405e+17
19103.0	5.331731076175188e+17
19104.0	5.330795990351871e+17
19105.0	5.329264134761131e+17
19106.0	5.328899950335315e+17
19107.0	5.3278088196259834e+17
19108.0	5.3267823147526816e+17
19109.0	5.3260595893370874e+17
19110.0	5.325115164895915e+17
19111.0	5.324005310813524e+17
19112.0	5.3230226769619616e+17
19113.0	5.322277985976319e+17
19114.0	5.321204289590613e+17
19115.0	5.3203228587021645e+17
19116.0	5.3193606511110816e+17
19117.0	5.3182932671528954e+17
19118.0	5.316596130818731e+17
19119.0	5.3130134758795923e+17
19120.0	5.315046905916073e+17
19121.0	5.3145620366841165e+17
19122.0	5.3137202643380896e+17
19123.0	5.3128056222515194e+17
19124.0	5.311835573409108e+17
19125.0	5.310888586947241e+17
19126.0	5.3098746950451194e+17
19127.0	5.308819602494805e+17
19128.0	5.307986247417855e+17
19129.0	5.307077080296106e+17
19130.0	5.3062346221813754e+17
19131.0	5.305328962895872e+17
19132.0	5.304402806046719e+17
19133.0	5.303443962287444e+17
19134.0	5.3025315879212365e+17
19135.0	5.301596660782421e+17
19136.0	5.30065885565201e+17
19137.0	5.2997119328037536e+17
19138.0	5.298780767955625e+17
19139.0	5.2978527851861325e+17
19140.0	5.296919830069247e+17
19141.0	5.295983899093674e+17
19142.0	5.295026865875626e+17
19143.0	5.2941015919274656e+17
19144.0	5.2931456827828896e+17
19145.0	5.292230257060521e+17
19146.0	5.290807532366506e+17
19147.0	5.290349575187113e+17
19148.0	5.289218969785685e+17
19149.0	5.2882431677562874e+17
19150.0	5.287557376682665e+17
19151.0	5.286616330054313e+17
19152.0	5.2856771261235194e+17
19153.0	5.28428528968226e+17
19154.0	5.283763237945343e+17
19155.0	5.2828694443458554e+17
19156.0	5.281936115236862e+17
19157.0	5.280861672964096e+17
19158.0	5.27975032221423e+17
19159.0	5.2791268130597536e+17
19160.0	5.278184947144021e+17
19161.0	5.277253309038591e+17
19162.0	5.2763114158598803e+17
19163.0	5.275383229666644e+17
19164.0	5.27445268697361e+17
19165.0	5.273033679831038e+17
19166.0	5.272569565413375e+17
19167.0	5.271654473138175e+17
19168.0	5.270733750009855e+17
19169.0	5.2698040084288845e+17
19170.0	5.268877082623998e+17
19171.0	5.2679385427913376e+17
19172.0	5.267011376513023e+17
19173.0	5.2660809491633485e+17
19174.0	5.2651432572791456e+17
19175.0	5.264214090317823e+17
19176.0	5.263284465478313e+17
19177.0	5.262238585017685e+17
19178.0	5.261422921515007e+17
19179.0	5.2604898524528634e+17
19180.0	5.259541771976704e+17
19181.0	5.258596935095637e+17
19182.0	5.257672280506367e+17
19183.0	5.256761769110186e+17
19184.0	5.2558354011477325e+17
19185.0	5.2549000182278816e+17
19186.0	5.253973145550847e+17
19187.0	5.2529947759083514e+17
19188.0	5.252105371647998e+17
19189.0	5.2511677307944954e+17
19190.0	5.250232884745557e+17
19191.0	5.2492706051522554e+17
19192.0	5.24834818822417e+17
19193.0	5.247338261337428e+17
19194.0	5.246344221775189e+17
19195.0	5.245494397064533e+17
19196.0	5.2445245921908045e+17
19197.0	5.2435602448056314e+17
19198.0	5.242573996862122e+17
19199.0	5.2415449656197114e+17
19200.0	5.240644208776532e+17
19201.0	5.239792917457577e+17
19202.0	5.238924886671359e+17
19203.0	5.238038122026325e+17
19204.0	5.237154071095977e+17
19205.0	5.23624013435153e+17
19206.0	5.235339531998549e+17
19207.0	5.2343416155013114e+17
19208.0	5.233489746067456e+17
19209.0	5.232598618647209e+17
19210.0	5.2316926475851085e+17
19211.0	5.230789419597823e+17
19212.0	5.2298662798513485e+17
19213.0	5.2288758865373856e+17
19214.0	5.2280057047722656e+17
19215.0	5.22709036503313e+17
19216.0	5.226157715401385e+17
19217.0	5.225206397621589e+17
19218.0	5.224249805504511e+17
19219.0	5.2232461658794656e+17
19220.0	5.222436068917247e+17
19221.0	5.2215321292963834e+17
19222.0	5.22063268806656e+17
19223.0	5.2197131784901965e+17
19224.0	5.218778144396628e+17
19225.0	5.2178918774756685e+17
19226.0	5.216968158216192e+17
19227.0	5.216056485696853e+17
19228.0	5.21516022305041e+17
19229.0	5.214240166117375e+17
19230.0	5.2133209445498874e+17
19231.0	5.212394714300415e+17
19232.0	5.211485781360639e+17
19233.0	5.21052914520337e+17
19234.0	5.209647494813012e+17
19235.0	5.2087001029017594e+17
19236.0	5.207810216296447e+17
19237.0	5.206885795889151e+17
19238.0	5.2059249633307296e+17
19239.0	5.2050553296213325e+17
19240.0	5.2041324597084154e+17
19241.0	5.203206911732394e+17
19242.0	5.202291012053674e+17
19243.0	5.201261775989417e+17
19244.0	5.2004704303622816e+17
19245.0	5.199547540176896e+17
19246.0	5.198633067959636e+17
19247.0	5.197710193852415e+17
19248.0	5.196800231211007e+17
19249.0	5.195865039831039e+17
19250.0	5.1948548696746656e+17
19251.0	5.193895305194153e+17
19252.0	5.192888049380009e+17
19253.0	5.192202053484542e+17
19254.0	5.1912979775487994e+17
19255.0	5.190223233286143e+17
19256.0	5.1894564977377274e+17
19257.0	5.1885432691316045e+17
19258.0	5.1876242922318483e+17
19259.0	5.1866351313442125e+17
19260.0	5.1857269400971936e+17
19261.0	5.1848390933217274e+17
19262.0	5.1838679211048954e+17
19263.0	5.1829392441780896e+17
19264.0	5.181988620555603e+17
19265.0	5.1810817784763725e+17
19266.0	5.180162596055722e+17
19267.0	5.1793459874365434e+17
19268.0	5.1784468447013536e+17
19269.0	5.1775357558893216e+17
19270.0	5.176605243255466e+17
19271.0	5.1756762790188365e+17
19272.0	5.174790780354559e+17
19273.0	5.17377141838097e+17
19274.0	5.1726808028719763e+17
19275.0	5.1720820498978125e+17
19276.0	5.1711557532385274e+17
19277.0	5.170248225390591e+17
19278.0	5.16932196368384e+17
19279.0	5.1684068881858534e+17
19280.0	5.167497874156202e+17
19281.0	5.1665868853084154e+17
19282.0	5.165683704157525e+17
19283.0	5.164762906929834e+17
19284.0	5.163825102498473e+17
19285.0	5.162883886000809e+17
19286.0	5.1619114680756896e+17
19287.0	5.160894607305385e+17
19288.0	5.1595593275583136e+17
19289.0	5.158573956923391e+17
19290.0	5.1581409153078605e+17
19291.0	5.157187930991274e+17
19292.0	5.15652986077184e+17
19293.0	5.1556503103296845e+17
19294.0	5.154740732865193e+17
19295.0	5.1538540500090874e+17
19296.0	5.1526509516554234e+17
19297.0	5.151978871062528e+17
19298.0	5.151109168147113e+17
19299.0	5.149894582293845e+17
19300.0	5.149306357022719e+17
19301.0	5.148404397812393e+17
19302.0	5.1474855397512525e+17
19303.0	5.146542593802239e+17
19304.0	5.1456684302445216e+17
19305.0	5.144743057730217e+17
19306.0	5.143832851819178e+17
19307.0	5.14288801354001e+17
19308.0	5.1419777866574496e+17
19309.0	5.1410577178405536e+17
19310.0	5.140112267193002e+17
19311.0	5.1391348867071994e+17
19312.0	5.1380951138522445e+17
19313.0	5.1366355827425274e+17
19314.0	5.129553998162603e+17
19315.0	5.128867538097494e+17
19316.0	5.1335561457172474e+17
19317.0	5.1335465107019085e+17
19318.0	5.132808824203945e+17
19319.0	5.131977882249898e+17
19320.0	5.130986246023849e+17
19321.0	5.129945704213162e+17
19322.0	5.1293116184221005e+17
19323.0	5.128408790291796e+17
19324.0	5.127506429826388e+17
19325.0	5.1266098316356256e+17
19326.0	5.1257066658638496e+17
19327.0	5.124799735704234e+17
19328.0	5.1233691278158496e+17
19329.0	5.1229898550804474e+17
19330.0	5.122083503035732e+17
19331.0	5.1211461026556576e+17
19332.0	5.1202726738001914e+17
19333.0	5.1193564190037325e+17
19334.0	5.118447898503851e+17
19335.0	5.116484744729942e+17
19336.0	5.116631697063936e+17
19337.0	5.1157247130774176e+17
19338.0	5.114653248760489e+17
19339.0	5.113877719853738e+17
19340.0	5.1128766345598285e+17
19341.0	5.1115860961525766e+17
19342.0	5.1109439048690336e+17
19343.0	5.1101352591359994e+17
19344.0	5.108739858934442e+17
19345.0	5.107835542525269e+17
19346.0	5.1071170806196896e+17
19347.0	5.105934248443904e+17
19348.0	5.105621367346517e+17
19349.0	5.104739504444756e+17
19350.0	5.1036593795891194e+17
19351.0	5.1029528854309536e+17
19352.0	5.101520012618409e+17
19353.0	5.101193858646015e+17
19354.0	5.100290954319188e+17
19355.0	5.099306051349162e+17
19356.0	5.098475653955583e+17
19357.0	5.097565493482836e+17
19358.0	5.09665300517137e+17
19359.0	5.095616901633364e+17
19360.0	5.094400216530942e+17
19361.0	5.093916974688938e+17
19362.0	5.093007120400383e+17
19363.0	5.09209520251426e+17
19364.0	5.091181776775851e+17
19365.0	5.090266857865215e+17
19366.0	5.089348308784468e+17
19367.0	5.0884344901795834e+17
19368.0	5.0875160382668794e+17
19369.0	5.086585991200768e+17
19370.0	5.085669022673578e+17
19371.0	5.0847140055176525e+17
19372.0	5.0838286431682554e+17
19373.0	5.082902215786494e+17
19374.0	5.0819871444828154e+17
19375.0	5.081066297622528e+17
19376.0	5.080139803131903e+17
19377.0	5.0792052464899405e+17
19378.0	5.078274863180457e+17
19379.0	5.077344115665578e+17
19380.0	5.0764011137925114e+17
19381.0	5.075459540079956e+17
19382.0	5.074459509653504e+17
19383.0	5.073552882182825e+17
19384.0	5.0726290454828365e+17
19385.0	5.0716803267734176e+17
19386.0	5.0707354724160845e+17
19387.0	5.0697706510745594e+17
19388.0	5.0687871112533325e+17
19389.0	5.067761187990187e+17
19390.0	5.066613434875903e+17
19391.0	5.0651149603525965e+17
19392.0	5.0644816588963834e+17
19393.0	5.063836202347177e+17
19394.0	5.062965635405141e+17
19395.0	5.0618730296989005e+17
19396.0	5.061018998101332e+17
19397.0	5.06005150708531e+17
19398.0	5.0588601863372794e+17
19399.0	5.057773404422143e+17
19400.0	5.0568299167088634e+17
19401.0	5.055996896477183e+17
19402.0	5.054999209967616e+17
19403.0	5.053956990435327e+17
19404.0	5.0529215104505165e+17
19405.0	5.051843829476009e+17
19406.0	5.0507722435242656e+17
19407.0	5.049490444648447e+17
19408.0	5.048509358495061e+17
19409.0	5.0474324317962234e+17
19410.0	5.046351242985471e+17
19411.0	5.045215494668287e+17
19412.0	5.0440472922248525e+17
19413.0	5.042675101204479e+17
19414.0	5.0416476882643616e+17
19415.0	5.0403984798296736e+17
19416.0	5.0390292415993165e+17
19417.0	5.0378413755596794e+17
19418.0	5.0365052800204794e+17
19419.0	5.0351331176611834e+17
19420.0	5.033710862729215e+17
19421.0	5.032225782016681e+17
19422.0	5.0306527397587616e+17
19423.0	5.0290735926913696e+17
19424.0	5.027459267297279e+17
19425.0	5.025703487602687e+17
19426.0	5.023862980870142e+17
19427.0	5.0219389767297696e+17
19428.0	5.019894693232638e+17
19429.0	5.017698678691156e+17
19430.0	5.015325779165183e+17
19431.0	5.0128666503413754e+17
19432.0	5.010309783748606e+17
19433.0	5.007429906814294e+17
19434.0	5.004293627882154e+17
19435.0	5.000814770782208e+17
19436.0	4.9969197730146976e+17
19437.0	4.9926748192986445e+17
19438.0	4.986984720236543e+17
19439.0	4.9825348139526816e+17
19440.0	4.9774789111316474e+17
19441.0	4.97154008424994e+17
19442.0	4.9641594395033594e+17
19443.0	4.9556135534919674e+17
19444.0	4.946013722771455e+17
19445.0	4.934046017301162e+17
19446.0	4.9201140612464634e+17
19447.0	4.9022957406999885e+17
19448.0	4.8794765235322886e+17
19449.0	4.8474583616279885e+17
19450.0	4.790214879521447e+17
19451.0	4.738995112116224e+17
19452.0	4.8233060352655366e+17
19453.0	4.8617545216819194e+17
19454.0	4.8865544611648845e+17
19455.0	4.9046071496321696e+17
19456.0	4.918089281961984e+17
19457.0	4.9277171725762554e+17
19458.0	4.9195670401187904e+17
19459.0	4.9386659585720346e+17
19460.0	4.9511426533184845e+17
19461.0	4.9569664653940045e+17
19462.0	4.96139815022319e+17
19463.0	4.9651533588288845e+17
19464.0	4.9682616107226445e+17
19465.0	4.97079575047919e+17
19466.0	4.9728098447742285e+17
19467.0	4.9746540222218234e+17
19468.0	4.9761202593245856e+17
19469.0	4.976959702433791e+17
19470.0	4.9783318997456205e+17
19471.0	4.9790338829298336e+17
19472.0	4.9796285520500045e+17
19473.0	4.9800989516322125e+17
19474.0	4.980021040338261e+17
19475.0	4.980414689749674e+17
19476.0	4.980672430429524e+17
19477.0	4.980751854469119e+17
19478.0	4.9807104776601594e+17
19479.0	4.9802044838161056e+17
19480.0	4.980355938735445e+17
19481.0	4.980095645821609e+17
19482.0	4.979818156261375e+17
19483.0	4.9794539578545485e+17
19484.0	4.979033589328553e+17
19485.0	4.978579956476587e+17
19486.0	4.977707392346795e+17
19487.0	4.9775577116180474e+17
19488.0	4.976982400608938e+17
19489.0	4.9763138166674765e+17
19490.0	4.975676091618645e+17
19491.0	4.9751755035333965e+17
19492.0	4.974648153691477e+17
19493.0	4.9740353959362554e+17
19494.0	4.9733595125077325e+17
19495.0	4.97262331498769e+17
19496.0	4.9717887680293536e+17
19497.0	4.9709518554835616e+17
19498.0	4.969700302432938e+17
19499.0	4.968560972879188e+17
19500.0	4.9687084844537165e+17
19501.0	4.9682677847381325e+17
19502.0	4.967640072891049e+17
19503.0	4.9669429851586554e+17
19504.0	4.966201033053526e+17
19505.0	4.9654282716883616e+17
19506.0	4.964669131325439e+17
19507.0	4.963841999197525e+17
19508.0	4.9629898662215674e+17
19509.0	4.961973451445589e+17
19510.0	4.9600404365421216e+17
19511.0	4.9523338999671443e+17
19512.0	4.957665592956245e+17
19513.0	4.9580487873658874e+17
19514.0	4.9575728897501856e+17
19515.0	4.9572522442970445e+17
19516.0	4.956579826761727e+17
19517.0	4.95591019983667e+17
19518.0	4.9550480256969376e+17
19519.0	4.954258905847124e+17
19520.0	4.953183212273662e+17
19521.0	4.952781231576404e+17
19522.0	4.9518802650180256e+17
19523.0	4.95104984805103e+17
19524.0	4.950034465772886e+17
19525.0	4.9495045028795725e+17
19526.0	4.9486922395593376e+17
19527.0	4.947856874012672e+17
19528.0	4.9469947257378125e+17
19529.0	4.946144099216042e+17
19530.0	4.9453707814065485e+17
19531.0	4.944535985586175e+17
19532.0	4.943696929751039e+17
19533.0	4.942856563195903e+17
19534.0	4.942017977122816e+17
19535.0	4.9411567956350285e+17
19536.0	4.9402884390911994e+17
19537.0	4.9394536915053216e+17
19538.0	4.938209999279445e+17
19539.0	4.937714970045099e+17
19540.0	4.936900754276351e+17
19541.0	4.9360017373702816e+17
19542.0	4.935207046785706e+17
19543.0	4.93399345008913e+17
19544.0	4.9334756408907085e+17
19545.0	4.932562014524756e+17
19546.0	4.931721761215828e+17
19547.0	4.9309765200773114e+17
19548.0	4.930180334922411e+17
19549.0	4.9292804204352845e+17
19550.0	4.9285258532618234e+17
19551.0	4.9276906163404794e+17
19552.0	4.926846181310462e+17
19553.0	4.926001386968404e+17
19554.0	4.925154645770239e+17
19555.0	4.9242525460507296e+17
19556.0	4.923439299166206e+17
19557.0	4.922621469305513e+17
19558.0	4.921779383784787e+17
19559.0	4.920934541907285e+17
19560.0	4.919927953686527e+17
19561.0	4.9192198258469536e+17
19562.0	4.9182487032627194e+17
19563.0	4.9175474743541754e+17
19564.0	4.916692369014783e+17
19565.0	4.9158506372136954e+17
19566.0	4.914990320451583e+17
19567.0	4.914153451945983e+17
19568.0	4.913287624567467e+17
19569.0	4.912446664518314e+17
19570.0	4.911604808985257e+17
19571.0	4.910757031094953e+17
19572.0	4.9098854113826125e+17
19573.0	4.9090112708935674e+17
19574.0	4.908122235731966e+17
19575.0	4.9073691246810445e+17
19576.0	4.906491677682345e+17
19577.0	4.9055783484129274e+17
19578.0	4.904817113694208e+17
19579.0	4.903950188806143e+17
19580.0	4.9031049939080525e+17
19581.0	4.902272409184938e+17
19582.0	4.9014286676131834e+17
19583.0	4.900579191728809e+17
19584.0	4.8997250042429434e+17
19585.0	4.898781490664789e+17
19586.0	4.8979092823517856e+17
19587.0	4.897143830260394e+17
19588.0	4.8962623742061216e+17
19589.0	4.8954244543283194e+17
19590.0	4.89456291352849e+17
19591.0	4.893767374296404e+17
19592.0	4.8929381883576314e+17
19593.0	4.8920412420396365e+17
19594.0	4.891010119936682e+17
19595.0	4.890381803410773e+17
19596.0	4.889529877353812e+17
19597.0	4.888652428957013e+17
19598.0	4.887648190245545e+17
19599.0	4.8869432493779616e+17
19600.0	4.886136881851049e+17
19601.0	4.8852608343517856e+17
19602.0	4.8844118820563616e+17
19603.0	4.883550992771755e+17
19604.0	4.882702647252309e+17
19605.0	4.8817641018272435e+17
19606.0	4.8810612259553274e+17
19607.0	4.880232303558654e+17
19608.0	4.879378575349077e+17
19609.0	4.878524043930281e+17
19610.0	4.8775190600308045e+17
19611.0	4.876578409065131e+17
19612.0	4.876006913474559e+17
19613.0	4.875145350305109e+17
19614.0	4.874270621914453e+17
19615.0	4.8734377338033485e+17
19616.0	4.87238194499857e+17
19617.0	4.871382324215808e+17
19618.0	4.8706814154724685e+17
19619.0	4.8697687719717536e+17
19620.0	4.868939154019668e+17
19621.0	4.8678931561185254e+17
19622.0	4.867491877268138e+17
19623.0	4.866647812035925e+17
19624.0	4.865763917692927e+17
19625.0	4.864988421641555e+17
19626.0	4.864132192927743e+17
19627.0	4.86327410823441e+17
19628.0	4.862394099914069e+17
19629.0	4.8605267971713696e+17
19630.0	4.8606078996316154e+17
19631.0	4.859687032498858e+17
19632.0	4.858968502785364e+17
19633.0	4.8581483492802554e+17
19634.0	4.857374280690346e+17
19635.0	4.85648879460898e+17
19636.0	4.8552866616442874e+17
19637.0	4.854208274628608e+17
19638.0	4.8540160503753363e+17
19639.0	4.8531672602596685e+17
19640.0	4.8521082628123296e+17
19641.0	4.8511268131525965e+17
19642.0	4.8505830684753914e+17
19643.0	4.8497954033500154e+17
19644.0	4.848973446294185e+17
19645.0	4.848155262014804e+17
19646.0	4.8468806011453434e+17
19647.0	4.846502210611882e+17
19648.0	4.845683372021076e+17
19649.0	4.8448483434168314e+17
19650.0	4.844015910387711e+17
19651.0	4.8431734110289914e+17
19652.0	4.842335368118272e+17
19653.0	4.841500764536832e+17
19654.0	4.840658743328766e+17
19655.0	4.839820861898751e+17
