# Flux units: erg / (cm m2 s)
# Wavelength units: Angstrom
wave	flux
19000.0	4.625229185111381e+17
19001.0	4.6244202317960525e+17
19002.0	4.623717136422227e+17
19003.0	4.6229479325259085e+17
19004.0	4.621783874753877e+17
19005.0	4.6212032740283725e+17
19006.0	4.620509473232212e+17
19007.0	4.6197525027225594e+17
19008.0	4.618994998138196e+17
19009.0	4.618177569532585e+17
19010.0	4.617348895298902e+17
19011.0	4.616401184620543e+17
19012.0	4.6152584891378336e+17
19013.0	4.6150867771282765e+17
19014.0	4.6139618640964256e+17
19015.0	4.613157146329087e+17
19016.0	4.612578584734378e+17
19017.0	4.611920559953236e+17
19018.0	4.6110060660654086e+17
19019.0	4.610274104792404e+17
19020.0	4.6094624636272634e+17
19021.0	4.6086928871369376e+17
19022.0	4.607989541502975e+17
19023.0	4.6069269075940685e+17
19024.0	4.6062111929576096e+17
19025.0	4.605447558397952e+17
19026.0	4.6046941879992314e+17
19027.0	4.603917860077566e+17
19028.0	4.6029336016322554e+17
19029.0	4.602058829201408e+17
19030.0	4.6011805587210234e+17
19031.0	4.600586801162921e+17
19032.0	4.5998805719449594e+17
19033.0	4.5986446839207245e+17
19034.0	4.5978777917849594e+17
19035.0	4.596901714329598e+17
19036.0	4.595682384019455e+17
19037.0	4.5952879614580045e+17
19038.0	4.594750458604202e+17
19039.0	4.594108697935872e+17
19040.0	4.593367172251647e+17
19041.0	4.592678568897193e+17
19042.0	4.586081694864716e+17
19043.0	4.5911658637994656e+17
19044.0	4.5905557456595616e+17
19045.0	4.5896182809668256e+17
19046.0	4.5887621913640954e+17
19047.0	4.5879541663880525e+17
19048.0	4.5865105743325856e+17
19049.0	4.574187904215707e+17
19050.0	4.585618501795839e+17
19051.0	4.5847133660992845e+17
19052.0	4.583920827192661e+17
19053.0	4.583287208367444e+17
19054.0	4.5823717595764045e+17
19055.0	4.5798772755660806e+17
19056.0	4.580546970998099e+17
19057.0	4.5803219920267936e+17
19058.0	4.573242094955168e+17
19059.0	4.57602816558148e+17
19060.0	4.577947579755178e+17
19061.0	4.5770768478371846e+17
19062.0	4.576102492143615e+17
19063.0	4.575644167962624e+17
19064.0	4.5748321108623354e+17
19065.0	4.573942319327914e+17
19066.0	4.571046891312471e+17
19067.0	4.5720331280711674e+17
19068.0	4.5717600446272845e+17
19069.0	4.5709223302703776e+17
19070.0	4.5698848188443296e+17
19071.0	4.5691611734780595e+17
19072.0	4.56626969789508e+17
19073.0	4.5678959127429114e+17
19074.0	4.566718973564244e+17
19075.0	4.5662063513217696e+17
19076.0	4.565359359863466e+17
19077.0	4.564592957063166e+17
19078.0	4.563813631612243e+17
19079.0	4.562942191555925e+17
19080.0	4.5622727414906874e+17
19081.0	4.561525724064426e+17
19082.0	4.56083411968546e+17
19083.0	4.5598246688522234e+17
19084.0	4.55904277369105e+17
19085.0	4.558345509797888e+17
19086.0	4.55401987514914e+17
19087.0	4.551749352991395e+17
19088.0	4.552794449117179e+17
19089.0	4.5551529544908794e+17
19090.0	4.5544924417884154e+17
19091.0	4.5533052328564077e+17
19092.0	4.5480490128725466e+17
19093.0	4.552069018375508e+17
19094.0	4.5513557406296736e+17
19095.0	4.5503885683807565e+17
19096.0	4.549787045068798e+17
19097.0	4.548992090243072e+17
19098.0	4.545819023769597e+17
19099.0	4.544405658664963e+17
19100.0	4.5466893851907405e+17
19101.0	4.5458496177220256e+17
19102.0	4.5451088567992314e+17
19103.0	4.5441828285754016e+17
19104.0	4.5436172504487245e+17
19105.0	4.537230831910928e+17
19106.0	4.541984284868608e+17
19107.0	4.539833800895143e+17
19108.0	4.5382203660916064e+17
19109.0	4.539542518366208e+17
19110.0	4.538729571374421e+17
19111.0	4.536172131560103e+17
19112.0	4.5352507639070694e+17
19113.0	4.536518573380949e+17
19114.0	4.5344649177115283e+17
19115.0	4.534682647527423e+17
19116.0	4.5337623123722234e+17
19117.0	4.532819051151359e+17
19118.0	4.5311210535867725e+17
19119.0	4.528385490769236e+17
19120.0	4.529947478938965e+17
19121.0	4.5296850832807245e+17
19122.0	4.5293831101699405e+17
19123.0	4.528753222178134e+17
19124.0	4.5278726301504845e+17
19125.0	4.52715773759761e+17
19126.0	4.5263046825738234e+17
19127.0	4.5255015935945376e+17
19128.0	4.524653774460244e+17
19129.0	4.524081617567744e+17
19130.0	4.523370069972308e+17
19131.0	4.5225952513010336e+17
19132.0	4.5217022140743674e+17
19133.0	4.52108454339106e+17
19134.0	4.520283471871998e+17
19135.0	4.519606518196906e+17
19136.0	4.5187118249192096e+17
19137.0	4.517801433060692e+17
19138.0	4.5172151413637114e+17
19139.0	4.5165249560575994e+17
19140.0	4.5157767523423565e+17
19141.0	4.514952656890538e+17
19142.0	4.5141076381532154e+17
19143.0	4.513320519685461e+17
19144.0	4.5124457192925856e+17
19145.0	4.5117502330852685e+17
19146.0	4.510638112680618e+17
19147.0	4.510246248644606e+17
19148.0	4.5075397474604416e+17
19149.0	4.5062029850269005e+17
19150.0	4.508013519263061e+17
19151.0	4.5071211426392723e+17
19152.0	4.5064795036057594e+17
19153.0	4.5014246472635654e+17
19154.0	4.504562741630293e+17
19155.0	4.504181086530218e+17
19156.0	4.503321152847872e+17
19157.0	4.501181211257519e+17
19158.0	4.498806518666585e+17
19159.0	4.500783546499072e+17
19160.0	4.5000734508318714e+17
19161.0	4.499424985568597e+17
19162.0	4.4986423445203616e+17
19163.0	4.497875478948521e+17
19164.0	4.497092016515753e+17
19165.0	4.491649156295331e+17
19166.0	4.495389688332286e+17
19167.0	4.4949003787304954e+17
19168.0	4.494008453693439e+17
19169.0	4.4932693795799046e+17
19170.0	4.492521527487146e+17
19171.0	4.491636286772565e+17
19172.0	4.490939365414229e+17
19173.0	4.490284968006997e+17
19174.0	4.489428440798549e+17
19175.0	4.488595094110207e+17
19176.0	4.487927983767551e+17
19177.0	4.4870265921863674e+17
19178.0	4.4863120351778125e+17
19179.0	4.485577855817045e+17
19180.0	4.484819550819668e+17
19181.0	4.4840672478713165e+17
19182.0	4.483072567279615e+17
19183.0	4.4824594697857696e+17
19184.0	4.4817486275324576e+17
19185.0	4.4808969377546234e+17
19186.0	4.480142010570068e+17
19187.0	4.4793848457243296e+17
19188.0	4.47867687796736e+17
19189.0	4.477897281983828e+17
19190.0	4.4770840805375994e+17
19191.0	4.476323904880638e+17
19192.0	4.475541954494463e+17
19193.0	4.474095200632832e+17
19194.0	4.473064063849813e+17
19195.0	4.4732117781490336e+17
19196.0	4.4723623931412474e+17
19197.0	4.471434558570495e+17
19198.0	4.4705167588720634e+17
19199.0	4.469910365274112e+17
19200.0	4.46910825636386e+17
19201.0	4.4683946262964896e+17
19202.0	4.46776208331025e+17
19203.0	4.4669525246170445e+17
19204.0	4.4663900964126714e+17
19205.0	4.465549749430955e+17
19206.0	4.464818750051668e+17
19207.0	4.463700211662847e+17
19208.0	4.4632978933241165e+17
19209.0	4.4625690470208845e+17
19210.0	4.461677751129429e+17
19211.0	4.461049375184213e+17
19212.0	4.4602880090439674e+17
19213.0	4.459508271852202e+17
19214.0	4.458812159994538e+17
19215.0	4.458058873481899e+17
19216.0	4.4573130842876576e+17
19217.0	4.456655344719189e+17
19218.0	4.455735425499136e+17
19219.0	4.454852575537833e+17
19220.0	4.454325038350334e+17
19221.0	4.4535116076154874e+17
19222.0	4.452587849908224e+17
19223.0	4.4519473034909e+17
19224.0	4.451138362758485e+17
19225.0	4.4505737087767885e+17
19226.0	4.4498625631354874e+17
19227.0	4.4490278616869536e+17
19228.0	4.4483172948596045e+17
19229.0	4.447138641608702e+17
19230.0	4.4467098579107834e+17
19231.0	4.4461540937564154e+17
19232.0	4.44537454530833e+17
19233.0	4.44447786532864e+17
19234.0	4.443704843916629e+17
19235.0	4.442985665484117e+17
19236.0	4.4422742660874234e+17
19237.0	4.441317889977002e+17
19238.0	4.440647544427861e+17
19239.0	4.439979463802879e+17
19240.0	4.4391018336529056e+17
19241.0	4.438518991071913e+17
19242.0	4.4374512359178234e+17
19243.0	4.436912176977236e+17
19244.0	4.4361457371272525e+17
19245.0	4.43548939915537e+17
19246.0	4.4347763982335994e+17
19247.0	4.4340213088692896e+17
19248.0	4.4331879572875936e+17
19249.0	4.432171748731562e+17
19250.0	4.4307035738603514e+17
19251.0	4.4300321126263443e+17
19252.0	4.430051230963029e+17
19253.0	4.429367297267029e+17
19254.0	4.4286768700893856e+17
19255.0	4.427733574615038e+17
19256.0	4.426957403979776e+17
19257.0	4.4263219019120634e+17
19258.0	4.425501594615808e+17
19259.0	4.424879721938943e+17
19260.0	4.423977234945366e+17
19261.0	4.423333895121578e+17
19262.0	4.422480299032576e+17
19263.0	4.4216007737562445e+17
19264.0	4.4209529397357216e+17
19265.0	4.4201259453207885e+17
19266.0	4.419503203723946e+17
19267.0	4.4187997091921914e+17
19268.0	4.4179170773346976e+17
19269.0	4.4172559739344205e+17
19270.0	4.4165064525086714e+17
19271.0	4.4156276402640205e+17
19272.0	4.4150696468370765e+17
19273.0	4.4142961416820045e+17
19274.0	4.413363445213865e+17
19275.0	4.412851112378368e+17
19276.0	4.4120945892611405e+17
19277.0	4.4113836694132045e+17
19278.0	4.410475197846868e+17
19279.0	4.409830390715732e+17
19280.0	4.4091378013743776e+17
19281.0	4.408300679812436e+17
19282.0	4.4075660984975354e+17
19283.0	4.406678780204372e+17
19284.0	4.406004485018966e+17
19285.0	4.4051033660675405e+17
19286.0	4.404155851123369e+17
19287.0	4.403200260745898e+17
19288.0	4.402257968409259e+17
19289.0	4.401417642399061e+17
19290.0	4.401030826906965e+17
19291.0	4.400320305517909e+17
19292.0	4.399830822551551e+17
19293.0	4.3991481401562445e+17
19294.0	4.398480081201834e+17
19295.0	4.3976429652322976e+17
19296.0	4.3942290450459386e+17
19297.0	4.395784894851756e+17
19298.0	4.395381836218366e+17
19299.0	4.3917623825530906e+17
19300.0	4.3940704052838406e+17
19301.0	4.393245598897493e+17
19302.0	4.3925012693210445e+17
19303.0	4.391580535706964e+17
19304.0	4.390882751720106e+17
19305.0	4.390057556661587e+17
19306.0	4.3893665982054394e+17
19307.0	4.388490280872618e+17
19308.0	4.387680943079423e+17
19309.0	4.386674682713428e+17
19310.0	4.38562516299503e+17
19311.0	4.3843548341425485e+17
19312.0	4.3824383811474765e+17
19313.0	4.378260382504277e+17
19314.0	4.358442602987521e+17
19315.0	4.3582672587107e+17
19316.0	4.372646907783857e+17
19317.0	4.3788938034981536e+17
19318.0	4.379300351093418e+17
19319.0	4.3788491145871354e+17
19320.0	4.377629545900711e+17
19321.0	4.375580736050517e+17
19322.0	4.3773881210634234e+17
19323.0	4.376788778090495e+17
19324.0	4.376015230992382e+17
19325.0	4.37538032451584e+17
19326.0	4.3745428590209696e+17
19327.0	4.3739395216725325e+17
19328.0	4.368144832746842e+17
19329.0	4.3724726288602445e+17
19330.0	4.371779895514453e+17
19331.0	4.3710158610978125e+17
19332.0	4.3702086372338336e+17
19333.0	4.3696120680939514e+17
19334.0	4.3684148249886726e+17
19335.0	4.357880147520183e+17
19336.0	4.367137558058326e+17
19337.0	4.3665000748810234e+17
19338.0	4.365650868830206e+17
19339.0	4.3648616832696314e+17
19340.0	4.364040597230932e+17
19341.0	4.359772751702708e+17
19342.0	4.361685693366274e+17
19343.0	4.36198783774447e+17
19344.0	4.357525097589424e+17
19345.0	4.35887053314458e+17
19346.0	4.359503333381461e+17
19347.0	4.354300018251093e+17
19348.0	4.358347831989589e+17
19349.0	4.3575803093101216e+17
19350.0	4.354967219470336e+17
19351.0	4.356093783659861e+17
19352.0	4.35034984930781e+17
19353.0	4.3546643452832416e+17
19354.0	4.3540312004143776e+17
19355.0	4.353218804973568e+17
19356.0	4.3524706473956685e+17
19357.0	4.3518031798381216e+17
19358.0	4.3510453921382394e+17
19359.0	4.349242190943568e+17
19360.0	4.345578463603369e+17
19361.0	4.3488379061753165e+17
19362.0	4.348079678772565e+17
19363.0	4.347364971468116e+17
19364.0	4.346655467896832e+17
19365.0	4.345855667251883e+17
19366.0	4.3448861965243725e+17
19367.0	4.3443300031528954e+17
19368.0	4.343668662774442e+17
19369.0	4.343006596781396e+17
19370.0	4.3422887961777485e+17
19371.0	4.3413146341212154e+17
19372.0	4.340704753658538e+17
19373.0	4.339820794303829e+17
19374.0	4.3390344161307296e+17
19375.0	4.338489162203136e+17
19376.0	4.33779455819776e+17
19377.0	4.33707576074786e+17
19378.0	4.336340217539242e+17
19379.0	4.335598468158806e+17
19380.0	4.3344986685221536e+17
19381.0	4.333850775781376e+17
19382.0	4.3332249772359674e+17
19383.0	4.3324553077719034e+17
19384.0	4.3314512689889274e+17
19385.0	4.331049622437887e+17
19386.0	4.330250406898346e+17
19387.0	4.329393679062357e+17
19388.0	4.3285719792571725e+17
19389.0	4.3277856968540154e+17
19390.0	4.3267799621741216e+17
19391.0	4.325497418809344e+17
19392.0	4.325107656119636e+17
19393.0	4.32467387420945e+17
19394.0	4.32415709471266e+17
19395.0	4.322108929387182e+17
19396.0	4.3224756870184966e+17
19397.0	4.3220446887280634e+17
19398.0	4.32006856896239e+17
19399.0	4.3188432799443616e+17
19400.0	4.318766011777024e+17
19401.0	4.3191089045176314e+17
19402.0	4.318491513454591e+17
19403.0	4.317771745023317e+17
19404.0	4.3168755634667514e+17
19405.0	4.31608982212881e+17
19406.0	4.315484550507179e+17
19407.0	4.312961958368594e+17
19408.0	4.3140390563348474e+17
19409.0	4.313224899286357e+17
19410.0	4.312495739109374e+17
19411.0	4.31172779839761e+17
19412.0	4.3109532404722336e+17
19413.0	4.308451913454933e+17
19414.0	4.309563677343744e+17
19415.0	4.3087042686484474e+17
19416.0	4.3078007582446925e+17
19417.0	4.3072542019857056e+17
19418.0	4.3064670199043405e+17
19419.0	4.305662103606613e+17
19420.0	4.304849425749332e+17
19421.0	4.304040908641621e+17
19422.0	4.3031202840794445e+17
19423.0	4.3025152976704845e+17
19424.0	4.301692987594068e+17
19425.0	4.300741880228523e+17
19426.0	4.3000345961431034e+17
19427.0	4.2991740878411085e+17
19428.0	4.298025611209386e+17
19429.0	4.297367998169088e+17
19430.0	4.296249207422976e+17
19431.0	4.295192044284586e+17
19432.0	4.294301967537494e+17
19433.0	4.293189858317654e+17
19434.0	4.2921807730879136e+17
19435.0	4.290769913380863e+17
19436.0	4.289296752880298e+17
19437.0	4.2876653000458234e+17
19438.0	4.2853053972698445e+17
19439.0	4.2846213685029536e+17
19440.0	4.283620418125824e+17
19441.0	4.2820330159691085e+17
19442.0	4.280183524338346e+17
19443.0	4.277678796439551e+17
19444.0	4.2746278191650125e+17
19445.0	4.270784021965481e+17
19446.0	4.2660204362683725e+17
19447.0	4.259491117793279e+17
19448.0	4.2503983218032634e+17
19449.0	4.237031223154006e+17
19450.0	4.2126180663077523e+17
19451.0	4.192592581361664e+17
19452.0	4.22539829444608e+17
19453.0	4.2410305220771846e+17
19454.0	4.249542571939157e+17
19455.0	4.254358341768533e+17
19456.0	4.255380170691926e+17
19457.0	4.2484181852924595e+17
19458.0	4.200839471519072e+17
19459.0	4.2316353461289005e+17
19460.0	4.2579642450356896e+17
19461.0	4.2645067504025594e+17
19462.0	4.2669193930560845e+17
19463.0	4.267910758050474e+17
19464.0	4.268333350256638e+17
19465.0	4.268503699117395e+17
19466.0	4.2684922633475405e+17
19467.0	4.26826685166387e+17
19468.0	4.2680282908371616e+17
19469.0	4.264154054175397e+17
19470.0	4.2671961542055245e+17
19471.0	4.2666943232081914e+17
19472.0	4.266249268406953e+17
19473.0	4.2656859041737376e+17
19474.0	4.261271411796644e+17
19475.0	4.2641741344058016e+17
19476.0	4.263839528910847e+17
19477.0	4.263169393775957e+17
19478.0	4.2626555684672845e+17
19479.0	4.258465484636153e+17
19480.0	4.2613916352293536e+17
19481.0	4.2604875662841165e+17
19482.0	4.259854242458282e+17
19483.0	4.259332665376767e+17
19484.0	4.2585062413871776e+17
19485.0	4.257977235494228e+17
19486.0	4.253413810372619e+17
19487.0	4.256403176117589e+17
19488.0	4.2557582983823354e+17
19489.0	4.2551122378533536e+17
19490.0	4.2543078821942605e+17
19491.0	4.253532668559359e+17
19492.0	4.2528908212087456e+17
19493.0	4.252031928412842e+17
19494.0	4.25131356926771e+17
19495.0	4.2506424589571405e+17
19496.0	4.249589695643647e+17
19497.0	4.248843827456682e+17
19498.0	4.2476091739559245e+17
19499.0	4.24644421091328e+17
19500.0	4.2464890060799994e+17
19501.0	4.24617116172288e+17
19502.0	4.2455356065273165e+17
19503.0	4.2449062036766714e+17
19504.0	4.244138269256361e+17
19505.0	4.243252349064533e+17
19506.0	4.2425757756730016e+17
19507.0	4.2416321090027514e+17
19508.0	4.240268916162559e+17
19509.0	4.2381753118446925e+17
19510.0	4.232039631596201e+17
19511.0	4.21380400296755e+17
19512.0	4.2291969036124154e+17
19513.0	4.234026946658302e+17
19514.0	4.23487931940864e+17
19515.0	4.2355744456048634e+17
19516.0	4.234673523785727e+17
19517.0	4.234817428957866e+17
19518.0	4.233215580919122e+17
19519.0	4.232597460746238e+17
19520.0	4.229432053071867e+17
19521.0	4.232557059112959e+17
19522.0	4.23120461837107e+17
19523.0	4.2303691109171226e+17
19524.0	4.227678096501426e+17
19525.0	4.2297534744712525e+17
19526.0	4.228952774148095e+17
19527.0	4.2283669305425914e+17
19528.0	4.227289346736127e+17
19529.0	4.226484483566251e+17
19530.0	4.226242514168489e+17
19531.0	4.225505549789865e+17
19532.0	4.224760427489961e+17
19533.0	4.223948318659925e+17
19534.0	4.223429418942464e+17
19535.0	4.2227466778269005e+17
19536.0	4.2219330247939405e+17
19537.0	4.2212410694915405e+17
19538.0	4.2171925657900416e+17
19539.0	4.219961599852543e+17
19540.0	4.219202165189289e+17
19541.0	4.217585504266923e+17
19542.0	4.2173164193928525e+17
19543.0	4.213411038625794e+17
19544.0	4.215968550442323e+17
19545.0	4.2155472074397005e+17
19546.0	4.214879908353364e+17
19547.0	4.2142664179930445e+17
19548.0	4.213541314407082e+17
19549.0	4.212670668472319e+17
19550.0	4.211896583105194e+17
19551.0	4.2114528299362976e+17
19552.0	4.2105969465535136e+17
19553.0	4.210026593211734e+17
19554.0	4.2091713774223354e+17
19555.0	4.207974327954091e+17
19556.0	4.207472371127636e+17
19557.0	4.207123362392747e+17
19558.0	4.206455123083263e+17
19559.0	4.205712616630954e+17
19560.0	4.2037000217995923e+17
19561.0	4.204302808296106e+17
19562.0	4.2024725943855763e+17
19563.0	4.2029634845409274e+17
19564.0	4.201909488801109e+17
19565.0	4.201408921687381e+17
19566.0	4.200554020470783e+17
19567.0	4.20011909910801e+17
19568.0	4.1993756139847674e+17
19569.0	4.198711168423253e+17
19570.0	4.1980007658728096e+17
19571.0	4.1972382015597216e+17
19572.0	4.1965486481954125e+17
19573.0	4.195467038556159e+17
19574.0	4.194941917287764e+17
19575.0	4.194484636789417e+17
19576.0	4.1935960937594874e+17
19577.0	4.192508006017706e+17
19578.0	4.1923517150658554e+17
19579.0	4.191706282284372e+17
19580.0	4.190839434291882e+17
19581.0	4.190007700313428e+17
19582.0	4.1894954737336314e+17
19583.0	4.1889175098272416e+17
19584.0	4.1880570001271456e+17
19585.0	4.187369843108521e+17
19586.0	4.1866837283744416e+17
19587.0	4.1860820170178554e+17
19588.0	4.185296066663765e+17
19589.0	4.184644839451306e+17
19590.0	4.183897805247829e+17
19591.0	4.183176618442751e+17
19592.0	4.182470955455829e+17
19593.0	4.181457647261012e+17
19594.0	4.18064681280034e+17
19595.0	4.180368315209045e+17
19596.0	4.179502907260927e+17
19597.0	4.1789546327354016e+17
19598.0	4.177901679979179e+17
19599.0	4.1774611536281594e+17
19600.0	4.176675666744661e+17
19601.0	4.1760790130196474e+17
19602.0	4.1753961202100896e+17
19603.0	4.174660005877077e+17
19604.0	4.174034566643711e+17
19605.0	4.173116115430059e+17
19606.0	4.172482715407701e+17
19607.0	4.1719401563204256e+17
19608.0	4.170902312146261e+17
19609.0	4.170486663610367e+17
19610.0	4.168148210505049e+17
19611.0	4.16647504391919e+17
19612.0	4.168407475115348e+17
19613.0	4.167466991222782e+17
19614.0	4.1669235876823034e+17
19615.0	4.166308549623808e+17
19616.0	4.163963340193795e+17
19617.0	4.162324928309932e+17
19618.0	4.1638619505841485e+17
19619.0	4.163022905234774e+17
19620.0	4.161765980678822e+17
19621.0	4.1580554113515494e+17
19622.0	4.1613219422972576e+17
19623.0	4.1605214055519565e+17
19624.0	4.159495888437248e+17
19625.0	4.159275210724694e+17
19626.0	4.158402482317993e+17
19627.0	4.1578376053391354e+17
19628.0	4.157106257133568e+17
19629.0	4.147736618205178e+17
19630.0	4.155684992057344e+17
19631.0	4.1546299316633594e+17
19632.0	4.1543170142153376e+17
19633.0	4.1536264374408525e+17
19634.0	4.152948626030591e+17
19635.0	4.151837910018728e+17
19636.0	4.147336562693457e+17
19637.0	4.1465366956386944e+17
19638.0	4.149795816647337e+17
19639.0	4.149303038356137e+17
19640.0	4.148474757687978e+17
19641.0	4.147867362350421e+17
19642.0	4.147124017037312e+17
19643.0	4.1464958668854605e+17
19644.0	4.1460167997740365e+17
19645.0	4.145448320587094e+17
19646.0	4.1402533884723136e+17
19647.0	4.143646681071615e+17
19648.0	4.1433438061854714e+17
19649.0	4.142562835169279e+17
19650.0	4.141898156124842e+17
19651.0	4.1412152360523085e+17
19652.0	4.140599884819114e+17
19653.0	4.139786377887743e+17
19654.0	4.139219911267668e+17
19655.0	4.1383746457654605e+17
