# Flux units: erg / (cm m2 s)
# Wavelength units: Angstrom
wave	flux
19000.0	6.835508939674964e+17
19001.0	6.834157380435968e+17
19002.0	6.832911090537812e+17
19003.0	6.831609104476841e+17
19004.0	6.830309232345087e+17
19005.0	6.829008234741759e+17
19006.0	6.827708300394495e+17
19007.0	6.826367929461418e+17
19008.0	6.825046753760595e+17
19009.0	6.823793011982335e+17
19010.0	6.822260458039977e+17
19011.0	6.82120167100689e+17
19012.0	6.819834965437097e+17
19013.0	6.818615114334207e+17
19014.0	6.817282340683775e+17
19015.0	6.816000483786751e+17
19016.0	6.814700611654996e+17
19017.0	6.812756941122217e+17
19018.0	6.812121155239935e+17
19019.0	6.810825530540031e+17
19020.0	6.809473430934868e+17
19021.0	6.808206488283817e+17
19022.0	6.806944488620032e+17
19023.0	6.805624483829076e+17
19024.0	6.804342953388713e+17
19025.0	6.803045063764649e+17
19026.0	6.801748718343508e+17
19027.0	6.800460472123391e+17
19028.0	6.799173756125183e+17
19029.0	6.797870597057193e+17
19030.0	6.796592029193555e+17
19031.0	6.795301734055935e+17
19032.0	6.794007510253567e+17
19033.0	6.792664861114367e+17
19034.0	6.791402604898985e+17
19035.0	6.790108030173183e+17
19036.0	6.786442438464851e+17
19037.0	6.787535016209066e+17
19038.0	6.786238267435689e+17
19039.0	6.784956987255465e+17
19040.0	6.783669019257514e+17
19041.0	6.782373442093055e+17
19042.0	6.781036637017427e+17
19043.0	6.77979431702801e+17
19044.0	6.778496578398889e+17
19045.0	6.777214239156906e+17
19046.0	6.775884679042388e+17
19047.0	6.77463424447283e+17
19048.0	6.773232009652905e+17
19049.0	6.772014185796948e+17
19050.0	6.770739792663892e+17
19051.0	6.769263414433108e+17
19052.0	6.768173324610218e+17
19053.0	6.766882522660863e+17
19054.0	6.765611626878291e+17
19055.0	6.76418818286114e+17
19056.0	6.763023493846355e+17
19057.0	6.761746579936596e+17
19058.0	6.760433618780159e+17
19059.0	6.759174470544042e+17
19060.0	6.757878773142868e+17
19061.0	6.756604979096233e+17
19062.0	6.755316362379261e+17
19063.0	6.754031010927956e+17
19064.0	6.752676048710314e+17
19065.0	6.751358061379583e+17
19066.0	6.75014113370658e+17
19067.0	6.7488864286365e+17
19068.0	6.747607895026346e+17
19069.0	6.746325005631487e+17
19070.0	6.745022241527123e+17
19071.0	6.743754014020948e+17
19072.0	6.742474419950931e+17
19073.0	6.741187336951123e+17
19074.0	6.739910053942611e+17
19075.0	6.73862750708258e+17
19076.0	6.737332436729855e+17
19077.0	6.736059066307923e+17
19078.0	6.734653785025193e+17
19079.0	6.733494860382205e+17
19080.0	6.732210612032851e+17
19081.0	6.730907139091114e+17
19082.0	6.729577757234515e+17
19083.0	6.728308231591252e+17
19084.0	6.726954584986964e+17
19085.0	6.725809404379136e+17
19086.0	6.7243120015005e+17
19087.0	6.723218109541033e+17
19088.0	6.721938211383978e+17
19089.0	6.72057370293043e+17
19090.0	6.719402260387155e+17
19091.0	6.718112727214762e+17
19092.0	6.716821301712212e+17
19093.0	6.715584764968959e+17
19094.0	6.714238380102995e+17
19095.0	6.712944526098432e+17
19096.0	6.711730164640425e+17
19097.0	6.710477383357779e+17
19098.0	6.709200241557503e+17
19099.0	6.707905961831081e+17
19100.0	6.706642495558998e+17
19101.0	6.705374115659775e+17
19102.0	6.704054869338793e+17
19103.0	6.702820645754195e+17
19104.0	6.701550248394751e+17
19105.0	6.700273754614442e+17
19106.0	6.69899126088226e+17
19107.0	6.697716570652671e+17
19108.0	6.696453387496105e+17
19109.0	6.694902220630697e+17
19110.0	6.693905586891434e+17
19111.0	6.692632900840106e+17
19112.0	6.691361022891348e+17
19113.0	6.690087706296319e+17
19114.0	6.688813552937641e+17
19115.0	6.687512577703936e+17
19116.0	6.686259421730132e+17
19117.0	6.684989507414698e+17
19118.0	6.683652343726079e+17
19119.0	6.681410544861181e+17
19120.0	6.681168950853631e+17
19121.0	6.679911483135316e+17
19122.0	6.678646859235328e+17
19123.0	6.677321906563753e+17
19124.0	6.676094155489279e+17
19125.0	6.674831256846335e+17
19126.0	6.673539002269695e+17
19127.0	6.671431287614121e+17
19128.0	6.670751618826239e+17
19129.0	6.669711367820628e+17
19130.0	6.668488726806527e+17
19131.0	6.667219137549652e+17
19132.0	6.665953677585065e+17
19133.0	6.664166757979476e+17
19134.0	6.663289405352617e+17
19135.0	6.662157976469501e+17
19136.0	6.660895104390484e+17
19137.0	6.659543947804671e+17
19138.0	6.658268609555114e+17
19139.0	6.657096346326355e+17
19140.0	6.65583189229568e+17
19141.0	6.654567243229865e+17
19142.0	6.653288798399146e+17
19143.0	6.652002339651583e+17
19144.0	6.650740883150163e+17
19145.0	6.649505252376575e+17
19146.0	6.647924018642943e+17
19147.0	6.646935358275583e+17
19148.0	6.645715349187241e+17
19149.0	6.644450276496724e+17
19150.0	6.643172836900864e+17
19151.0	6.641927033541972e+17
19152.0	6.640593271433897e+17
19153.0	6.639394358296575e+17
19154.0	6.638076612837375e+17
19155.0	6.63688305512721e+17
19156.0	6.635620660499795e+17
19157.0	6.634356443447295e+17
19158.0	6.632900190885203e+17
19159.0	6.631829266934441e+17
19160.0	6.630488909283327e+17
19161.0	6.629283401302015e+17
19162.0	6.627624877031423e+17
19163.0	6.626797150011391e+17
19164.0	6.625541623556777e+17
19165.0	6.624274386605395e+17
19166.0	6.622970969587711e+17
19167.0	6.621725333301929e+17
19168.0	6.620367367263572e+17
19169.0	6.619177408965289e+17
19170.0	6.617991100410538e+17
19171.0	6.616718653434537e+17
19172.0	6.615472676012032e+17
19173.0	6.614219199873023e+17
19174.0	6.612932649549824e+17
19175.0	6.611706690142207e+17
19176.0	6.610446800213332e+17
19177.0	6.609113629502121e+17
19178.0	6.60793502798097e+17
19179.0	6.606663734438569e+17
19180.0	6.605265716292265e+17
19181.0	6.604122833463978e+17
19182.0	6.60258057949457e+17
19183.0	6.601644700248746e+17
19184.0	6.600279227804329e+17
19185.0	6.599140734315177e+17
19186.0	6.597900392639145e+17
19187.0	6.596597760655359e+17
19188.0	6.59538956132898e+17
19189.0	6.594129497336489e+17
19190.0	6.59287440429329e+17
19191.0	6.591613369319423e+17
19192.0	6.590352032355667e+17
19193.0	6.588790019020116e+17
19194.0	6.587727513037482e+17
19195.0	6.586599120830463e+17
19196.0	6.585364861594282e+17
19197.0	6.584118506684415e+17
19198.0	6.58287172395554e+17
19199.0	6.578992164022953e+17
19200.0	6.578691695968256e+17
19201.0	6.57912059011618e+17
19202.0	6.577872120578047e+17
19203.0	6.576617851016531e+17
19204.0	6.575358386809514e+17
19205.0	6.574113831256061e+17
19206.0	6.572863017101993e+17
19207.0	6.571574905099603e+17
19208.0	6.570237621174271e+17
19209.0	6.569113400901631e+17
19210.0	6.567859488555008e+17
19211.0	6.566595497994921e+17
19212.0	6.565377221853183e+17
19213.0	6.564065700042068e+17
19214.0	6.562803899607721e+17
19215.0	6.561627215582548e+17
19216.0	6.560245740470271e+17
19217.0	6.559129177598634e+17
19218.0	6.557464192701778e+17
19219.0	6.55655476343603e+17
19220.0	6.555386235234985e+17
19221.0	6.553977119659348e+17
19222.0	6.552910009729023e+17
19223.0	6.551648456059562e+17
19224.0	6.5501633445888e+17
19225.0	6.549030284121427e+17
19226.0	6.547909635997695e+17
19227.0	6.546663106325161e+17
19228.0	6.545435901908307e+17
19229.0	6.544191168096938e+17
19230.0	6.542920317752659e+17
19231.0	6.541654597042176e+17
19232.0	6.540258330716842e+17
19233.0	6.539173341167615e+17
19234.0	6.537954085655892e+17
19235.0	6.536703459546452e+17
19236.0	6.535480887738367e+17
19237.0	6.534228249062057e+17
19238.0	6.532944109065556e+17
19239.0	6.531753736230227e+17
19240.0	6.530237203830099e+17
19241.0	6.529176881681748e+17
19242.0	6.527964520906751e+17
19243.0	6.526665507908265e+17
19244.0	6.525528140589738e+17
19245.0	6.524288690203305e+17
19246.0	6.523044336675497e+17
19247.0	6.521770484607658e+17
19248.0	6.520570988462079e+17
19249.0	6.51932738920994e+17
19250.0	6.518075189537449e+17
19251.0	6.516793093565097e+17
19252.0	6.515335558245034e+17
19253.0	6.514349962515796e+17
19254.0	6.513078422907561e+17
19255.0	6.511760771121151e+17
19256.0	6.510620890715476e+17
19257.0	6.509392750968832e+17
19258.0	6.508140370242217e+17
19259.0	6.506869007493801e+17
19260.0	6.505649738001065e+17
19261.0	6.504424967678634e+17
19262.0	6.503153885948586e+17
19263.0	6.501921827323901e+17
19264.0	6.500409805198676e+17
19265.0	6.499372738368852e+17
19266.0	6.498166437664084e+17
19267.0	6.496988589020499e+17
19268.0	6.495741456067242e+17
19269.0	6.494503707869183e+17
19270.0	6.493262147048788e+17
19271.0	6.491849844501162e+17
19272.0	6.490764081801898e+17
19273.0	6.482769140689568e+17
19274.0	6.485085540843515e+17
19275.0	6.487062417681065e+17
19276.0	6.48581111489058e+17
19277.0	6.48456941146385e+17
19278.0	6.483333170419027e+17
19279.0	6.481980470329343e+17
19280.0	6.480804233696595e+17
19281.0	6.479606181789695e+17
19282.0	6.478374174894761e+17
19283.0	6.477087710554793e+17
19284.0	6.475775080049321e+17
19285.0	6.474509224422057e+17
19286.0	6.473388007970134e+17
19287.0	6.472166785329833e+17
19288.0	6.470374629834751e+17
19289.0	6.46801683539558e+17
19290.0	6.468440414661289e+17
19291.0	6.467048315376982e+17
19292.0	6.465952166881961e+17
19293.0	6.464706847965184e+17
19294.0	6.463460818113875e+17
19295.0	6.462224291157332e+17
19296.0	6.460974453577044e+17
19297.0	6.459720088245588e+17
19298.0	6.458473743821481e+17
19299.0	6.457245718020096e+17
19300.0	6.456000894031188e+17
19301.0	6.454747888353279e+17
19302.0	6.453499167156906e+17
19303.0	6.452198495311188e+17
19304.0	6.450966839339689e+17
19305.0	6.449756287008768e+17
19306.0	6.448511785981267e+17
19307.0	6.447230822470995e+17
19308.0	6.446000767325523e+17
19309.0	6.444697355900244e+17
19310.0	6.443386981930323e+17
19311.0	6.442247079155028e+17
19312.0	6.440967369741652e+17
19313.0	6.439298478549676e+17
19314.0	6.438090899980287e+17
19315.0	6.43687350673954e+17
19316.0	6.436008720247465e+17
19317.0	6.43474865136162e+17
19318.0	6.433489817698304e+17
19319.0	6.432242756747263e+17
19320.0	6.430872735580159e+17
19321.0	6.429727136940031e+17
19322.0	6.428364453008726e+17
19323.0	6.427160418626217e+17
19324.0	6.425943862149119e+17
19325.0	6.424651265736704e+17
19326.0	6.423418540916735e+17
19327.0	6.422145676607488e+17
19328.0	6.420890334003199e+17
19329.0	6.419622668533759e+17
19330.0	6.418330699169791e+17
19331.0	6.417059207097002e+17
19332.0	6.415807775681193e+17
19333.0	6.414515529493162e+17
19334.0	6.413094673361578e+17
19335.0	6.411961317195776e+17
19336.0	6.410681407853908e+17
19337.0	6.409389379070633e+17
19338.0	6.408005964791807e+17
19339.0	6.406833358329172e+17
19340.0	6.40552210215731e+17
19341.0	6.404254337422676e+17
19342.0	6.402682087189161e+17
19343.0	6.401669571717801e+17
19344.0	6.40036582265105e+17
19345.0	6.397986119264934e+17
19346.0	6.39748931514095e+17
19347.0	6.396422517686272e+17
19348.0	6.395153846282921e+17
19349.0	6.393825933830825e+17
19350.0	6.392514094650707e+17
19351.0	6.391188447821823e+17
19352.0	6.389849521127423e+17
19353.0	6.388566022160383e+17
19354.0	6.387222225879039e+17
19355.0	6.385844942274559e+17
19356.0	6.384559313999187e+17
19357.0	6.383207520578217e+17
19358.0	6.381801994627753e+17
19359.0	6.380126514184191e+17
19360.0	6.379125849019732e+17
19361.0	6.377717312957098e+17
19362.0	6.376415421267967e+17
19363.0	6.375033634379091e+17
19364.0	6.373637324712618e+17
19365.0	6.372247598705321e+17
19366.0	6.37085847458065e+17
19367.0	6.36945126391808e+17
19368.0	6.368035684220927e+17
19369.0	6.366478446100479e+17
19370.0	6.364315312805204e+17
19371.0	6.363700975195475e+17
19372.0	6.362277954803027e+17
19373.0	6.360795299796308e+17
19374.0	6.359329849824596e+17
19375.0	6.357842677552467e+17
19376.0	6.356337286621865e+17
19377.0	6.354822150225917e+17
19378.0	6.353294474958163e+17
19379.0	6.351743315083263e+17
19380.0	6.350188158735699e+17
19381.0	6.348603302521514e+17
19382.0	6.346958009182889e+17
19383.0	6.345331040059391e+17
19384.0	6.34375354065442e+17
19385.0	6.342090107650047e+17
19386.0	6.340406331572223e+17
19387.0	6.338693822414847e+17
19388.0	6.336945391140863e+17
19389.0	6.335177737371647e+17
19390.0	6.333370327891967e+17
19391.0	6.329402472966822e+17
19392.0	6.329673857717588e+17
19393.0	6.327772748185599e+17
19394.0	6.325823642533887e+17
19395.0	6.323833503307091e+17
19396.0	6.321786699033258e+17
19397.0	6.319710057179818e+17
19398.0	6.317552261136383e+17
19399.0	6.314996442420563e+17
19400.0	6.313064049672191e+17
19401.0	6.310733333659647e+17
19402.0	6.308315424358399e+17
19403.0	6.305812201515689e+17
19404.0	6.303240122881363e+17
19405.0	6.300550087835645e+17
19406.0	6.297766779158528e+17
19407.0	6.294874216551764e+17
19408.0	6.291469651061418e+17
19409.0	6.288595724446377e+17
19410.0	6.285376427655167e+17
19411.0	6.281902232524116e+17
19412.0	6.278244770075988e+17
19413.0	6.274407420220756e+17
19414.0	6.270318716212563e+17
19415.0	6.26602792784145e+17
19416.0	6.261382028722176e+17
19417.0	6.256577717032276e+17
19418.0	6.251451930116095e+17
19419.0	6.245915385921535e+17
19420.0	6.240014056816637e+17
19421.0	6.233629059448831e+17
19422.0	6.226754149198505e+17
19423.0	6.219390824830291e+17
19424.0	6.211396261904383e+17
19425.0	6.20271962755345e+17
19426.0	6.193240887088467e+17
19427.0	6.18282673644066e+17
19428.0	6.171829781659647e+17
19429.0	6.159588414630569e+17
19430.0	6.146069871547734e+17
19431.0	6.130883839568556e+17
19432.0	6.115128554553341e+17
19433.0	6.097045424526676e+17
19434.0	6.077237710640467e+17
19435.0	6.055194801821011e+17
19436.0	6.030650136767146e+17
19437.0	6.003795166582099e+17
19438.0	5.97060933281382e+17
19439.0	5.939583069279575e+17
19440.0	5.902807161547433e+17
19441.0	5.861012670513147e+17
19442.0	5.812649031892993e+17
19443.0	5.761490473364138e+17
19444.0	5.704293580887378e+17
19445.0	5.636022981361665e+17
19446.0	5.5621548258973e+17
19447.0	5.475683439127205e+17
19448.0	5.373993662720687e+17
19449.0	5.226010481349975e+17
19450.0	4.859054899855336e+17
19451.0	4.719830282272765e+17
19452.0	5.071153043341318e+17
19453.0	5.311235885105157e+17
19454.0	5.422224676749304e+17
19455.0	5.514960966778879e+17
19456.0	5.5903719962705946e+17
19457.0	5.660636900666019e+17
19458.0	5.719983548006401e+17
19459.0	5.771357668595032e+17
19460.0	5.819545615510182e+17
19461.0	5.862167226788521e+17
19462.0	5.898820779682476e+17
19463.0	5.931520936815274e+17
19464.0	5.96136466596932e+17
19465.0	5.9875486845283e+17
19466.0	6.010734104281085e+17
19467.0	6.031508586364927e+17
19468.0	6.049996363268096e+17
19469.0	6.065329671940776e+17
19470.0	6.081130333732863e+17
19471.0	6.09424553157154e+17
19472.0	6.105850130552148e+17
19473.0	6.116223326617599e+17
19474.0	6.125502916635306e+17
19475.0	6.133368330649599e+17
19476.0	6.141182414072489e+17
19477.0	6.147788032529748e+17
19478.0	6.153716079351124e+17
19479.0	6.158961061396479e+17
19480.0	6.163622630435497e+17
19481.0	6.167841415888895e+17
19482.0	6.171563128782847e+17
19483.0	6.174881213317119e+17
19484.0	6.177802579607551e+17
19485.0	6.180371499231914e+17
19486.0	6.18268308991727e+17
19487.0	6.184720498950143e+17
19488.0	6.186502021185536e+17
19489.0	6.188055188733951e+17
19490.0	6.18871294088533e+17
19491.0	6.19055212012066e+17
19492.0	6.19157193368098e+17
19493.0	6.192405847299411e+17
19494.0	6.193111476032852e+17
19495.0	6.193492058789203e+17
19496.0	6.193845751163562e+17
19497.0	6.194474972261034e+17
19498.0	6.19463299895569e+17
19499.0	6.191262392647675e+17
19500.0	6.194968003608576e+17
19501.0	6.194950154747904e+17
19502.0	6.194882940327252e+17
19503.0	6.194759443240276e+17
19504.0	6.194500474328403e+17
19505.0	6.194304757618003e+17
19506.0	6.19399820153105e+17
19507.0	6.193630370856959e+17
19508.0	6.193237467332605e+17
19509.0	6.192789297561599e+17
19510.0	6.192209655234559e+17
19511.0	6.189844762634921e+17
19512.0	6.190810535384402e+17
19513.0	6.189531550187517e+17
19514.0	6.189384252522495e+17
19515.0	6.189117993910272e+17
19516.0	6.188720350822399e+17
19517.0	6.187996319580159e+17
19518.0	6.187315465202345e+17
19519.0	6.186577520055636e+17
19520.0	6.185804941841748e+17
19521.0	6.185048531271679e+17
19522.0	6.184234736331433e+17
19523.0	6.183456856517289e+17
19524.0	6.1826306422429e+17
19525.0	6.181740924108799e+17
19526.0	6.180928601369257e+17
19527.0	6.180060846708052e+17
19528.0	6.179187727532031e+17
19529.0	6.178292661660329e+17
19530.0	6.177399047716863e+17
19531.0	6.176493423383892e+17
19532.0	6.175567598583808e+17
19533.0	6.174642374268244e+17
19534.0	6.173701888977577e+17
19535.0	6.172741181549225e+17
19536.0	6.171778300073299e+17
19537.0	6.170835138117631e+17
19538.0	6.16984833233169e+17
19539.0	6.168596602421248e+17
19540.0	6.167890832479572e+17
19541.0	6.166916402686634e+17
19542.0	6.1659187000989e+17
19543.0	6.164917029699583e+17
19544.0	6.163915251646463e+17
19545.0	6.16273059005508e+17
19546.0	6.161404186154324e+17
19547.0	6.160812000761171e+17
19548.0	6.159839411568637e+17
19549.0	6.158753217555113e+17
19550.0	6.15778502119697e+17
19551.0	6.156754257707008e+17
19552.0	6.155713729877331e+17
19553.0	6.154662429676884e+17
19554.0	6.153604308839081e+17
19555.0	6.152569986482175e+17
19556.0	6.151524552015871e+17
19557.0	6.150467723023702e+17
19558.0	6.149410896128681e+17
19559.0	6.148319123690835e+17
19560.0	6.147274786035027e+17
19561.0	6.146207235003732e+17
19562.0	6.145150396224852e+17
19563.0	6.144057450779988e+17
19564.0	6.143015373854036e+17
19565.0	6.141939437709994e+17
19566.0	6.14085483962914e+17
19567.0	6.139773710237696e+17
19568.0	6.138696210317312e+17
19569.0	6.137621057809065e+17
19570.0	6.13655481819682e+17
19571.0	6.135469280591872e+17
19572.0	6.134366452667731e+17
19573.0	6.133294203316906e+17
19574.0	6.132150410324649e+17
19575.0	6.131112262063444e+17
19576.0	6.130032315465727e+17
19577.0	6.1287928706717e+17
19578.0	6.127827026619049e+17
19579.0	6.126744052432896e+17
19580.0	6.125652874188116e+17
19581.0	6.124563897952937e+17
19582.0	6.123477115338751e+17
19583.0	6.122380342591487e+17
19584.0	6.121281355251712e+17
19585.0	6.120119805673471e+17
19586.0	6.118957496227156e+17
19587.0	6.117890384199679e+17
19588.0	6.116607903050409e+17
19589.0	6.115664536272896e+17
19590.0	6.114633147831636e+17
19591.0	6.113573556890281e+17
19592.0	6.112473136496639e+17
19593.0	6.11135433876002e+17
19594.0	6.110123177716393e+17
19595.0	6.109146650072403e+17
19596.0	6.107367459170986e+17
19597.0	6.10693919277056e+17
19598.0	6.105717840805887e+17
19599.0	6.104734358306813e+17
19600.0	6.103629129842687e+17
19601.0	6.102487977863849e+17
19602.0	6.101395018437972e+17
19603.0	6.100072479588351e+17
19604.0	6.099166451204095e+17
19605.0	6.097923639782057e+17
19606.0	6.096945212118356e+17
19607.0	6.095869431862612e+17
19608.0	6.094753098279593e+17
19609.0	6.093621273034752e+17
19610.0	6.092541340418047e+17
19611.0	6.091428420299434e+17
19612.0	6.090323570021715e+17
19613.0	6.089199475578198e+17
19614.0	6.088078051508223e+17
19615.0	6.086989884074665e+17
19616.0	6.085862223074644e+17
19617.0	6.084764147995988e+17
19618.0	6.08340577231394e+17
19619.0	6.082199886146217e+17
19620.0	6.081107962014378e+17
19621.0	6.080318377994921e+17
19622.0	6.07920882590242e+17
19623.0	6.078098338480128e+17
19624.0	6.076980502637225e+17
19625.0	6.075872206738772e+17
19626.0	6.074755641070931e+17
19627.0	6.073649779266902e+17
19628.0	6.07247363281169e+17
19629.0	6.071377207492607e+17
19630.0	6.070277258958164e+17
19631.0	6.06650563244851e+17
19632.0	6.068085027678889e+17
19633.0	6.066948663498068e+17
19634.0	6.065860343671465e+17
19635.0	6.064726386322089e+17
19636.0	6.063631723309737e+17
19637.0	6.062291273383936e+17
19638.0	6.061405916626944e+17
19639.0	6.060283510390783e+17
19640.0	6.05915183194658e+17
19641.0	6.057818018108756e+17
19642.0	6.056955555960148e+17
19643.0	6.055828581427881e+17
19644.0	6.054707439075328e+17
19645.0	6.053495422932308e+17
19646.0	6.052517211974313e+17
19647.0	6.051405446687402e+17
19648.0	6.05029092364561e+17
19649.0	6.04917733523456e+17
19650.0	6.048069910353236e+17
19651.0	6.046954648414889e+17
19652.0	6.045842201553577e+17
19653.0	6.044734910889983e+17
19654.0	6.043617623102806e+17
19655.0	6.042504556882601e+17
19656.0	6.041395640926207e+17
19657.0	6.040284233553236e+17
19658.0	6.03917720363554e+17
19659.0	6.038067707467092e+17
19660.0	6.036959207445844e+17
19661.0	6.035846183867732e+17
19662.0	6.034738603098111e+17
19663.0	6.033604038273705e+17
19664.0	6.032501844388521e+17
19665.0	6.0314083131392e+17
