# Flux units: erg / (cm m2 s)
# Wavelength units: Angstrom
wave	flux
19000.0	5.084080172782934e+17
19001.0	5.0830028546157216e+17
19002.0	5.082200028479487e+17
19003.0	5.0812512405640525e+17
19004.0	5.0803061422380365e+17
19005.0	5.0793560939342496e+17
19006.0	5.0784214324346874e+17
19007.0	5.077470184559957e+17
19008.0	5.0764488925074765e+17
19009.0	5.0754542657426765e+17
19010.0	5.073932586232489e+17
19011.0	5.073657746773332e+17
19012.0	5.0724755178782694e+17
19013.0	5.0718182935101434e+17
19014.0	5.0708081261499725e+17
19015.0	5.0698741441276576e+17
19016.0	5.068905905826474e+17
19017.0	5.068054985703423e+17
19018.0	5.067093147211093e+17
19019.0	5.0661588114691405e+17
19020.0	5.065205000874665e+17
19021.0	5.064288320356351e+17
19022.0	5.0633415687755085e+17
19023.0	5.0623574193821005e+17
19024.0	5.0614294233306445e+17
19025.0	5.060509636231166e+17
19026.0	5.0595335000555514e+17
19027.0	5.0584813190512634e+17
19028.0	5.057706018734079e+17
19029.0	5.0567410932340045e+17
19030.0	5.0558352277285536e+17
19031.0	5.0549031911642445e+17
19032.0	5.053952341049343e+17
19033.0	5.0528915162835616e+17
19034.0	5.0520612642925216e+17
19035.0	5.051087306358783e+17
19036.0	5.0366001754494266e+17
19037.0	5.049246387885396e+17
19038.0	5.048297454567423e+17
19039.0	5.047386823633577e+17
19040.0	5.046454931073706e+17
19041.0	5.045504808670547e+17
19042.0	5.044308390445055e+17
19043.0	5.0436422496856736e+17
19044.0	5.042687975620607e+17
19045.0	5.041760232625493e+17
19046.0	5.040738061866325e+17
19047.0	5.039864140879189e+17
19048.0	5.038606392841556e+17
19049.0	5.037639723909119e+17
19050.0	5.0370078226513914e+17
19051.0	5.034281797681148e+17
19052.0	5.0348839753045325e+17
19053.0	5.033701605900288e+17
19054.0	5.0312569690958496e+17
19055.0	5.030492326505132e+17
19056.0	5.029331106179754e+17
19057.0	5.028443058776745e+17
19058.0	5.0273534715712845e+17
19059.0	5.026518884767059e+17
19060.0	5.025615169541461e+17
19061.0	5.024716565075285e+17
19062.0	5.0237749613035514e+17
19063.0	5.0228441410874016e+17
19064.0	5.0217327623755085e+17
19065.0	5.0207504864378874e+17
19066.0	5.019918387554987e+17
19067.0	5.019095158226943e+17
19068.0	5.018179415135572e+17
19069.0	5.017248687893162e+17
19070.0	5.0162743105290214e+17
19071.0	5.015371092328447e+17
19072.0	5.014392527650815e+17
19073.0	5.0135124172690765e+17
19074.0	5.0125879640063994e+17
19075.0	5.011656111991466e+17
19076.0	5.010695115156138e+17
19077.0	5.0097677901933216e+17
19078.0	5.008798461373097e+17
19079.0	5.0079249374467405e+17
19080.0	5.006977766435498e+17
19081.0	5.00600876826624e+17
19082.0	5.0050761375088634e+17
19083.0	5.0040830011200845e+17
19084.0	5.002992632375978e+17
19085.0	5.0023258519852365e+17
19086.0	5.000864038475093e+17
19087.0	5.0000392873137485e+17
19088.0	4.9993759847000736e+17
19089.0	4.9982361021972474e+17
19090.0	4.997661639136596e+17
19091.0	4.996716003240617e+17
19092.0	4.995601990505813e+17
19093.0	4.9949111872389114e+17
19094.0	4.9939824844472314e+17
19095.0	4.99305391797043e+17
19096.0	4.9921019409858554e+17
19097.0	4.9911940692049914e+17
19098.0	4.990205256444585e+17
19099.0	4.9892604943619405e+17
19100.0	4.9883723071488e+17
19101.0	4.9874745695054496e+17
19102.0	4.9863780197553485e+17
19103.0	4.985628365509973e+17
19104.0	4.984706099576832e+17
19105.0	4.98363862683921e+17
19106.0	4.982793576644608e+17
19107.0	4.9818627955752954e+17
19108.0	4.980948139507711e+17
19109.0	4.979238181885268e+17
19110.0	4.979125998234281e+17
19111.0	4.978178300837887e+17
19112.0	4.977249874870271e+17
19113.0	4.9763647501981e+17
19114.0	4.97541726671121e+17
19115.0	4.9744271921643514e+17
19116.0	4.9735670201057274e+17
19117.0	4.9726375539507194e+17
19118.0	4.971588843732991e+17
19119.0	4.958015773999085e+17
19120.0	4.969780335345662e+17
19121.0	4.968897350467583e+17
19122.0	4.9680499710361594e+17
19123.0	4.967126081208319e+17
19124.0	4.9661508153507834e+17
19125.0	4.9652721478096205e+17
19126.0	4.9643479762643616e+17
19127.0	4.9608076544354976e+17
19128.0	4.9623841590913696e+17
19129.0	4.9614848101362336e+17
19130.0	4.960638130454528e+17
19131.0	4.959736034230271e+17
19132.0	4.958813383819262e+17
19133.0	4.95777335021841e+17
19134.0	4.956915338226347e+17
19135.0	4.956044288240298e+17
19136.0	4.9551333315488416e+17
19137.0	4.953975675682815e+17
19138.0	4.9532660847301965e+17
19139.0	4.952368248520703e+17
19140.0	4.9514492723199994e+17
19141.0	4.950528207355902e+17
19142.0	4.94957285745186e+17
19143.0	4.9486027352091296e+17
19144.0	4.9477143494655994e+17
19145.0	4.946841807006377e+17
19146.0	4.945089191914155e+17
19147.0	4.944852268264106e+17
19148.0	4.944032528596992e+17
19149.0	4.9430985353898656e+17
19150.0	4.942236998784341e+17
19151.0	4.941322091058515e+17
19152.0	4.940392571076607e+17
19153.0	4.9393669679786656e+17
19154.0	4.938376716571987e+17
19155.0	4.937651143223978e+17
19156.0	4.936732363456511e+17
19157.0	4.9357683586061645e+17
19158.0	4.934271791792127e+17
19159.0	4.933951871953578e+17
19160.0	4.933040250464938e+17
19161.0	4.9321322801179296e+17
19162.0	4.929834877364906e+17
19163.0	4.929079740465151e+17
19164.0	4.928191872019114e+17
19165.0	4.9271273185170765e+17
19166.0	4.926138927284223e+17
19167.0	4.925324050213545e+17
19168.0	4.9245166893356365e+17
19169.0	4.923577662963711e+17
19170.0	4.922697768588628e+17
19171.0	4.921699175410345e+17
19172.0	4.9208620999857485e+17
19173.0	4.919949218108756e+17
19174.0	4.9189488115930445e+17
19175.0	4.918119615168511e+17
19176.0	4.917204521495211e+17
19177.0	4.9160821033751885e+17
19178.0	4.91535027142656e+17
19179.0	4.914347586704724e+17
19180.0	4.913533817629355e+17
19181.0	4.912429702053887e+17
19182.0	4.911692418209108e+17
19183.0	4.910811118742185e+17
19184.0	4.909884366301865e+17
19185.0	4.908969277521919e+17
19186.0	4.9080682627290445e+17
19187.0	4.9070726719733754e+17
19188.0	4.9062388023951354e+17
19189.0	4.905330007867392e+17
19190.0	4.90441102397713e+17
19191.0	4.9034559536933536e+17
19192.0	4.9025942213536416e+17
19193.0	4.901658276397055e+17
19194.0	4.900731589667499e+17
19195.0	4.8998556917650765e+17
19196.0	4.898919341359103e+17
19197.0	4.898016158810111e+17
19198.0	4.897098084384766e+17
19199.0	4.888641564311548e+17
19200.0	4.890164410537303e+17
19201.0	4.8943672052066976e+17
19202.0	4.8934732270578336e+17
19203.0	4.892542634732202e+17
19204.0	4.8916133111835296e+17
19205.0	4.890730204670633e+17
19206.0	4.8898092110097043e+17
19207.0	4.888761102674601e+17
19208.0	4.88766579094323e+17
19209.0	4.887089202069503e+17
19210.0	4.886177391837183e+17
19211.0	4.8852848698108576e+17
19212.0	4.8843704367404365e+17
19213.0	4.8833007452159994e+17
19214.0	4.8823298267545594e+17
19215.0	4.8816162127653536e+17
19216.0	4.8807346714269005e+17
19217.0	4.8798175281370445e+17
19218.0	4.877743790839123e+17
19219.0	4.8778175875208525e+17
19220.0	4.8770619277311994e+17
19221.0	4.8757246200381434e+17
19222.0	4.875267279421438e+17
19223.0	4.8743408779045536e+17
19224.0	4.8733999389300045e+17
19225.0	4.872337665032191e+17
19226.0	4.87161049645056e+17
19227.0	4.8707053642492576e+17
19228.0	4.8698274404980045e+17
19229.0	4.868917698057557e+17
19230.0	4.867997618055851e+17
19231.0	4.867084255232e+17
19232.0	4.866179394961406e+17
19233.0	4.8651896363854496e+17
19234.0	4.864341515261269e+17
19235.0	4.863422724308991e+17
19236.0	4.8625572751168845e+17
19237.0	4.8616234021464736e+17
19238.0	4.8606027497253536e+17
19239.0	4.8598355835617274e+17
19240.0	4.858904619341141e+17
19241.0	4.857984897952425e+17
19242.0	4.857088394133503e+17
19243.0	4.8559923693704525e+17
19244.0	4.855295998864043e+17
19245.0	4.8543812959600634e+17
19246.0	4.853454934988117e+17
19247.0	4.8525600690449056e+17
19248.0	4.8516646256858445e+17
19249.0	4.8507438927708154e+17
19250.0	4.8497997877957965e+17
19251.0	4.8487486770380794e+17
19252.0	4.847682397579945e+17
19253.0	4.8470845750422176e+17
19254.0	4.8462130783627936e+17
19255.0	4.845075778153129e+17
19256.0	4.8443457217931936e+17
19257.0	4.843488849952768e+17
19258.0	4.8425820428260685e+17
19259.0	4.841585785875114e+17
19260.0	4.840464843451049e+17
19261.0	4.839838929562282e+17
19262.0	4.8388710554664934e+17
19263.0	4.837945910842708e+17
19264.0	4.836310815255208e+17
19265.0	4.8359166436529485e+17
19266.0	4.834862497617237e+17
19267.0	4.834406520149332e+17
19268.0	4.8334880654404256e+17
19269.0	4.83258260258816e+17
19270.0	4.831675667535189e+17
19271.0	4.830256691849899e+17
19272.0	4.829809165205504e+17
19273.0	4.827976543065428e+17
19274.0	4.827238927870633e+17
19275.0	4.8271290825441274e+17
19276.0	4.8261909418693965e+17
19277.0	4.825288761060009e+17
19278.0	4.8243783104812365e+17
19279.0	4.8234485472296954e+17
19280.0	4.822439373919572e+17
19281.0	4.8216389727901e+17
19282.0	4.8207518586197325e+17
19283.0	4.8197241674574496e+17
19284.0	4.8188729886856525e+17
19285.0	4.817774369046527e+17
19286.0	4.8170517142350496e+17
19287.0	4.816185835126783e+17
19288.0	4.811427375568208e+17
19289.0	4.80558597048455e+17
19290.0	4.8134455970583885e+17
19291.0	4.812198160717141e+17
19292.0	4.811619431350271e+17
19293.0	4.81069415600401e+17
19294.0	4.8097750378960205e+17
19295.0	4.8086083307219616e+17
19296.0	4.805586459820032e+17
19297.0	4.8041364085364064e+17
19298.0	4.8024194590091936e+17
19299.0	4.801470534079829e+17
19300.0	4.800606571069439e+17
19301.0	4.7996939114905594e+17
19302.0	4.798758673973247e+17
19303.0	4.7977555579371514e+17
19304.0	4.79688942157824e+17
19305.0	4.795988681512276e+17
19306.0	4.7950767258774176e+17
19307.0	4.794092960262826e+17
19308.0	4.7931974868445856e+17
19309.0	4.792014856694442e+17
19310.0	4.790991015204181e+17
19311.0	4.790385813487615e+17
19312.0	4.78951728288017e+17
19313.0	4.788602082951166e+17
19314.0	4.762895483841208e+17
19315.0	4.763758745703791e+17
19316.0	4.785700845125632e+17
19317.0	4.784862531682303e+17
19318.0	4.7839275814748154e+17
19319.0	4.783015988647253e+17
19320.0	4.782048472465407e+17
19321.0	4.78108732952849e+17
19322.0	4.7800890753897805e+17
19323.0	4.7791381050381645e+17
19324.0	4.778306026427734e+17
19325.0	4.777105216066902e+17
19326.0	4.7764307656922445e+17
19327.0	4.7754615878669645e+17
19328.0	4.7744190174112416e+17
19329.0	4.773590520037375e+17
19330.0	4.772583571805525e+17
19331.0	4.7716228937373e+17
19332.0	4.770724577979049e+17
19333.0	4.769359471837184e+17
19334.0	4.7680153379143674e+17
19335.0	4.7668266358101325e+17
19336.0	4.7660866676107936e+17
19337.0	4.765127737169237e+17
19338.0	4.763620366527143e+17
19339.0	4.7604689608376314e+17
19340.0	4.759216359211007e+17
19341.0	4.7583400845202765e+17
19342.0	4.7569480761125523e+17
19343.0	4.756532327612415e+17
19344.0	4.755449001104724e+17
19345.0	4.751577813002918e+17
19346.0	4.75222891508531e+17
19347.0	4.7523405681568416e+17
19348.0	4.751540857689429e+17
19349.0	4.7504869772929696e+17
19350.0	4.749437569422676e+17
19351.0	4.7484454599393274e+17
19352.0	4.747251750535166e+17
19353.0	4.746444068793002e+17
19354.0	4.745414674044245e+17
19355.0	4.7442431217500154e+17
19356.0	4.7433265929256954e+17
19357.0	4.740025816186879e+17
19358.0	4.738001864578389e+17
19359.0	4.736827502100479e+17
19360.0	4.7356983437339296e+17
19361.0	4.7346986278802765e+17
19362.0	4.733651082280959e+17
19363.0	4.7325389423028896e+17
19364.0	4.7314171057930234e+17
19365.0	4.730291391649108e+17
19366.0	4.7291530966903443e+17
19367.0	4.7280029779886086e+17
19368.0	4.725002786045952e+17
19369.0	4.7237340531261434e+17
19370.0	4.7225069514697376e+17
19371.0	4.72133391089664e+17
19372.0	4.720181581796693e+17
19373.0	4.718920176325972e+17
19374.0	4.7176887216810656e+17
19375.0	4.7164261473976314e+17
19376.0	4.715149405454336e+17
19377.0	4.7138355558045005e+17
19378.0	4.7125232811158176e+17
19379.0	4.7111913638024525e+17
19380.0	4.709835626337622e+17
19381.0	4.708452844000596e+17
19382.0	4.7069672690592416e+17
19383.0	4.7054832627875834e+17
19384.0	4.704173146068309e+17
19385.0	4.702709568154282e+17
19386.0	4.701213863968768e+17
19387.0	4.699682493519189e+17
19388.0	4.6981201851842554e+17
19389.0	4.696523750593876e+17
19390.0	4.694891280640682e+17
19391.0	4.681206731898863e+17
19392.0	4.691310643860819e+17
19393.0	4.689781309745834e+17
19394.0	4.6879773165267616e+17
19395.0	4.6861014140627616e+17
19396.0	4.684249731607211e+17
19397.0	4.6823525640219296e+17
19398.0	4.680301008300714e+17
19399.0	4.6772013757016736e+17
19400.0	4.6761000192791885e+17
19401.0	4.674050709607764e+17
19402.0	4.6718295005812045e+17
19403.0	4.6695010110450336e+17
19404.0	4.667142314830506e+17
19405.0	4.664660939418281e+17
19406.0	4.6621246374980256e+17
19407.0	4.659463815080617e+17
19408.0	4.655625167088301e+17
19409.0	4.6539423899538765e+17
19410.0	4.6510519853165216e+17
19411.0	4.6480306407997446e+17
19412.0	4.64488846397713e+17
19413.0	4.641604072286889e+17
19414.0	4.6382171466410656e+17
19415.0	4.6347492981910176e+17
19416.0	4.6309014269242016e+17
19417.0	4.6272506271279776e+17
19418.0	4.623523157551787e+17
19419.0	4.619517401497598e+17
19420.0	4.6153930766636365e+17
19421.0	4.6111196198557005e+17
19422.0	4.606567452246015e+17
19423.0	4.6019827326429856e+17
19424.0	4.597341431878998e+17
19425.0	4.592627506741247e+17
19426.0	4.587786204785321e+17
19427.0	4.582818305452715e+17
19428.0	4.577775691584851e+17
19429.0	4.57260557087539e+17
19430.0	4.567058302544555e+17
19431.0	4.55990593768653e+17
19432.0	4.5563840763876685e+17
19433.0	4.550718140011861e+17
19434.0	4.5452990041729696e+17
19435.0	4.538827771215872e+17
19436.0	4.5316974047832723e+17
19437.0	4.524953734305107e+17
19438.0	4.492464213721092e+17
19439.0	4.5010804941346157e+17
19440.0	4.477954275584677e+17
19441.0	4.434857677553671e+17
19442.0	4.4063984909462195e+17
19443.0	4.380960325894144e+17
19444.0	4.35177435308578e+17
19445.0	4.321279616920236e+17
19446.0	4.283686088343553e+17
19447.0	4.188673284592978e+17
19448.0	4.0845830164316186e+17
19449.0	3.949387054404973e+17
19450.0	3.4861806598663245e+17
19451.0	3.271106341022358e+17
19452.0	3.7728957801430816e+17
19453.0	4.034273614320985e+17
19454.0	4.1272921824078394e+17
19455.0	4.243794209101144e+17
19456.0	4.297331396575231e+17
19457.0	4.327880814581075e+17
19458.0	4.28499396530459e+17
19459.0	4.379064693424151e+17
19460.0	4.404331837827755e+17
19461.0	4.443068808473267e+17
19462.0	4.4746062563027686e+17
19463.0	4.4903154522084666e+17
19464.0	4.499772426332842e+17
19465.0	4.506343998226431e+17
19466.0	4.511391622190421e+17
19467.0	4.5165636296376314e+17
19468.0	4.520515465816746e+17
19469.0	4.5237587029961376e+17
19470.0	4.528358739498325e+17
19471.0	4.5320648314060794e+17
19472.0	4.535727345194325e+17
19473.0	4.5392507611818656e+17
19474.0	4.542670573666304e+17
19475.0	4.5448033052480826e+17
19476.0	4.549151763202047e+17
19477.0	4.55231056974097e+17
19478.0	4.555306196882772e+17
19479.0	4.5581165797922125e+17
19480.0	4.5610500382610765e+17
19481.0	4.563679407592789e+17
19482.0	4.5662037837086714e+17
19483.0	4.5685790900660896e+17
19484.0	4.570767800926207e+17
19485.0	4.5727745286253216e+17
19486.0	4.574665780843861e+17
19487.0	4.5766305717944314e+17
19488.0	4.5783499987572045e+17
19489.0	4.5797609514379936e+17
19490.0	4.579261553836029e+17
19491.0	4.58267295813905e+17
19492.0	4.5839552750114125e+17
19493.0	4.585080670388223e+17
19494.0	4.5861049452898976e+17
19495.0	4.5870444847650125e+17
19496.0	4.587246237078868e+17
19497.0	4.5886230397364896e+17
19498.0	4.587887030960128e+17
19499.0	4.570817416047265e+17
19500.0	4.590475312889855e+17
19501.0	4.5909437215757645e+17
19502.0	4.5913332207233696e+17
19503.0	4.5916813982870176e+17
19504.0	4.591963733666474e+17
19505.0	4.5921762702349645e+17
19506.0	4.5923611006293325e+17
19507.0	4.592450013582677e+17
19508.0	4.5925652402012154e+17
19509.0	4.592596686995455e+17
19510.0	4.5922796311674874e+17
19511.0	4.551955256967148e+17
19512.0	4.589409804484604e+17
19513.0	4.586648106958839e+17
19514.0	4.588198100118181e+17
19515.0	4.5912574072804704e+17
19516.0	4.5917684629503994e+17
19517.0	4.5914659690468685e+17
19518.0	4.591284079558656e+17
19519.0	4.590979330517674e+17
19520.0	4.5905794938088096e+17
19521.0	4.590370127435093e+17
19522.0	4.5899553408286714e+17
19523.0	4.5896098636977485e+17
19524.0	4.589177582649344e+17
19525.0	4.588807171779242e+17
19526.0	4.5883936301820576e+17
19527.0	4.5879339575323296e+17
19528.0	4.587459825019561e+17
19529.0	4.586974002981545e+17
19530.0	4.5865117263680845e+17
19531.0	4.586005776564223e+17
19532.0	4.5854870823676576e+17
19533.0	4.584956329547093e+17
19534.0	4.5844087177215994e+17
19535.0	4.5838365824996685e+17
19536.0	4.5832412569709216e+17
19537.0	4.58373528236851e+17
19538.0	4.5836144276930554e+17
19539.0	4.582442743278252e+17
19540.0	4.5826071606941005e+17
19541.0	4.582001910743039e+17
19542.0	4.581379889168383e+17
19543.0	4.5806713978224634e+17
19544.0	4.5801092429469e+17
19545.0	4.5787500004420256e+17
19546.0	4.5775095448207354e+17
19547.0	4.578161905893375e+17
19548.0	4.577493379973119e+17
19549.0	4.57669863486259e+17
19550.0	4.57684103917295e+17
19551.0	4.5784135382685e+17
19552.0	4.577713383101781e+17
19553.0	4.5769756287959034e+17
19554.0	4.5762453312634874e+17
19555.0	4.575563496816639e+17
19556.0	4.574873970016255e+17
19557.0	4.574156154732544e+17
19558.0	4.573434048675839e+17
19559.0	4.5727111750615034e+17
19560.0	4.5719223858626554e+17
19561.0	4.571219185631231e+17
19562.0	4.570483341830826e+17
19563.0	4.5697947650402976e+17
19564.0	4.569084386257579e+17
19565.0	4.56834291929361e+17
19566.0	4.567555907780607e+17
19567.0	4.566851106723155e+17
19568.0	4.5660732604634445e+17
19569.0	4.5653220871809696e+17
19570.0	4.564600009785344e+17
19571.0	4.563835707632298e+17
19572.0	4.5630444046472525e+17
19573.0	4.5622879080939514e+17
19574.0	4.5614497526360736e+17
19575.0	4.5608057340340896e+17
19576.0	4.5600317318539936e+17
19577.0	4.5592223940607994e+17
19578.0	4.560521644037463e+17
19579.0	4.5601603229231776e+17
19580.0	4.559385193873407e+17
19581.0	4.5586211727387296e+17
19582.0	4.557869078107476e+17
19583.0	4.557384979229355e+17
19584.0	4.5570070332921165e+17
19585.0	4.556090666647551e+17
19586.0	4.5552675191084365e+17
19587.0	4.554625438973951e+17
19588.0	4.553200563301035e+17
19589.0	4.5530762245570554e+17
19590.0	4.552137405803178e+17
19591.0	4.5515215505544525e+17
19592.0	4.550740855663274e+17
19593.0	4.5499232089538554e+17
19594.0	4.5488349793047866e+17
19595.0	4.5483208918521165e+17
19596.0	4.547317793292287e+17
19597.0	4.5467720521263795e+17
19598.0	4.545239004654249e+17
19599.0	4.5452050251994445e+17
19600.0	4.544423692075007e+17
19601.0	4.5435360445289805e+17
19602.0	4.542763353068885e+17
19603.0	4.541325424022868e+17
19604.0	4.541171578350251e+17
19605.0	4.5400366898653856e+17
19606.0	4.5396428006795936e+17
19607.0	4.538858452549632e+17
19608.0	4.5380358153175034e+17
19609.0	4.537189817909246e+17
19610.0	4.536420761512617e+17
19611.0	4.5355902208136525e+17
19612.0	4.5348688138076154e+17
19613.0	4.534055938818047e+17
19614.0	4.533218562801663e+17
19615.0	4.5324677005967354e+17
19616.0	4.531520458282325e+17
19617.0	4.530787863669418e+17
19618.0	4.529187612262398e+17
19619.0	4.5281886422958054e+17
19620.0	4.5274339583808845e+17
19621.0	4.527577199454889e+17
19622.0	4.526864891991381e+17
19623.0	4.526058531454976e+17
19624.0	4.52523581313297e+17
19625.0	4.524457863413759e+17
19626.0	4.523645779050495e+17
19627.0	4.5228511723519994e+17
19628.0	4.521848530272256e+17
19629.0	4.520913656261289e+17
19630.0	4.5199617114330445e+17
19631.0	4.511028837963094e+17
19632.0	4.518821724072617e+17
19633.0	4.517963717672959e+17
19634.0	4.5172266645149024e+17
19635.0	4.5163623911260154e+17
19636.0	4.515517847743146e+17
19637.0	4.5142903860756486e+17
19638.0	4.5139813259892045e+17
19639.0	4.5131885997370016e+17
19640.0	4.512208857158997e+17
19641.0	4.509713894998019e+17
19642.0	4.510774284954281e+17
19643.0	4.5099645927423994e+17
19644.0	4.509093890184534e+17
19645.0	4.5079646675053216e+17
19646.0	4.507471930458112e+17
19647.0	4.506764617012564e+17
19648.0	4.505959102327466e+17
19649.0	4.505148974607017e+17
19650.0	4.504352187569493e+17
19651.0	4.5035415991746554e+17
19652.0	4.5027330603963725e+17
19653.0	4.5019315365915296e+17
19654.0	4.5011234298265594e+17
19655.0	4.500312341610495e+17
