# Flux units: erg / (cm m2 s)
# Wavelength units: Angstrom
wave	flux
19000.0	4.489790858024277e+17
19001.0	4.489055718866944e+17
19002.0	4.488367683840682e+17
19003.0	4.4876344551888205e+17
19004.0	4.4862643578251936e+17
19005.0	4.48589454254626e+17
19006.0	4.4852131387146234e+17
19007.0	4.4845742826018125e+17
19008.0	4.483824963201706e+17
19009.0	4.483116850741247e+17
19010.0	4.48183296799539e+17
19011.0	4.4812324778803194e+17
19012.0	4.4799078097223654e+17
19013.0	4.4801169132530336e+17
19014.0	4.478824397231445e+17
19015.0	4.478040560107519e+17
19016.0	4.4775182189636256e+17
19017.0	4.4770170779293005e+17
19018.0	4.4760590974975994e+17
19019.0	4.4753838970415776e+17
19020.0	4.4746069169056416e+17
19021.0	4.473862895610538e+17
19022.0	4.4732395996665165e+17
19023.0	4.472106794352639e+17
19024.0	4.471478393940649e+17
19025.0	4.470717115880789e+17
19026.0	4.4700217701826554e+17
19027.0	4.469053494831785e+17
19028.0	4.4682527392836256e+17
19029.0	4.467377422292309e+17
19030.0	4.466499414654975e+17
19031.0	4.466095337504768e+17
19032.0	4.46555340546594e+17
19033.0	4.4642878133807776e+17
19034.0	4.4637704550700365e+17
19035.0	4.463184078088874e+17
19036.0	4.4565870495661997e+17
19037.0	4.461544966455296e+17
19038.0	4.460760049298089e+17
19039.0	4.4599857626043725e+17
19040.0	4.459155525992446e+17
19041.0	4.45847560065297e+17
19042.0	4.450749934556491e+17
19043.0	4.4569594415458976e+17
19044.0	4.4564840011093325e+17
19045.0	4.455500886310911e+17
19046.0	4.454593556294313e+17
19047.0	4.453838160046762e+17
19048.0	4.45222339285265e+17
19049.0	4.437836034648727e+17
19050.0	4.4517682241863674e+17
19051.0	4.448224277779791e+17
19052.0	4.4499876855152634e+17
19053.0	4.4494463735343776e+17
19054.0	4.448419031897428e+17
19055.0	4.445693339675306e+17
19056.0	4.446627796353021e+17
19057.0	4.4465130080392525e+17
19058.0	4.4381676908489254e+17
19059.0	4.44155776292181e+17
19060.0	4.444142386020352e+17
19061.0	4.44326317461777e+17
19062.0	4.442179909626538e+17
19063.0	4.441938426768042e+17
19064.0	4.441064566598314e+17
19065.0	4.4402235653051725e+17
19066.0	4.436994587361284e+17
19067.0	4.438160850638166e+17
19068.0	4.43818532999441e+17
19069.0	4.43733910749184e+17
19070.0	4.436189261419862e+17
19071.0	4.435532886398293e+17
19072.0	4.432315632932178e+17
19073.0	4.4344683280029e+17
19074.0	4.433109539880959e+17
19075.0	4.4327804995283616e+17
19076.0	4.431846608382634e+17
19077.0	4.431183103743316e+17
19078.0	4.430428614164479e+17
19079.0	4.429543438461611e+17
19080.0	4.4289733605457914e+17
19081.0	4.428288734090581e+17
19082.0	4.427612234798421e+17
19083.0	4.42656842842112e+17
19084.0	4.425876647881387e+17
19085.0	4.42516270813457e+17
19086.0	4.4202059523686374e+17
19087.0	4.417313089869133e+17
19088.0	4.419077332970148e+17
19089.0	4.4219086014163616e+17
19090.0	4.4214851528731296e+17
19091.0	4.4202091624093037e+17
19092.0	4.414042159098555e+17
19093.0	4.419083382554623e+17
19094.0	4.418425740853247e+17
19095.0	4.4173731103593805e+17
19096.0	4.416890840197802e+17
19097.0	4.4161199858428576e+17
19098.0	4.412562909167612e+17
19099.0	4.411022659376472e+17
19100.0	4.413947251785727e+17
19101.0	4.413116461525674e+17
19102.0	4.412307009787221e+17
19103.0	4.411407832099498e+17
19104.0	4.4109964862204576e+17
19105.0	4.403515007609536e+17
19106.0	4.409308229926912e+17
19107.0	4.4069534938344064e+17
19108.0	4.405209775560022e+17
19109.0	4.4066439346257914e+17
19110.0	4.406153573651797e+17
19111.0	4.403197284887208e+17
19112.0	4.402315017235111e+17
19113.0	4.4041003541899936e+17
19114.0	4.401788541905576e+17
19115.0	4.40220775280367e+17
19116.0	4.401269470221653e+17
19117.0	4.4004292169127245e+17
19118.0	4.39876695691537e+17
19119.0	4.3964513313095674e+17
19120.0	4.3975857891792205e+17
19121.0	4.397282669625344e+17
19122.0	4.39724609179921e+17
19123.0	4.3966900200625485e+17
19124.0	4.395815639799125e+17
19125.0	4.3951443365505696e+17
19126.0	4.394313247096831e+17
19127.0	4.3921619857790266e+17
19128.0	4.392667449043625e+17
19129.0	4.392198911033342e+17
19130.0	4.391493212394836e+17
19131.0	4.3906975704023034e+17
19132.0	4.3897488321194656e+17
19133.0	4.3892519692752205e+17
19134.0	4.388426418399914e+17
19135.0	4.387833598967808e+17
19136.0	4.3868929424097274e+17
19137.0	4.3857981941131936e+17
19138.0	4.385464401614164e+17
19139.0	4.384846161903615e+17
19140.0	4.3841379012444154e+17
19141.0	4.3833145195233274e+17
19142.0	4.3824694784163834e+17
19143.0	4.381631429913259e+17
19144.0	4.38078400504354e+17
19145.0	4.380150438647125e+17
19146.0	4.3791739913939616e+17
19147.0	4.378592318324736e+17
19148.0	4.375675729346563e+17
19149.0	4.3741865598866765e+17
19150.0	4.376599233997482e+17
19151.0	4.375671259616598e+17
19152.0	4.375136577432234e+17
19153.0	4.3692636745236384e+17
19154.0	4.373084518394539e+17
19155.0	4.3729285224420685e+17
19156.0	4.3720512068648954e+17
19157.0	4.3696610044368256e+17
19158.0	4.366824166653957e+17
19159.0	4.369439190067883e+17
19160.0	4.3688346279826765e+17
19161.0	4.3682933208951456e+17
19162.0	4.3670304446218234e+17
19163.0	4.366797495773866e+17
19164.0	4.366034125455359e+17
19165.0	4.359622531306828e+17
19166.0	4.364132785935699e+17
19167.0	4.3639079537650336e+17
19168.0	4.363033117720574e+17
19169.0	4.362299090752854e+17
19170.0	4.3616261146760525e+17
19171.0	4.3606115901330765e+17
19172.0	4.360082714962602e+17
19173.0	4.359512149109418e+17
19174.0	4.358582081071786e+17
19175.0	4.357800280981504e+17
19176.0	4.357210106757119e+17
19177.0	4.356344599543807e+17
19178.0	4.355587591285418e+17
19179.0	4.3547287795793914e+17
19180.0	4.354237256783189e+17
19181.0	4.3533888784083616e+17
19182.0	4.352449689856682e+17
19183.0	4.351933561875114e+17
19184.0	4.351264938786815e+17
19185.0	4.3504187127889914e+17
19186.0	4.349707237195776e+17
19187.0	4.349028688986111e+17
19188.0	4.3483610900070394e+17
19189.0	4.347643643822079e+17
19190.0	4.346838704455679e+17
19191.0	4.3461309981436576e+17
19192.0	4.345422780126548e+17
19193.0	4.3438447655212384e+17
19194.0	4.342866812512939e+17
19195.0	4.3432600424939514e+17
19196.0	4.3424525655736314e+17
19197.0	4.341507314854569e+17
19198.0	4.340598011417941e+17
19199.0	4.33228605572164e+17
19200.0	4.334552293397849e+17
19201.0	4.338682100187134e+17
19202.0	4.338069216602793e+17
19203.0	4.3371992522424314e+17
19204.0	4.33668901446178e+17
19205.0	4.335822104253782e+17
19206.0	4.335078837933397e+17
19207.0	4.3338078463808845e+17
19208.0	4.3333537940985165e+17
19209.0	4.3328420575532365e+17
19210.0	4.3318872284419405e+17
19211.0	4.331321480445951e+17
19212.0	4.330589854717268e+17
19213.0	4.329776461032106e+17
19214.0	4.329013087218346e+17
19215.0	4.328386374314666e+17
19216.0	4.327694681156266e+17
19217.0	4.3271367087008416e+17
19218.0	4.325546896217427e+17
19219.0	4.3252848787455994e+17
19220.0	4.324827203283625e+17
19221.0	4.3237477033792845e+17
19222.0	4.3229751531274234e+17
19223.0	4.3224240747096736e+17
19224.0	4.321610348276394e+17
19225.0	4.321042722630313e+17
19226.0	4.3204852891429536e+17
19227.0	4.319614541146794e+17
19228.0	4.318945388178091e+17
19229.0	4.317551174964563e+17
19230.0	4.3173202694417056e+17
19231.0	4.3169062238289914e+17
19232.0	4.31613157572608e+17
19233.0	4.315181995087189e+17
19234.0	4.3144062746405536e+17
19235.0	4.313761078138196e+17
19236.0	4.3130780413242016e+17
19237.0	4.312020069384191e+17
19238.0	4.31142036500207e+17
19239.0	4.310846464677203e+17
19240.0	4.309922704872789e+17
19241.0	4.3094745099359565e+17
19242.0	4.3082362004002125e+17
19243.0	4.3079132306036045e+17
19244.0	4.307092017337685e+17
19245.0	4.3065214186291194e+17
19246.0	4.30584443769105e+17
19247.0	4.305129634616662e+17
19248.0	4.304261114494976e+17
19249.0	4.3031720096344736e+17
19250.0	4.3016218717716486e+17
19251.0	4.301058732632743e+17
19252.0	4.301325516232021e+17
19253.0	4.3005674796701005e+17
19254.0	4.299936724855466e+17
19255.0	4.2990050853519354e+17
19256.0	4.298152264510121e+17
19257.0	4.297631710139732e+17
19258.0	4.2968197879562234e+17
19259.0	4.2963705066946554e+17
19260.0	4.295075167207423e+17
19261.0	4.29484694044672e+17
19262.0	4.294002147502761e+17
19263.0	4.2930589394097485e+17
19264.0	4.292104553496574e+17
19265.0	4.291520946154153e+17
19266.0	4.290905441129813e+17
19267.0	4.2904552399175674e+17
19268.0	4.28948352733457e+17
19269.0	4.288894096201045e+17
19270.0	4.288173093945343e+17
19271.0	4.286969783080277e+17
19272.0	4.286793146957823e+17
19273.0	4.2860996362676896e+17
19274.0	4.285209797896873e+17
19275.0	4.284685677669034e+17
19276.0	4.2839531760298656e+17
19277.0	4.283292276053333e+17
19278.0	4.282368562386259e+17
19279.0	4.2817869990679885e+17
19280.0	4.281100115378175e+17
19281.0	4.2803267500332365e+17
19282.0	4.2796341564975776e+17
19283.0	4.2787030077276154e+17
19284.0	4.2782079225692154e+17
19285.0	4.2771707844362234e+17
19286.0	4.276481501604521e+17
19287.0	4.275685196212905e+17
19288.0	4.274187341048491e+17
19289.0	4.2702042601007686e+17
19290.0	4.2737083256668154e+17
19291.0	4.272847265813845e+17
19292.0	4.2722361976640845e+17
19293.0	4.2714982553135776e+17
19294.0	4.270866082824192e+17
19295.0	4.269939660335786e+17
19296.0	4.266054933719732e+17
19297.0	4.268044034157228e+17
19298.0	4.267703882394281e+17
19299.0	4.263616308051972e+17
19300.0	4.266530790790486e+17
19301.0	4.2656647704739846e+17
19302.0	4.264962667752106e+17
19303.0	4.263953237890389e+17
19304.0	4.2632991501626016e+17
19305.0	4.2624895271567354e+17
19306.0	4.2618645458015565e+17
19307.0	4.260982178884267e+17
19308.0	4.260188391473151e+17
19309.0	4.258901813187925e+17
19310.0	4.2578537488930125e+17
19311.0	4.2566021420154874e+17
19312.0	4.2544545185573523e+17
19313.0	4.249809661722624e+17
19314.0	4.229136765681664e+17
19315.0	4.228578428321793e+17
19316.0	4.243570819771058e+17
19317.0	4.251151634879828e+17
19318.0	4.2518087802552314e+17
19319.0	4.251378724285098e+17
19320.0	4.2502276996136915e+17
19321.0	4.247951353664853e+17
19322.0	4.2502208377323514e+17
19323.0	4.249723407258965e+17
19324.0	4.2489920310913696e+17
19325.0	4.2480908625073485e+17
19326.0	4.247564813598719e+17
19327.0	4.247049856527019e+17
19328.0	4.24028072872073e+17
19329.0	4.245645711201621e+17
19330.0	4.2449776865006925e+17
19331.0	4.2442751951066445e+17
19332.0	4.24343134797824e+17
19333.0	4.242960351406761e+17
19334.0	4.241559240660309e+17
19335.0	4.229243211524793e+17
19336.0	4.2404475305984e+17
19337.0	4.2398832680850765e+17
19338.0	4.2390905970578765e+17
19339.0	4.2382698871084365e+17
19340.0	4.2373221253993805e+17
19341.0	4.232689104890549e+17
19342.0	4.234847268634627e+17
19343.0	4.235671982746282e+17
19344.0	4.230570826181298e+17
19345.0	4.230488997407402e+17
19346.0	4.232931158873431e+17
19347.0	4.2271519462304416e+17
19348.0	4.2321621695856634e+17
19349.0	4.231377645294933e+17
19350.0	4.2283744649106765e+17
19351.0	4.229882002625877e+17
19352.0	4.2231633777349875e+17
19353.0	4.228468604665854e+17
19354.0	4.2279076591479456e+17
19355.0	4.227119534047232e+17
19356.0	4.22633041629457e+17
19357.0	4.225728756667733e+17
19358.0	4.2249934644183034e+17
19359.0	4.22298571610521e+17
19360.0	4.2187772919807974e+17
19361.0	4.222823751658153e+17
19362.0	4.222107044369748e+17
19363.0	4.221432227692543e+17
19364.0	4.2207631530175136e+17
19365.0	4.2199729000065696e+17
19366.0	4.2188845368388256e+17
19367.0	4.218464347968852e+17
19368.0	4.2178753124980045e+17
19369.0	4.217279301899606e+17
19370.0	4.216607197538986e+17
19371.0	4.215557322702847e+17
19372.0	4.215029613548885e+17
19373.0	4.214086207624533e+17
19374.0	4.2132961349686605e+17
19375.0	4.212877405017429e+17
19376.0	4.212242402071893e+17
19377.0	4.21157381603328e+17
19378.0	4.2108696455195296e+17
19379.0	4.21015509340433e+17
19380.0	4.208898692437333e+17
19381.0	4.208346112458751e+17
19382.0	4.2078452070045e+17
19383.0	4.207030513085098e+17
19384.0	4.205970657902591e+17
19385.0	4.205821132363093e+17
19386.0	4.205069545941674e+17
19387.0	4.204243674202112e+17
19388.0	4.203402186369705e+17
19389.0	4.202446014382079e+17
19390.0	4.2016677207299405e+17
19391.0	4.195383937510049e+17
19392.0	4.200216697765886e+17
19393.0	4.1994600278480205e+17
19394.0	4.198832892018687e+17
19395.0	4.1964438814720045e+17
19396.0	4.196958126211073e+17
19397.0	4.196572149579775e+17
19398.0	4.194384567686485e+17
19399.0	4.1924065311238803e+17
19400.0	4.193126510668461e+17
19401.0	4.193631701303294e+17
19402.0	4.1930624999970125e+17
19403.0	4.1923725327947104e+17
19404.0	4.191386126865749e+17
19405.0	4.1905865981515104e+17
19406.0	4.1900855703633914e+17
19407.0	4.187219497582588e+17
19408.0	4.188077614432257e+17
19409.0	4.187897151706453e+17
19410.0	4.1871693735526394e+17
19411.0	4.1863762963770016e+17
19412.0	4.1855936546297165e+17
19413.0	4.182780238539434e+17
19414.0	4.184276618706944e+17
19415.0	4.183412376775338e+17
19416.0	4.182433154291028e+17
19417.0	4.1818669302415354e+17
19418.0	4.1812649902953805e+17
19419.0	4.1804639383497376e+17
19420.0	4.1796723781140486e+17
19421.0	4.178893091110912e+17
19422.0	4.1779627805026976e+17
19423.0	4.1774948835218765e+17
19424.0	4.176723586667861e+17
19425.0	4.1757932446023674e+17
19426.0	4.175252576447146e+17
19427.0	4.1744743387190605e+17
19428.0	4.173309779727701e+17
19429.0	4.1729338316772685e+17
19430.0	4.1718605582172166e+17
19431.0	4.168322303481181e+17
19432.0	4.1702675706456736e+17
19433.0	4.1693283583262726e+17
19434.0	4.1686762167555405e+17
19435.0	4.1673128596384416e+17
19436.0	4.164959487393789e+17
19437.0	4.1653679937290234e+17
19438.0	4.162708930822147e+17
19439.0	4.163736939353428e+17
19440.0	4.163383097382229e+17
19441.0	4.162933602211157e+17
19442.0	4.1623085083088205e+17
19443.0	4.161639218326186e+17
19444.0	4.160746227236863e+17
19445.0	4.160090414951082e+17
19446.0	4.159184026555732e+17
19447.0	4.1583224354242554e+17
19448.0	4.157325719197012e+17
19449.0	4.156689004276393e+17
19450.0	4.155642046578688e+17
19451.0	4.155197335710378e+17
19452.0	4.1541508184145914e+17
19453.0	4.1531795532240205e+17
19454.0	4.151425708501674e+17
19455.0	4.1493267620386125e+17
19456.0	4.144873114435583e+17
19457.0	4.132851259102549e+17
19458.0	4.0809789705420915e+17
19459.0	4.110172470028974e+17
19460.0	4.1372526484739405e+17
19461.0	4.143843822447274e+17
19462.0	4.145761272987647e+17
19463.0	4.1463719056288416e+17
19464.0	4.146301816711849e+17
19465.0	4.146085443054249e+17
19466.0	4.145792329711615e+17
19467.0	4.145344167630165e+17
19468.0	4.1449137243859616e+17
19469.0	4.139987322798073e+17
19470.0	4.1437828987835725e+17
19471.0	4.143163925768874e+17
19472.0	4.142738114434389e+17
19473.0	4.142049808176468e+17
19474.0	4.136836053423438e+17
19475.0	4.139750255842643e+17
19476.0	4.140141536171349e+17
19477.0	4.139430612129109e+17
19478.0	4.138956013349546e+17
19479.0	4.134040519748259e+17
19480.0	4.1377174731270803e+17
19481.0	4.1367025263575034e+17
19482.0	4.1360668411385165e+17
19483.0	4.135683608980138e+17
19484.0	4.134800400405844e+17
19485.0	4.134362498291028e+17
19486.0	4.129027429586275e+17
19487.0	4.132834289647614e+17
19488.0	4.1323026245659296e+17
19489.0	4.13178657907234e+17
19490.0	4.12967202210884e+17
19491.0	4.130168483698004e+17
19492.0	4.1295560656814074e+17
19493.0	4.128649208223061e+17
19494.0	4.1279825606519456e+17
19495.0	4.1274643453050874e+17
19496.0	4.126034030318932e+17
19497.0	4.125814512331434e+17
19498.0	4.1247247580528634e+17
19499.0	4.123605942839978e+17
19500.0	4.123539755324757e+17
19501.0	4.1236222999265274e+17
19502.0	4.1231599624956576e+17
19503.0	4.1225506035247776e+17
19504.0	4.121755720002218e+17
19505.0	4.1208530862079994e+17
19506.0	4.1202473657958394e+17
19507.0	4.119332992843775e+17
19508.0	4.117924962893823e+17
19509.0	4.1157762838691834e+17
19510.0	4.109139651330046e+17
19511.0	4.087483558002684e+17
19512.0	4.1060483444244416e+17
19513.0	4.109558739894265e+17
19514.0	4.111719930527742e+17
19515.0	4.113400525225986e+17
19516.0	4.1126540083199974e+17
19517.0	4.112822434791423e+17
19518.0	4.111021850143399e+17
19519.0	4.1103853652104506e+17
19520.0	4.106725179260921e+17
19521.0	4.110609272537087e+17
19522.0	4.1091267286794234e+17
19523.0	4.1083228952111814e+17
19524.0	4.105211924010335e+17
19525.0	4.107856466935808e+17
19526.0	4.106978505435818e+17
19527.0	4.10647801172241e+17
19528.0	4.1053135156456096e+17
19529.0	4.1045236757736115e+17
19530.0	4.104406259029333e+17
19531.0	4.103676440346623e+17
19532.0	4.1029279905655456e+17
19533.0	4.102069672389289e+17
19534.0	4.1017050804169376e+17
19535.0	4.1010744444409165e+17
19536.0	4.100243450757119e+17
19537.0	4.099611946560169e+17
19538.0	4.0949469724453594e+17
19539.0	4.097938631775575e+17
19540.0	4.0976913824481274e+17
19541.0	4.095874572135082e+17
19542.0	4.095706405710506e+17
19543.0	4.091256750385836e+17
19544.0	4.094430630554282e+17
19545.0	4.093959244611581e+17
19546.0	4.092649358579029e+17
19547.0	4.092945152780969e+17
19548.0	4.092199586583893e+17
19549.0	4.0912899538943994e+17
19550.0	4.0904235176427514e+17
19551.0	4.090146959218004e+17
19552.0	4.089214940129962e+17
19553.0	4.088727103427925e+17
19554.0	4.0877871354347514e+17
19555.0	4.0865404275042995e+17
19556.0	4.0861204392618656e+17
19557.0	4.0858930709353805e+17
19558.0	4.0852417864007674e+17
19559.0	4.0845012659514016e+17
19560.0	4.082269981507581e+17
19561.0	4.0831512753821e+17
19562.0	4.0811814163141946e+17
19563.0	4.0818873002011296e+17
19564.0	4.080654671151102e+17
19565.0	4.080296209853098e+17
19566.0	4.0793723479872845e+17
19567.0	4.0791215544729594e+17
19568.0	4.0783900154265594e+17
19569.0	4.0777613724439885e+17
19570.0	4.0770923655768736e+17
19571.0	4.076313682553515e+17
19572.0	4.075648055596372e+17
19573.0	4.0745360016015354e+17
19574.0	4.074087527044436e+17
19575.0	4.073692314555732e+17
19576.0	4.072812769006932e+17
19577.0	4.071706753411755e+17
19578.0	4.071588758552576e+17
19579.0	4.071048254674261e+17
19580.0	4.0700998239737165e+17
19581.0	4.069192860958719e+17
19582.0	4.068839351036586e+17
19583.0	4.0683624929252685e+17
19584.0	4.067438117257215e+17
19585.0	4.06685000732945e+17
19586.0	4.0662183192821754e+17
19587.0	4.065588258624853e+17
19588.0	4.0644841325636256e+17
19589.0	4.0642778161479674e+17
19590.0	4.0634552642000205e+17
19591.0	4.0627924921658016e+17
19592.0	4.0620836464011936e+17
19593.0	4.0610604109878605e+17
19594.0	4.0603119507210214e+17
19595.0	4.060084883685376e+17
19596.0	4.0591474329736525e+17
19597.0	4.058778964765354e+17
19598.0	4.057213152788479e+17
19599.0	4.057298330714111e+17
19600.0	4.0564312841912314e+17
19601.0	4.055896365727744e+17
19602.0	4.055241496461311e+17
19603.0	4.054160066478079e+17
19604.0	4.053993426081109e+17
19605.0	4.0529169313955834e+17
19606.0	4.052369887898283e+17
19607.0	4.051931297917611e+17
19608.0	4.050709217542143e+17
19609.0	4.0504893094843725e+17
19610.0	4.0478821154379136e+17
19611.0	4.045992519969452e+17
19612.0	4.0485139502858234e+17
19613.0	4.0474705633389203e+17
19614.0	4.047082106475861e+17
19615.0	4.046556894330879e+17
19616.0	4.043913066534234e+17
19617.0	4.0421918583903584e+17
19618.0	4.043796215321939e+17
19619.0	4.0427610163554976e+17
19620.0	4.041461605597176e+17
19621.0	4.037593814881618e+17
19622.0	4.0417435564987725e+17
19623.0	4.040952978429268e+17
19624.0	4.039922081420629e+17
19625.0	4.039778525773823e+17
19626.0	4.038844793312596e+17
19627.0	4.038405011450538e+17
19628.0	4.037660403651926e+17
19629.0	4.026780891480057e+17
19630.0	4.036416244460202e+17
19631.0	4.031891039933779e+17
19632.0	4.035083393215146e+17
19633.0	4.03439520579584e+17
19634.0	4.0336808214528e+17
19635.0	4.03247596918101e+17
19636.0	4.0272145391725165e+17
19637.0	4.026465745458511e+17
19638.0	4.0304645676291386e+17
19639.0	4.030097486337364e+17
19640.0	4.029457698390015e+17
19641.0	4.0277425566078355e+17
19642.0	4.028073492785834e+17
19643.0	4.027404543939923e+17
19644.0	4.0268953379580576e+17
19645.0	4.02617531577139e+17
19646.0	4.020284179524259e+17
19647.0	4.024395762761727e+17
19648.0	4.024298317894996e+17
19649.0	4.023481527522645e+17
19650.0	4.022849979285504e+17
19651.0	4.022199651052202e+17
19652.0	4.0216343916926285e+17
19653.0	4.0207727600162125e+17
19654.0	4.020308492506453e+17
19655.0	4.0193934757287245e+17
19656.0	4.018957729486165e+17
