# Flux units: erg / (cm m2 s)
# Wavelength units: Angstrom
wave	flux
19000.0	6.592731214249983e+17
19001.0	6.591420337662633e+17
19002.0	6.590307119748436e+17
19003.0	6.589080538185727e+17
19004.0	6.587860750696448e+17
19005.0	6.586659280431786e+17
19006.0	6.585446747690323e+17
19007.0	6.584191033890131e+17
19008.0	6.582983723057151e+17
19009.0	6.581660221614761e+17
19010.0	6.580278821300906e+17
19011.0	6.579238577984851e+17
19012.0	6.577244319252477e+17
19013.0	6.576938518140244e+17
19014.0	6.575698698655059e+17
19015.0	6.574502921459027e+17
19016.0	6.573295594547881e+17
19017.0	6.572101879551316e+17
19018.0	6.570868555644927e+17
19019.0	6.569682075123711e+17
19020.0	6.568461871000233e+17
19021.0	6.567266528613716e+17
19022.0	6.566048660717567e+17
19023.0	6.564792551953748e+17
19024.0	6.563567789320873e+17
19025.0	6.562279018113706e+17
19026.0	6.560955271304531e+17
19027.0	6.559114110959615e+17
19028.0	6.558690235995476e+17
19029.0	6.557499981998761e+17
19030.0	6.556318238244863e+17
19031.0	6.555088497672191e+17
19032.0	6.553823067766783e+17
19033.0	6.552434683936767e+17
19034.0	6.550963563965097e+17
19035.0	6.547156274686632e+17
19036.0	6.49303342885546e+17
19037.0	6.54544955786308e+17
19038.0	6.54616345846306e+17
19039.0	6.545263306997759e+17
19040.0	6.544149158647124e+17
19041.0	6.542974270483114e+17
19042.0	6.541100380585981e+17
19043.0	6.540605912689322e+17
19044.0	6.539384051116714e+17
19045.0	6.538141350144681e+17
19046.0	6.536942570526036e+17
19047.0	6.535716322410495e+17
19048.0	6.534277542619817e+17
19049.0	6.531904371862185e+17
19050.0	6.531635826655231e+17
19051.0	6.522788258338129e+17
19052.0	6.526146683688275e+17
19053.0	6.528206864995668e+17
19054.0	6.52723222618658e+17
19055.0	6.52569203441664e+17
19056.0	6.524819458402986e+17
19057.0	6.523700922111316e+17
19058.0	6.521835780833277e+17
19059.0	6.521061554956969e+17
19060.0	6.520078796674388e+17
19061.0	6.518897203915434e+17
19062.0	6.51768849707827e+17
19063.0	6.516480476009812e+17
19064.0	6.515184369663999e+17
19065.0	6.513921303248895e+17
19066.0	6.512588206637055e+17
19067.0	6.511652274962431e+17
19068.0	6.510458790652585e+17
19069.0	6.50925364617762e+17
19070.0	6.508024603956564e+17
19071.0	6.506789363952298e+17
19072.0	6.505395275169791e+17
19073.0	6.504429771554815e+17
19074.0	6.503227019930282e+17
19075.0	6.502021063857491e+17
19076.0	6.500803896410111e+17
19077.0	6.499593562182996e+17
19078.0	6.49837845483793e+17
19079.0	6.497196222447615e+17
19080.0	6.495977832360617e+17
19081.0	6.494739137647956e+17
19082.0	6.493544807486803e+17
19083.0	6.492257239345833e+17
19084.0	6.490924093800447e+17
19085.0	6.489858658096467e+17
19086.0	6.487757388688041e+17
19087.0	6.486074851327997e+17
19088.0	6.485349324117331e+17
19089.0	6.484370175033343e+17
19090.0	6.483631787387561e+17
19091.0	6.48250484920593e+17
19092.0	6.48073232375262e+17
19093.0	6.48025411227921e+17
19094.0	6.479112807907327e+17
19095.0	6.477931361249962e+17
19096.0	6.476729842750803e+17
19097.0	6.475539362261673e+17
19098.0	6.474068737217876e+17
19099.0	6.472816647995391e+17
19100.0	6.471823179557546e+17
19101.0	6.470686350508032e+17
19102.0	6.469457099969876e+17
19103.0	6.468324747640832e+17
19104.0	6.467112078584489e+17
19105.0	6.465263316063574e+17
19106.0	6.464502272884735e+17
19107.0	6.463193406767103e+17
19108.0	6.461653449179135e+17
19109.0	6.458239864537085e+17
19110.0	6.458858973167615e+17
19111.0	6.458335194775551e+17
19112.0	6.457256026221225e+17
19113.0	6.456307056552617e+17
19114.0	6.454985567677097e+17
19115.0	6.453738824794111e+17
19116.0	6.452698609440084e+17
19117.0	6.451462008384169e+17
19118.0	6.450044864211626e+17
19119.0	6.444939528721742e+17
19120.0	6.447368943697919e+17
19121.0	6.446311900796244e+17
19122.0	6.445542494874282e+17
19123.0	6.444370565791743e+17
19124.0	6.442775985782783e+17
19125.0	6.441955691768489e+17
19126.0	6.44070094545442e+17
19127.0	6.438362838379177e+17
19128.0	6.437974265473705e+17
19129.0	6.437118625360552e+17
19130.0	6.435998274333353e+17
19131.0	6.434812322294441e+17
19132.0	6.433622234671785e+17
19133.0	6.432351680724991e+17
19134.0	6.431074846507007e+17
19135.0	6.430028933890047e+17
19136.0	6.428837959172095e+17
19137.0	6.42755021836561e+17
19138.0	6.426435465336148e+17
19139.0	6.425263874594134e+17
19140.0	6.424074171449344e+17
19141.0	6.422880768928425e+17
19142.0	6.421644657207978e+17
19143.0	6.420454361268223e+17
19144.0	6.419257302013268e+17
19145.0	6.418100821251412e+17
19146.0	6.416354944308566e+17
19147.0	6.415654866736468e+17
19148.0	6.41428902449425e+17
19149.0	6.413057633462953e+17
19150.0	6.412122901359273e+17
19151.0	6.410923612132692e+17
19152.0	6.409651322443092e+17
19153.0	6.408071495898451e+17
19154.0	6.407185000387924e+17
19155.0	6.406039336736084e+17
19156.0	6.404764228474196e+17
19157.0	6.402996604764159e+17
19158.0	6.400719180180138e+17
19159.0	6.400838269752659e+17
19160.0	6.399805321729363e+17
19161.0	6.398224835280896e+17
19162.0	6.393239224101546e+17
19163.0	6.394945850048511e+17
19164.0	6.395055048054099e+17
19165.0	6.393516402584233e+17
19166.0	6.392716754332329e+17
19167.0	6.391328675987455e+17
19168.0	6.390442228012372e+17
19169.0	6.389342753434282e+17
19170.0	6.38818033213986e+17
19171.0	6.386854970523647e+17
19172.0	6.385733896678057e+17
19173.0	6.38463887155746e+17
19174.0	6.383458983084031e+17
19175.0	6.382300120656554e+17
19176.0	6.381085607504553e+17
19177.0	6.379707350821545e+17
19178.0	6.378474802861396e+17
19179.0	6.377206142642858e+17
19180.0	6.376235431100415e+17
19181.0	6.37502751838481e+17
19182.0	6.373901539999743e+17
19183.0	6.372761984652627e+17
19184.0	6.371571829921108e+17
19185.0	6.370372278550527e+17
19186.0	6.369183328283306e+17
19187.0	6.367900740179284e+17
19188.0	6.366762004119551e+17
19189.0	6.365548173241002e+17
19190.0	6.364294058868736e+17
19191.0	6.363035700559871e+17
19192.0	6.361858898395133e+17
19193.0	6.360509307682815e+17
19194.0	6.3591286322845e+17
19195.0	6.357794345888425e+17
19196.0	6.356074050704724e+17
19197.0	6.353648818847743e+17
19198.0	6.348134809250474e+17
19199.0	6.320108411901265e+17
19200.0	6.322824731951107e+17
19201.0	6.345179775281834e+17
19202.0	6.34787249398306e+17
19203.0	6.347698540118015e+17
19204.0	6.347109608106665e+17
19205.0	6.346206196269055e+17
19206.0	6.345171515299156e+17
19207.0	6.343966847576745e+17
19208.0	6.342808796048042e+17
19209.0	6.341802808311807e+17
19210.0	6.340644215018836e+17
19211.0	6.339480313834153e+17
19212.0	6.338264519322282e+17
19213.0	6.336790489901737e+17
19214.0	6.335479532224511e+17
19215.0	6.334589263937536e+17
19216.0	6.333570876440575e+17
19217.0	6.332377777307647e+17
19218.0	6.330713745915901e+17
19219.0	6.329889913307133e+17
19220.0	6.32885266612224e+17
19221.0	6.327537701486591e+17
19222.0	6.326503461617663e+17
19223.0	6.325353660983978e+17
19224.0	6.32414328201762e+17
19225.0	6.322921605693437e+17
19226.0	6.321806854062079e+17
19227.0	6.320627807245652e+17
19228.0	6.31946975711505e+17
19229.0	6.318284948023978e+17
19230.0	6.317088274644991e+17
19231.0	6.315896332440916e+17
19232.0	6.314717568040959e+17
19233.0	6.313474909711017e+17
19234.0	6.31232379626018e+17
19235.0	6.311122849584467e+17
19236.0	6.30996232900881e+17
19237.0	6.308762283409408e+17
19238.0	6.307476246189396e+17
19239.0	6.306398575700649e+17
19240.0	6.305220447436797e+17
19241.0	6.304013783924736e+17
19242.0	6.30283854553634e+17
19243.0	6.301523167062697e+17
19244.0	6.30048185839343e+17
19245.0	6.299289010918739e+17
19246.0	6.298097625158996e+17
19247.0	6.296918574847316e+17
19248.0	6.295717731631103e+17
19249.0	6.294493232540329e+17
19250.0	6.293236270235647e+17
19251.0	6.291980944408573e+17
19252.0	6.290714036011007e+17
19253.0	6.289772261670911e+17
19254.0	6.28859766710818e+17
19255.0	6.287238602861225e+17
19256.0	6.286198984496467e+17
19257.0	6.285032315770195e+17
19258.0	6.28383597863458e+17
19259.0	6.282528275737257e+17
19260.0	6.280161058794153e+17
19261.0	6.280212709550762e+17
19262.0	6.279000091525119e+17
19263.0	6.277777825901225e+17
19264.0	6.276296532645203e+17
19265.0	6.275329333832362e+17
19266.0	6.274129671312724e+17
19267.0	6.273112368742397e+17
19268.0	6.271914318233599e+17
19269.0	6.270720615819945e+17
19270.0	6.26949995242018e+17
19271.0	6.268100578115583e+17
19272.0	6.267097945123497e+17
19273.0	6.265665937036628e+17
19274.0	6.264337742168063e+17
19275.0	6.263539552135849e+17
19276.0	6.262326199407956e+17
19277.0	6.26112925339921e+17
19278.0	6.259906509624659e+17
19279.0	6.258667926061055e+17
19280.0	6.257452738325162e+17
19281.0	6.256265918764372e+17
19282.0	6.255008983023616e+17
19283.0	6.253609377333247e+17
19284.0	6.252363663452841e+17
19285.0	6.251210450752852e+17
19286.0	6.249942084834643e+17
19287.0	6.248218927038463e+17
19288.0	6.22814551098435e+17
19289.0	6.210491384856539e+17
19290.0	6.2444222822045e+17
19291.0	6.243711751727785e+17
19292.0	6.242895085786452e+17
19293.0	6.241747737422505e+17
19294.0	6.240551577845759e+17
19295.0	6.23937542300194e+17
19296.0	6.23786499960559e+17
19297.0	6.236853195068756e+17
19298.0	6.235723871027199e+17
19299.0	6.234186304192512e+17
19300.0	6.233300104380415e+17
19301.0	6.232085809332223e+17
19302.0	6.230848379901268e+17
19303.0	6.229549334047402e+17
19304.0	6.228378630400684e+17
19305.0	6.227136072034986e+17
19306.0	6.225864759618218e+17
19307.0	6.224539638475433e+17
19308.0	6.223183181687465e+17
19309.0	6.220943823907497e+17
19310.0	6.219262347706367e+17
19311.0	6.219133370062164e+17
19312.0	6.218157218507433e+17
19313.0	6.216448398240425e+17
19314.0	6.147092272294556e+17
19315.0	6.151399109470977e+17
19316.0	6.21209853030127e+17
19317.0	6.211905010008063e+17
19318.0	6.210807665437353e+17
19319.0	6.209633669261993e+17
19320.0	6.208267312518483e+17
19321.0	6.206837514829823e+17
19322.0	6.20563203760674e+17
19323.0	6.204200549613565e+17
19324.0	6.203023406312105e+17
19325.0	6.201371331482964e+17
19326.0	6.200573754518186e+17
19327.0	6.199474720342015e+17
19328.0	6.197743540240383e+17
19329.0	6.19701649608977e+17
19330.0	6.195716505818452e+17
19331.0	6.194414647683753e+17
19332.0	6.193151836422143e+17
19333.0	6.191787380397395e+17
19334.0	6.190462915663187e+17
19335.0	6.188106302619649e+17
19336.0	6.187818213354153e+17
19337.0	6.18654080311842e+17
19338.0	6.185042260088148e+17
19339.0	6.1838767699613e+17
19340.0	6.182466746318847e+17
19341.0	6.180762597108394e+17
19342.0	6.179424533042516e+17
19343.0	6.178502194408105e+17
19344.0	6.17673121595392e+17
19345.0	6.174231321990483e+17
19346.0	6.173421697586516e+17
19347.0	6.17234446819874e+17
19348.0	6.171547097453908e+17
19349.0	6.170114846097407e+17
19350.0	6.168538446998185e+17
19351.0	6.167327881385299e+17
19352.0	6.165351560293033e+17
19353.0	6.16453679227426e+17
19354.0	6.162989933658111e+17
19355.0	6.161389181730815e+17
19356.0	6.160017330449065e+17
19357.0	6.158548022416724e+17
19358.0	6.157019212589737e+17
19359.0	6.155411219895636e+17
19360.0	6.153624036048895e+17
19361.0	6.152337486424746e+17
19362.0	6.150804607423827e+17
19363.0	6.149273995444223e+17
19364.0	6.147741717626879e+17
19365.0	6.146196050892116e+17
19366.0	6.14456984932625e+17
19367.0	6.142709987977897e+17
19368.0	6.141133642705578e+17
19369.0	6.139461445003945e+17
19370.0	6.137855905278633e+17
19371.0	6.136118860141908e+17
19372.0	6.134396727853055e+17
19373.0	6.13268737630754e+17
19374.0	6.130904054016682e+17
19375.0	6.129178560692223e+17
19376.0	6.127449688855892e+17
19377.0	6.125677479373482e+17
19378.0	6.123891049103359e+17
19379.0	6.122078242952534e+17
19380.0	6.120224534648147e+17
19381.0	6.118338163201363e+17
19382.0	6.116356114786986e+17
19383.0	6.114310108829012e+17
19384.0	6.112297084780544e+17
19385.0	6.110294732439551e+17
19386.0	6.10824262656546e+17
19387.0	6.106127671143082e+17
19388.0	6.103954396719786e+17
19389.0	6.101603593486335e+17
19390.0	6.098109362165076e+17
19391.0	6.049152132360826e+17
19392.0	6.089324350494033e+17
19393.0	6.092105422209023e+17
19394.0	6.090084389137066e+17
19395.0	6.087236802052096e+17
19396.0	6.084727984706902e+17
19397.0	6.082302909437268e+17
19398.0	6.079491688366079e+17
19399.0	6.076169406032553e+17
19400.0	6.07336494408226e+17
19401.0	6.070752219146922e+17
19402.0	6.067799432626175e+17
19403.0	6.064249437334186e+17
19404.0	6.060837697486847e+17
19405.0	6.057536643224916e+17
19406.0	6.0535959177571e+17
19407.0	6.049427792505514e+17
19408.0	6.045539421039273e+17
19409.0	6.041772950028287e+17
19410.0	6.037491280773119e+17
19411.0	6.033633945059327e+17
19412.0	6.028333048747348e+17
19413.0	6.023693195717289e+17
19414.0	6.019223354605567e+17
19415.0	6.014132453812906e+17
19416.0	6.008868402364415e+17
19417.0	6.003332484519251e+17
19418.0	5.998567631443283e+17
19419.0	5.993116503550634e+17
19420.0	5.986908039544831e+17
19421.0	5.9801870546589e+17
19422.0	5.973516049798483e+17
19423.0	5.966225728689491e+17
19424.0	5.958265889008297e+17
19425.0	5.950655515241129e+17
19426.0	5.941988923452073e+17
19427.0	5.932714119135231e+17
19428.0	5.923021970385577e+17
19429.0	5.911572634752339e+17
19430.0	5.897907637758636e+17
19431.0	5.881022507909123e+17
19432.0	5.874178007061844e+17
19433.0	5.860962203249322e+17
19434.0	5.845860165702995e+17
19435.0	5.825946103840764e+17
19436.0	5.805985524350973e+17
19437.0	5.788550184304641e+17
19438.0	5.6914740395376755e+17
19439.0	5.733421686980607e+17
19440.0	5.7165268081704954e+17
19441.0	5.6863140809277434e+17
19442.0	5.651236538460843e+17
19443.0	5.6118812540054176e+17
19444.0	5.56522485859396e+17
19445.0	5.5100706341082464e+17
19446.0	5.443558459484842e+17
19447.0	5.361210335690747e+17
19448.0	5.2538466068944256e+17
19449.0	5.101879623854762e+17
19450.0	4.841674826055668e+17
19451.0	4.65355152486129e+17
19452.0	4.9947698433884205e+17
19453.0	5.184251040017072e+17
19454.0	5.307452779484496e+17
19455.0	5.398294484921002e+17
19456.0	5.469332603666433e+17
19457.0	5.5266897681885843e+17
19458.0	5.421865574422078e+17
19459.0	5.6068846146027866e+17
19460.0	5.6508996960037523e+17
19461.0	5.6829743803487565e+17
19462.0	5.7096630268067834e+17
19463.0	5.732910308349266e+17
19464.0	5.753924969562111e+17
19465.0	5.772746511002282e+17
19466.0	5.788535245591892e+17
19467.0	5.804751840433491e+17
19468.0	5.818720204445011e+17
19469.0	5.830242409818793e+17
19470.0	5.842380427799208e+17
19471.0	5.853428071443114e+17
19472.0	5.862235764512083e+17
19473.0	5.871323114198356e+17
19474.0	5.878904077505875e+17
19475.0	5.885728768655359e+17
19476.0	5.893380178094761e+17
19477.0	5.8990379677341e+17
19478.0	5.90443135054643e+17
19479.0	5.909813510799359e+17
19480.0	5.914661910216704e+17
19481.0	5.918958170756435e+17
19482.0	5.923574883112275e+17
19483.0	5.927010804520276e+17
19484.0	5.930122287426218e+17
19485.0	5.933149654963539e+17
19486.0	5.935790049722368e+17
19487.0	5.93872978846242e+17
19488.0	5.941512890919594e+17
19489.0	5.943302274678783e+17
19490.0	5.945563531618986e+17
19491.0	5.948551755115178e+17
19492.0	5.950189395946153e+17
19493.0	5.952706207634772e+17
19494.0	5.954029584646143e+17
19495.0	5.955227648436905e+17
19496.0	5.956809971291476e+17
19497.0	5.957469366910976e+17
19498.0	5.944528484346534e+17
19499.0	5.88680136543435e+17
19500.0	5.959856213196799e+17
19501.0	5.962095948464127e+17
19502.0	5.963066639035049e+17
19503.0	5.964204544622591e+17
19504.0	5.964675945944404e+17
19505.0	5.965032813406889e+17
19506.0	5.965319975032147e+17
19507.0	5.9658588913664e+17
19508.0	5.966047880413183e+17
19509.0	5.965805138564435e+17
19510.0	5.964038866119337e+17
19511.0	5.845369504137137e+17
19512.0	5.948215043380556e+17
19513.0	5.943063212632723e+17
19514.0	5.947723176651418e+17
19515.0	5.964796040751786e+17
19516.0	5.96568252158225e+17
19517.0	5.965695835701247e+17
19518.0	5.965452080229034e+17
19519.0	5.96528732447266e+17
19520.0	5.964791951305385e+17
19521.0	5.964904329292457e+17
19522.0	5.964446441319082e+17
19523.0	5.964025818338646e+17
19524.0	5.963402960699392e+17
19525.0	5.963237221378729e+17
19526.0	5.962777476726783e+17
19527.0	5.962269512957951e+17
19528.0	5.961704026406911e+17
19529.0	5.961227864550057e+17
19530.0	5.960739359555583e+17
19531.0	5.96031573205538e+17
19532.0	5.959752016898729e+17
19533.0	5.959127819179348e+17
19534.0	5.958485957148672e+17
19535.0	5.957820825119401e+17
19536.0	5.95744247652898e+17
19537.0	5.956779133370367e+17
19538.0	5.955567410828628e+17
19539.0	5.955032929271807e+17
19540.0	5.954635513375402e+17
19541.0	5.953896675540991e+17
19542.0	5.95339550654464e+17
19543.0	5.952283116306431e+17
19544.0	5.951890126798847e+17
19545.0	5.950716150196905e+17
19546.0	5.949800593053012e+17
19547.0	5.949631282981546e+17
19548.0	5.948887219044351e+17
19549.0	5.948148905497939e+17
19550.0	5.947423629945514e+17
19551.0	5.946603825266687e+17
19552.0	5.945772255565139e+17
19553.0	5.94491425685504e+17
19554.0	5.944061086487892e+17
19555.0	5.94316709925137e+17
19556.0	5.942334240500393e+17
19557.0	5.941522225343146e+17
19558.0	5.940755456240297e+17
19559.0	5.939880523027796e+17
19560.0	5.938818697920511e+17
19561.0	5.938079121189546e+17
19562.0	5.937056158405972e+17
19563.0	5.936306860676436e+17
19564.0	5.935400555468115e+17
19565.0	5.934489735790591e+17
19566.0	5.933552990420991e+17
19567.0	5.932652779536383e+17
19568.0	5.93170806079488e+17
19569.0	5.930786075181055e+17
19570.0	5.929871337324543e+17
19571.0	5.929013764336298e+17
19572.0	5.928046606767443e+17
19573.0	5.927068862775296e+17
19574.0	5.926085699742377e+17
19575.0	5.925242841071615e+17
19576.0	5.924254177908052e+17
19577.0	5.923225334710272e+17
19578.0	5.922347782154921e+17
19579.0	5.921386658092371e+17
19580.0	5.92042462945826e+17
19581.0	5.91947272098065e+17
19582.0	5.918513531191295e+17
19583.0	5.91762076869154e+17
19584.0	5.916615649875284e+17
19585.0	5.915552727258452e+17
19586.0	5.91449600102673e+17
19587.0	5.913541989804714e+17
19588.0	5.912368782158505e+17
19589.0	5.911730200073556e+17
19590.0	5.910687587674793e+17
19591.0	5.909804581126143e+17
19592.0	5.908826462442836e+17
19593.0	5.907787241138857e+17
19594.0	5.906591102533631e+17
19595.0	5.905840529036627e+17
19596.0	5.904145776465236e+17
19597.0	5.903843803354452e+17
19598.0	5.902546660316499e+17
19599.0	5.901845621549737e+17
19600.0	5.900852178976767e+17
19601.0	5.899783476609023e+17
19602.0	5.89871398780928e+17
19603.0	5.897109643460605e+17
19604.0	5.896555956884822e+17
19605.0	5.895550612275199e+17
19606.0	5.894790162590378e+17
19607.0	5.893794922059092e+17
19608.0	5.892770178793471e+17
19609.0	5.891730952596138e+17
19610.0	5.890558495031295e+17
19611.0	5.889452649305428e+17
19612.0	5.888720820153001e+17
19613.0	5.887690752218452e+17
19614.0	5.886639552681299e+17
19615.0	5.885598906013011e+17
19616.0	5.88400315998754e+17
19617.0	5.883288321960618e+17
19618.0	5.882072971345919e+17
19619.0	5.880890358672042e+17
19620.0	5.879929571551913e+17
19621.0	5.87905992036625e+17
19622.0	5.878444143411199e+17
19623.0	5.877377571749887e+17
19624.0	5.876265751937023e+17
19625.0	5.875273051056809e+17
19626.0	5.874152137992873e+17
19627.0	5.872835545967274e+17
19628.0	5.870881502920703e+17
19629.0	5.868368520631635e+17
19630.0	5.858283433405096e+17
19631.0	5.837016595955715e+17
19632.0	5.864834188268884e+17
19633.0	5.866110652689066e+17
19634.0	5.865722214700372e+17
19635.0	5.864811062274729e+17
19636.0	5.863511794122751e+17
19637.0	5.862247190495232e+17
19638.0	5.861942677034324e+17
19639.0	5.860954592684714e+17
19640.0	5.85982550282513e+17
19641.0	5.858219108160855e+17
19642.0	5.857855668223999e+17
19643.0	5.856816059645951e+17
19644.0	5.855775184388095e+17
19645.0	5.854633557753855e+17
19646.0	5.85331137192482e+17
19647.0	5.852748093674838e+17
19648.0	5.851726245877075e+17
19649.0	5.85068737270033e+17
19650.0	5.849658926563327e+17
19651.0	5.8486183442077e+17
19652.0	5.847581681429161e+17
19653.0	5.846528344894121e+17
19654.0	5.845509609269929e+17
19655.0	5.844470970974207e+17
19656.0	5.843439843977897e+17
19657.0	5.842407500633428e+17
19658.0	5.841364733744468e+17
19659.0	5.840331966076244e+17
19660.0	5.839294720988499e+17
19661.0	5.838255043903487e+17
19662.0	5.837208875433983e+17
19663.0	5.836099138093055e+17
19664.0	5.835015159371092e+17
19665.0	5.834090906735956e+17
