# Flux units: erg / (cm m2 s)
# Wavelength units: Angstrom
wave	flux
19000.0	6.630193522627923e+17
19001.0	6.628899516929364e+17
19002.0	6.62773619176243e+17
19003.0	6.626505428478633e+17
19004.0	6.625275143345492e+17
19005.0	6.624047150399487e+17
19006.0	6.622817181936298e+17
19007.0	6.6215224555165e+17
19008.0	6.620316087003817e+17
19009.0	6.619059542032383e+17
19010.0	6.617597915168767e+17
19011.0	6.61662998864418e+17
19012.0	6.615194923608745e+17
19013.0	6.614193193091071e+17
19014.0	6.61292474049058e+17
19015.0	6.612096842902184e+17
19016.0	6.614176313114623e+17
19017.0	6.612971690830506e+17
19018.0	6.611725794497876e+17
19019.0	6.610502673935017e+17
19020.0	6.609254953080148e+17
19021.0	6.608040736325631e+17
19022.0	6.606811615111849e+17
19023.0	6.605548946456573e+17
19024.0	6.604322283803988e+17
19025.0	6.603084232217939e+17
19026.0	6.601830036056745e+17
19027.0	6.600437853585407e+17
19028.0	6.599395210428415e+17
19029.0	6.598157933390506e+17
19030.0	6.596933627237716e+17
19031.0	6.595698836023978e+17
19032.0	6.594463712761172e+17
19033.0	6.593168596271103e+17
19034.0	6.591983265688234e+17
19035.0	6.590718997605034e+17
19036.0	6.576027344743082e+17
19037.0	6.588279626050218e+17
19038.0	6.587036033089533e+17
19039.0	6.58581822251554e+17
19040.0	6.58458349211921e+17
19041.0	6.583347501334527e+17
19042.0	6.582053346039123e+17
19043.0	6.580879139449514e+17
19044.0	6.579641298976767e+17
19045.0	6.578401879348563e+17
19046.0	6.577140146722134e+17
19047.0	6.575925572053674e+17
19048.0	6.574570532241407e+17
19049.0	6.573413009195007e+17
19050.0	6.57220476862464e+17
19051.0	6.569019255554045e+17
19052.0	6.56936074879522e+17
19053.0	6.568512444519763e+17
19054.0	6.567293405713748e+17
19055.0	6.565891211438762e+17
19056.0	6.564811181654015e+17
19057.0	6.563584649024852e+17
19058.0	6.562371768156159e+17
19059.0	6.561207458026836e+17
19060.0	6.559958404082346e+17
19061.0	6.558739238049108e+17
19062.0	6.557501256368128e+17
19063.0	6.556267823409833e+17
19064.0	6.554957847898793e+17
19065.0	6.55368452641041e+17
19066.0	6.552527280188074e+17
19067.0	6.551329568019796e+17
19068.0	6.55009692848401e+17
19069.0	6.548862946770943e+17
19070.0	6.547612944913748e+17
19071.0	6.546389040715091e+17
19072.0	6.54515863953954e+17
19073.0	6.543923607153321e+17
19074.0	6.542693285669546e+17
19075.0	6.541459464039081e+17
19076.0	6.540212248597844e+17
19077.0	6.538982318582441e+17
19078.0	6.537740671778815e+17
19079.0	6.536523408561492e+17
19080.0	6.535279502426111e+17
19081.0	6.534033633356457e+17
19082.0	6.532795436367872e+17
19083.0	6.531518523856212e+17
19084.0	6.530204242193066e+17
19085.0	6.529124217301674e+17
19086.0	6.527635430222506e+17
19087.0	6.526262064097962e+17
19088.0	6.525355760986794e+17
19089.0	6.523872137095849e+17
19090.0	6.522936037649066e+17
19091.0	6.521706390050132e+17
19092.0	6.520368737725097e+17
19093.0	6.519263225446399e+17
19094.0	6.51802775195921e+17
19095.0	6.516794702080682e+17
19096.0	6.51555613249809e+17
19097.0	6.514334095463764e+17
19098.0	6.51310172086818e+17
19099.0	6.511869279163731e+17
19100.0	6.510617312974163e+17
19101.0	6.509400309803689e+17
19102.0	6.508113463083005e+17
19103.0	6.506947456357716e+17
19104.0	6.505716095385599e+17
19105.0	6.504477121751721e+17
19106.0	6.503182149266089e+17
19107.0	6.502011223321257e+17
19108.0	6.500788541762218e+17
19109.0	6.498444164202495e+17
19110.0	6.495057885877592e+17
19111.0	6.493532276304553e+17
19112.0	6.492303639532884e+17
19113.0	6.49107436802321e+17
19114.0	6.489844918255615e+17
19115.0	6.48856409944883e+17
19116.0	6.487371171583316e+17
19117.0	6.486140748737193e+17
19118.0	6.484810536408404e+17
19119.0	6.480956691753638e+17
19120.0	6.482351523627007e+17
19121.0	6.481157134046547e+17
19122.0	6.480012423200765e+17
19123.0	6.478783035648682e+17
19124.0	6.477489726204585e+17
19125.0	6.476314860410196e+17
19126.0	6.475091370049535e+17
19127.0	6.47272301924625e+17
19128.0	6.472246239428607e+17
19129.0	6.471360470930772e+17
19130.0	6.470169719909033e+17
19131.0	6.468946560199338e+17
19132.0	6.467725392784041e+17
19133.0	6.466342254630228e+17
19134.0	6.465097039172948e+17
19135.0	6.464036744287572e+17
19136.0	6.462817144143871e+17
19137.0	6.461483563089919e+17
19138.0	6.460337423384575e+17
19139.0	6.459132838150143e+17
19140.0	6.45790702903842e+17
19141.0	6.456679410084521e+17
19142.0	6.455436117715625e+17
19143.0	6.454191348252671e+17
19144.0	6.452979432772948e+17
19145.0	6.451766695209642e+17
19146.0	6.450155154134358e+17
19147.0	6.449248912539647e+17
19148.0	6.448079479767039e+17
19149.0	6.446853827941716e+17
19150.0	6.445628385831593e+17
19151.0	6.444407125442559e+17
19152.0	6.443163737303721e+17
19153.0	6.441936629355859e+17
19154.0	6.44064205672721e+17
19155.0	6.439499490568874e+17
19156.0	6.438269357828778e+17
19157.0	6.43701924831778e+17
19158.0	6.435059210911743e+17
19159.0	6.434571978189482e+17
19160.0	6.433346771659433e+17
19161.0	6.432099023541588e+17
19162.0	6.429193403367425e+17
19163.0	6.4296214083229e+17
19164.0	6.428456702530899e+17
19165.0	6.42719214084642e+17
19166.0	6.425888439315113e+17
19167.0	6.424614778088105e+17
19168.0	6.423527864052393e+17
19169.0	6.422281374225748e+17
19170.0	6.421096217706495e+17
19171.0	6.419767295126185e+17
19172.0	6.418634331127807e+17
19173.0	6.4174128379549e+17
19174.0	6.416155806444201e+17
19175.0	6.414967041425408e+17
19176.0	6.41374016696047e+17
19177.0	6.412413480643242e+17
19178.0	6.411238584789674e+17
19179.0	6.409916131224234e+17
19180.0	6.408802300242601e+17
19181.0	6.407531637243904e+17
19182.0	6.406359796241748e+17
19183.0	6.40514812612881e+17
19184.0	6.403906403128659e+17
19185.0	6.402692310106111e+17
19186.0	6.401467873929898e+17
19187.0	6.400193870867113e+17
19188.0	6.399007646897491e+17
19189.0	6.397768734081023e+17
19190.0	6.396533646469802e+17
19191.0	6.395291861254143e+17
19192.0	6.394100357354836e+17
19193.0	6.392859455040169e+17
19194.0	6.391631356537513e+17
19195.0	6.390414505061033e+17
19196.0	6.389175413287594e+17
19197.0	6.387938291438932e+17
19198.0	6.386671790587903e+17
19199.0	6.375375602275665e+17
19200.0	6.377153189554861e+17
19201.0	6.382993073504255e+17
19202.0	6.381801980646739e+17
19203.0	6.380555855724544e+17
19204.0	6.379339206273706e+17
19205.0	6.378119371948032e+17
19206.0	6.376888382870868e+17
19207.0	6.375599388666537e+17
19208.0	6.374306613996201e+17
19209.0	6.373200964004522e+17
19210.0	6.371979159055017e+17
19211.0	6.370747854706003e+17
19212.0	6.369516453188948e+17
19213.0	6.368159916709204e+17
19214.0	6.366867894217386e+17
19215.0	6.365779229059753e+17
19216.0	6.364586752780969e+17
19217.0	6.363356540349097e+17
19218.0	6.361582018407081e+17
19219.0	6.360789232036521e+17
19220.0	6.359638684816724e+17
19221.0	6.358215810525865e+17
19222.0	6.357182236852223e+17
19223.0	6.355952789880831e+17
19224.0	6.354687889855828e+17
19225.0	6.35338925084945e+17
19226.0	6.352234155606015e+17
19227.0	6.350996241033897e+17
19228.0	6.349777418933588e+17
19229.0	6.348540309667839e+17
19230.0	6.347286398020265e+17
19231.0	6.346046363227476e+17
19232.0	6.344818740778324e+17
19233.0	6.343542135149908e+17
19234.0	6.342333970077012e+17
19235.0	6.340141859733501e+17
19236.0	6.337861230002175e+17
19237.0	6.336608976502783e+17
19238.0	6.335303637794815e+17
19239.0	6.334134585305769e+17
19240.0	6.33285595243042e+17
19241.0	6.331620762757801e+17
19242.0	6.330389429048659e+17
19243.0	6.329049217499133e+17
19244.0	6.327911448226474e+17
19245.0	6.326664499822591e+17
19246.0	6.325406642034004e+17
19247.0	6.32416774459665e+17
19248.0	6.322919558873087e+17
19249.0	6.321662565111124e+17
19250.0	6.320405525211818e+17
19251.0	6.319080309697193e+17
19252.0	6.317738394561193e+17
19253.0	6.316645975501482e+17
19254.0	6.315402021830655e+17
19255.0	6.314037800686931e+17
19256.0	6.312856636446036e+17
19257.0	6.311638301584042e+17
19258.0	6.310381316210687e+17
19259.0	6.309077679691091e+17
19260.0	6.307620902841001e+17
19261.0	6.306600832729087e+17
19262.0	6.305307470856192e+17
19263.0	6.304032689750015e+17
19264.0	6.30246313505587e+17
19265.0	6.301417515341139e+17
19266.0	6.300154978107391e+17
19267.0	6.29901033017617e+17
19268.0	6.297740723443028e+17
19269.0	6.29646975565824e+17
19270.0	6.295195566647977e+17
19271.0	6.293706282543786e+17
19272.0	6.292624452004522e+17
19273.0	6.290260426926761e+17
19274.0	6.289369535086591e+17
19275.0	6.288812859370154e+17
19276.0	6.287518917285204e+17
19277.0	6.286238849258838e+17
19278.0	6.284956219910826e+17
19279.0	6.283656400207871e+17
19280.0	6.282339304166739e+17
19281.0	6.281085802861908e+17
19282.0	6.27980400468514e+17
19283.0	6.278355185827839e+17
19284.0	6.277067871442259e+17
19285.0	6.275789304277673e+17
19286.0	6.274592651171156e+17
19287.0	6.273312151830527e+17
19288.0	6.26805583607671e+17
19289.0	6.262267326758899e+17
19290.0	6.269391346510506e+17
19291.0	6.267913345783126e+17
19292.0	6.266767629702483e+17
19293.0	6.265445993327273e+17
19294.0	6.264124430352383e+17
19295.0	6.262809655159466e+17
19296.0	6.261484431256233e+17
19297.0	6.260148516072105e+17
19298.0	6.258813731252905e+17
19299.0	6.257491360175444e+17
19300.0	6.256152639700991e+17
19301.0	6.254808761630719e+17
19302.0	6.253456712357204e+17
19303.0	6.252072478091945e+17
19304.0	6.25074389455121e+17
19305.0	6.249401638977533e+17
19306.0	6.248045844190548e+17
19307.0	6.246649921798143e+17
19308.0	6.245296667361279e+17
19309.0	6.243582270767104e+17
19310.0	6.242099310974291e+17
19311.0	6.241135494867625e+17
19312.0	6.239812182867965e+17
19313.0	6.238427403343188e+17
19314.0	6.226038133970268e+17
19315.0	6.225233985230173e+17
19316.0	6.234204018136403e+17
19317.0	6.232832552031572e+17
19318.0	6.231415990867283e+17
19319.0	6.230009886801919e+17
19320.0	6.228583761226409e+17
19321.0	6.227154796107092e+17
19322.0	6.225643259123028e+17
19323.0	6.224124809925972e+17
19324.0	6.222821052470612e+17
19325.0	6.221042336224598e+17
19326.0	6.219911201641812e+17
19327.0	6.218440575898963e+17
19328.0	6.216970386363734e+17
19329.0	6.215495423710548e+17
19330.0	6.213982229976404e+17
19331.0	6.212481055719423e+17
19332.0	6.211001705125206e+17
19333.0	6.209485627108009e+17
19334.0	6.207966610980863e+17
19335.0	6.206426908546388e+17
19336.0	6.204895896709801e+17
19337.0	6.203343826670932e+17
19338.0	6.201651306168319e+17
19339.0	6.200215747603113e+17
19340.0	6.19858664497698e+17
19341.0	6.197022987474259e+17
19342.0	6.195183797753172e+17
19343.0	6.19382730531362e+17
19344.0	6.192198827638783e+17
19345.0	6.18935255057476e+17
19346.0	6.188325427041619e+17
19347.0	6.187070838713002e+17
19348.0	6.185320211021823e+17
19349.0	6.183611916440916e+17
19350.0	6.181903225498282e+17
19351.0	6.180185711837183e+17
19352.0	6.178413081526271e+17
19353.0	6.176714726047743e+17
19354.0	6.174948020191231e+17
19355.0	6.173102696999594e+17
19356.0	6.171364620064083e+17
19357.0	6.169548411633663e+17
19358.0	6.167702188064768e+17
19359.0	6.165793838465023e+17
19360.0	6.16395047960576e+17
19361.0	6.16206388236561e+17
19362.0	6.16017282867746e+17
19363.0	6.158233855066111e+17
19364.0	6.15627176874257e+17
19365.0	6.154287800735059e+17
19366.0	6.152278794829823e+17
19367.0	6.150245327044607e+17
19368.0	6.148186239052457e+17
19369.0	6.14605315514914e+17
19370.0	6.143865110484308e+17
19371.0	6.141809377935359e+17
19372.0	6.139670321343145e+17
19373.0	6.13745622655522e+17
19374.0	6.135235124483412e+17
19375.0	6.132973922768211e+17
19376.0	6.130685256750419e+17
19377.0	6.128358171607039e+17
19378.0	6.125999843093162e+17
19379.0	6.123603433095167e+17
19380.0	6.121168897572863e+17
19381.0	6.118695694761983e+17
19382.0	6.116133867006633e+17
19383.0	6.113553585711785e+17
19384.0	6.111027232680618e+17
19385.0	6.108388215750655e+17
19386.0	6.105705599729663e+17
19387.0	6.102973822271487e+17
19388.0	6.100194293361321e+17
19389.0	6.097106954966356e+17
19390.0	6.093915262287871e+17
19391.0	6.079596815100571e+17
19392.0	6.087731429332307e+17
19393.0	6.085013026111487e+17
19394.0	6.08192782611251e+17
19395.0	6.078774639940948e+17
19396.0	6.075571168258729e+17
19397.0	6.072337313038333e+17
19398.0	6.068996988207101e+17
19399.0	6.065184256819199e+17
19400.0	6.061709379414697e+17
19401.0	6.057649360251561e+17
19402.0	6.054032672729769e+17
19403.0	6.050300360829609e+17
19404.0	6.046503270001321e+17
19405.0	6.042617511586473e+17
19406.0	6.037671565940052e+17
19407.0	6.033165978173439e+17
19408.0	6.028562929461932e+17
19409.0	6.024796402526889e+17
19410.0	6.018533446822569e+17
19411.0	6.014000834456234e+17
19412.0	6.008716751710892e+17
19413.0	6.001940151052969e+17
19414.0	5.996156151311016e+17
19415.0	5.988331566749012e+17
19416.0	5.980356987584508e+17
19417.0	5.9718284331363e+17
19418.0	5.961746756577965e+17
19419.0	5.949483150650021e+17
19420.0	5.934726968421029e+17
19421.0	5.917494481693349e+17
19422.0	5.899895565888169e+17
19423.0	5.888574501857961e+17
19424.0	5.87839205085457e+17
19425.0	5.867588186450602e+17
19426.0	5.856268760296105e+17
19427.0	5.844481585359529e+17
19428.0	5.832134919629481e+17
19429.0	5.819154897218217e+17
19430.0	5.804997473555796e+17
19431.0	5.788437130335575e+17
19432.0	5.775593240352084e+17
19433.0	5.759112913267371e+17
19434.0	5.742263704136363e+17
19435.0	5.7229098454002336e+17
19436.0	5.699538364923903e+17
19437.0	5.6722167364758246e+17
19438.0	5.61846076711459e+17
19439.0	5.577063724133039e+17
19440.0	5.535823020337834e+17
19441.0	5.498447571102377e+17
19442.0	5.45820671737856e+17
19443.0	5.412730478176938e+17
19444.0	5.3589766185506106e+17
19445.0	5.282879172334919e+17
19446.0	5.1759081254638944e+17
19447.0	5.0746047451190566e+17
19448.0	4.9368157203551584e+17
19449.0	4.7188589968097254e+17
19450.0	4.31905722509993e+17
19451.0	4.193890965214524e+17
19452.0	4.538249515106312e+17
19453.0	4.840245986765493e+17
19454.0	5.010335097771342e+17
19455.0	5.1210847945140896e+17
19456.0	5.2228647855062995e+17
19457.0	5.3148822808821645e+17
19458.0	5.3547628187265946e+17
19459.0	5.420392604063069e+17
19460.0	5.4620292655349734e+17
19461.0	5.4986673365538125e+17
19462.0	5.533306022701736e+17
19463.0	5.5839076447682554e+17
19464.0	5.6292716940274374e+17
19465.0	5.6594313682179437e+17
19466.0	5.6819199882472083e+17
19467.0	5.700653322775208e+17
19468.0	5.716568359742125e+17
19469.0	5.730433270546432e+17
19470.0	5.744065484860074e+17
19471.0	5.7566183977997645e+17
19472.0	5.76904177595187e+17
19473.0	5.780089648884393e+17
19474.0	5.79055012422178e+17
19475.0	5.799931223386793e+17
19476.0	5.80957637845538e+17
19477.0	5.818534030475264e+17
19478.0	5.826727192996521e+17
19479.0	5.834386274516991e+17
19480.0	5.847089946121555e+17
19481.0	5.863315079168e+17
19482.0	5.87649054635895e+17
19483.0	5.887067394757966e+17
19484.0	5.895584346363223e+17
19485.0	5.902506261479423e+17
19486.0	5.909675097369257e+17
19487.0	5.913902594392061e+17
19488.0	5.919157739935062e+17
19489.0	5.922247922068137e+17
19490.0	5.926006047113213e+17
19491.0	5.929081907096233e+17
19492.0	5.932220478215507e+17
19493.0	5.935216647820627e+17
19494.0	5.937127560140116e+17
19495.0	5.938949362373972e+17
19496.0	5.941454212606633e+17
19497.0	5.943712277681492e+17
19498.0	5.943535186477055e+17
19499.0	5.928768957491877e+17
19500.0	5.948173383456084e+17
19501.0	5.949479727398912e+17
19502.0	5.951471022156457e+17
19503.0	5.952777176656553e+17
19504.0	5.953847311379114e+17
19505.0	5.954856846797481e+17
19506.0	5.955800933597183e+17
19507.0	5.95667546205935e+17
19508.0	5.957503018511017e+17
19509.0	5.958263791157247e+17
19510.0	5.958838028424531e+17
19511.0	5.938276828097187e+17
19512.0	5.957130151875922e+17
19513.0	5.955836920725498e+17
19514.0	5.957972946933071e+17
19515.0	5.961862133492394e+17
19516.0	5.962689215987712e+17
19517.0	5.963030566622548e+17
19518.0	5.96339050151936e+17
19519.0	5.963658662947498e+17
19520.0	5.963884994581843e+17
19521.0	5.964099092829523e+17
19522.0	5.964234254275926e+17
19523.0	5.964371809271807e+17
19524.0	5.96445142065698e+17
19525.0	5.964484005505705e+17
19526.0	5.964502332517034e+17
19527.0	5.964476196410708e+17
19528.0	5.964420115070976e+17
19529.0	5.964342160435881e+17
19530.0	5.964233926421161e+17
19531.0	5.964091993270954e+17
19532.0	5.96392121798929e+17
19533.0	5.963722542197418e+17
19534.0	5.963494357379754e+17
19535.0	5.963237504494249e+17
19536.0	5.962941461430271e+17
19537.0	5.96266610467362e+17
19538.0	5.962257614416554e+17
19539.0	5.961658010697728e+17
19540.0	5.961603668596052e+17
19541.0	5.961228095935827e+17
19542.0	5.960813925892096e+17
19543.0	5.960378786425514e+17
19544.0	5.959931598820692e+17
19545.0	5.95914734576162e+17
19546.0	5.958424052716884e+17
19547.0	5.958471809062228e+17
19548.0	5.957949807656959e+17
19549.0	5.957355876035242e+17
19550.0	5.956865690522963e+17
19551.0	5.956300679326377e+17
19552.0	5.955718584729599e+17
19553.0	5.955106860171263e+17
19554.0	5.954490057009833e+17
19555.0	5.953881059448147e+17
19556.0	5.953254675797331e+17
19557.0	5.952603168964607e+17
19558.0	5.951943395158697e+17
19559.0	5.951269240482474e+17
19560.0	5.950570256924672e+17
19561.0	5.949874475717971e+17
19562.0	5.949187959029759e+17
19563.0	5.948471812379988e+17
19564.0	5.947746142562985e+17
19565.0	5.947010702813865e+17
19566.0	5.946365918052352e+17
19567.0	5.945743612663124e+17
19568.0	5.944964559841961e+17
19569.0	5.944204343640063e+17
19570.0	5.943430305109331e+17
19571.0	5.942638859517952e+17
19572.0	5.941827938374996e+17
19573.0	5.94102790983953e+17
19574.0	5.940176502478163e+17
19575.0	5.9394169517725e+17
19576.0	5.938594394232148e+17
19577.0	5.937754443612159e+17
19578.0	5.936900529455101e+17
19579.0	5.936069881102335e+17
19580.0	5.935221593604095e+17
19581.0	5.934372816071338e+17
19582.0	5.933523489084756e+17
19583.0	5.932658086029993e+17
19584.0	5.931781763104767e+17
19585.0	5.930841959388499e+17
19586.0	5.929935342403583e+17
19587.0	5.929082065081684e+17
19588.0	5.927952651561641e+17
19589.0	5.927344490064554e+17
19590.0	5.926400150907562e+17
19591.0	5.92555598221585e+17
19592.0	5.924648399142912e+17
19593.0	5.92372429890082e+17
19594.0	5.922668564621993e+17
19595.0	5.921871166614186e+17
19596.0	5.920126080996692e+17
19597.0	5.920008081244159e+17
19598.0	5.918896225779711e+17
19599.0	5.91819042857506e+17
19600.0	5.917253831404201e+17
19601.0	5.91626928005666e+17
19602.0	5.915333804163071e+17
19603.0	5.914012964006569e+17
19604.0	5.913417827221503e+17
19605.0	5.912333059970388e+17
19606.0	5.911566126590633e+17
19607.0	5.910611533059412e+17
19608.0	5.909644554447529e+17
19609.0	5.908654314225663e+17
19610.0	5.907721312971434e+17
19611.0	5.906749231289684e+17
19612.0	5.905786557431807e+17
19613.0	5.90480798786082e+17
19614.0	5.903813798002687e+17
19615.0	5.902859653261993e+17
19616.0	5.901782549004287e+17
19617.0	5.900898598038185e+17
19618.0	5.899551059039571e+17
19619.0	5.898489617711101e+17
19620.0	5.897520994233002e+17
19621.0	5.8969598473885e+17
19622.0	5.895974543862442e+17
19623.0	5.894983070515199e+17
19624.0	5.893989917349204e+17
19625.0	5.892994235017898e+17
19626.0	5.891997931929599e+17
19627.0	5.890997224822102e+17
19628.0	5.88975347597312e+17
19629.0	5.888923857321983e+17
19630.0	5.887183424585727e+17
19631.0	5.876065389335894e+17
19632.0	5.885970268291072e+17
19633.0	5.884945667631786e+17
19634.0	5.883974104645631e+17
19635.0	5.882940799407444e+17
19636.0	5.88195320369425e+17
19637.0	5.880701535999316e+17
19638.0	5.879928265026217e+17
19639.0	5.878910354980863e+17
19640.0	5.877828956454912e+17
19641.0	5.876389172827476e+17
19642.0	5.875875053218473e+17
19643.0	5.874850449762986e+17
19644.0	5.873798218427049e+17
19645.0	5.872643352472233e+17
19646.0	5.871796330255699e+17
19647.0	5.870780275490815e+17
19648.0	5.869758803782314e+17
19649.0	5.868734335243604e+17
19650.0	5.867712747492692e+17
19651.0	5.866688500553044e+17
19652.0	5.865663548271273e+17
19653.0	5.864636482060287e+17
19654.0	5.863611347326292e+17
19655.0	5.862581061287935e+17
19656.0	5.86155187835153e+17
19657.0	5.860527877477716e+17
19658.0	5.859498753261567e+17
19659.0	5.85846795342097e+17
19660.0	5.857438686598484e+17
19661.0	5.85640774275345e+17
19662.0	5.855376142499839e+17
19663.0	5.85435852186146e+17
19664.0	5.853373876841129e+17
19665.0	5.8523806859264e+17
