# Flux units: erg / (cm m2 s)
# Wavelength units: Angstrom
wave	flux
19000.0	7.92187732509764e+17
19001.0	7.920416539891027e+17
19002.0	7.919068068358826e+17
19003.0	7.917659593113597e+17
19004.0	7.916250143391744e+17
19005.0	7.914840924356607e+17
19006.0	7.913428647673856e+17
19007.0	7.912003326705663e+17
19008.0	7.910568582534483e+17
19009.0	7.909125529447081e+17
19010.0	7.90753471102976e+17
19011.0	7.906325634394792e+17
19012.0	7.904830489449812e+17
19013.0	7.903503628369919e+17
19014.0	7.902037421326333e+17
19015.0	7.900628592361471e+17
19016.0	7.89920193900271e+17
19017.0	7.897795019844264e+17
19018.0	7.89636195758899e+17
19019.0	7.894935207761236e+17
19020.0	7.893494272797353e+17
19021.0	7.892244061224957e+17
19022.0	7.891001086225068e+17
19023.0	7.889540363933012e+17
19024.0	7.888115347750911e+17
19025.0	7.886685804516691e+17
19026.0	7.885233303060476e+17
19027.0	7.883756629830313e+17
19028.0	7.882377857247916e+17
19029.0	7.880928526685523e+17
19030.0	7.879496883503101e+17
19031.0	7.878053869562538e+17
19032.0	7.876609310719999e+17
19033.0	7.875110972511572e+17
19034.0	7.873710318245203e+17
19035.0	7.872186610089981e+17
19036.0	7.866929791019689e+17
19037.0	7.869850856718333e+17
19038.0	7.868606837336742e+17
19039.0	7.867177199031638e+17
19040.0	7.865727929985705e+17
19041.0	7.8642765903517e+17
19042.0	7.862777079136255e+17
19043.0	7.861370843649364e+17
19044.0	7.859914900067668e+17
19045.0	7.858537922647379e+17
19046.0	7.857377016195754e+17
19047.0	7.855929156435965e+17
19048.0	7.854384370505042e+17
19049.0	7.852985434505215e+17
19050.0	7.851531251133098e+17
19051.0	7.849462396704082e+17
19052.0	7.848481107126954e+17
19053.0	7.847173643304956e+17
19054.0	7.845715146790228e+17
19055.0	7.844105139432105e+17
19056.0	7.842775196936872e+17
19057.0	7.841317202340521e+17
19058.0	7.839849324565844e+17
19059.0	7.838388040237056e+17
19060.0	7.836911077599913e+17
19061.0	7.835453976390314e+17
19062.0	7.833982669073066e+17
19063.0	7.832513102391977e+17
19064.0	7.830986563081555e+17
19065.0	7.82946798875443e+17
19066.0	7.828064912976552e+17
19067.0	7.826630778377556e+17
19068.0	7.82515837215266e+17
19069.0	7.823685496165715e+17
19070.0	7.822198573454676e+17
19071.0	7.820737314291711e+17
19072.0	7.81926230200593e+17
19073.0	7.817784303375699e+17
19074.0	7.816310725541884e+17
19075.0	7.81483383840222e+17
19076.0	7.813346678013953e+17
19077.0	7.811870572412925e+17
19078.0	7.810387181305855e+17
19079.0	7.808920883385686e+17
19080.0	7.807438445783721e+17
19081.0	7.805935489646591e+17
19082.0	7.80445865423667e+17
19083.0	7.802925335532884e+17
19084.0	7.801371074669226e+17
19085.0	7.80003056951842e+17
19086.0	7.798312407837354e+17
19087.0	7.796986447134719e+17
19088.0	7.795511812336296e+17
19089.0	7.793941450937684e+17
19090.0	7.792582188859391e+17
19091.0	7.791107884012884e+17
19092.0	7.789594558158163e+17
19093.0	7.788153831511378e+17
19094.0	7.786666862662995e+17
19095.0	7.785179626777257e+17
19096.0	7.783688192393215e+17
19097.0	7.782206207776084e+17
19098.0	7.780719663950506e+17
19099.0	7.779230330912767e+17
19100.0	7.777740419061078e+17
19101.0	7.77624733351936e+17
19102.0	7.774711994559145e+17
19103.0	7.773267013490003e+17
19104.0	7.771774635387561e+17
19105.0	7.770279593902079e+17
19106.0	7.768772657370451e+17
19107.0	7.767281705331369e+17
19108.0	7.765783258071037e+17
19109.0	7.764005661704191e+17
19110.0	7.762753105515859e+17
19111.0	7.761310140508841e+17
19112.0	7.759819592521044e+17
19113.0	7.7583246978362e+17
19114.0	7.756827693416447e+17
19115.0	7.75531197960465e+17
19116.0	7.753817719657812e+17
19117.0	7.752318875336701e+17
19118.0	7.750770875170815e+17
19119.0	7.747808050981542e+17
19120.0	7.747794602644819e+17
19121.0	7.746306273443839e+17
19122.0	7.744833909161981e+17
19123.0	7.743332402855936e+17
19124.0	7.741803584640338e+17
19125.0	7.740322782816938e+17
19126.0	7.738802185437181e+17
19127.0	7.736441527686483e+17
19128.0	7.735721590783999e+17
19129.0	7.734256632244905e+17
19130.0	7.732803147923453e+17
19131.0	7.731300102307839e+17
19132.0	7.729760692076544e+17
19133.0	7.727552878957908e+17
19134.0	7.726075663264424e+17
19135.0	7.724600024629245e+17
19136.0	7.723090147890515e+17
19137.0	7.72150402289937e+17
19138.0	7.720063775801343e+17
19139.0	7.718563435511807e+17
19140.0	7.717054450761728e+17
19141.0	7.715543314333693e+17
19142.0	7.714016987534676e+17
19143.0	7.712493037507923e+17
19144.0	7.71098911528277e+17
19145.0	7.709491499892735e+17
19146.0	7.70736943792128e+17
19147.0	7.706084919738367e+17
19148.0	7.704608428261373e+17
19149.0	7.703092785752745e+17
19150.0	7.701574114956627e+17
19151.0	7.700059276356266e+17
19152.0	7.698539133359444e+17
19153.0	7.697007648964607e+17
19154.0	7.695437518252713e+17
19155.0	7.693975339139071e+17
19156.0	7.692449792480596e+17
19157.0	7.690898350189225e+17
19158.0	7.689246596923391e+17
19159.0	7.687854995363156e+17
19160.0	7.686350265035432e+17
19161.0	7.684804638845608e+17
19162.0	7.682843491347114e+17
19163.0	7.681702656038227e+17
19164.0	7.680251561071956e+17
19165.0	7.678723718731091e+17
19166.0	7.67714183557939e+17
19167.0	7.675629758229161e+17
19168.0	7.674130507060564e+17
19169.0	7.672602972301993e+17
19170.0	7.671079866728447e+17
19171.0	7.669511550752084e+17
19172.0	7.667887047879338e+17
19173.0	7.666355444645884e+17
19174.0	7.664793680172372e+17
19175.0	7.663284617128616e+17
19176.0	7.661747213172735e+17
19177.0	7.660121351345491e+17
19178.0	7.658651105187155e+17
19179.0	7.657100212349608e+17
19180.0	7.655578402815999e+17
19181.0	7.653989009063935e+17
19182.0	7.652488257732607e+17
19183.0	7.650953368961021e+17
19184.0	7.649400936813906e+17
19185.0	7.64785688768239e+17
19186.0	7.646310317774164e+17
19187.0	7.644722531838633e+17
19188.0	7.643207772930045e+17
19189.0	7.641654233486675e+17
19190.0	7.6400962844317e+17
19191.0	7.638523593796268e+17
19192.0	7.636987624292351e+17
19193.0	7.635424651859283e+17
19194.0	7.633854500175871e+17
19195.0	7.632292388973225e+17
19196.0	7.630705127325693e+17
19197.0	7.629093485587113e+17
19198.0	7.627334879630676e+17
19199.0	7.623048696605353e+17
19200.0	7.622051393175552e+17
19201.0	7.622668125033812e+17
19202.0	7.6212751826944e+17
19203.0	7.619745441731923e+17
19204.0	7.618190883072684e+17
19205.0	7.616639719003475e+17
19206.0	7.615065438726825e+17
19207.0	7.613440768081919e+17
19208.0	7.611823353582931e+17
19209.0	7.610346218979327e+17
19210.0	7.6087664078138e+17
19211.0	7.607183587934205e+17
19212.0	7.605597042114557e+17
19213.0	7.603951268528128e+17
19214.0	7.602346821419007e+17
19215.0	7.600818644931923e+17
19216.0	7.599238471658153e+17
19217.0	7.596973097309526e+17
19218.0	7.594634431692797e+17
19219.0	7.59333081125137e+17
19220.0	7.591824854788778e+17
19221.0	7.590088281511251e+17
19222.0	7.58862115451699e+17
19223.0	7.587030383635114e+17
19224.0	7.585393715882666e+17
19225.0	7.583744532327081e+17
19226.0	7.582190274259625e+17
19227.0	7.580574022980948e+17
19228.0	7.578971294138368e+17
19229.0	7.577350828982271e+17
19230.0	7.575727085278547e+17
19231.0	7.574095334648489e+17
19232.0	7.57247076746308e+17
19233.0	7.570804928326314e+17
19234.0	7.569202536426153e+17
19235.0	7.567564739007828e+17
19236.0	7.565939339952127e+17
19237.0	7.564290763172521e+17
19238.0	7.562601723942228e+17
19239.0	7.56100839453491e+17
19240.0	7.55934601010654e+17
19241.0	7.557687618655574e+17
19242.0	7.556040519669075e+17
19243.0	7.554290236609876e+17
19244.0	7.552730193199101e+17
19245.0	7.551064463114239e+17
19246.0	7.549387911725053e+17
19247.0	7.547723284742144e+17
19248.0	7.546050948628479e+17
19249.0	7.544372660797439e+17
19250.0	7.542680846335997e+17
19251.0	7.539548443639807e+17
19252.0	7.537695899254783e+17
19253.0	7.536166148505597e+17
19254.0	7.534481216897024e+17
19255.0	7.532668933636093e+17
19256.0	7.531063696599721e+17
19257.0	7.529371009723048e+17
19258.0	7.52765804338654e+17
19259.0	7.525896126726144e+17
19260.0	7.524150732827305e+17
19261.0	7.52249342350677e+17
19262.0	7.52073382769459e+17
19263.0	7.51898641773363e+17
19264.0	7.517024456540157e+17
19265.0	7.515443964499284e+17
19266.0	7.513714218150569e+17
19267.0	7.512038796427264e+17
19268.0	7.510278802156202e+17
19269.0	7.508512405979135e+17
19270.0	7.506109251540308e+17
19271.0	7.502819391875756e+17
19272.0	7.501172632627881e+17
19273.0	7.498912271870633e+17
19274.0	7.49720015418163e+17
19275.0	7.495809539680938e+17
19276.0	7.4939960931997e+17
19277.0	7.492185483466068e+17
19278.0	7.490374672405844e+17
19279.0	7.488535986001236e+17
19280.0	7.486676764284242e+17
19281.0	7.484859103925587e+17
19282.0	7.483018689467732e+17
19283.0	7.481138025070591e+17
19284.0	7.479259564081151e+17
19285.0	7.475293258252288e+17
19286.0	7.472934728411817e+17
19287.0	7.470848424280063e+17
19288.0	7.467753033520466e+17
19289.0	7.46449393767765e+17
19290.0	7.465042744180735e+17
19291.0	7.462996073425578e+17
19292.0	7.46122703483699e+17
19293.0	7.459295669693097e+17
19294.0	7.45736004313634e+17
19295.0	7.455412167813802e+17
19296.0	7.453454203792041e+17
19297.0	7.44938059088964e+17
19298.0	7.446234524549119e+17
19299.0	7.444255162586451e+17
19300.0	7.442253449177768e+17
19301.0	7.440240167878655e+17
19302.0	7.438212269430099e+17
19303.0	7.436146580302505e+17
19304.0	7.434125184423251e+17
19305.0	7.432073974033064e+17
19306.0	7.427176261484544e+17
19307.0	7.423885445518675e+17
19308.0	7.421798955439446e+17
19309.0	7.419620631074131e+17
19310.0	7.417449518115498e+17
19311.0	7.415428031359657e+17
19312.0	7.413315461098152e+17
19313.0	7.410025801362085e+17
19314.0	7.401927250455208e+17
19315.0	7.399918430497452e+17
19316.0	7.399766206622378e+17
19317.0	7.397337223659519e+17
19318.0	7.394687699998036e+17
19319.0	7.392456552568148e+17
19320.0	7.387874124453202e+17
19321.0	7.385072488764756e+17
19322.0	7.38273304580369e+17
19323.0	7.380421644561064e+17
19324.0	7.378111644215977e+17
19325.0	7.375715207654058e+17
19326.0	7.373400469143551e+17
19327.0	7.371025332655444e+17
19328.0	7.368639741165565e+17
19329.0	7.366231896096768e+17
19330.0	7.363787988402175e+17
19331.0	7.36133513285905e+17
19332.0	7.358899106261674e+17
19333.0	7.355328583346858e+17
19334.0	7.35279524610048e+17
19335.0	7.350274728045225e+17
19336.0	7.347734308017491e+17
19337.0	7.345175660942678e+17
19338.0	7.342493511188479e+17
19339.0	7.340011417152169e+17
19340.0	7.337371787853823e+17
19341.0	7.33474865754931e+17
19342.0	7.331945176367103e+17
19343.0	7.329248157805226e+17
19344.0	7.325042509611007e+17
19345.0	7.321448202196306e+17
19346.0	7.319155959136255e+17
19347.0	7.316799360073727e+17
19348.0	7.314039101194237e+17
19349.0	7.311171470928553e+17
19350.0	7.308282698574505e+17
19351.0	7.305363328772777e+17
19352.0	7.300149908165974e+17
19353.0	7.296998111008084e+17
19354.0	7.293957668427091e+17
19355.0	7.290837837458089e+17
19356.0	7.287766140321791e+17
19357.0	7.28461736026658e+17
19358.0	7.278499710631935e+17
19359.0	7.274871941059923e+17
19360.0	7.271572015065769e+17
19361.0	7.268231021243049e+17
19362.0	7.264859610327722e+17
19363.0	7.25761767470967e+17
19364.0	7.253730021867517e+17
19365.0	7.250147721347071e+17
19366.0	7.246536958279679e+17
19367.0	7.239345694048259e+17
19368.0	7.233949278754131e+17
19369.0	7.230091220921002e+17
19370.0	7.2258289691962e+17
19371.0	7.215960224869033e+17
19372.0	7.211871621524136e+17
19373.0	7.207683678885203e+17
19374.0	7.196966337380352e+17
19375.0	7.191621836384936e+17
19376.0	7.186915254075395e+17
19377.0	7.173934477388458e+17
19378.0	7.169172208702803e+17
19379.0	7.162294217037137e+17
19380.0	7.15445464343074e+17
19381.0	7.149396052759892e+17
19382.0	7.144219871980202e+17
19383.0	7.138976944444755e+17
19384.0	7.133667650437119e+17
19385.0	7.12824101937698e+17
19386.0	7.122741670270291e+17
19387.0	7.117133235705172e+17
19388.0	7.111431149322237e+17
19389.0	7.105653404685651e+17
19390.0	7.099692813560489e+17
19391.0	7.091029365402278e+17
19392.0	7.087597429282131e+17
19393.0	7.08162054468403e+17
19394.0	7.075466150150143e+17
19395.0	7.069233115212457e+17
19396.0	7.062917125330259e+17
19397.0	7.056417334056276e+17
19398.0	7.049697705328639e+17
19399.0	7.042611913861802e+17
19400.0	7.035857022222335e+17
19401.0	7.028366654483113e+17
19402.0	7.021006291293523e+17
19403.0	7.013547761117866e+17
19404.0	7.005933532785321e+17
19405.0	6.998121587059368e+17
19406.0	6.990117675728895e+17
19407.0	6.981163384045565e+17
19408.0	6.972243909279743e+17
19409.0	6.963740313736532e+17
19410.0	6.954650648794452e+17
19411.0	6.944335120913748e+17
19412.0	6.93386632757248e+17
19413.0	6.923714674644308e+17
19414.0	6.912923484727976e+17
19415.0	6.900529514938368e+17
19416.0	6.889356014212436e+17
19417.0	6.876998067202728e+17
19418.0	6.863603961430015e+17
19419.0	6.850809208416936e+17
19420.0	6.834168612083026e+17
19421.0	6.820041074234707e+17
19422.0	6.802331135202644e+17
19423.0	6.785996699293012e+17
19424.0	6.766735395564205e+17
19425.0	6.747944444581204e+17
19426.0	6.726342441697279e+17
19427.0	6.705619096567808e+17
19428.0	6.682179519468882e+17
19429.0	6.660341730290344e+17
19430.0	6.635301044748293e+17
19431.0	6.60947002860066e+17
19432.0	6.583278495247016e+17
19433.0	6.553613650362368e+17
19434.0	6.524686340281683e+17
19435.0	6.494010756213417e+17
19436.0	6.460702952783871e+17
19437.0	6.423782530307412e+17
19438.0	6.382179712674472e+17
19439.0	6.342280858304515e+17
19440.0	6.296025810949462e+17
19441.0	6.24423231518583e+17
19442.0	6.18727831555277e+17
19443.0	6.123908549836799e+17
19444.0	6.052697169985532e+17
19445.0	5.972607109169155e+17
19446.0	5.88143128617506e+17
19447.0	5.776336499681957e+17
19448.0	5.6528689475966336e+17
19449.0	5.5038700602873165e+17
19450.0	5.3149329935127795e+17
19451.0	5.2144758468553446e+17
19452.0	5.416388449533951e+17
19453.0	5.580596362696026e+17
19454.0	5.713121082955087e+17
19455.0	5.824306754529961e+17
19456.0	5.91958314372301e+17
19457.0	6.002485946045777e+17
19458.0	6.073131787616259e+17
19459.0	6.140317586336429e+17
19460.0	6.197631727086248e+17
19461.0	6.249656321310719e+17
19462.0	6.296070704682327e+17
19463.0	6.337896947995986e+17
19464.0	6.376063210181972e+17
19465.0	6.411313296528724e+17
19466.0	6.444374518224211e+17
19467.0	6.473197157351423e+17
19468.0	6.50069990563294e+17
19469.0	6.526700624019456e+17
19470.0	6.553385611646292e+17
19471.0	6.575537978518185e+17
19472.0	6.5999421308928e+17
19473.0	6.618911230743892e+17
19474.0	6.640394643876525e+17
19475.0	6.658200666024616e+17
19476.0	6.678414151559855e+17
19477.0	6.69449845805329e+17
19478.0	6.712330194780157e+17
19479.0	6.726223022871892e+17
19480.0	6.741503219772072e+17
19481.0	6.754188629377021e+17
19482.0	6.767037748958548e+17
19483.0	6.778980548651689e+17
19484.0	6.789037410309458e+17
19485.0	6.800026725864787e+17
19486.0	6.80865665314543e+17
19487.0	6.817691567740244e+17
19488.0	6.826810407561898e+17
19489.0	6.834395835006975e+17
19490.0	6.841309896288936e+17
19491.0	6.850134107925161e+17
19492.0	6.85683256660241e+17
19493.0	6.863062693489321e+17
19494.0	6.869013546139647e+17
19495.0	6.875291774702932e+17
19496.0	6.880843601543167e+17
19497.0	6.886176324932947e+17
19498.0	6.890828786739882e+17
19499.0	6.891876334436348e+17
19500.0	6.900729076427433e+17
19501.0	6.905573976397139e+17
19502.0	6.910083341134505e+17
19503.0	6.914285956846932e+17
19504.0	6.918353975246847e+17
19505.0	6.922276136026111e+17
19506.0	6.925957511599444e+17
19507.0	6.92952010658065e+17
19508.0	6.933007076163583e+17
19509.0	6.936404859464362e+17
19510.0	6.939634111436116e+17
19511.0	6.938752235951441e+17
19512.0	6.9455479074106e+17
19513.0	6.948034948628477e+17
19514.0	6.951441293901821e+17
19515.0	6.955101613370026e+17
19516.0	6.958113508119891e+17
19517.0	6.9608275995962e+17
19518.0	6.963502879080447e+17
19519.0	6.966059703031123e+17
19520.0	6.968487321447081e+17
19521.0	6.970847008915455e+17
19522.0	6.974298477909338e+17
19523.0	6.979949713249619e+17
19524.0	6.981998625860266e+17
19525.0	6.989208159780865e+17
19526.0	6.993894819845459e+17
19527.0	6.995600948767401e+17
19528.0	7.002549758459899e+17
19529.0	7.005656489918461e+17
19530.0	7.007051625878868e+17
19531.0	7.01180995611306e+17
19532.0	7.015437521562281e+17
19533.0	7.016547537125375e+17
19534.0	7.017599771956566e+17
19535.0	7.023044901295441e+17
19536.0	7.024270476924244e+17
19537.0	7.025130495890772e+17
19538.0	7.025875799244799e+17
19539.0	7.029142146340179e+17
19540.0	7.03119981875473e+17
19541.0	7.031824958095359e+17
19542.0	7.032390641079635e+17
19543.0	7.032918558550698e+17
19544.0	7.035366597634726e+17
19545.0	7.036592130621439e+17
19546.0	7.036817057862995e+17
19547.0	7.037550353623722e+17
19548.0	7.037854190403583e+17
19549.0	7.038068134860116e+17
19550.0	7.039545813325139e+17
19551.0	7.040762304091475e+17
19552.0	7.040906638480726e+17
19553.0	7.04101107245602e+17
19554.0	7.041075537510399e+17
19555.0	7.041101800843945e+17
19556.0	7.041101402385065e+17
19557.0	7.041069472546815e+17
19558.0	7.041370599806292e+17
19559.0	7.042504194348372e+17
19560.0	7.042389102646612e+17
19561.0	7.04226922524399e+17
19562.0	7.042145743536127e+17
19563.0	7.041986976546815e+17
19564.0	7.041809561681919e+17
19565.0	7.041613500339539e+17
19566.0	7.041390361968637e+17
19567.0	7.041166493788841e+17
19568.0	7.040902035931135e+17
19569.0	7.040804142273875e+17
19570.0	7.041371238738602e+17
19571.0	7.041059562804564e+17
19572.0	7.040716085657599e+17
19573.0	7.040379780770474e+17
19574.0	7.039974185981267e+17
19575.0	7.039650556280832e+17
19576.0	7.039258488122025e+17
19577.0	7.03884771476548e+17
19578.0	7.03841024746018e+17
19579.0	7.03797784687411e+17
19580.0	7.037523251429375e+17
19581.0	7.037045889302525e+17
19582.0	7.038459776598016e+17
19583.0	7.038632333060777e+17
19584.0	7.038101766187689e+17
19585.0	7.037541331675817e+17
19586.0	7.037497646601555e+17
19587.0	7.036983213817855e+17
19588.0	7.037177865874092e+17
19589.0	7.040159589597183e+17
19590.0	7.039518438501033e+17
19591.0	7.038928592131411e+17
19592.0	7.03828562490163e+17
19593.0	7.037619036749823e+17
19594.0	7.036833225506815e+17
19595.0	7.036268196833961e+17
19596.0	7.03779174001323e+17
19597.0	7.038469690534569e+17
19598.0	7.037614513892008e+17
19599.0	7.037034449338365e+17
19600.0	7.036295116576084e+17
19601.0	7.035508409849172e+17
19602.0	7.034746631269033e+17
19603.0	7.033784813748223e+17
19604.0	7.033188657048233e+17
19605.0	7.033592393760767e+17
19606.0	7.034522083611987e+17
19607.0	7.033711531567785e+17
19608.0	7.032884416916137e+17
19609.0	7.032029649218217e+17
19610.0	7.031216475034963e+17
19611.0	7.030365833134079e+17
19612.0	7.029511642852009e+17
19613.0	7.028646645246634e+17
19614.0	7.027754291691519e+17
19615.0	7.026902083917139e+17
19616.0	7.025992430256127e+17
19617.0	7.025205861941247e+17
19618.0	7.026269396926463e+17
19619.0	7.025502347504297e+17
19620.0	7.02462500746035e+17
19621.0	7.024020855018835e+17
19622.0	7.023097726457172e+17
19623.0	7.022163919896575e+17
19624.0	7.021222727166633e+17
19625.0	7.020274297864191e+17
19626.0	7.019318235627519e+17
19627.0	7.018348703383551e+17
19628.0	7.017308492223828e+17
19629.0	7.016320205848573e+17
19630.0	7.014846244235945e+17
19631.0	7.011294779539455e+17
19632.0	7.013481491114666e+17
19633.0	7.014135249589588e+17
19634.0	7.013173241227945e+17
19635.0	7.012150934852948e+17
19636.0	7.011168543571965e+17
19637.0	7.00992631935249e+17
19638.0	7.009133388278442e+17
19639.0	7.008105198693033e+17
19640.0	7.007033662373887e+17
19641.0	7.005728905276074e+17
19642.0	7.005015555528019e+17
19643.0	7.003973718376447e+17
19644.0	7.002890037450068e+17
19645.0	7.001747898411689e+17
19646.0	7.00082622038016e+17
19647.0	6.999770911823188e+17
19648.0	6.998710226168489e+17
19649.0	6.997644529718612e+17
19650.0	6.996813200490495e+17
19651.0	6.995915206994602e+17
19652.0	6.995669995399849e+17
19653.0	6.994970948228435e+17
19654.0	6.993888281624575e+17
19655.0	6.992799040449194e+17
19656.0	6.991709602141524e+17
19657.0	6.990621870915583e+17
19658.0	6.989527452570964e+17
19659.0	6.988429282421417e+17
19660.0	6.987329631682559e+17
19661.0	6.986226140359337e+17
19662.0	6.985119151685632e+17
19663.0	6.983986839901524e+17
19664.0	6.982887814813012e+17
19665.0	6.981784324887892e+17
19666.0	6.980660565988691e+17
