# Flux units: erg / (cm m2 s)
# Wavelength units: Angstrom
wave	flux
19000.0	8.092577868458666e+17
19001.0	8.090815753267881e+17
19002.0	8.089540512885417e+17
19003.0	8.088006748187305e+17
19004.0	8.086482101906088e+17
19005.0	8.084946976855378e+17
19006.0	8.083422681497599e+17
19007.0	8.081801201319935e+17
19008.0	8.080189784675667e+17
19009.0	8.078776330791594e+17
19010.0	8.076157078820179e+17
19011.0	8.075734738971304e+17
19012.0	8.073982653759484e+17
19013.0	8.072724429668352e+17
19014.0	8.071034943045631e+17
19015.0	8.069584066183169e+17
19016.0	8.068043414437885e+17
19017.0	8.06584589833557e+17
19018.0	8.065062873508521e+17
19019.0	8.063537578508284e+17
19020.0	8.061844526727167e+17
19021.0	8.060400906010624e+17
19022.0	8.058981255741437e+17
19023.0	8.057344382468096e+17
19024.0	8.055877944737791e+17
19025.0	8.054380485935101e+17
19026.0	8.052810323066876e+17
19027.0	8.051298947563517e+17
19028.0	8.049813081817085e+17
19029.0	8.048242658902015e+17
19030.0	8.046785960345599e+17
19031.0	8.045273901170684e+17
19032.0	8.043739926757375e+17
19033.0	8.041979069857791e+17
19034.0	8.04063276957696e+17
19035.0	8.039059118445908e+17
19036.0	8.030737058671268e+17
19037.0	8.036066569224191e+17
19038.0	8.034510987154772e+17
19039.0	8.03303166592068e+17
19040.0	8.031516171610794e+17
19041.0	8.029971845655208e+17
19042.0	8.028232086104742e+17
19043.0	8.02692795535633e+17
19044.0	8.025375316290217e+17
19045.0	8.023878486633128e+17
19046.0	8.022194891609427e+17
19047.0	8.020816819475795e+17
19048.0	8.018771987223891e+17
19049.0	8.017579733942271e+17
19050.0	8.016111320694783e+17
19051.0	8.01360329467494e+17
19052.0	8.013097990094847e+17
19053.0	8.011620220753236e+17
19054.0	8.010108020370089e+17
19055.0	8.007952508824236e+17
19056.0	8.007003133706236e+17
19057.0	8.005520066958675e+17
19058.0	8.003936356488532e+17
19059.0	8.002478234664957e+17
19060.0	8.000906048744104e+17
19061.0	7.999437372653567e+17
19062.0	7.997898163748863e+17
19063.0	7.996378949091328e+17
19064.0	7.994523828005545e+17
19065.0	7.992847528274602e+17
19066.0	7.991630282533545e+17
19067.0	7.990238939622058e+17
19068.0	7.988743577971369e+17
19069.0	7.987223620922024e+17
19070.0	7.985621054259199e+17
19071.0	7.984155950317567e+17
19072.0	7.982645447229437e+17
19073.0	7.981100441796607e+17
19074.0	7.979600137857706e+17
19075.0	7.978074319967572e+17
19076.0	7.976491006558207e+17
19077.0	7.9750034910522e+17
19078.0	7.973275205719377e+17
19079.0	7.971961913212928e+17
19080.0	7.970408645001215e+17
19081.0	7.968788649607165e+17
19082.0	7.9672151914141e+17
19083.0	7.965546681903785e+17
19084.0	7.963683405692927e+17
19085.0	7.962782815922857e+17
19086.0	7.9602510753082e+17
19087.0	7.959570285243049e+17
19088.0	7.958047559953066e+17
19089.0	7.956126282110294e+17
19090.0	7.9551044517888e+17
19091.0	7.953592491879081e+17
19092.0	7.951940944134144e+17
19093.0	7.950612248745298e+17
19094.0	7.949068778427732e+17
19095.0	7.947548919245484e+17
19096.0	7.946000652042237e+17
19097.0	7.944528623304703e+17
19098.0	7.94299556045346e+17
19099.0	7.941452502575786e+17
19100.0	7.939944209885866e+17
19101.0	7.938438730175827e+17
19102.0	7.936712479080445e+17
19103.0	7.935377648822952e+17
19104.0	7.933875239343444e+17
19105.0	7.93233935512371e+17
19106.0	7.930784761511936e+17
19107.0	7.929258415139497e+17
19108.0	7.927784745030995e+17
19109.0	7.925467824084306e+17
19110.0	7.924732056480426e+17
19111.0	7.923221324103679e+17
19112.0	7.921700536582143e+17
19113.0	7.920175533785088e+17
19114.0	7.918645095170045e+17
19115.0	7.917009032795476e+17
19116.0	7.91555365544482e+17
19117.0	7.914042632262995e+17
19118.0	7.912325403115517e+17
19119.0	7.906328142588579e+17
19120.0	7.909435201901908e+17
19121.0	7.907976891334653e+17
19122.0	7.906490136395773e+17
19123.0	7.904901195628544e+17
19124.0	7.903403230713169e+17
19125.0	7.901909204249257e+17
19126.0	7.900379396177919e+17
19127.0	7.894901182169082e+17
19128.0	7.896637721892178e+17
19129.0	7.895603953183402e+17
19130.0	7.894295252041728e+17
19131.0	7.892785885609983e+17
19132.0	7.891276393349119e+17
19133.0	7.888059464242519e+17
19134.0	7.887891545281876e+17
19135.0	7.886723846853972e+17
19136.0	7.88522145694788e+17
19137.0	7.883310583775232e+17
19138.0	7.882055368398164e+17
19139.0	7.880659582320637e+17
19140.0	7.879148265537535e+17
19141.0	7.87763103478579e+17
19142.0	7.876046084199764e+17
19143.0	7.874443242110975e+17
19144.0	7.8729618377059e+17
19145.0	7.871544263617194e+17
19146.0	7.868577734459392e+17
19147.0	7.868308541232467e+17
19148.0	7.866993078872744e+17
19149.0	7.865467767095293e+17
19150.0	7.86393474199279e+17
19151.0	7.8624368637597e+17
19152.0	7.860856466789715e+17
19153.0	7.859359679075666e+17
19154.0	7.857586523078655e+17
19155.0	7.856384424367444e+17
19156.0	7.854860085668521e+17
19157.0	7.853289310431914e+17
19158.0	7.851228583165948e+17
19159.0	7.850222517835092e+17
19160.0	7.848640385821352e+17
19161.0	7.847151609227948e+17
19162.0	7.84447493443857e+17
19163.0	7.844185134596093e+17
19164.0	7.84269283758353e+17
19165.0	7.841138284516692e+17
19166.0	7.839414818439164e+17
19167.0	7.838023267210579e+17
19168.0	7.836174247439016e+17
19169.0	7.834866913640445e+17
19170.0	7.833590338071209e+17
19171.0	7.832008366839126e+17
19172.0	7.830541230058153e+17
19173.0	7.829043576919379e+17
19174.0	7.827386896744445e+17
19175.0	7.826010745602045e+17
19176.0	7.824479092036947e+17
19177.0	7.822606324116136e+17
19178.0	7.821440847271251e+17
19179.0	7.81985747514163e+17
19180.0	7.818220789213866e+17
19181.0	7.816674020775251e+17
19182.0	7.815056918052863e+17
19183.0	7.81385565540625e+17
19184.0	7.811953110723242e+17
19185.0	7.810786129521324e+17
19186.0	7.809321793137321e+17
19187.0	7.807577035374591e+17
19188.0	7.806276258671273e+17
19189.0	7.804742236722515e+17
19190.0	7.80322258026496e+17
19191.0	7.801646339850239e+17
19192.0	7.800204019367935e+17
19193.0	7.798496978184873e+17
19194.0	7.797052965999956e+17
19195.0	7.795639853252607e+17
19196.0	7.794096893242025e+17
19197.0	7.792597545604434e+17
19198.0	7.791070045798399e+17
19199.0	7.782016264525139e+17
19200.0	7.783064527350446e+17
19201.0	7.786525957816319e+17
19202.0	7.785034345873408e+17
19203.0	7.78350742208512e+17
19204.0	7.781937112416255e+17
19205.0	7.780446845446824e+17
19206.0	7.778916043325439e+17
19207.0	7.777224570000723e+17
19208.0	7.775419600207872e+17
19209.0	7.774359598923773e+17
19210.0	7.772838886899711e+17
19211.0	7.771331286269952e+17
19212.0	7.769837291962365e+17
19213.0	7.76805701124096e+17
19214.0	7.76650237288994e+17
19215.0	7.765253518873939e+17
19216.0	7.763623184520531e+17
19217.0	7.762206914860369e+17
19218.0	7.758738601541627e+17
19219.0	7.758753892575914e+17
19220.0	7.757597009859926e+17
19221.0	7.755327424430079e+17
19222.0	7.754611967044266e+17
19223.0	7.753021788957353e+17
19224.0	7.751232704391849e+17
19225.0	7.749614147644073e+17
19226.0	7.748434171090259e+17
19227.0	7.746902439231487e+17
19228.0	7.745452961868457e+17
19229.0	7.74392583815168e+17
19230.0	7.742328865292288e+17
19231.0	7.740790918873087e+17
19232.0	7.739148970491903e+17
19233.0	7.737624027813203e+17
19234.0	7.736213245700777e+17
19235.0	7.734649993647444e+17
19236.0	7.733222288916479e+17
19237.0	7.731642481945258e+17
19238.0	7.729930470511956e+17
19239.0	7.728631020606803e+17
19240.0	7.726223641105746e+17
19241.0	7.725255093824169e+17
19242.0	7.723928545918972e+17
19243.0	7.721996042720595e+17
19244.0	7.720942871161513e+17
19245.0	7.719393159719594e+17
19246.0	7.717830781479593e+17
19247.0	7.716275982346922e+17
19248.0	7.714798120730624e+17
19249.0	7.71325272662562e+17
19250.0	7.711659247621459e+17
19251.0	7.709929316723368e+17
19252.0	7.70769989874483e+17
19253.0	7.707023353315327e+17
19254.0	7.705402865789608e+17
19255.0	7.703441851110739e+17
19256.0	7.702377635949224e+17
19257.0	7.700879773095254e+17
19258.0	7.699324855123965e+17
19259.0	7.697573832469161e+17
19260.0	7.696115881213951e+17
19261.0	7.694644818564436e+17
19262.0	7.692964121804799e+17
19263.0	7.691445916576425e+17
19264.0	7.688776983074131e+17
19265.0	7.688002749508266e+17
19266.0	7.686605803006633e+17
19267.0	7.685328863931049e+17
19268.0	7.683744264268458e+17
19269.0	7.682178664802985e+17
19270.0	7.680617725209257e+17
19271.0	7.678281546814808e+17
19272.0	7.677388738876756e+17
19273.0	7.654690293896507e+17
19274.0	7.663935826165746e+17
19275.0	7.672761677774847e+17
19276.0	7.671138452766717e+17
19277.0	7.669560421384191e+17
19278.0	7.667994907202899e+17
19279.0	7.66624915119582e+17
19280.0	7.664591669908822e+17
19281.0	7.663166287424169e+17
19282.0	7.661611883954175e+17
19283.0	7.659909822808061e+17
19284.0	7.658099643689641e+17
19285.0	7.656240030504275e+17
19286.0	7.655137849901055e+17
19287.0	7.653630657516883e+17
19288.0	7.650431197686441e+17
19289.0	7.645686071121225e+17
19290.0	7.648807157585236e+17
19291.0	7.646506741224791e+17
19292.0	7.645568837528233e+17
19293.0	7.643932313780221e+17
19294.0	7.642298080122195e+17
19295.0	7.640702590648317e+17
19296.0	7.639051198092627e+17
19297.0	7.637355282999977e+17
19298.0	7.63571550167586e+17
19299.0	7.63415099552563e+17
19300.0	7.632506927622824e+17
19301.0	7.630828616024063e+17
19302.0	7.62916453430067e+17
19303.0	7.627281434411005e+17
19304.0	7.625695531717974e+17
19305.0	7.624158565367805e+17
19306.0	7.62250418786577e+17
19307.0	7.620705555666259e+17
19308.0	7.619090590640809e+17
19309.0	7.617237309456383e+17
19310.0	7.61538236732757e+17
19311.0	7.613995498340351e+17
19312.0	7.612298422823594e+17
19313.0	7.610195284153686e+17
19314.0	7.606905853706235e+17
19315.0	7.605293876423341e+17
19316.0	7.605402915744426e+17
19317.0	7.603636379757225e+17
19318.0	7.60188243087633e+17
19319.0	7.600178085232639e+17
19320.0	7.598325746368511e+17
19321.0	7.596661912109055e+17
19322.0	7.594515124715517e+17
19323.0	7.592978347109033e+17
19324.0	7.591316575049044e+17
19325.0	7.589376382293331e+17
19326.0	7.587722583605247e+17
19327.0	7.585880620051114e+17
19328.0	7.58410534872678e+17
19329.0	7.582274979627007e+17
19330.0	7.580328155676672e+17
19331.0	7.578472384473769e+17
19332.0	7.576713051504639e+17
19333.0	7.574795073181012e+17
19334.0	7.572769403305983e+17
19335.0	7.570954856518995e+17
19336.0	7.569042901215913e+17
19337.0	7.567100045077161e+17
19338.0	7.564677594043731e+17
19339.0	7.56323391320883e+17
19340.0	7.561171204833279e+17
19341.0	7.559299871364435e+17
19342.0	7.556288572205736e+17
19343.0	7.555281599507113e+17
19344.0	7.553216847107411e+17
19345.0	7.546408294940657e+17
19346.0	7.547795354069677e+17
19347.0	7.546791584421203e+17
19348.0	7.544849741905919e+17
19349.0	7.542566762665299e+17
19350.0	7.540431320864084e+17
19351.0	7.538229600671059e+17
19352.0	7.53597224722978e+17
19353.0	7.533956927498921e+17
19354.0	7.53165707457331e+17
19355.0	7.529076906524671e+17
19356.0	7.52703124799488e+17
19357.0	7.524700787834876e+17
19358.0	7.522182466196822e+17
19359.0	7.518852735478442e+17
19360.0	7.51749351813939e+17
19361.0	7.514868037626538e+17
19362.0	7.512552177838762e+17
19363.0	7.510052460735144e+17
19364.0	7.507478529616553e+17
19365.0	7.504777860612096e+17
19366.0	7.502080488330582e+17
19367.0	7.499432380945747e+17
19368.0	7.496742748553215e+17
19369.0	7.493561011055274e+17
19370.0	7.488628208959488e+17
19371.0	7.488251900198911e+17
19372.0	7.48550557479731e+17
19373.0	7.482498861410985e+17
19374.0	7.479359971524607e+17
19375.0	7.476302870566228e+17
19376.0	7.473189772853245e+17
19377.0	7.469995136472403e+17
19378.0	7.466761388206761e+17
19379.0	7.46343315205871e+17
19380.0	7.459892345787731e+17
19381.0	7.456297655293268e+17
19382.0	7.452551495898451e+17
19383.0	7.448806144606207e+17
19384.0	7.445322027149993e+17
19385.0	7.4411884426909e+17
19386.0	7.43723522728482e+17
19387.0	7.433207466513747e+17
19388.0	7.429011851094697e+17
19389.0	7.424396500489556e+17
19390.0	7.420038088753148e+17
19391.0	7.409922255181132e+17
19392.0	7.410373439258624e+17
19393.0	7.405638009924264e+17
19394.0	7.400300857349462e+17
19395.0	7.394868763907411e+17
19396.0	7.389236421809492e+17
19397.0	7.383497682802004e+17
19398.0	7.377294839862612e+17
19399.0	7.369823056385361e+17
19400.0	7.36472189772322e+17
19401.0	7.358524753444861e+17
19402.0	7.352062122306216e+17
19403.0	7.345433430283603e+17
19404.0	7.338646206152701e+17
19405.0	7.331352972798632e+17
19406.0	7.323736863320745e+17
19407.0	7.31609251918643e+17
19408.0	7.306526726640983e+17
19409.0	7.29899739451665e+17
19410.0	7.290541502889983e+17
19411.0	7.280916608406867e+17
19412.0	7.271329265527466e+17
19413.0	7.260705317191679e+17
19414.0	7.249734759961939e+17
19415.0	7.238111560641194e+17
19416.0	7.225479722085033e+17
19417.0	7.21240568644676e+17
19418.0	7.198384547605162e+17
19419.0	7.183067342263635e+17
19420.0	7.167045628067839e+17
19421.0	7.152079076327424e+17
19422.0	7.136929274047145e+17
19423.0	7.120864647927123e+17
19424.0	7.104156479957674e+17
19425.0	7.086019326596436e+17
19426.0	7.066836378058752e+17
19427.0	7.046141915605676e+17
19428.0	7.024559932134739e+17
19429.0	7.000923928788988e+17
19430.0	6.975414803103744e+17
19431.0	6.946977311533745e+17
19432.0	6.91737045010568e+17
19433.0	6.884339258927788e+17
19434.0	6.852971397993812e+17
19435.0	6.82008267404083e+17
19436.0	6.784645331593898e+17
19437.0	6.746708994861737e+17
19438.0	6.700831083244198e+17
19439.0	6.658627083436033e+17
19440.0	6.606604700308822e+17
19441.0	6.552914636745384e+17
19442.0	6.497399515469143e+17
19443.0	6.435491513630719e+17
19444.0	6.36648902063991e+17
19445.0	6.291031783200088e+17
19446.0	6.20934497112337e+17
19447.0	6.116774416220155e+17
19448.0	6.011016812953604e+17
19449.0	5.872298952578388e+17
19450.0	5.573263288347239e+17
19451.0	5.4460113548738643e+17
19452.0	5.7466544350822445e+17
19453.0	5.947349564129285e+17
19454.0	6.061085071245306e+17
19455.0	6.157081000280063e+17
19456.0	6.241562400915459e+17
19457.0	6.31698303116902e+17
19458.0	6.385956342988801e+17
19459.0	6.449927022444545e+17
19460.0	6.505928204834131e+17
19461.0	6.556937192385194e+17
19462.0	6.608489998712835e+17
19463.0	6.654496270013778e+17
19464.0	6.695815354864979e+17
19465.0	6.733138568238422e+17
19466.0	6.766901680144381e+17
19467.0	6.798398346057044e+17
19468.0	6.827386585393834e+17
19469.0	6.855175098597375e+17
19470.0	6.886384487541416e+17
19471.0	6.912471861646676e+17
19472.0	6.93635914085171e+17
19473.0	6.957923878043647e+17
19474.0	6.977852264153088e+17
19475.0	6.99500517934148e+17
19476.0	7.013133236655443e+17
19477.0	7.029001235202047e+17
19478.0	7.043571285404329e+17
19479.0	7.057119699621204e+17
19480.0	7.069856184664063e+17
19481.0	7.081856412767572e+17
19482.0	7.094840199566676e+17
19483.0	7.10772805005039e+17
19484.0	7.119462457147391e+17
19485.0	7.130100696875005e+17
19486.0	7.139978500898816e+17
19487.0	7.149066193119913e+17
19488.0	7.157908609433597e+17
19489.0	7.165472123737428e+17
19490.0	7.170229640276645e+17
19491.0	7.179401233956863e+17
19492.0	7.185777760228692e+17
19493.0	7.191482050019327e+17
19494.0	7.19721358041634e+17
19495.0	7.202030769318569e+17
19496.0	7.206121501971795e+17
19497.0	7.211540688142335e+17
19498.0	7.21544625066257e+17
19499.0	7.210598959240522e+17
19500.0	7.223133491341994e+17
19501.0	7.226716594372607e+17
19502.0	7.230157770544467e+17
19503.0	7.233383595769855e+17
19504.0	7.236821883464362e+17
19505.0	7.239637712677545e+17
19506.0	7.242766747347624e+17
19507.0	7.245116161567402e+17
19508.0	7.24784487928081e+17
19509.0	7.249948020746921e+17
19510.0	7.251470314023593e+17
19511.0	7.247874217039183e+17
19512.0	7.254390192734202e+17
19513.0	7.253790946929316e+17
19514.0	7.256955999485948e+17
19515.0	7.258809307234308e+17
19516.0	7.26098696470528e+17
19517.0	7.261983211170472e+17
19518.0	7.263249053515775e+17
19519.0	7.264055216919892e+17
19520.0	7.264801653435049e+17
19521.0	7.265524344597161e+17
19522.0	7.266091691322025e+17
19523.0	7.26685179847202e+17
19524.0	7.267269569325738e+17
19525.0	7.267469773242368e+17
19526.0	7.267881908349612e+17
19527.0	7.268096033161215e+17
19528.0	7.268281921918291e+17
19529.0	7.268536739867305e+17
19530.0	7.268653489717245e+17
19531.0	7.268680988972372e+17
19532.0	7.268627429108394e+17
19533.0	7.268548228065961e+17
19534.0	7.268411527309994e+17
19535.0	7.268172337337683e+17
19536.0	7.26792029741602e+17
19537.0	7.267804526237011e+17
19538.0	7.267475621500246e+17
19539.0	7.266061991455406e+17
19540.0	7.266916271915007e+17
19541.0	7.266589882362538e+17
19542.0	7.266172048594262e+17
19543.0	7.265839761850365e+17
19544.0	7.265359992193023e+17
19545.0	7.264063924294991e+17
19546.0	7.262158889593514e+17
19547.0	7.263687375060991e+17
19548.0	7.263143643665748e+17
19549.0	7.262294332058281e+17
19550.0	7.262007275290623e+17
19551.0	7.261351418964649e+17
19552.0	7.260662763181396e+17
19553.0	7.259913352904704e+17
19554.0	7.259130684593494e+17
19555.0	7.258448876710569e+17
19556.0	7.257735928916649e+17
19557.0	7.257012155624105e+17
19558.0	7.256220589796008e+17
19559.0	7.255416775202132e+17
19560.0	7.254602624445097e+17
19561.0	7.253755321909247e+17
19562.0	7.252947668129108e+17
19563.0	7.252069909353812e+17
19564.0	7.251201029920083e+17
19565.0	7.250283084120061e+17
19566.0	7.249312838145363e+17
19567.0	7.248446610909866e+17
19568.0	7.247434547724287e+17
19569.0	7.246512852216489e+17
19570.0	7.245623826142548e+17
19571.0	7.244677708600662e+17
19572.0	7.243624750951081e+17
19573.0	7.242752060293119e+17
19574.0	7.241515607435945e+17
19575.0	7.24075751215377e+17
19576.0	7.239749184694953e+17
19577.0	7.238539829837823e+17
19578.0	7.237592723838291e+17
19579.0	7.236572217518761e+17
19580.0	7.235534961945258e+17
19581.0	7.234501819585875e+17
19582.0	7.233476461854719e+17
19583.0	7.232402610978815e+17
19584.0	7.231320091874644e+17
19585.0	7.2299457834298e+17
19586.0	7.228753658773504e+17
19587.0	7.227926332309504e+17
19588.0	7.225759315787775e+17
19589.0	7.2257092204189e+17
19590.0	7.224515272638463e+17
19591.0	7.223563684326058e+17
19592.0	7.222453618431316e+17
19593.0	7.221267572719616e+17
19594.0	7.219556253346472e+17
19595.0	7.218979321238868e+17
19596.0	7.216161510916096e+17
19597.0	7.216756148578986e+17
19598.0	7.2150727814458e+17
19599.0	7.214471588085757e+17
19600.0	7.213322761229651e+17
19601.0	7.211995338113023e+17
19602.0	7.21088814391842e+17
19603.0	7.20880646190967e+17
19604.0	7.208500857929727e+17
19605.0	7.206682966884352e+17
19606.0	7.206211233513471e+17
19607.0	7.205077496365055e+17
19608.0	7.203889184331092e+17
19609.0	7.202588590779049e+17
19610.0	7.201533640835071e+17
19611.0	7.200308567124649e+17
19612.0	7.199134999467347e+17
19613.0	7.197890725631314e+17
19614.0	7.196607520265556e+17
19615.0	7.195500370810198e+17
19616.0	7.194239617553748e+17
19617.0	7.193066771316735e+17
19618.0	7.19070395909188e+17
19619.0	7.189056303661052e+17
19620.0	7.187917297068713e+17
19621.0	7.188153544037716e+17
19622.0	7.186945258728106e+17
19623.0	7.185721405560148e+17
19624.0	7.184461787561983e+17
19625.0	7.183251841307987e+17
19626.0	7.181987886399487e+17
19627.0	7.180778289670825e+17
19628.0	7.179341583963476e+17
19629.0	7.178073240414889e+17
19630.0	7.176901084839936e+17
19631.0	7.16807203297689e+17
19632.0	7.174541685380436e+17
19633.0	7.173184435169961e+17
19634.0	7.172059550799187e+17
19635.0	7.170698852870825e+17
19636.0	7.169529041911807e+17
19637.0	7.167220106919936e+17
19638.0	7.167019071133012e+17
19639.0	7.165757757237929e+17
19640.0	7.164365385323862e+17
19641.0	7.162097994913112e+17
19642.0	7.161983662380372e+17
19643.0	7.16066802246178e+17
19644.0	7.159341980669267e+17
19645.0	7.157618364994899e+17
19646.0	7.156967007759017e+17
19647.0	7.155701692497919e+17
19648.0	7.154422649279828e+17
19649.0	7.153148093967017e+17
19650.0	7.151897346921812e+17
19651.0	7.150610835046399e+17
19652.0	7.149336025279145e+17
19653.0	7.148083948639572e+17
19654.0	7.146784354729983e+17
19655.0	7.145499728893268e+17
19656.0	7.144249034975914e+17
19657.0	7.142971656896511e+17
19658.0	7.14171454010163e+17
19659.0	7.140436592994986e+17
19660.0	7.139171220411731e+17
19661.0	7.137881477524138e+17
19662.0	7.136616439087101e+17
19663.0	7.135226477499732e+17
19664.0	7.134011938482858e+17
19665.0	7.13282135733043e+17
19666.0	7.131500341712211e+17
