# Flux units: erg / (cm m2 s)
# Wavelength units: Angstrom
wave	flux
19000.0	6.978387821548883e+17
19001.0	6.977044453086548e+17
19002.0	6.975823030517759e+17
19003.0	6.974538322193065e+17
19004.0	6.973253583809194e+17
19005.0	6.971970881060863e+17
19006.0	6.970685894514004e+17
19007.0	6.969388524284585e+17
19008.0	6.968076998978217e+17
19009.0	6.9667740216634e+17
19010.0	6.965262339276797e+17
19011.0	6.964232876021076e+17
19012.0	6.962883645319849e+17
19013.0	6.961678913983827e+17
19014.0	6.96034697290274e+17
19015.0	6.959073928238419e+17
19016.0	6.957776969749844e+17
19017.0	6.956513051191978e+17
19018.0	6.955220554743807e+17
19019.0	6.95393287545378e+17
19020.0	6.952629384336723e+17
19021.0	6.951357956576595e+17
19022.0	6.950071717330943e+17
19023.0	6.948753530071721e+17
19024.0	6.947471459964243e+17
19025.0	6.946191304556543e+17
19026.0	6.944884327972863e+17
19027.0	6.943565970145279e+17
19028.0	6.942319662071807e+17
19029.0	6.94101656871458e+17
19030.0	6.9397335534906e+17
19031.0	6.938440229366442e+17
19032.0	6.937146511676755e+17
19033.0	6.935796978286591e+17
19034.0	6.934557966903978e+17
19035.0	6.933237534993065e+17
19036.0	6.928895258045097e+17
19037.0	6.930671798845437e+17
19038.0	6.929364330130089e+17
19039.0	6.928084950668627e+17
19040.0	6.926789800624127e+17
19041.0	6.925493866244778e+17
19042.0	6.924148793496915e+17
19043.0	6.922903149521577e+17
19044.0	6.921605791176019e+17
19045.0	6.92031097667584e+17
19046.0	6.918983789838336e+17
19047.0	6.917708070606163e+17
19048.0	6.91629783585041e+17
19049.0	6.915085291924137e+17
19050.0	6.913801823016276e+17
19051.0	6.912033115078655e+17
19052.0	6.911149316505597e+17
19053.0	6.909936514629631e+17
19054.0	6.908638922801151e+17
19055.0	6.907184510140415e+17
19056.0	6.906031116386303e+17
19057.0	6.904741072207871e+17
19058.0	6.903442035441663e+17
19059.0	6.902150456847018e+17
19060.0	6.900838718330196e+17
19061.0	6.899555320725503e+17
19062.0	6.898254505574399e+17
19063.0	6.896957314301951e+17
19064.0	6.895692071742122e+17
19065.0	6.894402240774143e+17
19066.0	6.893175374697812e+17
19067.0	6.891912298495997e+17
19068.0	6.890614133445972e+17
19069.0	6.88931535393041e+17
19070.0	6.888001200193535e+17
19071.0	6.886717101441023e+17
19072.0	6.885417632661504e+17
19073.0	6.884114923782143e+17
19074.0	6.882818711879679e+17
19075.0	6.881519159214079e+17
19076.0	6.880206778968746e+17
19077.0	6.878911521270442e+17
19078.0	6.877603684854442e+17
19079.0	6.87632024600576e+17
19080.0	6.875015758741501e+17
19081.0	6.873696656424959e+17
19082.0	6.872392981457577e+17
19083.0	6.871050679047508e+17
19084.0	6.869674121756671e+17
19085.0	6.868520088371199e+17
19086.0	6.86698804683298e+17
19087.0	6.865828014893738e+17
19088.0	6.864570087200084e+17
19089.0	6.86316161475106e+17
19090.0	6.861999712851284e+17
19091.0	6.860701229034153e+17
19092.0	6.85937062453794e+17
19093.0	6.858118388514813e+17
19094.0	6.856811632132095e+17
19095.0	6.855509755822079e+17
19096.0	6.854207413944319e+17
19097.0	6.852915559923711e+17
19098.0	6.851617043251197e+17
19099.0	6.850316481855487e+17
19100.0	6.849016149049343e+17
19101.0	6.847713800880127e+17
19102.0	6.846356553465855e+17
19103.0	6.845114565525503e+17
19104.0	6.843813869912063e+17
19105.0	6.842512878600192e+17
19106.0	6.841195741315072e+17
19107.0	6.839902173921279e+17
19108.0	6.838609701240831e+17
19109.0	6.837046759565993e+17
19110.0	6.835998719038803e+17
19111.0	6.834708509884415e+17
19112.0	6.833408074317823e+17
19113.0	6.832107366121471e+17
19114.0	6.830806418849791e+17
19115.0	6.829478529466368e+17
19116.0	6.828190274158591e+17
19117.0	6.826889756803072e+17
19118.0	6.825541071361363e+17
19119.0	6.822035356734801e+17
19120.0	6.822974130050388e+17
19121.0	6.821679330230271e+17
19122.0	6.820398419148799e+17
19123.0	6.819096557518847e+17
19124.0	6.817779927744511e+17
19125.0	6.816492112838655e+17
19126.0	6.815188852408319e+17
19127.0	6.812837465467562e+17
19128.0	6.812511305203711e+17
19129.0	6.81123815498274e+17
19130.0	6.809981671527764e+17
19131.0	6.808684878015144e+17
19132.0	6.807381790949375e+17
19133.0	6.805981539336191e+17
19134.0	6.804748317491199e+17
19135.0	6.803479290970111e+17
19136.0	6.802178268900009e+17
19137.0	6.800778502427987e+17
19138.0	6.799563348246527e+17
19139.0	6.798272024805375e+17
19140.0	6.79697107124224e+17
19141.0	6.795668934885373e+17
19142.0	6.794351643110058e+17
19143.0	6.793033112616959e+17
19144.0	6.791745926157651e+17
19145.0	6.790459850489855e+17
19146.0	6.788803402399743e+17
19147.0	6.787796754759679e+17
19148.0	6.786550801803945e+17
19149.0	6.785248481596755e+17
19150.0	6.783941174362111e+17
19151.0	6.782643861454847e+17
19152.0	6.78133715051042e+17
19153.0	6.78002521346321e+17
19154.0	6.778656486238889e+17
19155.0	6.777430738643625e+17
19156.0	6.776125282495146e+17
19157.0	6.774815648819881e+17
19158.0	6.773340317766996e+17
19159.0	6.772202154229759e+17
19160.0	6.770906888841898e+17
19161.0	6.769597376801449e+17
19162.0	6.767891702262442e+17
19163.0	6.766984190492671e+17
19164.0	6.76568847491618e+17
19165.0	6.764204514781866e+17
19166.0	6.762832900478292e+17
19167.0	6.761564893173076e+17
19168.0	6.7602802030237e+17
19169.0	6.758974703534079e+17
19170.0	6.757686781673471e+17
19171.0	6.756358135218175e+17
19172.0	6.755075540123647e+17
19173.0	6.753770053915987e+17
19174.0	6.752430243621546e+17
19175.0	6.751158755743062e+17
19176.0	6.749852169928701e+17
19177.0	6.748452785138345e+17
19178.0	6.747226387425962e+17
19179.0	6.745898079311187e+17
19180.0	6.744615285686271e+17
19181.0	6.743249415482026e+17
19182.0	6.741992275618474e+17
19183.0	6.740698165062314e+17
19184.0	6.739374715349673e+17
19185.0	6.738077446482601e+17
19186.0	6.736770983701161e+17
19187.0	6.735424572970324e+17
19188.0	6.734150774729385e+17
19189.0	6.732840427323391e+17
19190.0	6.731527650716329e+17
19191.0	6.730208247807999e+17
19192.0	6.72891078320674e+17
19193.0	6.727595689945769e+17
19194.0	6.726278777055914e+17
19195.0	6.724974407232169e+17
19196.0	6.723653913105748e+17
19197.0	6.722338561196031e+17
19198.0	6.721013224745642e+17
19199.0	6.717271063221587e+17
19200.0	6.716694184241834e+17
19201.0	6.717074944557055e+17
19202.0	6.715775621879123e+17
19203.0	6.714464267141119e+17
19204.0	6.713134409231017e+17
19205.0	6.711833970169172e+17
19206.0	6.710509037071017e+17
19207.0	6.709139105382399e+17
19208.0	6.70776076411426e+17
19209.0	6.706566482886655e+17
19210.0	6.705247901362858e+17
19211.0	6.703928464201044e+17
19212.0	6.702608964124671e+17
19213.0	6.701229808462505e+17
19214.0	6.699883320137046e+17
19215.0	6.698636447929684e+17
19216.0	6.697322152285524e+17
19217.0	6.696000825589759e+17
19218.0	6.694181535044948e+17
19219.0	6.693257382374058e+17
19220.0	6.692014714956458e+17
19221.0	6.690510464876543e+17
19222.0	6.689373132510548e+17
19223.0	6.688049787655508e+17
19224.0	6.686693977489407e+17
19225.0	6.685307773299369e+17
19226.0	6.684056620804778e+17
19227.0	6.682724706287615e+17
19228.0	6.681407652189523e+17
19229.0	6.680075899153065e+17
19230.0	6.678741345020585e+17
19231.0	6.677402189736617e+17
19232.0	6.676069046987433e+17
19233.0	6.674697708808873e+17
19234.0	6.673391201987242e+17
19235.0	6.672055021862911e+17
19236.0	6.6707308689053e+17
19237.0	6.669382558853801e+17
19238.0	6.667995229192192e+17
19239.0	6.66671242158626e+17
19240.0	6.665338081684138e+17
19241.0	6.664002843181055e+17
19242.0	6.662671823448746e+17
19243.0	6.6612342306461e+17
19244.0	6.659992137848148e+17
19245.0	6.658644337404585e+17
19246.0	6.657285776474111e+17
19247.0	6.65594439541282e+17
19248.0	6.654593716977663e+17
19249.0	6.653238955387562e+17
19250.0	6.651873984861524e+17
19251.0	6.650452633103017e+17
19252.0	6.649002244177919e+17
19253.0	6.647800644588884e+17
19254.0	6.646450220608169e+17
19255.0	6.644981917810687e+17
19256.0	6.64370530029841e+17
19257.0	6.642365974446079e+17
19258.0	6.640999066850644e+17
19259.0	6.639587704526164e+17
19260.0	6.638203101861204e+17
19261.0	6.636889538123091e+17
19262.0	6.635486306456916e+17
19263.0	6.634103206750889e+17
19264.0	6.632443463335933e+17
19265.0	6.631268178111145e+17
19266.0	6.629896170242047e+17
19267.0	6.628620572644692e+17
19268.0	6.627235270230016e+17
19269.0	6.625847760912383e+17
19270.0	6.624456420098047e+17
19271.0	6.622866161620308e+17
19272.0	6.621648935452671e+17
19273.0	6.619272225401513e+17
19274.0	6.618230357491711e+17
19275.0	6.617474618010281e+17
19276.0	6.616059487802708e+17
19277.0	6.614655891232084e+17
19278.0	6.613256297425577e+17
19279.0	6.611834234732541e+17
19280.0	6.610383545914708e+17
19281.0	6.609000406362794e+17
19282.0	6.607590922387455e+17
19283.0	6.606132459427156e+17
19284.0	6.604707971028308e+17
19285.0	6.603191358936403e+17
19286.0	6.601854693670911e+17
19287.0	6.600440415606099e+17
19288.0	6.598126706797225e+17
19289.0	6.59559654184277e+17
19290.0	6.596110490883412e+17
19291.0	6.594501088204116e+17
19292.0	6.593205908799487e+17
19293.0	6.59174272794624e+17
19294.0	6.590285108740095e+17
19295.0	6.588818547277823e+17
19296.0	6.587347609059327e+17
19297.0	6.585870895284223e+17
19298.0	6.58438146368034e+17
19299.0	6.582908343025663e+17
19300.0	6.581418046696105e+17
19301.0	6.579920977963689e+17
19302.0	6.578415682103978e+17
19303.0	6.576875762264745e+17
19304.0	6.575388431308116e+17
19305.0	6.573885870833664e+17
19306.0	6.572378811968169e+17
19307.0	6.570818602882388e+17
19308.0	6.569299404303017e+17
19309.0	6.567697477271551e+17
19310.0	6.566116460942676e+17
19311.0	6.564664297826985e+17
19312.0	6.563131438399487e+17
19313.0	6.561575050324649e+17
19314.0	6.557755429093376e+17
19315.0	6.556314324260182e+17
19316.0	6.556852408724137e+17
19317.0	6.555273452497577e+17
19318.0	6.553666679646889e+17
19319.0	6.552074631599444e+17
19320.0	6.550462429222228e+17
19321.0	6.548844698752339e+17
19322.0	6.547162347339776e+17
19323.0	6.545544411348991e+17
19324.0	6.543934308220927e+17
19325.0	6.542206746405545e+17
19326.0	6.540618055898452e+17
19327.0	6.538938808270847e+17
19328.0	6.537266106553684e+17
19329.0	6.53557504287266e+17
19330.0	6.533849617356116e+17
19331.0	6.532133016655188e+17
19332.0	6.530433883832319e+17
19333.0	6.528701720865449e+17
19334.0	6.526953538453501e+17
19335.0	6.525197649007956e+17
19336.0	6.52342583169297e+17
19337.0	6.521640751988735e+17
19338.0	6.519722070420138e+17
19339.0	6.518045205157204e+17
19340.0	6.516186858651647e+17
19341.0	6.514381746252457e+17
19342.0	6.512326873535827e+17
19343.0	6.510692442745513e+17
19344.0	6.50881991320098e+17
19345.0	6.505800692400124e+17
19346.0	6.504508298712403e+17
19347.0	6.503063170842623e+17
19348.0	6.501169015466666e+17
19349.0	6.499199185059839e+17
19350.0	6.49722654237218e+17
19351.0	6.495236178750121e+17
19352.0	6.493198829835604e+17
19353.0	6.49121610474018e+17
19354.0	6.489170246980948e+17
19355.0	6.487052904999593e+17
19356.0	6.48501472141858e+17
19357.0	6.482907195506687e+17
19358.0	6.480768177362259e+17
19359.0	6.478569152708607e+17
19360.0	6.476424486234793e+17
19361.0	6.474229906844329e+17
19362.0	6.471940806716074e+17
19363.0	6.469401782692522e+17
19364.0	6.467141547764393e+17
19365.0	6.464856548966399e+17
19366.0	6.46254469194274e+17
19367.0	6.460206243730772e+17
19368.0	6.457840263408297e+17
19369.0	6.455410642911231e+17
19370.0	6.452913252947284e+17
19371.0	6.450534203872596e+17
19372.0	6.448079816709459e+17
19373.0	6.445553326664362e+17
19374.0	6.443015820279807e+17
19375.0	6.440431549502804e+17
19376.0	6.437816319169876e+17
19377.0	6.435162118160383e+17
19378.0	6.432475566484137e+17
19379.0	6.429750216097791e+17
19380.0	6.42697812648482e+17
19381.0	6.424147603925673e+17
19382.0	6.420768677516627e+17
19383.0	6.417561457524733e+17
19384.0	6.414687036680874e+17
19385.0	6.411710028054528e+17
19386.0	6.40869948526865e+17
19387.0	6.405648876393812e+17
19388.0	6.402559508654761e+17
19389.0	6.399431736470185e+17
19390.0	6.396263652829865e+17
19391.0	6.389814212777297e+17
19392.0	6.388548685703849e+17
19393.0	6.385281561264127e+17
19394.0	6.381901734477823e+17
19395.0	6.378424046889642e+17
19396.0	6.374868821300563e+17
19397.0	6.369557172890282e+17
19398.0	6.365796030742527e+17
19399.0	6.361608868943188e+17
19400.0	6.357818480612691e+17
19401.0	6.35181957521954e+17
19402.0	6.347717130671443e+17
19403.0	6.342980343780695e+17
19404.0	6.336173288980479e+17
19405.0	6.331668579920553e+17
19406.0	6.323904215777284e+17
19407.0	6.318426395333971e+17
19408.0	6.308679169780396e+17
19409.0	6.301602782642177e+17
19410.0	6.292518340307625e+17
19411.0	6.280426315666771e+17
19412.0	6.268304308043777e+17
19413.0	6.254132564328449e+17
19414.0	6.240876686737408e+17
19415.0	6.231605843241641e+17
19416.0	6.223380531380223e+17
19417.0	6.214946443842899e+17
19418.0	6.206161415394644e+17
19419.0	6.196974810999465e+17
19420.0	6.187334861062143e+17
19421.0	6.177267476594687e+17
19422.0	6.166897917689855e+17
19423.0	6.15575937299251e+17
19424.0	6.144833051688959e+17
19425.0	6.133699360500393e+17
19426.0	6.12178951545378e+17
19427.0	6.109063373564586e+17
19428.0	6.095673360733524e+17
19429.0	6.081556082851839e+17
19430.0	6.065443787068756e+17
19431.0	6.047792535437312e+17
19432.0	6.027594137512614e+17
19433.0	6.003429582656846e+17
19434.0	5.97037195058654e+17
19435.0	5.92633410250342e+17
19436.0	5.889748198140586e+17
19437.0	5.862312600666112e+17
19438.0	5.828927632528724e+17
19439.0	5.799656503465302e+17
19440.0	5.76455382663168e+17
19441.0	5.725089453222569e+17
19442.0	5.6781396431776435e+17
19443.0	5.619361906338469e+17
19444.0	5.5369559626656403e+17
19445.0	5.4543103466755437e+17
19446.0	5.3695899266362016e+17
19447.0	5.257725992763389e+17
19448.0	5.1049583240806483e+17
19449.0	4.895579737948159e+17
19450.0	4.557117788782575e+17
19451.0	4.44982260260316e+17
19452.0	4.7369542966094566e+17
19453.0	5.010615207373493e+17
19454.0	5.184335682469883e+17
19455.0	5.3120752275510605e+17
19456.0	5.406106896214703e+17
19457.0	5.483074130629975e+17
19458.0	5.565711249659232e+17
19459.0	5.635734259455314e+17
19460.0	5.685400571303251e+17
19461.0	5.7259762094789965e+17
19462.0	5.760612042102103e+17
19463.0	5.792150493069311e+17
19464.0	5.821044471715156e+17
19465.0	5.847787246365354e+17
19466.0	5.87422859316428e+17
19467.0	5.917058727062186e+17
19468.0	5.952560174552411e+17
19469.0	5.978097276944379e+17
19470.0	5.997817734627327e+17
19471.0	6.014186532372481e+17
19472.0	6.028331714259625e+17
19473.0	6.04066742936098e+17
19474.0	6.052796132491264e+17
19475.0	6.062526645840552e+17
19476.0	6.073370312092329e+17
19477.0	6.082288344017578e+17
19478.0	6.090972685402111e+17
19479.0	6.099691816441172e+17
19480.0	6.10805339984145e+17
19481.0	6.115908061058388e+17
19482.0	6.123417286388394e+17
19483.0	6.130441979428863e+17
19484.0	6.137062572250452e+17
19485.0	6.143300935352319e+17
19486.0	6.149236132063914e+17
19487.0	6.154855780100777e+17
19488.0	6.163935563262637e+17
19489.0	6.176303347313318e+17
19490.0	6.186459989366097e+17
19491.0	6.195853962248191e+17
19492.0	6.202919152691886e+17
19493.0	6.210356874925396e+17
19494.0	6.21569551158477e+17
19495.0	6.220117791386282e+17
19496.0	6.2246566287988e+17
19497.0	6.228267639330132e+17
19498.0	6.23081991316002e+17
19499.0	6.230991484660392e+17
19500.0	6.236851871066793e+17
19501.0	6.239219811527338e+17
19502.0	6.24227982123554e+17
19503.0	6.243724845645823e+17
19504.0	6.24508694237457e+17
19505.0	6.247004879454208e+17
19506.0	6.249205750300671e+17
19507.0	6.250319388344319e+17
19508.0	6.25134779114018e+17
19509.0	6.252289774496426e+17
19510.0	6.253067177558015e+17
19511.0	6.250310655803388e+17
19512.0	6.255266948098729e+17
19513.0	6.255352506307922e+17
19514.0	6.25649162404932e+17
19515.0	6.257745476277588e+17
19516.0	6.25863582285824e+17
19517.0	6.259192418882899e+17
19518.0	6.259770185657001e+17
19519.0	6.260275183353856e+17
19520.0	6.260941677832874e+17
19521.0	6.261879136933203e+17
19522.0	6.262244327292927e+17
19523.0	6.262588583182336e+17
19524.0	6.262874791302483e+17
19525.0	6.263113714936489e+17
19526.0	6.263334896664576e+17
19527.0	6.263513049027924e+17
19528.0	6.263650466310825e+17
19529.0	6.26376218649122e+17
19530.0	6.263842467566932e+17
19531.0	6.263888437138771e+17
19532.0	6.263903540827476e+17
19533.0	6.263888579046057e+17
19534.0	6.263842258550783e+17
19535.0	6.263764415763796e+17
19536.0	6.26364697874705e+17
19537.0	6.26354384011264e+17
19538.0	6.263326271078399e+17
19539.0	6.262900268204032e+17
19540.0	6.262990517043199e+17
19541.0	6.262787754601129e+17
19542.0	6.262892100496042e+17
19543.0	6.262657265609385e+17
19544.0	6.262370319291734e+17
19545.0	6.261780759532884e+17
19546.0	6.261218682950996e+17
19547.0	6.261380558618623e+17
19548.0	6.261008788794026e+17
19549.0	6.260561745892692e+17
19550.0	6.26021078540834e+17
19551.0	6.259784451183956e+17
19552.0	6.259337873151316e+17
19553.0	6.258860267055786e+17
19554.0	6.258372284252159e+17
19555.0	6.257887994533203e+17
19556.0	6.257383570057898e+17
19557.0	6.256851712737279e+17
19558.0	6.256308235097428e+17
19559.0	6.255747645396308e+17
19560.0	6.255159223691945e+17
19561.0	6.254578588712959e+17
19562.0	6.253987171576489e+17
19563.0	6.253372273328127e+17
19564.0	6.252747963061587e+17
19565.0	6.252112075117907e+17
19566.0	6.251451763742035e+17
19567.0	6.2508025525917e+17
19568.0	6.250114852410708e+17
19569.0	6.249442813760851e+17
19570.0	6.248753494578514e+17
19571.0	6.248045325494953e+17
19572.0	6.247314492489728e+17
19573.0	6.246592945673556e+17
19574.0	6.245815665644884e+17
19575.0	6.245125500611242e+17
19576.0	6.244371456327679e+17
19577.0	6.243599879853396e+17
19578.0	6.242810302824447e+17
19579.0	6.242039002475178e+17
19580.0	6.241250182518099e+17
19581.0	6.240457392652287e+17
19582.0	6.239661733882538e+17
19583.0	6.238848631002452e+17
19584.0	6.238023918288896e+17
19585.0	6.237134240000681e+17
19586.0	6.236279614210048e+17
19587.0	6.235506625653418e+17
19588.0	6.234398426223956e+17
19589.0	6.233807098565971e+17
19590.0	6.2329076594333e+17
19591.0	6.232089501717844e+17
19592.0	6.231214702723071e+17
19593.0	6.23032424010001e+17
19594.0	6.229314388710739e+17
19595.0	6.228538822754303e+17
19596.0	6.227461339611136e+17
19597.0	6.226754064613373e+17
19598.0	6.225666445235539e+17
19599.0	6.224954625709396e+17
19600.0	6.224039525045588e+17
19601.0	6.223078178684927e+17
19602.0	6.222163273755305e+17
19603.0	6.220995689272659e+17
19604.0	6.220296325431295e+17
19605.0	6.219215294605994e+17
19606.0	6.218450564633939e+17
19607.0	6.217507023093759e+17
19608.0	6.216550814056447e+17
19609.0	6.215570609405951e+17
19610.0	6.214645465481215e+17
19611.0	6.213680639246335e+17
19612.0	6.212719826960383e+17
19613.0	6.21175153692945e+17
19614.0	6.21075442503953e+17
19615.0	6.209804106902185e+17
19616.0	6.208803726251348e+17
19617.0	6.207845011816447e+17
19618.0	6.206523745938089e+17
19619.0	6.205460489874089e+17
19620.0	6.204488161427455e+17
19621.0	6.203890029909332e+17
19622.0	6.202894720871082e+17
19623.0	6.201896319931734e+17
19624.0	6.200895234637823e+17
19625.0	6.199891405570047e+17
19626.0	6.198885189943295e+17
19627.0	6.197875759382528e+17
19628.0	6.196807056315734e+17
19629.0	6.195795834787156e+17
19630.0	6.194660849833299e+17
19631.0	6.191182080114687e+17
19632.0	6.192792728502271e+17
19633.0	6.191755447762943e+17
19634.0	6.190754066770601e+17
19635.0	6.189704897975638e+17
19636.0	6.188702162223104e+17
19637.0	6.18744093151505e+17
19638.0	6.186636482183165e+17
19639.0	6.185598179431763e+17
19640.0	6.184511453440682e+17
19641.0	6.183097485055318e+17
19642.0	6.182499508027391e+17
19643.0	6.181457729596074e+17
19644.0	6.180379466312361e+17
19645.0	6.179211585432234e+17
19646.0	6.178331330347007e+17
19647.0	6.177285746982911e+17
19648.0	6.176238578171903e+17
19649.0	6.175188278312959e+17
19650.0	6.174140006399999e+17
19651.0	6.17308872717107e+17
19652.0	6.172036151902207e+17
19653.0	6.170981122965504e+17
19654.0	6.169927276822527e+17
19655.0	6.168868133273599e+17
19656.0	6.167809369309183e+17
19657.0	6.166754990489599e+17
19658.0	6.165695328245076e+17
19659.0	6.164633572343807e+17
19660.0	6.163572779035305e+17
19661.0	6.162509922129236e+17
19662.0	6.161445970509823e+17
19663.0	6.160354550393514e+17
19664.0	6.159305727628627e+17
19665.0	6.158248639987711e+17
