# Flux units: erg / (cm m2 s)
# Wavelength units: Angstrom
wave	flux
19000.0	5.929827975211689e+17
19001.0	5.928695066438314e+17
19002.0	5.927608097177599e+17
19003.0	5.926497075680596e+17
19004.0	5.92538620727569e+17
19005.0	5.924277113061376e+17
19006.0	5.923169283429715e+17
19007.0	5.922010321737043e+17
19008.0	5.920934203140777e+17
19009.0	5.919836917989376e+17
19010.0	5.918613092783444e+17
19011.0	5.91761642688785e+17
19012.0	5.916426831396863e+17
19013.0	5.915403582002516e+17
19014.0	5.914282032103423e+17
19015.0	5.913178953919146e+17
19016.0	5.912068124661076e+17
19017.0	5.91095793852962e+17
19018.0	5.909857223136595e+17
19019.0	5.908755166265343e+17
19020.0	5.907636923574954e+17
19021.0	5.906535678301524e+17
19022.0	5.905433440376148e+17
19023.0	5.904317760405501e+17
19024.0	5.903215657396905e+17
19025.0	5.902110091291306e+17
19026.0	5.900994574199465e+17
19027.0	5.899840960244393e+17
19028.0	5.898794846999892e+17
19029.0	5.897686054076415e+17
19030.0	5.896586006276777e+17
19031.0	5.8954803590813e+17
19032.0	5.89437425680384e+17
19033.0	5.893248877505193e+17
19034.0	5.892161169347924e+17
19035.0	5.891051017469951e+17
19036.0	5.885312832809637e+17
19037.0	5.888847520290132e+17
19038.0	5.887740128963242e+17
19039.0	5.886641770070015e+17
19040.0	5.88553778242082e+17
19041.0	5.884431927607295e+17
19042.0	5.883308834204329e+17
19043.0	5.882227010655574e+17
19044.0	5.881120663011327e+17
19045.0	5.880017825999532e+17
19046.0	5.87890574893602e+17
19047.0	5.877814595158015e+17
19048.0	5.876660319201961e+17
19049.0	5.875594036947625e+17
19050.0	5.874496339356329e+17
19051.0	5.872693719771816e+17
19052.0	5.872265549141332e+17
19053.0	5.871190029631487e+17
19054.0	5.870101165943465e+17
19055.0	5.868941253541887e+17
19056.0	5.867891894605139e+17
19057.0	5.866795395885737e+17
19058.0	5.86568237720098e+17
19059.0	5.864596113981439e+17
19060.0	5.863491850906282e+17
19061.0	5.862397796767062e+17
19062.0	5.861296861872127e+17
19063.0	5.860197940243114e+17
19064.0	5.8590682429085e+17
19065.0	5.857552835979945e+17
19066.0	5.856406527803391e+17
19067.0	5.85532060082722e+17
19068.0	5.854223722523306e+17
19069.0	5.85312583548928e+17
19070.0	5.852021912851795e+17
19071.0	5.850927466545151e+17
19072.0	5.849831881484969e+17
19073.0	5.848733668693331e+17
19074.0	5.847637719427754e+17
19075.0	5.846540692226048e+17
19076.0	5.845438486457002e+17
19077.0	5.844345077541546e+17
19078.0	5.843240776018602e+17
19079.0	5.842154534469631e+17
19080.0	5.841055535245993e+17
19081.0	5.839951922287956e+17
19082.0	5.838854976176127e+17
19083.0	5.837747568771071e+17
19084.0	5.836621922435071e+17
19085.0	5.83558006710818e+17
19086.0	5.83439560614434e+17
19087.0	5.833260673619283e+17
19088.0	5.832280645828607e+17
19089.0	5.83109220447027e+17
19090.0	5.830102151593983e+17
19091.0	5.829010918124201e+17
19092.0	5.827879092180308e+17
19093.0	5.826829151633408e+17
19094.0	5.825732070604799e+17
19095.0	5.824638015766527e+17
19096.0	5.823541519843327e+17
19097.0	5.822457273384959e+17
19098.0	5.821365651243007e+17
19099.0	5.820273179754495e+17
19100.0	5.819173462605823e+17
19101.0	5.818087430073001e+17
19102.0	5.816975279609172e+17
19103.0	5.815906454208512e+17
19104.0	5.814816297975807e+17
19105.0	5.813725405642751e+17
19106.0	5.812610930136404e+17
19107.0	5.811540861823657e+17
19108.0	5.810454049849343e+17
19109.0	5.808944564578985e+17
19110.0	5.808272969127252e+17
19111.0	5.807183031697407e+17
19112.0	5.806095293480959e+17
19113.0	5.805006202601471e+17
19114.0	5.803917048807423e+17
19115.0	5.802809387646975e+17
19116.0	5.801734632898559e+17
19117.0	5.800648264122368e+17
19118.0	5.799522965214548e+17
19119.0	5.797647236115112e+17
19120.0	5.797347042787327e+17
19121.0	5.796277004533759e+17
19122.0	5.795212882345983e+17
19123.0	5.794124437389311e+17
19124.0	5.793015176101887e+17
19125.0	5.791949653715626e+17
19126.0	5.790856188876115e+17
19127.0	5.789383345045501e+17
19128.0	5.788383515945641e+17
19129.0	5.787586382878035e+17
19130.0	5.786518588577108e+17
19131.0	5.785425940228778e+17
19132.0	5.78435005022208e+17
19133.0	5.783141957850452e+17
19134.0	5.782027725613738e+17
19135.0	5.781093798117376e+17
19136.0	5.780012089212928e+17
19137.0	5.778890060464127e+17
19138.0	5.777813424570367e+17
19139.0	5.776759653924863e+17
19140.0	5.775676424585215e+17
19141.0	5.774592993918975e+17
19142.0	5.77350398972177e+17
19143.0	5.772412958976682e+17
19144.0	5.771336604101289e+17
19145.0	5.770260075162282e+17
19146.0	5.769032936456191e+17
19147.0	5.768075185313107e+17
19148.0	5.767011894296573e+17
19149.0	5.765929512905385e+17
19150.0	5.764848312210771e+17
19151.0	5.763769820337491e+17
19152.0	5.762681332039679e+17
19153.0	5.761601695820457e+17
19154.0	5.7604929525295776e+17
19155.0	5.759440401028436e+17
19156.0	5.7583606536601594e+17
19157.0	5.757277401950889e+17
19158.0	5.755913880556884e+17
19159.0	5.755115786993662e+17
19160.0	5.754030981294761e+17
19161.0	5.752932374238549e+17
19162.0	5.7512219314749434e+17
19163.0	5.750801606290089e+17
19164.0	5.749724854353919e+17
19165.0	5.748633084712275e+17
19166.0	5.7475281659275936e+17
19167.0	5.7464282013149856e+17
19168.0	5.745387084884649e+17
19169.0	5.744310256052906e+17
19170.0	5.743255241796266e+17
19171.0	5.7421404062788256e+17
19172.0	5.741097820443988e+17
19173.0	5.7400218849989965e+17
19174.0	5.738933714769236e+17
19175.0	5.7378696380197536e+17
19176.0	5.736793269862399e+17
19177.0	5.735682355320147e+17
19178.0	5.734634161001811e+17
19179.0	5.7335070802138445e+17
19180.0	5.7324366812501325e+17
19181.0	5.731385557909503e+17
19182.0	5.730325248344063e+17
19183.0	5.7292560929914874e+17
19184.0	5.7281607938430285e+17
19185.0	5.7271098249925965e+17
19186.0	5.726036341118292e+17
19187.0	5.7249435683389434e+17
19188.0	5.723883330076671e+17
19189.0	5.7227999077990394e+17
19190.0	5.721722802143232e+17
19191.0	5.720649854440789e+17
19192.0	5.7195893596269216e+17
19193.0	5.7184915585761274e+17
19194.0	5.717428782759935e+17
19195.0	5.716366032109567e+17
19196.0	5.7152336427308365e+17
19197.0	5.7141485476249594e+17
19198.0	5.712891708353194e+17
19199.0	5.707992759883091e+17
19200.0	5.7083838437785606e+17
19201.0	5.709675115489961e+17
19202.0	5.7086054463351456e+17
19203.0	5.7075251096671565e+17
19204.0	5.706454665265151e+17
19205.0	5.7053882166367565e+17
19206.0	5.7043167697960954e+17
19207.0	5.703228166154921e+17
19208.0	5.7021236870731085e+17
19209.0	5.701102950765909e+17
19210.0	5.700032841209172e+17
19211.0	5.6989636334277965e+17
19212.0	5.697893741974869e+17
19213.0	5.696771482539349e+17
19214.0	5.6956850962868896e+17
19215.0	5.6946693190451194e+17
19216.0	5.693607865832788e+17
19217.0	5.692542373505706e+17
19218.0	5.691283511181311e+17
19219.0	5.690366664987988e+17
19220.0	5.689325050134528e+17
19221.0	5.6881840372667725e+17
19222.0	5.6871944870079136e+17
19223.0	5.6861194246772045e+17
19224.0	5.685038469349375e+17
19225.0	5.683950222224042e+17
19226.0	5.6829119621147296e+17
19227.0	5.68184246702353e+17
19228.0	5.6807806454114963e+17
19229.0	5.679711878731092e+17
19230.0	5.6786310869811194e+17
19231.0	5.677563324836521e+17
19232.0	5.676498596571817e+17
19233.0	5.6754205304203936e+17
19234.0	5.674363695835817e+17
19235.0	5.673294416751273e+17
19236.0	5.6722335150899194e+17
19237.0	5.671161829872981e+17
19238.0	5.67007135277602e+17
19239.0	5.669030334911828e+17
19240.0	5.6679150862554445e+17
19241.0	5.666877593703764e+17
19242.0	5.665822867455999e+17
19243.0	5.664719470504617e+17
19244.0	5.6636912375780685e+17
19245.0	5.662622826714452e+17
19246.0	5.66155279475234e+17
19247.0	5.660488861308245e+17
19248.0	5.659422239315285e+17
19249.0	5.6583528071386445e+17
19250.0	5.657282498352468e+17
19251.0	5.656201770915156e+17
19252.0	5.6550759610013005e+17
19253.0	5.654079778149716e+17
19254.0	5.653010922689876e+17
19255.0	5.651902338782547e+17
19256.0	5.650871708112213e+17
19257.0	5.649815676736854e+17
19258.0	5.648748121511252e+17
19259.0	5.647662773349034e+17
19260.0	5.646540962704042e+17
19261.0	5.6455431734340256e+17
19262.0	5.644464583693652e+17
19263.0	5.643399088570367e+17
19264.0	5.642223989992105e+17
19265.0	5.6412295876225683e+17
19266.0	5.640167011035817e+17
19267.0	5.639139828083371e+17
19268.0	5.638071801697621e+17
19269.0	5.6370037347669325e+17
19270.0	5.6359352735716685e+17
19271.0	5.634791486171818e+17
19272.0	5.6337905239108256e+17
19273.0	5.631432857397927e+17
19274.0	5.630980643618815e+17
19275.0	5.630361961409194e+17
19276.0	5.629288398542164e+17
19277.0	5.6282201554507085e+17
19278.0	5.627151804006399e+17
19279.0	5.626066899741353e+17
19280.0	5.62499405619746e+17
19281.0	5.6239411181213005e+17
19282.0	5.6228748065068365e+17
19283.0	5.621744146579456e+17
19284.0	5.6206260220286285e+17
19285.0	5.6196136337844896e+17
19286.0	5.618583588918613e+17
19287.0	5.6175197966827514e+17
19288.0	5.6154673398852256e+17
19289.0	5.612114549582499e+17
19290.0	5.614303273025536e+17
19291.0	5.613170195780949e+17
19292.0	5.6121571322538656e+17
19293.0	5.6110815344503456e+17
19294.0	5.6100066580671136e+17
19295.0	5.608935593607167e+17
19296.0	5.607867316961279e+17
19297.0	5.6067884329205754e+17
19298.0	5.605710791092907e+17
19299.0	5.604640982827007e+17
19300.0	5.603563360572756e+17
19301.0	5.6024842814969165e+17
19302.0	5.6014062915420154e+17
19303.0	5.6003067407674016e+17
19304.0	5.5992365885685754e+17
19305.0	5.5981647313851725e+17
19306.0	5.597084156340905e+17
19307.0	5.595989686965588e+17
19308.0	5.594915210439338e+17
19309.0	5.593711756967935e+17
19310.0	5.592567969568083e+17
19311.0	5.591656850696873e+17
19312.0	5.590583114465279e+17
19313.0	5.589487004418046e+17
19314.0	5.5854009742786477e+17
19315.0	5.584614693273607e+17
19316.0	5.586228460126207e+17
19317.0	5.5851441297817594e+17
19318.0	5.5840518533283834e+17
19319.0	5.582964010254335e+17
19320.0	5.5818666461102074e+17
19321.0	5.58077530288947e+17
19322.0	5.579649206364841e+17
19323.0	5.578515128079701e+17
19324.0	5.577480198946815e+17
19325.0	5.576264953189715e+17
19326.0	5.5752796279930874e+17
19327.0	5.574172940610217e+17
19328.0	5.573071854021289e+17
19329.0	5.5719651302877856e+17
19330.0	5.5708467904293536e+17
19331.0	5.569735965365589e+17
19332.0	5.5686338134234445e+17
19333.0	5.567515727320404e+17
19334.0	5.566398810729131e+17
19335.0	5.565285000019968e+17
19336.0	5.5639879129060685e+17
19337.0	5.562487553043113e+17
19338.0	5.561315048641876e+17
19339.0	5.5602343827210234e+17
19340.0	5.559084513580373e+17
19341.0	5.557969316653737e+17
19342.0	5.5567387260354554e+17
19343.0	5.555694593900543e+17
19344.0	5.5545517481219405e+17
19345.0	5.552895609711272e+17
19346.0	5.552138073669631e+17
19347.0	5.5510895130487456e+17
19348.0	5.5499497430930765e+17
19349.0	5.548780198472361e+17
19350.0	5.5476171543237965e+17
19351.0	5.5464461032488954e+17
19352.0	5.545266418898262e+17
19353.0	5.544106196118186e+17
19354.0	5.542923737235455e+17
19355.0	5.541714138409641e+17
19356.0	5.540543241824937e+17
19357.0	5.5393445349075616e+17
19358.0	5.5381306285315405e+17
19359.0	5.536863047647231e+17
19360.0	5.5357064480467616e+17
19361.0	5.5344811541353805e+17
19362.0	5.533262933917696e+17
19363.0	5.5320252605180576e+17
19364.0	5.530778655348052e+17
19365.0	5.529527640566442e+17
19366.0	5.5282664692776954e+17
19367.0	5.5269966150806176e+17
19368.0	5.525717544599551e+17
19369.0	5.523872129832277e+17
19370.0	5.52228365603089e+17
19371.0	5.521112668569599e+17
19372.0	5.519803231327572e+17
19373.0	5.518462838723924e+17
19374.0	5.517120388814164e+17
19375.0	5.5157611616884045e+17
19376.0	5.5143874746996045e+17
19377.0	5.512995744514047e+17
19378.0	5.511592287054505e+17
19379.0	5.5101715910055245e+17
19380.0	5.5087336479784954e+17
19381.0	5.5072752703023776e+17
19382.0	5.505427501831508e+17
19383.0	5.503427561914367e+17
19384.0	5.501931913652905e+17
19385.0	5.5003875422590285e+17
19386.0	5.4988202937330336e+17
19387.0	5.497226027597823e+17
19388.0	5.495604280382805e+17
19389.0	5.49395320869137e+17
19390.0	5.4916083005521914e+17
19391.0	5.4853530637653254e+17
19392.0	5.487769709882026e+17
19393.0	5.485983604670462e+17
19394.0	5.484149934653439e+17
19395.0	5.481789843133779e+17
19396.0	5.479134822836906e+17
19397.0	5.4771716145370445e+17
19398.0	5.4751389164066125e+17
19399.0	5.472114296837459e+17
19400.0	5.469494092059989e+17
19401.0	5.4672907242045434e+17
19402.0	5.464109959785129e+17
19403.0	5.4610189975115085e+17
19404.0	5.4582925936558086e+17
19405.0	5.454186599328426e+17
19406.0	5.4508669545130643e+17
19407.0	5.44618186871057e+17
19408.0	5.4426439523150496e+17
19409.0	5.439156372460885e+17
19410.0	5.436063621316607e+17
19411.0	5.432824713357993e+17
19412.0	5.429445116559358e+17
19413.0	5.425914150125568e+17
19414.0	5.422211854761983e+17
19415.0	5.418346314989567e+17
19416.0	5.413613895767379e+17
19417.0	5.409221947075241e+17
19418.0	5.404802225799167e+17
19419.0	5.4000574068162554e+17
19420.0	5.394691287678975e+17
19421.0	5.388752456602964e+17
19422.0	5.383144087748607e+17
19423.0	5.3763902209174176e+17
19424.0	5.369551004194133e+17
19425.0	5.361619380994047e+17
19426.0	5.353432802831016e+17
19427.0	5.3438866144624634e+17
19428.0	5.332933139234816e+17
19429.0	5.320558625423359e+17
19430.0	5.306038894985221e+17
19431.0	5.287411626016767e+17
19432.0	5.26653468966912e+17
19433.0	5.2485637384000845e+17
19434.0	5.233619003331926e+17
19435.0	5.217245738653012e+17
19436.0	5.198966220827306e+17
19437.0	5.180102296644266e+17
19438.0	5.152181441964711e+17
19439.0	5.1337837936639994e+17
19440.0	5.1052526034397875e+17
19441.0	5.069022795486546e+17
19442.0	5.017892620511909e+17
19443.0	4.960292976285014e+17
19444.0	4.912631129309182e+17
19445.0	4.8567166627566957e+17
19446.0	4.783842342032726e+17
19447.0	4.6780448844895494e+17
19448.0	4.5637196330653056e+17
19449.0	4.383754134312275e+17
19450.0	4.030868082742599e+17
19451.0	3.9323237645025197e+17
19452.0	4.2202108379791424e+17
19453.0	4.487209843425285e+17
19454.0	4.620212545869134e+17
19455.0	4.7291848105219424e+17
19456.0	4.8159666463921517e+17
19457.0	4.87656596666231e+17
19458.0	4.920226121864542e+17
19459.0	4.973858671034361e+17
19460.0	5.030741694655139e+17
19461.0	5.0709801925782195e+17
19462.0	5.10066270736657e+17
19463.0	5.1250171991818234e+17
19464.0	5.1458313558862496e+17
19465.0	5.1644498678469965e+17
19466.0	5.180679160943955e+17
19467.0	5.196089244254207e+17
19468.0	5.2096058761325235e+17
19469.0	5.222740508278784e+17
19470.0	5.2422365832806355e+17
19471.0	5.259691942739962e+17
19472.0	5.2735107120059725e+17
19473.0	5.285096819698344e+17
19474.0	5.294398183047167e+17
19475.0	5.3022068991590394e+17
19476.0	5.309302971564032e+17
19477.0	5.315488487833598e+17
19478.0	5.320359599407102e+17
19479.0	5.325551247381846e+17
19480.0	5.3294750432406176e+17
19481.0	5.3329387260477446e+17
19482.0	5.336995557539839e+17
19483.0	5.3398185904701434e+17
19484.0	5.342383975694336e+17
19485.0	5.344708338734419e+17
19486.0	5.347148460370602e+17
19487.0	5.3494693134772896e+17
19488.0	5.351211457489577e+17
19489.0	5.3527777280436896e+17
19490.0	5.353868376408062e+17
19491.0	5.355451986214911e+17
19492.0	5.356593382162432e+17
19493.0	5.3575995229907616e+17
19494.0	5.359500718505982e+17
19495.0	5.360699472958806e+17
19496.0	5.3630177430732794e+17
19497.0	5.364235583007405e+17
19498.0	5.366179895268692e+17
19499.0	5.359723320705014e+17
19500.0	5.367941746917374e+17
19501.0	5.368764390440958e+17
19502.0	5.368904030005931e+17
19503.0	5.369643456441002e+17
19504.0	5.3703512284637856e+17
19505.0	5.370321161595561e+17
19506.0	5.3702376530029216e+17
19507.0	5.3705653015456403e+17
19508.0	5.371075197490515e+17
19509.0	5.370853288050687e+17
19510.0	5.370547645622953e+17
19511.0	5.363564752317091e+17
19512.0	5.369202105909243e+17
19513.0	5.368411768313168e+17
19514.0	5.368930227628713e+17
19515.0	5.3695813192253446e+17
19516.0	5.369302256801108e+17
19517.0	5.368813851770879e+17
19518.0	5.368332389012821e+17
19519.0	5.367809939516074e+17
19520.0	5.3672652336442016e+17
19521.0	5.3667641170766496e+17
19522.0	5.366920361192106e+17
19523.0	5.3663306965756576e+17
19524.0	5.365715782948181e+17
19525.0	5.3650756363878394e+17
19526.0	5.364438169987754e+17
19527.0	5.3637783332672845e+17
19528.0	5.363104770686975e+17
19529.0	5.362421267606185e+17
19530.0	5.361724869137749e+17
19531.0	5.361016122638334e+17
19532.0	5.360296473744725e+17
19533.0	5.3595666711401805e+17
19534.0	5.3588266784740685e+17
19535.0	5.3580748396953594e+17
19536.0	5.3573109073401165e+17
19537.0	5.356554275170985e+17
19538.0	5.356210044447402e+17
19539.0	5.355495836964181e+17
19540.0	5.354837663285247e+17
19541.0	5.3540467391856634e+17
19542.0	5.353241683776852e+17
19543.0	5.3524324655213216e+17
19544.0	5.351616958605994e+17
19545.0	5.350718888913577e+17
19546.0	5.34974003482897e+17
19547.0	5.349135712518142e+17
19548.0	5.3482999666879136e+17
19549.0	5.347434630042965e+17
19550.0	5.346611644683605e+17
19551.0	5.3457614550685005e+17
19552.0	5.3449061588882765e+17
19553.0	5.344043138897236e+17
19554.0	5.343175073158485e+17
19555.0	5.342314880128341e+17
19556.0	5.341448463450111e+17
19557.0	5.3405741607813114e+17
19558.0	5.3396982286254074e+17
19559.0	5.3388150053710496e+17
19560.0	5.337930144240981e+17
19561.0	5.3370447252684794e+17
19562.0	5.336163564912639e+17
19563.0	5.3352723962484045e+17
19564.0	5.3343800531790496e+17
19565.0	5.3334846405782176e+17
19566.0	5.332579713897813e+17
19567.0	5.331686371885055e+17
19568.0	5.330778415519059e+17
19569.0	5.3298757195093325e+17
19570.0	5.3289750954857805e+17
19571.0	5.328067065719466e+17
19572.0	5.3271500629387936e+17
19573.0	5.3262429167725216e+17
19574.0	5.3253096925211296e+17
19575.0	5.3244184958948685e+17
19576.0	5.3235015818936314e+17
19577.0	5.322565594294954e+17
19578.0	5.321656586556756e+17
19579.0	5.32073861559091e+17
19580.0	5.319818399274325e+17
19581.0	5.318897023232683e+17
19582.0	5.3179772871639014e+17
19583.0	5.3170520362844154e+17
19584.0	5.3161240059794765e+17
19585.0	5.3151719569926816e+17
19586.0	5.3142331095777274e+17
19587.0	5.3133108373531296e+17
19588.0	5.3122987336226125e+17
19589.0	5.311464394282325e+17
19590.0	5.3105242529245856e+17
19591.0	5.3096117604188154e+17
19592.0	5.308679433049428e+17
19593.0	5.307740425551872e+17
19594.0	5.3067462042364576e+17
19595.0	5.3058690753058125e+17
19596.0	5.304245753828692e+17
19597.0	5.303994645042517e+17
19598.0	5.302988574818303e+17
19599.0	5.3021218170033485e+17
19600.0	5.3011847794305696e+17
19601.0	5.3002294882467834e+17
19602.0	5.299295373404842e+17
19603.0	5.2982095442957645e+17
19604.0	5.2974109579018234e+17
19605.0	5.296410528317439e+17
19606.0	5.2955356761948154e+17
19607.0	5.295042469385555e+17
19608.0	5.29413131206656e+17
19609.0	5.293178643720874e+17
19610.0	5.2922474914556576e+17
19611.0	5.291301564754602e+17
19612.0	5.2903581902875296e+17
19613.0	5.289409705061034e+17
19614.0	5.288457945481215e+17
19615.0	5.287521662883158e+17
19616.0	5.2865398664942925e+17
19617.0	5.285628407185407e+17
19618.0	5.2845671734749856e+17
19619.0	5.283571144414547e+17
19620.0	5.282639377683796e+17
19621.0	5.281841595897173e+17
19622.0	5.280894112410281e+17
19623.0	5.279946463248383e+17
19624.0	5.278996259755347e+17
19625.0	5.2780496298093216e+17
19626.0	5.2771021253509114e+17
19627.0	5.2761537086313805e+17
19628.0	5.2751156813059405e+17
19629.0	5.274236192380245e+17
19630.0	5.2732679708562765e+17
19631.0	5.268139509372242e+17
19632.0	5.2714072790357325e+17
19633.0	5.270448809268564e+17
19634.0	5.269511031401129e+17
19635.0	5.2685526154608634e+17
19636.0	5.267610639095125e+17
19637.0	5.2665757274385056e+17
19638.0	5.265711356182528e+17
19639.0	5.264761351918932e+17
19640.0	5.2637996350614176e+17
19641.0	5.26269198368768e+17
19642.0	5.2619118592218445e+17
19643.0	5.260958975568554e+17
19644.0	5.260000354107391e+17
19645.0	5.2590026752873805e+17
19646.0	5.2581147593058976e+17
19647.0	5.257164822151167e+17
19648.0	5.2562148787049805e+17
19649.0	5.2552643270847136e+17
19650.0	5.2543149813268474e+17
19651.0	5.253363332896083e+17
19652.0	5.2524146540325536e+17
19653.0	5.251463030767615e+17
19654.0	5.2505131439445325e+17
19655.0	5.249562713959083e+17
19656.0	5.2486137624657914e+17
19657.0	5.247665672901972e+17
