# Flux units: erg / (cm m2 s)
# Wavelength units: Angstrom
wave	flux
19000.0	5.397861026671274e+17
19001.0	5.396813248987135e+17
19002.0	5.3959607580972365e+17
19003.0	5.3949982694877856e+17
19004.0	5.3940280312026445e+17
19005.0	5.393055240683519e+17
19006.0	5.392104401054378e+17
19007.0	5.3911549483417594e+17
19008.0	5.390183618838526e+17
19009.0	5.389160284159999e+17
19010.0	5.388220714625705e+17
19011.0	5.387278850807124e+17
19012.0	5.386240132120575e+17
19013.0	5.3854340574958925e+17
19014.0	5.384437648850943e+17
19015.0	5.383494793079466e+17
19016.0	5.3825829667689805e+17
19017.0	5.381641871207081e+17
19018.0	5.380674953412606e+17
19019.0	5.3797276104349005e+17
19020.0	5.378765120427349e+17
19021.0	5.377821909538132e+17
19022.0	5.376868932212052e+17
19023.0	5.375852207057577e+17
19024.0	5.3748816842588154e+17
19025.0	5.3739740026197325e+17
19026.0	5.3730054085017594e+17
19027.0	5.37206578024721e+17
19028.0	5.3711034433317536e+17
19029.0	5.3701250513196365e+17
19030.0	5.3691739348664314e+17
19031.0	5.3682153148033696e+17
19032.0	5.367212687403689e+17
19033.0	5.3660680031218323e+17
19034.0	5.364946046375252e+17
19035.0	5.363319437262847e+17
19036.0	5.361186114284202e+17
19037.0	5.3615198746269e+17
19038.0	5.3611662346813434e+17
19039.0	5.3604561019644576e+17
19040.0	5.3595949218747725e+17
19041.0	5.358687960257876e+17
19042.0	5.356009553220946e+17
19043.0	5.3568477261550925e+17
19044.0	5.355900233580542e+17
19045.0	5.354925108931241e+17
19046.0	5.353966219733673e+17
19047.0	5.35300693627153e+17
19048.0	5.351782774123177e+17
19049.0	5.3474517630757504e+17
19050.0	5.3499818154830496e+17
19051.0	5.348900532300457e+17
19052.0	5.3480384182790816e+17
19053.0	5.347231127306239e+17
19054.0	5.3463545862772045e+17
19055.0	5.344760276800853e+17
19056.0	5.344362124804094e+17
19057.0	5.343600697846441e+17
19058.0	5.34084930852181e+17
19059.0	5.3410268338367136e+17
19060.0	5.340793657098239e+17
19061.0	5.339829606809599e+17
19062.0	5.3388834850734074e+17
19063.0	5.3379539224494074e+17
19064.0	5.3369881818562554e+17
19065.0	5.3359752322744314e+17
19066.0	5.334436033855487e+17
19067.0	5.334142250123264e+17
19068.0	5.333247730210132e+17
19069.0	5.3323017986157216e+17
19070.0	5.3313227536902803e+17
19071.0	5.3303912106557434e+17
19072.0	5.328802235635028e+17
19073.0	5.3285309781114874e+17
19074.0	5.327561203995988e+17
19075.0	5.3266398258571936e+17
19076.0	5.325685017018367e+17
19077.0	5.3247448497957536e+17
19078.0	5.3237829623698765e+17
19079.0	5.322850622417578e+17
19080.0	5.3219107830497274e+17
19081.0	5.3209325091771725e+17
19082.0	5.3200369791358285e+17
19083.0	5.3190225685381114e+17
19084.0	5.31797881458961e+17
19085.0	5.317186827933013e+17
19086.0	5.3150201777138336e+17
19087.0	5.31378345292595e+17
19088.0	5.3133840636095123e+17
19089.0	5.313293108030122e+17
19090.0	5.312475795466921e+17
19091.0	5.311434077153962e+17
19092.0	5.3091584092842694e+17
19093.0	5.309677699771049e+17
19094.0	5.308741571663188e+17
19095.0	5.307797822504959e+17
19096.0	5.306863529405097e+17
19097.0	5.3059246798929914e+17
19098.0	5.3042435651010554e+17
19099.0	5.303144107999232e+17
19100.0	5.3030756331902285e+17
19101.0	5.302143594528768e+17
19102.0	5.301197890824874e+17
19103.0	5.300265399877632e+17
19104.0	5.299352452289876e+17
19105.0	5.29677476866731e+17
19106.0	5.297449093911892e+17
19107.0	5.2961120798201165e+17
19108.0	5.294936229762388e+17
19109.0	5.294620072214526e+17
19110.0	5.2936864774662816e+17
19111.0	5.292271043171667e+17
19112.0	5.2912515735442746e+17
19113.0	5.2908854408642554e+17
19114.0	5.289594829056681e+17
19115.0	5.2889046626249376e+17
19116.0	5.2879752300243616e+17
19117.0	5.2869174747900576e+17
19118.0	5.285205082374143e+17
19119.0	5.2816022269678906e+17
19120.0	5.283672681523883e+17
19121.0	5.283200871257427e+17
19122.0	5.282390116488532e+17
19123.0	5.2814911764780365e+17
19124.0	5.280487833250474e+17
19125.0	5.279585964916735e+17
19126.0	5.2785837352768845e+17
19127.0	5.277541842900309e+17
19128.0	5.2767060145821005e+17
19129.0	5.275807261218132e+17
19130.0	5.2749700914216954e+17
19131.0	5.274074947256319e+17
19132.0	5.273148024946688e+17
19133.0	5.27220150964497e+17
19134.0	5.2712934155659936e+17
19135.0	5.2703658850822816e+17
19136.0	5.269435261998421e+17
19137.0	5.26848202252834e+17
19138.0	5.267570862413141e+17
19139.0	5.266650501393066e+17
19140.0	5.26572288282897e+17
19141.0	5.264790877022889e+17
19142.0	5.2638401953791994e+17
19143.0	5.2629228416750925e+17
19144.0	5.2619675148397216e+17
19145.0	5.2610582428603725e+17
19146.0	5.2596474936033274e+17
19147.0	5.2591937817586336e+17
19148.0	5.257701826581846e+17
19149.0	5.256655109357568e+17
19150.0	5.2564235949615763e+17
19151.0	5.255482758747476e+17
19152.0	5.2545439924224e+17
19153.0	5.252377945483944e+17
19154.0	5.2525816411586554e+17
19155.0	5.2517553527848954e+17
19156.0	5.250825362341888e+17
19157.0	5.249508829735594e+17
19158.0	5.2480854339529395e+17
19159.0	5.248008564943529e+17
19160.0	5.2470798621518496e+17
19161.0	5.2461472663470074e+17
19162.0	5.2452046985844045e+17
19163.0	5.244293126029311e+17
19164.0	5.243369432634709e+17
19165.0	5.241111084444329e+17
19166.0	5.241507804086271e+17
19167.0	5.2406114631461536e+17
19168.0	5.2396958997108045e+17
19169.0	5.2387741776390816e+17
19170.0	5.2378543255278925e+17
19171.0	5.236917589245951e+17
19172.0	5.235999117060777e+17
19173.0	5.235082340073472e+17
19174.0	5.2341492178834765e+17
19175.0	5.233225486740139e+17
19176.0	5.2323057695457274e+17
19177.0	5.231260292437332e+17
19178.0	5.2304398467290445e+17
19179.0	5.2295227216145056e+17
19180.0	5.228579245785087e+17
19181.0	5.227639521061546e+17
19182.0	5.226693439171241e+17
19183.0	5.2258037958355616e+17
19184.0	5.2248880492489376e+17
19185.0	5.22394657829683e+17
19186.0	5.2230199614723405e+17
19187.0	5.222041691095039e+17
19188.0	5.221154532185428e+17
19189.0	5.2202079462795936e+17
19190.0	5.219269179255466e+17
19191.0	5.218298206967124e+17
19192.0	5.217350018138111e+17
19193.0	5.216210578833407e+17
19194.0	5.21513099923729e+17
19195.0	5.2144183730066765e+17
19196.0	5.213397834530815e+17
19197.0	5.212371951113556e+17
19198.0	5.211306483952297e+17
19199.0	5.210187831618219e+17
19200.0	5.2093047733398176e+17
19201.0	5.208559030282922e+17
19202.0	5.207784975674025e+17
19203.0	5.206946613297151e+17
19204.0	5.206141469807956e+17
19205.0	5.205279369068543e+17
19206.0	5.2044115486965754e+17
19207.0	5.203439233531904e+17
19208.0	5.2026287374117536e+17
19209.0	5.201760069790377e+17
19210.0	5.200865196157609e+17
19211.0	5.199988829891241e+17
19212.0	5.199084096847872e+17
19213.0	5.19810981175842e+17
19214.0	5.1972475970737485e+17
19215.0	5.196351405730473e+17
19216.0	5.195433670344702e+17
19217.0	5.194495247253504e+17
19218.0	5.1935358498461e+17
19219.0	5.1925429525326496e+17
19220.0	5.191750510794069e+17
19221.0	5.1908577280218445e+17
19222.0	5.189952169399637e+17
19223.0	5.1890486450148685e+17
19224.0	5.188124020484778e+17
19225.0	5.1872530536857594e+17
19226.0	5.186341713914538e+17
19227.0	5.1854316233468576e+17
19228.0	5.184546444847786e+17
19229.0	5.1836139035688954e+17
19230.0	5.18272016519441e+17
19231.0	5.1818087142741325e+17
19232.0	5.18090400010513e+17
19233.0	5.179952234233855e+17
19234.0	5.1790739399857485e+17
19235.0	5.178137854519977e+17
19236.0	5.177256302695763e+17
19237.0	5.1763265352499194e+17
19238.0	5.1753859709665274e+17
19239.0	5.1745233697068365e+17
19240.0	5.1735995483859616e+17
19241.0	5.172690288290473e+17
19242.0	5.1717648018309114e+17
19243.0	5.1707593446741325e+17
19244.0	5.1699659410418336e+17
19245.0	5.169057892401151e+17
19246.0	5.1681524735890746e+17
19247.0	5.1672361453922976e+17
19248.0	5.166322493161471e+17
19249.0	5.1653610636137805e+17
19250.0	5.164223702586709e+17
19251.0	5.1632786881467725e+17
19252.0	5.1624505144333645e+17
19253.0	5.161760020146858e+17
19254.0	5.1608695896801274e+17
19255.0	5.159798380516692e+17
19256.0	5.159032824266751e+17
19257.0	5.158124583387135e+17
19258.0	5.1572032688619514e+17
19259.0	5.156215417995264e+17
19260.0	5.155255250933076e+17
19261.0	5.1544323592465043e+17
19262.0	5.15346756936226e+17
19263.0	5.152548073766911e+17
19264.0	5.151626124503722e+17
19265.0	5.150719446701398e+17
19266.0	5.149811029661012e+17
19267.0	5.1489982322660685e+17
19268.0	5.1481015907341645e+17
19269.0	5.147205288940885e+17
19270.0	5.146280004506964e+17
19271.0	5.1453477344597325e+17
19272.0	5.1444765194977274e+17
19273.0	5.143470617045674e+17
19274.0	5.1423837079033165e+17
19275.0	5.1417922732905805e+17
19276.0	5.1408639647634765e+17
19277.0	5.139966664026794e+17
19278.0	5.139018420671828e+17
19279.0	5.1381284508794874e+17
19280.0	5.137227201904638e+17
19281.0	5.136314429079551e+17
19282.0	5.135409885478911e+17
19283.0	5.1344835377889274e+17
19284.0	5.13352507990562e+17
19285.0	5.13255702335761e+17
19286.0	5.1315017224901965e+17
19287.0	5.13029424877841e+17
19288.0	5.128394259824639e+17
19289.0	5.1272854829793274e+17
19290.0	5.1275230937961805e+17
19291.0	5.1267968996911795e+17
19292.0	5.126237720674304e+17
19293.0	5.125403927292585e+17
19294.0	5.1245216183965005e+17
19295.0	5.123652546024787e+17
19296.0	5.121945927068332e+17
19297.0	5.1217221455708154e+17
19298.0	5.120946671889066e+17
19299.0	5.119154464664235e+17
19300.0	5.119158063377067e+17
19301.0	5.1182627717119994e+17
19302.0	5.1173502246802765e+17
19303.0	5.1164036115114656e+17
19304.0	5.115536009942356e+17
19305.0	5.1146062131363834e+17
19306.0	5.1136976248285856e+17
19307.0	5.112737800301225e+17
19308.0	5.111814451538602e+17
19309.0	5.110857359600298e+17
19310.0	5.1098660931720525e+17
19311.0	5.1087977389315405e+17
19312.0	5.1075122812245325e+17
19313.0	5.105137168504149e+17
19314.0	5.088316100356781e+17
19315.0	5.08799765761229e+17
19316.0	5.101440889869654e+17
19317.0	5.1030218446820685e+17
19318.0	5.1025469488059725e+17
19319.0	5.101808515721898e+17
19320.0	5.100686943453183e+17
19321.0	5.0994175785915725e+17
19322.0	5.0992813993274016e+17
19323.0	5.098397198101162e+17
19324.0	5.0975072443869856e+17
19325.0	5.0966267005938336e+17
19326.0	5.095733627016532e+17
19327.0	5.0948423548927994e+17
19328.0	5.0924835412377606e+17
19329.0	5.0930530305529165e+17
19330.0	5.0921626084747936e+17
19331.0	5.0912328515147085e+17
19332.0	5.0903658769940474e+17
19333.0	5.089456642763434e+17
19334.0	5.088525167536809e+17
19335.0	5.08469603642027e+17
19336.0	5.086738637302442e+17
19337.0	5.085861832731306e+17
19338.0	5.084795672810836e+17
19339.0	5.084019777601535e+17
19340.0	5.083027227017215e+17
19341.0	5.081048031428609e+17
19342.0	5.080916076527616e+17
19343.0	5.0803178464433485e+17
19344.0	5.078238869760685e+17
19345.0	5.077754259177471e+17
19346.0	5.077331614542506e+17
19347.0	5.075264535003135e+17
19348.0	5.075853947262293e+17
19349.0	5.0749753712967674e+17
19350.0	5.0735520992460794e+17
19351.0	5.073197147881472e+17
19352.0	5.0708266586821946e+17
19353.0	5.0714591261709645e+17
19354.0	5.070571932308821e+17
19355.0	5.0695939254736205e+17
19356.0	5.068765939105792e+17
19357.0	5.0678691556666016e+17
19358.0	5.0669610776657914e+17
19359.0	5.0657278774913683e+17
19360.0	5.063969879709012e+17
19361.0	5.064246020800511e+17
19362.0	5.0633415988346874e+17
19363.0	5.062441046114303e+17
19364.0	5.061538157865641e+17
19365.0	5.0606255094715725e+17
19366.0	5.059708584984574e+17
19367.0	5.058808130830335e+17
19368.0	5.057903076922709e+17
19369.0	5.0569798805531296e+17
19370.0	5.056072015762772e+17
19371.0	5.0551200317876896e+17
19372.0	5.0542466385838086e+17
19373.0	5.053327777726464e+17
19374.0	5.052412836446207e+17
19375.0	5.051517379805182e+17
19376.0	5.0505997814333434e+17
19377.0	5.0496742285639674e+17
19378.0	5.0487561499443194e+17
19379.0	5.0478337735611725e+17
19380.0	5.046882938126335e+17
19381.0	5.045956922485419e+17
19382.0	5.0449754308826445e+17
19383.0	5.0440741658296314e+17
19384.0	5.043138744461993e+17
19385.0	5.042211745955839e+17
19386.0	5.0412596060924576e+17
19387.0	5.040279014167892e+17
19388.0	5.039246046571179e+17
19389.0	5.0381306553084576e+17
19390.0	5.0367173426326176e+17
19391.0	5.0345008046626125e+17
19392.0	5.0343364955996154e+17
19393.0	5.034160943704747e+17
19394.0	5.033471988727807e+17
19395.0	5.032195253075968e+17
19396.0	5.031597831094272e+17
19397.0	5.0307292795153056e+17
19398.0	5.0293330872893446e+17
19399.0	5.0281983113516365e+17
19400.0	5.027382950537899e+17
19401.0	5.0267805806755834e+17
19402.0	5.025806530467157e+17
19403.0	5.024788753241428e+17
19404.0	5.023759537449642e+17
19405.0	5.0227007056773114e+17
19406.0	5.0216589670918816e+17
19407.0	5.0200713873762976e+17
19408.0	5.0194449072564896e+17
19409.0	5.018389421140649e+17
19410.0	5.0173438545537696e+17
19411.0	5.016242266745513e+17
19412.0	5.015105409733973e+17
19413.0	5.0134340998266874e+17
19414.0	5.0127668370909856e+17
19415.0	5.0115530677288954e+17
19416.0	5.010209184765268e+17
19417.0	5.0090567214475936e+17
19418.0	5.007759776240981e+17
19419.0	5.0064282196377594e+17
19420.0	5.0050635573930656e+17
19421.0	5.003634939002879e+17
19422.0	5.002111344093867e+17
19423.0	5.000592509719893e+17
19424.0	4.998985244038485e+17
19425.0	4.997329466337961e+17
19426.0	4.9955429437931514e+17
19427.0	4.993669998313472e+17
19428.0	4.991674542806357e+17
19429.0	4.9895405767010976e+17
19430.0	4.9871923676446726e+17
19431.0	4.9847124525492896e+17
19432.0	4.9823912499172685e+17
19433.0	4.979625703418538e+17
19434.0	4.9765710784976205e+17
19435.0	4.973122579070974e+17
19436.0	4.969148333424639e+17
19437.0	4.9645178413820576e+17
19438.0	4.9575893614810445e+17
19439.0	4.95425367904529e+17
19440.0	4.9504562617603405e+17
19441.0	4.9450704175103994e+17
19442.0	4.938225184757077e+17
19443.0	4.930052577121621e+17
19444.0	4.9208283169641805e+17
19445.0	4.909366522150911e+17
19446.0	4.8959182672145043e+17
19447.0	4.8788205756306765e+17
19448.0	4.85691400126464e+17
19449.0	4.8265797042175994e+17
19450.0	4.774163126419453e+17
19451.0	4.7280568726978566e+17
19452.0	4.8039589027949216e+17
19453.0	4.839757013407061e+17
19454.0	4.8632745444420256e+17
19455.0	4.8802853300469754e+17
19456.0	4.892634480203092e+17
19457.0	4.89925135896849e+17
19458.0	4.8641269486496595e+17
19459.0	4.9010187568851686e+17
19460.0	4.9231970983826765e+17
19461.0	4.92999140319778e+17
19462.0	4.934692114879828e+17
19463.0	4.938409659334655e+17
19464.0	4.941411446510932e+17
19465.0	4.943713764289194e+17
19466.0	4.945725048400553e+17
19467.0	4.9474314618361165e+17
19468.0	4.948786166104064e+17
19469.0	4.948872891727871e+17
19470.0	4.950722949589674e+17
19471.0	4.9513931623191885e+17
19472.0	4.951914573026645e+17
19473.0	4.952297292780883e+17
19474.0	4.9514491982206266e+17
19475.0	4.952464595877887e+17
19476.0	4.952666485205674e+17
19477.0	4.9526677001557325e+17
19478.0	4.952580526440447e+17
19479.0	4.951396082952872e+17
19480.0	4.952155225412949e+17
19481.0	4.951844117807103e+17
19482.0	4.9515148174076576e+17
19483.0	4.951119825818964e+17
19484.0	4.9506637099390285e+17
19485.0	4.950182270249642e+17
19486.0	4.948597854437378e+17
19487.0	4.9491131190913696e+17
19488.0	4.9485222618944845e+17
19489.0	4.947838242914303e+17
19490.0	4.9471714862912845e+17
19491.0	4.9466338513169056e+17
19492.0	4.946073086853119e+17
19493.0	4.945407795440298e+17
19494.0	4.944673000215891e+17
19495.0	4.9438670318469114e+17
19496.0	4.942889480792746e+17
19497.0	4.941755251512661e+17
19498.0	4.9396718575288314e+17
19499.0	4.9379532813107194e+17
19500.0	4.939268693338794e+17
19501.0	4.939251201693012e+17
19502.0	4.938779842314239e+17
19503.0	4.9381515041177594e+17
19504.0	4.9374191178219514e+17
19505.0	4.9366210857751885e+17
19506.0	4.935879476903935e+17
19507.0	4.9349896413293216e+17
19508.0	4.933973255214421e+17
19509.0	4.9325497217187834e+17
19510.0	4.928800689924777e+17
19511.0	4.910312011246247e+17
19512.0	4.9252814228029434e+17
19513.0	4.9276341183665485e+17
19514.0	4.9276809072257696e+17
19515.0	4.928076717402794e+17
19516.0	4.927539584346794e+17
19517.0	4.9270786932517536e+17
19518.0	4.926080074907647e+17
19519.0	4.925320745801044e+17
19520.0	4.9237828210524134e+17
19521.0	4.924111545434111e+17
19522.0	4.92311204279091e+17
19523.0	4.922223933172395e+17
19524.0	4.92085943590366e+17
19525.0	4.9208467439397536e+17
19526.0	4.920054150507178e+17
19527.0	4.9192322437829965e+17
19528.0	4.918316055396351e+17
19529.0	4.917444141383679e+17
19530.0	4.9167653764683085e+17
19531.0	4.915930981903019e+17
19532.0	4.915095973571242e+17
19533.0	4.914254840856575e+17
19534.0	4.913429392741715e+17
19535.0	4.912578061576875e+17
19536.0	4.9117110905514656e+17
19537.0	4.9108734985284256e+17
19538.0	4.908996439834626e+17
19539.0	4.909157495515817e+17
19540.0	4.908340473058644e+17
19541.0	4.9072837020876794e+17
19542.0	4.9065841040643405e+17
19543.0	4.904748384430762e+17
19544.0	4.904888806233428e+17
19545.0	4.904018623769257e+17
19546.0	4.9031990917201914e+17
19547.0	4.902457190645759e+17
19548.0	4.901665087946751e+17
19549.0	4.9007615635619834e+17
19550.0	4.900010646831103e+17
19551.0	4.899189586657279e+17
19552.0	4.898344033845247e+17
19553.0	4.8975114092762445e+17
19554.0	4.896657847440725e+17
19555.0	4.895683925857622e+17
19556.0	4.894897375019007e+17
19557.0	4.894139598503936e+17
19558.0	4.893313641480192e+17
19559.0	4.892473958596607e+17
19560.0	4.891223460413438e+17
19561.0	4.8907725748305914e+17
19562.0	4.8895623363734176e+17
19563.0	4.8891159372977485e+17
19564.0	4.8882483902545914e+17
19565.0	4.887417234391038e+17
19566.0	4.8865604198727674e+17
19567.0	4.885739045126143e+17
19568.0	4.8848761873148576e+17
19569.0	4.8840405882852685e+17
19570.0	4.8832002035548154e+17
19571.0	4.882360178835455e+17
19572.0	4.8814978704779936e+17
19573.0	4.8805403577111885e+17
19574.0	4.8797162063353165e+17
19575.0	4.878995127184043e+17
19576.0	4.87808062141235e+17
19577.0	4.8770875255685114e+17
19578.0	4.8764600031641594e+17
19579.0	4.87560195552051e+17
19580.0	4.874757915454121e+17
19581.0	4.873920933702314e+17
19582.0	4.8730911535704736e+17
19583.0	4.87225236127744e+17
19584.0	4.8713929686603085e+17
19585.0	4.870465429088938e+17
19586.0	4.869598606961322e+17
19587.0	4.868838916445524e+17
19588.0	4.8679607410360314e+17
19589.0	4.8671312649912314e+17
19590.0	4.866270897897471e+17
19591.0	4.865479761985536e+17
19592.0	4.86465726456354e+17
19593.0	4.8636982362548896e+17
19594.0	4.862682677116927e+17
19595.0	4.862119109459968e+17
19596.0	4.8612583012652365e+17
19597.0	4.8604010372573856e+17
19598.0	4.859391006911147e+17
19599.0	4.8587010711661216e+17
19600.0	4.857889827760809e+17
19601.0	4.857027273337514e+17
19602.0	4.856182894930602e+17
19603.0	4.8553272590117536e+17
19604.0	4.8544872377876474e+17
19605.0	4.853550119824043e+17
19606.0	4.852850747594068e+17
19607.0	4.8520346108340896e+17
19608.0	4.851171269279743e+17
19609.0	4.8503341693883725e+17
19610.0	4.849014106576214e+17
19611.0	4.847914438361088e+17
19612.0	4.847835678419626e+17
19613.0	4.8469678168036685e+17
19614.0	4.846108049495381e+17
19615.0	4.8452733557364045e+17
19616.0	4.8438973409088864e+17
19617.0	4.842746010752341e+17
19618.0	4.842500948055381e+17
19619.0	4.841547228337493e+17
19620.0	4.84062283379507e+17
19621.0	4.8390423284722336e+17
19622.0	4.839347715746474e+17
19623.0	4.838466147145044e+17
19624.0	4.8375052390891514e+17
19625.0	4.8368263735104845e+17
19626.0	4.835943003455487e+17
19627.0	4.8350718199507616e+17
19628.0	4.834143518414166e+17
19629.0	4.8305814924602e+17
19630.0	4.832226122399743e+17
19631.0	4.831244261698219e+17
19632.0	4.830656345407486e+17
19633.0	4.829900680025428e+17
19634.0	4.82919701422626e+17
19635.0	4.828281552153257e+17
19636.0	4.8264000474972134e+17
19637.0	4.8253731672337056e+17
19638.0	4.825899056059732e+17
19639.0	4.8251131909898234e+17
19640.0	4.8240708700951885e+17
19641.0	4.823107225255934e+17
19642.0	4.82251548725521e+17
19643.0	4.821738073008811e+17
19644.0	4.820977726084437e+17
19645.0	4.820173183778815e+17
19646.0	4.818068858120872e+17
19647.0	4.8185110684849485e+17
19648.0	4.8177220367155194e+17
19649.0	4.816886295079594e+17
19650.0	4.8160627190224205e+17
19651.0	4.815230148280319e+17
19652.0	4.8143983353091405e+17
19653.0	4.8135634381264205e+17
19654.0	4.8127352371500365e+17
19655.0	4.8118960352133114e+17
