# Flux units: erg / (cm m2 s)
# Wavelength units: Angstrom
wave	flux
19000.0	5.7208592767385594e+17
19001.0	5.7196849128625485e+17
19002.0	5.718780020435625e+17
19003.0	5.717733492654079e+17
19004.0	5.7166946754013856e+17
19005.0	5.715629849269589e+17
19006.0	5.714599219298303e+17
19007.0	5.7135709975565645e+17
19008.0	5.712485502593705e+17
19009.0	5.7112836953866234e+17
19010.0	5.710045828349951e+17
19011.0	5.709329470586879e+17
19012.0	5.707820590694399e+17
19013.0	5.707348969870676e+17
19014.0	5.7062668303510176e+17
19015.0	5.705238864461822e+17
19016.0	5.704210863620094e+17
19017.0	5.7032103697230496e+17
19018.0	5.7021607311660365e+17
19019.0	5.701137680302079e+17
19020.0	5.700095536966313e+17
19021.0	5.6990784755684685e+17
19022.0	5.698037108178943e+17
19023.0	5.696938425625257e+17
19024.0	5.69587223634466e+17
19025.0	5.6948610728372896e+17
19026.0	5.693753930372436e+17
19027.0	5.692421927075839e+17
19028.0	5.691782748001619e+17
19029.0	5.690749204387156e+17
19030.0	5.689745194964308e+17
19031.0	5.6887070718689274e+17
19032.0	5.6876388455546874e+17
19033.0	5.686446790803455e+17
19034.0	5.68530531656226e+17
19035.0	5.682742770182825e+17
19036.0	5.6535757367541715e+17
19037.0	5.681107840270335e+17
19038.0	5.6811934816665594e+17
19039.0	5.6803536624680954e+17
19040.0	5.679378293850112e+17
19041.0	5.6783656154999456e+17
19042.0	5.675379185767761e+17
19043.0	5.676349178686121e+17
19044.0	5.675306554403498e+17
19045.0	5.674250684508841e+17
19046.0	5.6731964643737594e+17
19047.0	5.6721604936553805e+17
19048.0	5.6707061054614176e+17
19049.0	5.66610131331754e+17
19050.0	5.668799430787071e+17
19051.0	5.663884320265555e+17
19052.0	5.665146520556884e+17
19053.0	5.6658833660968954e+17
19054.0	5.6649819227859616e+17
19055.0	5.663162433011712e+17
19056.0	5.662764419426985e+17
19057.0	5.6619469272077645e+17
19058.0	5.658915428980049e+17
19059.0	5.65914481476676e+17
19060.0	5.6588603689533434e+17
19061.0	5.6578464476910925e+17
19062.0	5.65682531082786e+17
19063.0	5.6557956637218125e+17
19064.0	5.6546675035996154e+17
19065.0	5.653565352356522e+17
19066.0	5.651943864489301e+17
19067.0	5.651683394715648e+17
19068.0	5.650677201458517e+17
19069.0	5.6496525700410016e+17
19070.0	5.648598322642943e+17
19071.0	5.6475709586363725e+17
19072.0	5.645831806560937e+17
19073.0	5.6455514781559456e+17
19074.0	5.6445302986506234e+17
19075.0	5.64350524989986e+17
19076.0	5.6424667192579405e+17
19077.0	5.641433072883028e+17
19078.0	5.640384800970068e+17
19079.0	5.639405513474047e+17
19080.0	5.6383690163705165e+17
19081.0	5.63730079355153e+17
19082.0	5.636302807848277e+17
19083.0	5.635197269005653e+17
19084.0	5.634035694261588e+17
19085.0	5.6332020336994976e+17
19086.0	5.630653287978324e+17
19087.0	5.629088005881853e+17
19088.0	5.628803465696595e+17
19089.0	5.6286912484911776e+17
19090.0	5.627986871058431e+17
19091.0	5.626894230399659e+17
19092.0	5.624387468263427e+17
19093.0	5.6250562430457165e+17
19094.0	5.624066485867862e+17
19095.0	5.623055965487103e+17
19096.0	5.622028684667561e+17
19097.0	5.62101822300706e+17
19098.0	5.619170321716564e+17
19099.0	5.617984076076374e+17
19100.0	5.6178904235595085e+17
19101.0	5.61690342134033e+17
19102.0	5.6158101354577914e+17
19103.0	5.6148979302618445e+17
19104.0	5.613879214910122e+17
19105.0	5.611026204590084e+17
19106.0	5.6117295677003085e+17
19107.0	5.610283511491241e+17
19108.0	5.608914045370368e+17
19109.0	5.607559964655615e+17
19110.0	5.6072975473268045e+17
19111.0	5.606144670870185e+17
19112.0	5.6050891050625683e+17
19113.0	5.6047127816219296e+17
19114.0	5.603329936370345e+17
19115.0	5.602510412709887e+17
19116.0	5.6016375696588794e+17
19117.0	5.600586772774911e+17
19118.0	5.599294134419456e+17
19119.0	5.5902156598804365e+17
19120.0	5.597222123077631e+17
19121.0	5.5963554246819834e+17
19122.0	5.595575439327231e+17
19123.0	5.594577769594879e+17
19124.0	5.593368318967807e+17
19125.0	5.59252865356049e+17
19126.0	5.591411199399254e+17
19127.0	5.5889259666254496e+17
19128.0	5.589291682671273e+17
19129.0	5.58839573319953e+17
19130.0	5.5874769093918714e+17
19131.0	5.586483568181247e+17
19132.0	5.585470836703231e+17
19133.0	5.584407493956949e+17
19134.0	5.5834103163562656e+17
19135.0	5.5824303752478714e+17
19136.0	5.581418682559145e+17
19137.0	5.580286956579498e+17
19138.0	5.5793785626077856e+17
19139.0	5.578396308340735e+17
19140.0	5.5773904170734925e+17
19141.0	5.5763787334724256e+17
19142.0	5.5753327817086285e+17
19143.0	5.5743113820023456e+17
19144.0	5.573298794528767e+17
19145.0	5.572332879172947e+17
19146.0	5.570625856864256e+17
19147.0	5.570243821480617e+17
19148.0	5.568653779708586e+17
19149.0	5.567529502812842e+17
19150.0	5.5672856942127776e+17
19151.0	5.5662717156283725e+17
19152.0	5.565224148358484e+17
19153.0	5.562871213020497e+17
19154.0	5.5630115201788576e+17
19155.0	5.562181933684052e+17
19156.0	5.561146939539455e+17
19157.0	5.559506169058646e+17
19158.0	5.55759575166703e+17
19159.0	5.5579573761693005e+17
19160.0	5.5570272102645754e+17
19161.0	5.5558478265057274e+17
19162.0	5.5532256671825914e+17
19163.0	5.553425245448873e+17
19164.0	5.553001944405332e+17
19165.0	5.550584203575293e+17
19166.0	5.550933739394389e+17
19167.0	5.549927302168575e+17
19168.0	5.5490553825634976e+17
19169.0	5.548090122218154e+17
19170.0	5.547098216857599e+17
19171.0	5.546039187952981e+17
19172.0	5.5450632356276896e+17
19173.0	5.5441064163191456e+17
19174.0	5.543073908697771e+17
19175.0	5.5421158954106874e+17
19176.0	5.5411109541533e+17
19177.0	5.5399208763173536e+17
19178.0	5.5389876674450765e+17
19179.0	5.5379594869473274e+17
19180.0	5.537057198484137e+17
19181.0	5.535963161122132e+17
19182.0	5.535048085624149e+17
19183.0	5.5340999632049485e+17
19184.0	5.5330990358964896e+17
19185.0	5.5320816081960954e+17
19186.0	5.5310899943396685e+17
19187.0	5.530004978925567e+17
19188.0	5.5290660399349754e+17
19189.0	5.5280519620853754e+17
19190.0	5.5270275438783136e+17
19191.0	5.525971511104854e+17
19192.0	5.5249871715696634e+17
19193.0	5.5237548431114234e+17
19194.0	5.5225685625186976e+17
19195.0	5.521748247532885e+17
19196.0	5.5204872754735776e+17
19197.0	5.51890978935057e+17
19198.0	5.515811259853483e+17
19199.0	5.502457827644755e+17
19200.0	5.503188743837013e+17
19201.0	5.513098059666773e+17
19202.0	5.5139940916264954e+17
19203.0	5.513471749783551e+17
19204.0	5.512750289649662e+17
19205.0	5.511889278031189e+17
19206.0	5.5109618356278605e+17
19207.0	5.509860763718996e+17
19208.0	5.5088422119451296e+17
19209.0	5.508059023540223e+17
19210.0	5.50707629531682e+17
19211.0	5.506102322003967e+17
19212.0	5.5050866363378336e+17
19213.0	5.50389785174562e+17
19214.0	5.502854347358207e+17
19215.0	5.5020421113009485e+17
19216.0	5.5011202801773216e+17
19217.0	5.5000794314833914e+17
19218.0	5.4984881384106656e+17
19219.0	5.4979222058653005e+17
19220.0	5.4971152874864634e+17
19221.0	5.4959481720668154e+17
19222.0	5.49513184935936e+17
19223.0	5.4941820478204576e+17
19224.0	5.4931538785075194e+17
19225.0	5.4921140322522445e+17
19226.0	5.491203407609855e+17
19227.0	5.490222641621673e+17
19228.0	5.489259068085589e+17
19229.0	5.488265622017365e+17
19230.0	5.48726714208529e+17
19231.0	5.4862674646794234e+17
19232.0	5.4852770727635616e+17
19233.0	5.484218923963731e+17
19234.0	5.4832898527723514e+17
19235.0	5.4822765739376634e+17
19236.0	5.48131995525666e+17
19237.0	5.480310767266473e+17
19238.0	5.4792271261859834e+17
19239.0	5.4783459504510285e+17
19240.0	5.4773595144628896e+17
19241.0	5.4763478063950496e+17
19242.0	5.4753626734373536e+17
19243.0	5.4742157032598176e+17
19244.0	5.4734009051818656e+17
19245.0	5.47240326271249e+17
19246.0	5.4714079522761363e+17
19247.0	5.470417909885609e+17
19248.0	5.4694322736114336e+17
19249.0	5.4683860107700896e+17
19250.0	5.4671439997610656e+17
19251.0	5.4660771379937254e+17
19252.0	5.4651561373422925e+17
19253.0	5.464466115614036e+17
19254.0	5.4635011719386445e+17
19255.0	5.462300193805652e+17
19256.0	5.461508331580073e+17
19257.0	5.460533488648192e+17
19258.0	5.4595429925737805e+17
19259.0	5.458438577105577e+17
19260.0	5.456738462116521e+17
19261.0	5.4565358059301536e+17
19262.0	5.455488370780843e+17
19263.0	5.454445550764031e+17
19264.0	5.453089126831444e+17
19265.0	5.452389345656831e+17
19266.0	5.451331733727913e+17
19267.0	5.450647964308819e+17
19268.0	5.449659410197162e+17
19269.0	5.4486731203106125e+17
19270.0	5.4476494990213114e+17
19271.0	5.4463954957981005e+17
19272.0	5.445664771844777e+17
19273.0	5.444462777991166e+17
19274.0	5.443279835365374e+17
19275.0	5.44275065610786e+17
19276.0	5.4417438630652576e+17
19277.0	5.4407629600631456e+17
19278.0	5.4397323685396474e+17
19279.0	5.43874840928802e+17
19280.0	5.437727658999807e+17
19281.0	5.4367762125946874e+17
19282.0	5.4357840164290554e+17
19283.0	5.434710560516779e+17
19284.0	5.4337017570044576e+17
19285.0	5.4326773297097376e+17
19286.0	5.431670865919999e+17
19287.0	5.430404216171179e+17
19288.0	5.419131538330958e+17
19289.0	5.409464064671724e+17
19290.0	5.4273461728925005e+17
19291.0	5.426513950976683e+17
19292.0	5.42590770417937e+17
19293.0	5.424959616013652e+17
19294.0	5.42396701160243e+17
19295.0	5.4230232952995834e+17
19296.0	5.421144997188951e+17
19297.0	5.420866662476458e+17
19298.0	5.4200448459298125e+17
19299.0	5.418079713143467e+17
19300.0	5.4180842506813434e+17
19301.0	5.417119469185706e+17
19302.0	5.4161171130176845e+17
19303.0	5.4150541785169914e+17
19304.0	5.4141320719674016e+17
19305.0	5.413139306774526e+17
19306.0	5.412137865663828e+17
19307.0	5.41107024892177e+17
19308.0	5.410041710510079e+17
19309.0	5.4085968287061325e+17
19310.0	5.4074098756266656e+17
19311.0	5.4068731466219514e+17
19312.0	5.405946095686996e+17
19313.0	5.404465503578793e+17
19314.0	5.340417353230998e+17
19315.0	5.3447844436815334e+17
19316.0	5.4002716539617306e+17
19317.0	5.4010287607862605e+17
19318.0	5.400197560183466e+17
19319.0	5.399289805144064e+17
19320.0	5.3979624092904083e+17
19321.0	5.3965262131909965e+17
19322.0	5.396225252305578e+17
19323.0	5.3951923182632954e+17
19324.0	5.3942257213330765e+17
19325.0	5.3930718864779936e+17
19326.0	5.392304078585856e+17
19327.0	5.391393750340947e+17
19328.0	5.388837831660886e+17
19329.0	5.389479795053908e+17
19330.0	5.388469265585491e+17
19331.0	5.387452756437674e+17
19332.0	5.38651491565568e+17
19333.0	5.385502621783379e+17
19334.0	5.3845031925405005e+17
19335.0	5.380275102023683e+17
19336.0	5.3825147792698016e+17
19337.0	5.381559402801835e+17
19338.0	5.380340067598335e+17
19339.0	5.3795565981750605e+17
19340.0	5.378374552431274e+17
19341.0	5.376262213555542e+17
19342.0	5.375871105892352e+17
19343.0	5.375534159276715e+17
19344.0	5.3732925246887264e+17
19345.0	5.371210720346111e+17
19346.0	5.371362952609791e+17
19347.0	5.3699294653317114e+17
19348.0	5.3705588395212794e+17
19349.0	5.369527270025897e+17
19350.0	5.367948564059476e+17
19351.0	5.3675101614243834e+17
19352.0	5.364851319417511e+17
19353.0	5.3655627390866765e+17
19354.0	5.364562557665279e+17
19355.0	5.3634436403909965e+17
19356.0	5.3625387458669216e+17
19357.0	5.361526661709823e+17
19358.0	5.360488189089108e+17
19359.0	5.3590762220858e+17
19360.0	5.357139696549887e+17
19361.0	5.357402724848979e+17
19362.0	5.356416533528575e+17
19363.0	5.3553938140146336e+17
19364.0	5.354366322780842e+17
19365.0	5.353333532742996e+17
19366.0	5.3523043875553274e+17
19367.0	5.3512616835809274e+17
19368.0	5.3502311682539514e+17
19369.0	5.349127105806336e+17
19370.0	5.348102905004032e+17
19371.0	5.3470382843931296e+17
19372.0	5.3460419051083085e+17
19373.0	5.344966730230442e+17
19374.0	5.3439309426633376e+17
19375.0	5.342842122316457e+17
19376.0	5.3417823789820576e+17
19377.0	5.340699322307924e+17
19378.0	5.3396242956288e+17
19379.0	5.338541491311955e+17
19380.0	5.337446081014442e+17
19381.0	5.336353254408191e+17
19382.0	5.3351671639572474e+17
19383.0	5.3340572951947936e+17
19384.0	5.332966191748436e+17
19385.0	5.331859114295294e+17
19386.0	5.330722320198313e+17
19387.0	5.32955837637154e+17
19388.0	5.3283703083062605e+17
19389.0	5.327085574116692e+17
19390.0	5.325224909559124e+17
19391.0	5.298174027628517e+17
19392.0	5.320253777816232e+17
19393.0	5.322113421759828e+17
19394.0	5.321107364817579e+17
19395.0	5.3194185129328646e+17
19396.0	5.318518905328981e+17
19397.0	5.317412147341994e+17
19398.0	5.315645574305109e+17
19399.0	5.3135623418019834e+17
19400.0	5.312841520600405e+17
19401.0	5.3120503797951136e+17
19402.0	5.310652520333311e+17
19403.0	5.309198672505515e+17
19404.0	5.307800127974058e+17
19405.0	5.306326864013993e+17
19406.0	5.304846130697556e+17
19407.0	5.302749379952638e+17
19408.0	5.301049852865194e+17
19409.0	5.300026198720511e+17
19410.0	5.2984372621475834e+17
19411.0	5.296730077659135e+17
19412.0	5.2949439850304845e+17
19413.0	5.292539708615338e+17
19414.0	5.2911066421657594e+17
19415.0	5.289088569573375e+17
19416.0	5.286741672635049e+17
19417.0	5.284641933448532e+17
19418.0	5.28257037439249e+17
19419.0	5.2802607962740045e+17
19420.0	5.2776523509268474e+17
19421.0	5.275001066356735e+17
19422.0	5.272034255481513e+17
19423.0	5.268953529406804e+17
19424.0	5.265581931844947e+17
19425.0	5.2621061890157216e+17
19426.0	5.258182410633214e+17
19427.0	5.254167580901375e+17
19428.0	5.2497646459289594e+17
19429.0	5.244957692526591e+17
19430.0	5.238453327364096e+17
19431.0	5.2304313917112326e+17
19432.0	5.22873516274483e+17
19433.0	5.222437037801472e+17
19434.0	5.215318786615978e+17
19435.0	5.2062614688453965e+17
19436.0	5.1961112321938765e+17
19437.0	5.186943344880297e+17
19438.0	5.126291722338311e+17
19439.0	5.155900112590164e+17
19440.0	5.14899190166323e+17
19441.0	5.1329505728047763e+17
19442.0	5.1135042932790605e+17
19443.0	5.090350601338879e+17
19444.0	5.062512643582632e+17
19445.0	5.028703734071297e+17
19446.0	4.9859100577628154e+17
19447.0	4.929306063011837e+17
19448.0	4.850527713449304e+17
19449.0	4.728152380495187e+17
19450.0	4.4782792090146e+17
19451.0	4.2744061145470483e+17
19452.0	4.6314649442495174e+17
19453.0	4.795517429088261e+17
19454.0	4.8897167098292864e+17
19455.0	4.95309033570304e+17
19456.0	4.999959119484246e+17
19457.0	5.034251586808489e+17
19458.0	4.8828207420760006e+17
19459.0	5.074826830020646e+17
19460.0	5.1068765694416205e+17
19461.0	5.1234108814131194e+17
19462.0	5.1372881479379616e+17
19463.0	5.149360280393044e+17
19464.0	5.1596467326593683e+17
19465.0	5.168396664569855e+17
19466.0	5.1759345754439654e+17
19467.0	5.1821877080883194e+17
19468.0	5.1878092855050234e+17
19469.0	5.1912550754112826e+17
19470.0	5.1968855825012045e+17
19471.0	5.200503442330966e+17
19472.0	5.2037071090483194e+17
19473.0	5.2064776984985594e+17
19474.0	5.207805235560446e+17
19475.0	5.210552051695615e+17
19476.0	5.2132615923520845e+17
19477.0	5.215056218991273e+17
19478.0	5.216713468193451e+17
19479.0	5.2168320285846163e+17
19480.0	5.219123372665513e+17
19481.0	5.219901016899583e+17
19482.0	5.22070569202483e+17
19483.0	5.221285806211071e+17
19484.0	5.221643827107156e+17
19485.0	5.221989718076074e+17
19486.0	5.2209908837253146e+17
19487.0	5.222311015743487e+17
19488.0	5.222396552282111e+17
19489.0	5.2220298967121914e+17
19490.0	5.2210094847645005e+17
19491.0	5.222057109356543e+17
19492.0	5.2219359324187296e+17
19493.0	5.221705659536723e+17
19494.0	5.2213565158850554e+17
19495.0	5.2209133275490976e+17
19496.0	5.219950230765567e+17
19497.0	5.2194150131083936e+17
19498.0	5.210687147431251e+17
19499.0	5.177267885266251e+17
19500.0	5.2174668518741325e+17
19501.0	5.217939730290005e+17
19502.0	5.2175725860836685e+17
19503.0	5.2171342959957325e+17
19504.0	5.216615232001364e+17
19505.0	5.215964073994922e+17
19506.0	5.215355372131668e+17
19507.0	5.2146936479743994e+17
19508.0	5.2139831999856634e+17
19509.0	5.2130287728285005e+17
19510.0	5.2105934648552083e+17
19511.0	5.1092947625573645e+17
19512.0	5.200170082544292e+17
19513.0	5.1971716801713363e+17
19514.0	5.1992312498093984e+17
19515.0	5.208134710023509e+17
19516.0	5.2080226354244243e+17
19517.0	5.207503063220223e+17
19518.0	5.206511099838462e+17
19519.0	5.205745465294846e+17
19520.0	5.204155299790846e+17
19521.0	5.204604011326121e+17
19522.0	5.203588082390356e+17
19523.0	5.2026877575604915e+17
19524.0	5.2012937037305184e+17
19525.0	5.201353456484351e+17
19526.0	5.2005769698781856e+17
19527.0	5.199743886032894e+17
19528.0	5.198822180738388e+17
19529.0	5.1979504778390195e+17
19530.0	5.197280457348436e+17
19531.0	5.196440815009792e+17
19532.0	5.1955964086408525e+17
19533.0	5.19474869506321e+17
19534.0	5.193895210123264e+17
19535.0	5.193019470206294e+17
19536.0	5.192139549966334e+17
19537.0	5.1913080865204896e+17
19538.0	5.189155425004203e+17
19539.0	5.189141295792128e+17
19540.0	5.188703543973204e+17
19541.0	5.1876040658998605e+17
19542.0	5.1868878290725536e+17
19543.0	5.184929008713728e+17
19544.0	5.185153949237247e+17
19545.0	5.1837605189604685e+17
19546.0	5.182686130514603e+17
19547.0	5.1826097151890765e+17
19548.0	5.1817727250486605e+17
19549.0	5.180788693095764e+17
19550.0	5.180020397965311e+17
19551.0	5.179140137287679e+17
19552.0	5.178254075887615e+17
19553.0	5.177343836422143e+17
19554.0	5.1764451956053325e+17
19555.0	5.175438966696619e+17
19556.0	5.174601348808702e+17
19557.0	5.1737983451135994e+17
19558.0	5.1729229204684794e+17
19559.0	5.172038980687188e+17
19560.0	5.170689684275198e+17
19561.0	5.1702258159233696e+17
19562.0	5.168925746659327e+17
19563.0	5.1684712239158605e+17
19564.0	5.167576949369513e+17
19565.0	5.1666812061177165e+17
19566.0	5.165758489995946e+17
19567.0	5.164885965012992e+17
19568.0	5.163967162176853e+17
19569.0	5.1630733483048954e+17
19570.0	5.162183271557803e+17
19571.0	5.16128833081617e+17
19572.0	5.1603613511843834e+17
19573.0	5.1593375397533e+17
19574.0	5.1584452365298336e+17
19575.0	5.157705917049513e+17
19576.0	5.156719920065193e+17
19577.0	5.155653301567488e+17
19578.0	5.154964611530751e+17
19579.0	5.154070021013502e+17
19580.0	5.153171206133076e+17
19581.0	5.1522875340881914e+17
19582.0	5.151399810345641e+17
19583.0	5.1504974862308685e+17
19584.0	5.149577841038676e+17
19585.0	5.148554552497492e+17
19586.0	5.147597321448107e+17
19587.0	5.146783739019262e+17
19588.0	5.1455409157133645e+17
19589.0	5.1450131716068685e+17
19590.0	5.1440256262253216e+17
19591.0	5.143261513515007e+17
19592.0	5.1423711054178976e+17
19593.0	5.14133294457378e+17
19594.0	5.140177708122111e+17
19595.0	5.139638679240703e+17
19596.0	5.138591297219242e+17
19597.0	5.137832470730068e+17
19598.0	5.136426213572606e+17
19599.0	5.136024540457642e+17
19600.0	5.1351403860677965e+17
19601.0	5.134162881150974e+17
19602.0	5.133199829106687e+17
19603.0	5.1318865317068794e+17
19604.0	5.131357589427541e+17
19605.0	5.130309309125974e+17
19606.0	5.129706151433557e+17
19607.0	5.12882112532753e+17
19608.0	5.1279025776448845e+17
19609.0	5.1269671017512954e+17
19610.0	5.125542264526166e+17
19611.0	5.1243732162314234e+17
19612.0	5.124306280032938e+17
19613.0	5.123389621185194e+17
19614.0	5.122450129245525e+17
19615.0	5.121555396820992e+17
19616.0	5.119885454955862e+17
19617.0	5.118891202183168e+17
19618.0	5.118156056734377e+17
19619.0	5.1170008629248e+17
19620.0	5.116113027334142e+17
19621.0	5.114923566759934e+17
19622.0	5.115236227656361e+17
19623.0	5.114265278436692e+17
19624.0	5.113217839792128e+17
19625.0	5.112490792146259e+17
19626.0	5.111538858502825e+17
19627.0	5.110504372568062e+17
19628.0	5.109164085521066e+17
19629.0	5.1050731480459923e+17
19630.0	5.1023948102150803e+17
19631.0	5.09279748419311e+17
19632.0	5.104585254720853e+17
19633.0	5.104754318726485e+17
19634.0	5.104224213226836e+17
19635.0	5.103250078433279e+17
19636.0	5.1012346510486163e+17
19637.0	5.100049520394239e+17
19638.0	5.100701236942163e+17
19639.0	5.099898270296745e+17
19640.0	5.0988105852081485e+17
19641.0	5.0968757080337075e+17
19642.0	5.097109254569983e+17
19643.0	5.0962118699472205e+17
19644.0	5.0953352079824205e+17
19645.0	5.094293938459987e+17
19646.0	5.092210778658131e+17
19647.0	5.092721037410304e+17
19648.0	5.0918432185166496e+17
19649.0	5.0909429642909e+17
19650.0	5.090049790050304e+17
19651.0	5.0891460335807136e+17
19652.0	5.0882460932287136e+17
19653.0	5.0873422374939296e+17
19654.0	5.0864481880418976e+17
19655.0	5.085546072943274e+17
19656.0	5.0846539612596896e+17
