# Flux units: erg / (cm m2 s)
# Wavelength units: Angstrom
wave	flux
19000.0	6.550692117697876e+17
19001.0	6.548775444501843e+17
19002.0	6.548322946209108e+17
19003.0	6.5470957893277e+17
19004.0	6.545914395798185e+17
19005.0	6.544654505869311e+17
19006.0	6.543444903548244e+17
19007.0	6.542214540121428e+17
19008.0	6.540719516811263e+17
19009.0	6.538715068017321e+17
19010.0	6.537107657632425e+17
19011.0	6.53706336018978e+17
19012.0	6.535579806203901e+17
19013.0	6.53503710171409e+17
19014.0	6.533487462973437e+17
19015.0	6.532411954648404e+17
19016.0	6.531461616937642e+17
19017.0	6.530269733453823e+17
19018.0	6.529071986333011e+17
19019.0	6.527903995701929e+17
19020.0	6.526662592866985e+17
19021.0	6.525601519938217e+17
19022.0	6.524375011076778e+17
19023.0	6.522905833067859e+17
19024.0	6.521842210701311e+17
19025.0	6.520725956111017e+17
19026.0	6.519510957118803e+17
19027.0	6.518345845178367e+17
19028.0	6.517148330841427e+17
19029.0	6.515868239047338e+17
19030.0	6.51486242747187e+17
19031.0	6.513676398537385e+17
19032.0	6.512402894596777e+17
19033.0	6.510414660283049e+17
19034.0	6.509441053272746e+17
19035.0	6.506106642410153e+17
19036.0	6.496484133087913e+17
19037.0	6.504305464967167e+17
19038.0	6.504675968111956e+17
19039.0	6.503936553560746e+17
19040.0	6.502890000613373e+17
19041.0	6.501715027864234e+17
19042.0	6.499570634020179e+17
19043.0	6.499386789986303e+17
19044.0	6.498138904155475e+17
19045.0	6.496951575685801e+17
19046.0	6.495480358546089e+17
19047.0	6.494199801883306e+17
19048.0	6.492682187352746e+17
19049.0	6.490738714651304e+17
19050.0	6.490251683954687e+17
19051.0	6.487945636042067e+17
19052.0	6.487553270786729e+17
19053.0	6.487210180913833e+17
19054.0	6.486177457285801e+17
19055.0	6.48314956825669e+17
19056.0	6.483714923386195e+17
19057.0	6.482736514596863e+17
19058.0	6.481131141245609e+17
19059.0	6.480231013548031e+17
19060.0	6.479187918804307e+17
19061.0	6.478031631679487e+17
19062.0	6.476793482925398e+17
19063.0	6.475577570273961e+17
19064.0	6.47398549286639e+17
19065.0	6.472173096359254e+17
19066.0	6.471470464456019e+17
19067.0	6.470820134824617e+17
19068.0	6.469739189283497e+17
19069.0	6.46855996281105e+17
19070.0	6.467229166774953e+17
19071.0	6.466159675878057e+17
19072.0	6.464885049961129e+17
19073.0	6.463813293441023e+17
19074.0	6.46265909158434e+17
19075.0	6.461467029842601e+17
19076.0	6.460241733135017e+17
19077.0	6.458982918346067e+17
19078.0	6.457684576436223e+17
19079.0	6.456698656347476e+17
19080.0	6.455430789551444e+17
19081.0	6.453964907566419e+17
19082.0	6.453074512751274e+17
19083.0	6.451230589758121e+17
19084.0	6.449090764909225e+17
19085.0	6.449468842267988e+17
19086.0	6.445445241547433e+17
19087.0	6.446793957048319e+17
19088.0	6.445261967938899e+17
19089.0	6.443474058477572e+17
19090.0	6.443404823800489e+17
19091.0	6.442322543072596e+17
19092.0	6.440569916096512e+17
19093.0	6.44010401141009e+17
19094.0	6.438938807894015e+17
19095.0	6.437784334805672e+17
19096.0	6.436584384976211e+17
19097.0	6.435411824650921e+17
19098.0	6.434058309468159e+17
19099.0	6.432837864871252e+17
19100.0	6.431780928225279e+17
19101.0	6.43053383581696e+17
19102.0	6.429109632630783e+17
19103.0	6.428243345975978e+17
19104.0	6.427144995471359e+17
19105.0	6.425561944905044e+17
19106.0	6.424723712551594e+17
19107.0	6.423374399362388e+17
19108.0	6.422124990300159e+17
19109.0	6.42091710554658e+17
19110.0	6.419838113153023e+17
19111.0	6.418660923714218e+17
19112.0	6.417521812963327e+17
19113.0	6.416448652050431e+17
19114.0	6.415154000429055e+17
19115.0	6.413785652789247e+17
19116.0	6.412594629836799e+17
19117.0	6.411165311696895e+17
19118.0	6.407297165164544e+17
19119.0	6.381816480355648e+17
19120.0	6.406356742089385e+17
19121.0	6.406573742795434e+17
19122.0	6.40566936277265e+17
19123.0	6.404509742574249e+17
19124.0	6.403116285733546e+17
19125.0	6.401756718869161e+17
19126.0	6.399380576447146e+17
19127.0	6.394499121719978e+17
19128.0	6.39676757189154e+17
19129.0	6.39645219238707e+17
19130.0	6.39613745111586e+17
19131.0	6.395197878785364e+17
19132.0	6.394069055264086e+17
19133.0	6.392640684337833e+17
19134.0	6.391696576566612e+17
19135.0	6.390554831093759e+17
19136.0	6.38932850188834e+17
19137.0	6.387880377887401e+17
19138.0	6.386902840115197e+17
19139.0	6.385901016623786e+17
19140.0	6.384774513950719e+17
19141.0	6.3836101555869e+17
19142.0	6.382227589256532e+17
19143.0	6.381081458638847e+17
19144.0	6.379759903353514e+17
19145.0	6.378856419513684e+17
19146.0	6.37327667398793e+17
19147.0	6.376324152513876e+17
19148.0	6.375222629018282e+17
19149.0	6.374038263125334e+17
19150.0	6.373037232357375e+17
19151.0	6.371832627549524e+17
19152.0	6.370644697197225e+17
19153.0	6.369001766649855e+17
19154.0	6.368025691291648e+17
19155.0	6.367018419399337e+17
19156.0	6.365904102577492e+17
19157.0	6.364600841448106e+17
19158.0	6.3632502175389e+17
19159.0	6.362298700529663e+17
19160.0	6.361064703437482e+17
19161.0	6.359828159703721e+17
19162.0	6.358415346150057e+17
19163.0	6.357418174840831e+17
19164.0	6.356449485651967e+17
19165.0	6.354966985834493e+17
19166.0	6.353793984408233e+17
19167.0	6.352935153128788e+17
19168.0	6.351884283543551e+17
19169.0	6.350742408746324e+17
19170.0	6.349627826285225e+17
19171.0	6.34842905575424e+17
19172.0	6.347249686675455e+17
19173.0	6.346104071258111e+17
19174.0	6.344792474648576e+17
19175.0	6.343722787318442e+17
19176.0	6.342586827887956e+17
19177.0	6.340375000121341e+17
19178.0	6.34027093594385e+17
19179.0	6.339089132770644e+17
19180.0	6.337829437177855e+17
19181.0	6.336285966860287e+17
19182.0	6.335345122257577e+17
19183.0	6.334417569404244e+17
19184.0	6.333256511258623e+17
19185.0	6.33202436804881e+17
19186.0	6.330919675057492e+17
19187.0	6.329227462836223e+17
19188.0	6.328543751438335e+17
19189.0	6.32735673614336e+17
19190.0	6.326166199730176e+17
19191.0	6.32472414069282e+17
19192.0	6.32371822006545e+17
19193.0	6.322369012432895e+17
19194.0	6.320923857300138e+17
19195.0	6.319700996085076e+17
19196.0	6.318101336074921e+17
19197.0	6.316358660085076e+17
19198.0	6.314007187161087e+17
19199.0	6.310441184307881e+17
19200.0	6.30971624010547e+17
19201.0	6.310639229556052e+17
19202.0	6.310598521039529e+17
19203.0	6.310003844229801e+17
19204.0	6.309162030639785e+17
19205.0	6.308147863311702e+17
19206.0	6.307119473797802e+17
19207.0	6.305114516094973e+17
19208.0	6.304334040705705e+17
19209.0	6.303749550462291e+17
19210.0	6.302738400935935e+17
19211.0	6.301716024655871e+17
19212.0	6.300508502709587e+17
19213.0	6.298667596819112e+17
19214.0	6.297843562184703e+17
19215.0	6.296921905124692e+17
19216.0	6.295655333669545e+17
19217.0	6.293928371639636e+17
19218.0	6.291525923941033e+17
19219.0	6.290372535779325e+17
19220.0	6.290587971310932e+17
19221.0	6.289233766864212e+17
19222.0	6.288453213181268e+17
19223.0	6.287474800896682e+17
19224.0	6.286159890087935e+17
19225.0	6.285154323879252e+17
19226.0	6.284082481375913e+17
19227.0	6.283020560498687e+17
19228.0	6.282070350714195e+17
19229.0	6.280923698604714e+17
19230.0	6.279754498615977e+17
19231.0	6.278523105487529e+17
19232.0	6.277428048210601e+17
19233.0	6.275865874792445e+17
19234.0	6.275073190483284e+17
19235.0	6.273697400750079e+17
19236.0	6.272809345657514e+17
19237.0	6.271581090567508e+17
19238.0	6.269975619349161e+17
19239.0	6.269343864892073e+17
19240.0	6.268183990938281e+17
19241.0	6.266896176731476e+17
19242.0	6.265765908971519e+17
19243.0	6.263495704881833e+17
19244.0	6.263566808820394e+17
19245.0	6.262351151322452e+17
19246.0	6.261200908189695e+17
19247.0	6.259977556241066e+17
19248.0	6.258905908772864e+17
19249.0	6.257728206230868e+17
19250.0	6.256396692968788e+17
19251.0	6.2547251761425e+17
19252.0	6.251979328192512e+17
19253.0	6.252951690193577e+17
19254.0	6.251923031545172e+17
19255.0	6.249281484750844e+17
19256.0	6.249495818578602e+17
19257.0	6.248411741290495e+17
19258.0	6.247253796017491e+17
19259.0	6.245444953483945e+17
19260.0	6.244475164688383e+17
19261.0	6.243531793716564e+17
19262.0	6.241901846637226e+17
19263.0	6.240351595528191e+17
19264.0	6.238084558837076e+17
19265.0	6.23765867270417e+17
19266.0	6.236615889737044e+17
19267.0	6.236566410231805e+17
19268.0	6.235426069151743e+17
19269.0	6.234212945013417e+17
19270.0	6.232731381224787e+17
19271.0	6.230911738358442e+17
19272.0	6.230431032672255e+17
19273.0	6.228133253829972e+17
19274.0	6.225602572277071e+17
19275.0	6.227312510326099e+17
19276.0	6.226054412064083e+17
19277.0	6.224919392856745e+17
19278.0	6.223743917490175e+17
19279.0	6.222349335876948e+17
19280.0	6.221128589989204e+17
19281.0	6.22011422482978e+17
19282.0	6.219048945014099e+17
19283.0	6.217839907525972e+17
19284.0	6.216437353239892e+17
19285.0	6.215093242385747e+17
19286.0	6.213765220881748e+17
19287.0	6.212331962193236e+17
19288.0	6.206119740790099e+17
19289.0	6.203261356168531e+17
19290.0	6.208696761712639e+17
19291.0	6.206408819911346e+17
19292.0	6.20728100725282e+17
19293.0	6.206195256437418e+17
19294.0	6.204968430206975e+17
19295.0	6.203902002550099e+17
19296.0	6.202510607209812e+17
19297.0	6.201329493300564e+17
19298.0	6.200147938989396e+17
19299.0	6.19897817276962e+17
19300.0	6.197976094823764e+17
19301.0	6.196802724997801e+17
19302.0	6.195491082949971e+17
19303.0	6.193982746918912e+17
19304.0	6.193144396425897e+17
19305.0	6.191867455952212e+17
19306.0	6.190679308894208e+17
19307.0	6.189258492608511e+17
19308.0	6.188071952667988e+17
19309.0	6.186903716670121e+17
19310.0	6.185510874994006e+17
19311.0	6.184277857271807e+17
19312.0	6.183130661300905e+17
19313.0	6.181405023972009e+17
19314.0	6.158064552684206e+17
19315.0	6.158077945096886e+17
19316.0	6.177584329697962e+17
19317.0	6.17717308727842e+17
19318.0	6.176145089232896e+17
19319.0	6.17511372525841e+17
19320.0	6.173856049222995e+17
19321.0	6.172519241351165e+17
19322.0	6.171392892469247e+17
19323.0	6.170168006104404e+17
19324.0	6.169010018888361e+17
19325.0	6.167799315562495e+17
19326.0	6.166578057270612e+17
19327.0	6.165358204070569e+17
19328.0	6.163860035731455e+17
19329.0	6.162944400992938e+17
19330.0	6.161648175109459e+17
19331.0	6.160163634763092e+17
19332.0	6.159230839029759e+17
19333.0	6.157895515941545e+17
19334.0	6.156739981694294e+17
19335.0	6.154864693695828e+17
19336.0	6.154212882077011e+17
19337.0	6.152943884217002e+17
19338.0	6.15022197106278e+17
19339.0	6.150247423497556e+17
19340.0	6.148309641068543e+17
19341.0	6.146752678374057e+17
19342.0	6.145182161786195e+17
19343.0	6.144397751440724e+17
19344.0	6.141904959133012e+17
19345.0	6.13539609977378e+17
19346.0	6.135220088602623e+17
19347.0	6.138272026372777e+17
19348.0	6.138259337205076e+17
19349.0	6.137031001025193e+17
19350.0	6.135792983692627e+17
19351.0	6.134549576679423e+17
19352.0	6.132823213036883e+17
19353.0	6.132271294360234e+17
19354.0	6.130971099267071e+17
19355.0	6.12890467683533e+17
19356.0	6.128290808288595e+17
19357.0	6.126883532614312e+17
19358.0	6.125469497120084e+17
19359.0	6.123906868619945e+17
19360.0	6.122285689733119e+17
19361.0	6.121264509528746e+17
19362.0	6.119962115222185e+17
19363.0	6.118574922574506e+17
19364.0	6.117166119474516e+17
19365.0	6.115701792178176e+17
19366.0	6.114299995663018e+17
19367.0	6.112844974129151e+17
19368.0	6.11135908811025e+17
19369.0	6.109711717193044e+17
19370.0	6.108285944638121e+17
19371.0	6.106538982069588e+17
19372.0	6.105445930369023e+17
19373.0	6.103746120166057e+17
19374.0	6.102279763525631e+17
19375.0	6.100761722574164e+17
19376.0	6.099179673048404e+17
19377.0	6.09753530245666e+17
19378.0	6.095924970739028e+17
19379.0	6.094311240237055e+17
19380.0	6.092650508364457e+17
19381.0	6.09091262226978e+17
19382.0	6.088595943194623e+17
19383.0	6.087114038968317e+17
19384.0	6.085658193952767e+17
19385.0	6.083942113345536e+17
19386.0	6.082084687489705e+17
19387.0	6.080196425110867e+17
19388.0	6.078228529676287e+17
19389.0	6.076144415670272e+17
19390.0	6.073213056450559e+17
19391.0	6.063166994426534e+17
19392.0	6.067162632421375e+17
19393.0	6.067980072211795e+17
19394.0	6.066346113280682e+17
19395.0	6.064266023709354e+17
19396.0	6.062251061193385e+17
19397.0	6.060004671662761e+17
19398.0	6.05710122623522e+17
19399.0	6.053234516951039e+17
19400.0	6.051690840413524e+17
19401.0	6.05043030036753e+17
19402.0	6.048246864543744e+17
19403.0	6.045642524022099e+17
19404.0	6.043146976755711e+17
19405.0	6.040272149064361e+17
19406.0	6.037447662807721e+17
19407.0	6.034143221645312e+17
19408.0	6.02948317933295e+17
19409.0	6.027696995827711e+17
19410.0	6.025461057803604e+17
19411.0	6.022422338382505e+17
19412.0	6.01913977470976e+17
19413.0	6.015632229269504e+17
19414.0	6.012018924453887e+17
19415.0	6.00818447426082e+17
19416.0	6.003526548673875e+17
19417.0	6.000448044881236e+17
19418.0	5.996215560131924e+17
19419.0	5.991842048901119e+17
19420.0	5.987254219221673e+17
19421.0	5.982433541357567e+17
19422.0	5.977076823752701e+17
19423.0	5.972015672459263e+17
19424.0	5.966508005348692e+17
19425.0	5.960706035810303e+17
19426.0	5.954554909338282e+17
19427.0	5.948128517685247e+17
19428.0	5.941193605119999e+17
19429.0	5.933633240039423e+17
19430.0	5.925145225636521e+17
19431.0	5.916165653484886e+17
19432.0	5.908486086983679e+17
19433.0	5.899134962412202e+17
19434.0	5.888922587845974e+17
19435.0	5.877854174707711e+17
19436.0	5.86552233234705e+17
19437.0	5.85167799460386e+17
19438.0	5.823558634700801e+17
19439.0	5.818577566651732e+17
19440.0	5.807627047709354e+17
19441.0	5.790342238437375e+17
19442.0	5.770074677138775e+17
19443.0	5.747250358299306e+17
19444.0	5.721056509689853e+17
19445.0	5.690539331900758e+17
19446.0	5.6543403485866656e+17
19447.0	5.6100974535639014e+17
19448.0	5.5537696677123437e+17
19449.0	5.4774685740564474e+17
19450.0	5.355719191341731e+17
19451.0	5.264954042438999e+17
19452.0	5.4255909524384403e+17
19453.0	5.516212549189634e+17
19454.0	5.578540493832188e+17
19455.0	5.625701536017067e+17
19456.0	5.6628564934874477e+17
19457.0	5.6926864059050643e+17
19458.0	5.662492913740508e+17
19459.0	5.731868989893303e+17
19460.0	5.761489710699859e+17
19461.0	5.779297979596799e+17
19462.0	5.794600210573996e+17
19463.0	5.808327455932415e+17
19464.0	5.820602005498537e+17
19465.0	5.8318570665629e+17
19466.0	5.841699560838483e+17
19467.0	5.850637457686527e+17
19468.0	5.858695595076266e+17
19469.0	5.865661273560403e+17
19470.0	5.873120279090516e+17
19471.0	5.87980301541922e+17
19472.0	5.885520272599721e+17
19473.0	5.890719359871657e+17
19474.0	5.895096661355178e+17
19475.0	5.897015185637373e+17
19476.0	5.903250107312806e+17
19477.0	5.907865291543892e+17
19478.0	5.911564701226324e+17
19479.0	5.914599942870355e+17
19480.0	5.917590787806547e+17
19481.0	5.920428973359103e+17
19482.0	5.923073613452628e+17
19483.0	5.925416592911018e+17
19484.0	5.927394500149247e+17
19485.0	5.92918835433745e+17
19486.0	5.930653056324948e+17
19487.0	5.932380513282729e+17
19488.0	5.933585773101055e+17
19489.0	5.932956349977939e+17
19490.0	5.932310216048639e+17
19491.0	5.936489535897599e+17
19492.0	5.938371530588159e+17
19493.0	5.939353847070719e+17
19494.0	5.940076340401491e+17
19495.0	5.940524629011114e+17
19496.0	5.939625958834175e+17
19497.0	5.940371818632531e+17
19498.0	5.935396790381225e+17
19499.0	5.92799619682577e+17
19500.0	5.94113686807074e+17
19501.0	5.942863783264255e+17
19502.0	5.943414907120297e+17
19503.0	5.943683764802899e+17
19504.0	5.943775111151615e+17
19505.0	5.94387236098321e+17
19506.0	5.943887447195647e+17
19507.0	5.943597819319636e+17
19508.0	5.943390672431786e+17
19509.0	5.942621479720276e+17
19510.0	5.939998870208511e+17
19511.0	5.907881649329482e+17
19512.0	5.934526695298388e+17
19513.0	5.934920649495891e+17
19514.0	5.935854802785618e+17
19515.0	5.939520177788244e+17
19516.0	5.940577079481684e+17
19517.0	5.940608199819263e+17
19518.0	5.940492619481087e+17
19519.0	5.940103279017983e+17
19520.0	5.939411354473811e+17
19521.0	5.939303548977151e+17
19522.0	5.938486702680746e+17
19523.0	5.938193952145408e+17
19524.0	5.937492524706474e+17
19525.0	5.937058796623188e+17
19526.0	5.93650734211618e+17
19527.0	5.935781396873215e+17
19528.0	5.935136473000617e+17
19529.0	5.93443766280738e+17
19530.0	5.933893869196628e+17
19531.0	5.93323388707362e+17
19532.0	5.932498943650473e+17
19533.0	5.931777565305513e+17
19534.0	5.931028722657961e+17
19535.0	5.930085394328234e+17
19536.0	5.929178941620221e+17
19537.0	5.928432424015188e+17
19538.0	5.92648291361314e+17
19539.0	5.925460274490025e+17
19540.0	5.925784193597439e+17
19541.0	5.925342457189716e+17
19542.0	5.924540669842772e+17
19543.0	5.923385267017044e+17
19544.0	5.922367651971072e+17
19545.0	5.919393443042643e+17
19546.0	5.918224701631146e+17
19547.0	5.919902661607423e+17
19548.0	5.919560876862121e+17
19549.0	5.918110887794003e+17
19550.0	5.918084166582271e+17
19551.0	5.917245028958207e+17
19552.0	5.916352967606271e+17
19553.0	5.91539656073762e+17
19554.0	5.914473412602538e+17
19555.0	5.913577699409919e+17
19556.0	5.912812130577066e+17
19557.0	5.911945908933972e+17
19558.0	5.911029489860607e+17
19559.0	5.91012043039266e+17
19560.0	5.908938042813097e+17
19561.0	5.908093177167872e+17
19562.0	5.907225556025341e+17
19563.0	5.906441155466579e+17
19564.0	5.905491140717225e+17
19565.0	5.904561112525482e+17
19566.0	5.903517639595348e+17
19567.0	5.902681988136959e+17
19568.0	5.901547790314154e+17
19569.0	5.90067087249681e+17
19570.0	5.899834482141865e+17
19571.0	5.898885979439103e+17
19572.0	5.8976567820288e+17
19573.0	5.896899563356159e+17
19574.0	5.895280943693821e+17
19575.0	5.895115567879507e+17
19576.0	5.894122559417001e+17
19577.0	5.89298178073122e+17
19578.0	5.892100433029802e+17
19579.0	5.891017045704703e+17
19580.0	5.890115893897897e+17
19581.0	5.889298647744511e+17
19582.0	5.888360492389716e+17
19583.0	5.887372336037887e+17
19584.0	5.88636452098321e+17
19585.0	5.884500455544147e+17
19586.0	5.883301260689409e+17
19587.0	5.882960159615657e+17
19588.0	5.88098245370402e+17
19589.0	5.88076026044962e+17
19590.0	5.879720991610195e+17
19591.0	5.87929718025967e+17
19592.0	5.878410955980799e+17
19593.0	5.877263512545961e+17
19594.0	5.874598083384657e+17
19595.0	5.875250421388627e+17
19596.0	5.874226968570538e+17
19597.0	5.873168979853311e+17
19598.0	5.870311737480531e+17
19599.0	5.871082108791466e+17
19600.0	5.870286635270144e+17
19601.0	5.868910937112576e+17
19602.0	5.867622828605439e+17
19603.0	5.866098016649213e+17
19604.0	5.865590210865834e+17
19605.0	5.86363078023578e+17
19606.0	5.864178916349267e+17
19607.0	5.863270772637695e+17
19608.0	5.862241484144639e+17
19609.0	5.861057966899199e+17
19610.0	5.860189382464852e+17
19611.0	5.859083171834538e+17
19612.0	5.858301403201535e+17
19613.0	5.857190892011519e+17
19614.0	5.855915743204692e+17
19615.0	5.855085930916521e+17
19616.0	5.853757911509674e+17
19617.0	5.852218892746751e+17
19618.0	5.848928169055571e+17
19619.0	5.847109794966186e+17
19620.0	5.847312811862697e+17
19621.0	5.848003238341289e+17
19622.0	5.847769414281897e+17
19623.0	5.846892852980393e+17
19624.0	5.845806400318124e+17
19625.0	5.844889300369407e+17
19626.0	5.843711317508095e+17
19627.0	5.842609933123583e+17
19628.0	5.841187512516608e+17
19629.0	5.838441438773245e+17
19630.0	5.836861712891903e+17
19631.0	5.834231032141142e+17
19632.0	5.836036138947923e+17
19633.0	5.835731288544596e+17
19634.0	5.835440756097023e+17
19635.0	5.834298485637119e+17
19636.0	5.833340982657021e+17
19637.0	5.829757684591279e+17
19638.0	5.83157924705075e+17
19639.0	5.830483228579156e+17
19640.0	5.827826083867305e+17
19641.0	5.824450670187864e+17
19642.0	5.827246050770943e+17
19643.0	5.826314384703488e+17
19644.0	5.824905435501908e+17
19645.0	5.823763220966057e+17
19646.0	5.823100395803988e+17
19647.0	5.822513009393663e+17
19648.0	5.821510550465193e+17
19649.0	5.820501037416448e+17
19650.0	5.819520166570666e+17
19651.0	5.818455151695188e+17
19652.0	5.817414920262995e+17
19653.0	5.816453971662163e+17
19654.0	5.81535496544802e+17
19655.0	5.814293008220159e+17
19656.0	5.813354574643199e+17
19657.0	5.812283674460159e+17
19658.0	5.81130542785058e+17
19659.0	5.810272801390591e+17
19660.0	5.809276476631722e+17
19661.0	5.808208801169408e+17
19662.0	5.807185217628841e+17
19663.0	5.806052676556116e+17
19664.0	5.805059740794877e+17
19665.0	5.804118058729471e+17
