# Flux units: erg / (cm m2 s)
# Wavelength units: Angstrom
wave	flux
19000.0	7.251204701334186e+17
19001.0	7.249824786502996e+17
19002.0	7.248568440061951e+17
19003.0	7.247239754459817e+17
19004.0	7.245910028670292e+17
19005.0	7.244606420811775e+17
19006.0	7.243284089580202e+17
19007.0	7.241743795748864e+17
19008.0	7.240599486158164e+17
19009.0	7.239264012774058e+17
19010.0	7.237703531757565e+17
19011.0	7.236612053620051e+17
19012.0	7.234577922435752e+17
19013.0	7.233999551681876e+17
19014.0	7.232635738783741e+17
19015.0	7.231321842297513e+17
19016.0	7.229985760739327e+17
19017.0	7.228680057126911e+17
19018.0	7.227309790593023e+17
19019.0	7.226019369626281e+17
19020.0	7.224676135381674e+17
19021.0	7.223363859294889e+17
19022.0	7.222035201654781e+17
19023.0	7.220674179366911e+17
19024.0	7.219345054760957e+17
19025.0	7.217946310301012e+17
19026.0	7.216595763986432e+17
19027.0	7.214620954241705e+17
19028.0	7.214016016766292e+17
19029.0	7.212672125414057e+17
19030.0	7.211352007376896e+17
19031.0	7.210014842290173e+17
19032.0	7.208675290644479e+17
19033.0	7.207276699975679e+17
19034.0	7.205973011027284e+17
19035.0	7.204508986419881e+17
19036.0	7.157329623515127e+17
19037.0	7.201886296517289e+17
19038.0	7.200609674810706e+17
19039.0	7.199296029982719e+17
19040.0	7.197958785204223e+17
19041.0	7.196618790360403e+17
19042.0	7.19520353292561e+17
19043.0	7.193938834227199e+17
19044.0	7.192591832099498e+17
19045.0	7.19122558231074e+17
19046.0	7.189878961864704e+17
19047.0	7.188557363238228e+17
19048.0	7.187094101994153e+17
19049.0	7.185788171889322e+17
19050.0	7.18448810262528e+17
19051.0	7.175744913757513e+17
19052.0	7.180566909332138e+17
19053.0	7.180434138639017e+17
19054.0	7.179303597550249e+17
19055.0	7.177867404946089e+17
19056.0	7.176671397762387e+17
19057.0	7.175330531901439e+17
19058.0	7.173910218932223e+17
19059.0	7.172636373854889e+17
19060.0	7.171276805592404e+17
19061.0	7.169950032592896e+17
19062.0	7.168598522986493e+17
19063.0	7.167250813419517e+17
19064.0	7.165831989428223e+17
19065.0	7.164441580448424e+17
19066.0	7.163157136364883e+17
19067.0	7.161853859856383e+17
19068.0	7.160504427828564e+17
19069.0	7.159154651867817e+17
19070.0	7.157788969708202e+17
19071.0	7.156429504905215e+17
19072.0	7.155086272058708e+17
19073.0	7.153748480622591e+17
19074.0	7.15240036840243e+17
19075.0	7.151048821047293e+17
19076.0	7.14968406163456e+17
19077.0	7.148336989601791e+17
19078.0	7.146976390938624e+17
19079.0	7.145638968601258e+17
19080.0	7.14427661951522e+17
19081.0	7.142908578758655e+17
19082.0	7.141552213546326e+17
19083.0	7.140153225816745e+17
19084.0	7.138718695555071e+17
19085.0	7.137507836340905e+17
19086.0	7.135827901546493e+17
19087.0	7.133438554756436e+17
19088.0	7.133224508238506e+17
19089.0	7.131249291646292e+17
19090.0	7.130664079982591e+17
19091.0	7.129345230023338e+17
19092.0	7.127653706366973e+17
19093.0	7.126669682103636e+17
19094.0	7.125320321378986e+17
19095.0	7.123965738745855e+17
19096.0	7.122607393822036e+17
19097.0	7.121263192091306e+17
19098.0	7.119899647628628e+17
19099.0	7.118542163935232e+17
19100.0	7.117120532556457e+17
19101.0	7.1158141564573e+17
19102.0	7.114426364723199e+17
19103.0	7.113129128012458e+17
19104.0	7.111770478302547e+17
19105.0	7.110380404867071e+17
19106.0	7.108792888765097e+17
19107.0	7.107663280209919e+17
19108.0	7.106292117493075e+17
19109.0	7.100818556365477e+17
19110.0	7.103402764926973e+17
19111.0	7.102231137834323e+17
19112.0	7.10089796292881e+17
19113.0	7.099553585037311e+17
19114.0	7.098195831510356e+17
19115.0	7.096708220933459e+17
19116.0	7.095463145985364e+17
19117.0	7.094093709923667e+17
19118.0	7.092474619101183e+17
19119.0	7.08924658906999e+17
19120.0	7.089616042939731e+17
19121.0	7.088380775672489e+17
19122.0	7.087324090684756e+17
19123.0	7.085964442730493e+17
19124.0	7.084338621448191e+17
19125.0	7.083214406767956e+17
19126.0	7.081873069746857e+17
19127.0	7.079466220126207e+17
19128.0	7.077854108625576e+17
19129.0	7.077748402378067e+17
19130.0	7.076429000168787e+17
19131.0	7.075036910671187e+17
19132.0	7.073715293869395e+17
19133.0	7.072094656746836e+17
19134.0	7.07039615516672e+17
19135.0	7.069612557118122e+17
19136.0	7.06826851197474e+17
19137.0	7.066804913788244e+17
19138.0	7.065498748802387e+17
19139.0	7.064176600722089e+17
19140.0	7.062817685372927e+17
19141.0	7.061454806406483e+17
19142.0	7.060060031156224e+17
19143.0	7.058693050160467e+17
19144.0	7.057339201530536e+17
19145.0	7.055988885902676e+17
19146.0	7.054230454708906e+17
19147.0	7.053212771155965e+17
19148.0	7.051867596346708e+17
19149.0	7.050507408725331e+17
19150.0	7.049164229006675e+17
19151.0	7.047802595748521e+17
19152.0	7.046384035998377e+17
19153.0	7.045040134859433e+17
19154.0	7.04361836786483e+17
19155.0	7.042309960324436e+17
19156.0	7.040937652562602e+17
19157.0	7.039402993079638e+17
19158.0	7.035521939275771e+17
19159.0	7.036750019603114e+17
19160.0	7.035399013313194e+17
19161.0	7.033934461621588e+17
19162.0	7.026332540076037e+17
19163.0	7.031051928993791e+17
19164.0	7.029978563259049e+17
19165.0	7.028492897441108e+17
19166.0	7.027040249883306e+17
19167.0	7.025274185056255e+17
19168.0	7.024473386866003e+17
19169.0	7.023033647977812e+17
19170.0	7.021761851817983e+17
19171.0	7.020050628913833e+17
19172.0	7.018973866491904e+17
19173.0	7.017638767798953e+17
19174.0	7.016259633108307e+17
19175.0	7.014920457551871e+17
19176.0	7.013543597572095e+17
19177.0	7.012065187201023e+17
19178.0	7.0105986774685e+17
19179.0	7.008916287608148e+17
19180.0	7.007956788139348e+17
19181.0	7.006587197587455e+17
19182.0	7.005259203346431e+17
19183.0	7.003898619363327e+17
19184.0	7.002498065760255e+17
19185.0	7.001148259041279e+17
19186.0	6.999770857996287e+17
19187.0	6.998325329570474e+17
19188.0	6.994920009804458e+17
19189.0	6.993483750091433e+17
19190.0	6.99206805295377e+17
19191.0	6.990673994230442e+17
19192.0	6.989371480386217e+17
19193.0	6.987940875294036e+17
19194.0	6.98655607759394e+17
19195.0	6.98517215650338e+17
19196.0	6.98373924524305e+17
19197.0	6.982235826334377e+17
19198.0	6.980360158751402e+17
19199.0	6.942794101467809e+17
19200.0	6.951762495100256e+17
19201.0	6.976269063290879e+17
19202.0	6.97530646143522e+17
19203.0	6.97392383009314e+17
19204.0	6.97263924060706e+17
19205.0	6.97129221750784e+17
19206.0	6.969909242232831e+17
19207.0	6.968469039874047e+17
19208.0	6.967012999124308e+17
19209.0	6.965729388309162e+17
19210.0	6.964348308160511e+17
19211.0	6.962949037315412e+17
19212.0	6.961542996863657e+17
19213.0	6.959775378046975e+17
19214.0	6.958192916780372e+17
19215.0	6.957177867250346e+17
19216.0	6.955936990101503e+17
19217.0	6.954537463403859e+17
19218.0	6.952622747549693e+17
19219.0	6.951623771990697e+17
19220.0	6.950287317139455e+17
19221.0	6.948704838396585e+17
19222.0	6.947495724012884e+17
19223.0	6.946087472463871e+17
19224.0	6.944645828662612e+17
19225.0	6.943174208170665e+17
19226.0	6.941831159174484e+17
19227.0	6.940412118477481e+17
19228.0	6.939012170252287e+17
19229.0	6.937591954451113e+17
19230.0	6.936120808614569e+17
19231.0	6.934705736428201e+17
19232.0	6.933311946140329e+17
19233.0	6.931845567829331e+17
19234.0	6.930456765267965e+17
19235.0	6.929028453061972e+17
19236.0	6.92761198277427e+17
19237.0	6.926169899969193e+17
19238.0	6.924630665898665e+17
19239.0	6.923310944922281e+17
19240.0	6.92184789618961e+17
19241.0	6.920413472183636e+17
19242.0	6.918985215202644e+17
19243.0	6.917447281366356e+17
19244.0	6.916110415473322e+17
19245.0	6.914664218755071e+17
19246.0	6.913206489797971e+17
19247.0	6.911765308768255e+17
19248.0	6.910303619689129e+17
19249.0	6.908840223528275e+17
19250.0	6.907389972316159e+17
19251.0	6.905869778288639e+17
19252.0	6.904304248029183e+17
19253.0	6.903005693607936e+17
19254.0	6.901550755261098e+17
19255.0	6.899969891325267e+17
19256.0	6.898560582811647e+17
19257.0	6.897140576026623e+17
19258.0	6.895668155121661e+17
19259.0	6.894144342807891e+17
19260.0	6.891885861098835e+17
19261.0	6.891226285823316e+17
19262.0	6.889714418887337e+17
19263.0	6.888220532233555e+17
19264.0	6.886447967633405e+17
19265.0	6.885157680884393e+17
19266.0	6.883673002825044e+17
19267.0	6.882278055608319e+17
19268.0	6.880775418937343e+17
19269.0	6.87926933664563e+17
19270.0	6.877757938073599e+17
19271.0	6.876048186671104e+17
19272.0	6.874707297741481e+17
19273.0	6.87232546644514e+17
19274.0	6.871074919328425e+17
19275.0	6.870159681650687e+17
19276.0	6.86861798482466e+17
19277.0	6.867086115252906e+17
19278.0	6.865549810903721e+17
19279.0	6.86395586842897e+17
19280.0	6.862419530525353e+17
19281.0	6.860899051285161e+17
19282.0	6.859333013514921e+17
19283.0	6.857263090936489e+17
19284.0	6.855746880099668e+17
19285.0	6.854540978552831e+17
19286.0	6.853059895012009e+17
19287.0	6.851485713301504e+17
19288.0	6.837283490977096e+17
19289.0	6.818541281301796e+17
19290.0	6.846716626774697e+17
19291.0	6.844984068145151e+17
19292.0	6.843548285883734e+17
19293.0	6.841936601503059e+17
19294.0	6.840320181753172e+17
19295.0	6.838707274033834e+17
19296.0	6.837069403914239e+17
19297.0	6.835421612168531e+17
19298.0	6.83379865419776e+17
19299.0	6.832154713522175e+17
19300.0	6.830517712322559e+17
19301.0	6.828859668998825e+17
19302.0	6.827191952211967e+17
19303.0	6.825472211375443e+17
19304.0	6.823831473050964e+17
19305.0	6.822155689219412e+17
19306.0	6.820441623975252e+17
19307.0	6.818694660008618e+17
19308.0	6.816993329370452e+17
19309.0	6.814023360184319e+17
19310.0	6.81182464660821e+17
19311.0	6.811696412753919e+17
19312.0	6.810146410506921e+17
19313.0	6.808394334382761e+17
19314.0	6.775178337976329e+17
19315.0	6.775402820621692e+17
19316.0	6.802931640696831e+17
19317.0	6.80131969487121e+17
19318.0	6.799532164994387e+17
19319.0	6.797742480643412e+17
19320.0	6.795921355789652e+17
19321.0	6.794088593839444e+17
19322.0	6.792109686958761e+17
19323.0	6.789838349707948e+17
19324.0	6.788466657110697e+17
19325.0	6.7855230449309e+17
19326.0	6.784737957904383e+17
19327.0	6.782895906269865e+17
19328.0	6.780988754143914e+17
19329.0	6.779094206600532e+17
19330.0	6.777148631154685e+17
19331.0	6.775210727789908e+17
19332.0	6.773274632869203e+17
19333.0	6.771307944695123e+17
19334.0	6.769351242459817e+17
19335.0	6.767324946235391e+17
19336.0	6.765337097098579e+17
19337.0	6.763336024020308e+17
19338.0	6.761177466710697e+17
19339.0	6.759242499358719e+17
19340.0	6.757145413069482e+17
19341.0	6.755074925658111e+17
19342.0	6.752716918707539e+17
19343.0	6.750881527627775e+17
19344.0	6.748733124029098e+17
19345.0	6.745456282785107e+17
19346.0	6.743937666514943e+17
19347.0	6.742178160880297e+17
19348.0	6.740030828926292e+17
19349.0	6.737598193423699e+17
19350.0	6.735219204467369e+17
19351.0	6.732961110032383e+17
19352.0	6.730620022904148e+17
19353.0	6.728371889941161e+17
19354.0	6.726035951321087e+17
19355.0	6.723598858671444e+17
19356.0	6.721249912815615e+17
19357.0	6.718826148965034e+17
19358.0	6.716359161413632e+17
19359.0	6.71386339254818e+17
19360.0	6.711393074719401e+17
19361.0	6.708900445290495e+17
19362.0	6.706407739665065e+17
19363.0	6.703863473460563e+17
19364.0	6.701298298650623e+17
19365.0	6.698713117709652e+17
19366.0	6.696108951251626e+17
19367.0	6.693477038773588e+17
19368.0	6.69084069012002e+17
19369.0	6.688117546636628e+17
19370.0	6.685377667880276e+17
19371.0	6.682743937171455e+17
19372.0	6.679811865619113e+17
19373.0	6.67664935620881e+17
19374.0	6.673857040962899e+17
19375.0	6.670968449662975e+17
19376.0	6.668058214356307e+17
19377.0	6.665104795893759e+17
19378.0	6.66212014035217e+17
19379.0	6.659097814368255e+17
19380.0	6.656037971034111e+17
19381.0	6.652939561074687e+17
19382.0	6.649753876037632e+17
19383.0	6.645705611411455e+17
19384.0	6.642348381437951e+17
19385.0	6.639072635606356e+17
19386.0	6.635752096006143e+17
19387.0	6.632373530307241e+17
19388.0	6.628952761521492e+17
19389.0	6.624942024032256e+17
19390.0	6.620304519113385e+17
19391.0	6.578849609416648e+17
19392.0	6.612385385152507e+17
19393.0	6.609270044884991e+17
19394.0	6.603592156140886e+17
19395.0	6.599213712408575e+17
19396.0	6.595185438534313e+17
19397.0	6.589790652028243e+17
19398.0	6.583991426263721e+17
19399.0	6.579271988412415e+17
19400.0	6.572269728606892e+17
19401.0	6.566815159986858e+17
19402.0	6.559468175927976e+17
19403.0	6.552391219063466e+17
19404.0	6.543353039902036e+17
19405.0	6.535486917050369e+17
19406.0	6.523839108349953e+17
19407.0	6.512164670712488e+17
19408.0	6.498589726823767e+17
19409.0	6.485208510147237e+17
19410.0	6.475241176607402e+17
19411.0	6.467470226008746e+17
19412.0	6.45950208999424e+17
19413.0	6.451336649725268e+17
19414.0	6.442994459388586e+17
19415.0	6.434495591525034e+17
19416.0	6.425561494017363e+17
19417.0	6.416212716158975e+17
19418.0	6.406875765538815e+17
19419.0	6.397019452429652e+17
19420.0	6.386935409584809e+17
19421.0	6.376519384782163e+17
19422.0	6.365183289065471e+17
19423.0	6.353895033580201e+17
19424.0	6.34230036042001e+17
19425.0	6.329184593554089e+17
19426.0	6.316157357959848e+17
19427.0	6.301746063562071e+17
19428.0	6.2854029377536e+17
19429.0	6.267458837719721e+17
19430.0	6.245727437761194e+17
19431.0	6.21645734049656e+17
19432.0	6.193943440698021e+17
19433.0	6.156460198548836e+17
19434.0	6.119091915980794e+17
19435.0	6.091931904551592e+17
19436.0	6.06313338267238e+17
19437.0	6.03641621844241e+17
19438.0	5.96257616621296e+17
19439.0	5.969772876049069e+17
19440.0	5.932843321873748e+17
19441.0	5.888175870312443e+17
19442.0	5.83306538123264e+17
19443.0	5.7643913427899654e+17
19444.0	5.684735419001512e+17
19445.0	5.606639880459607e+17
19446.0	5.5153911646562976e+17
19447.0	5.3982883626352576e+17
19448.0	5.246918707205467e+17
19449.0	5.0435210077361485e+17
19450.0	4.748802486785352e+17
19451.0	4.636980442824686e+17
19452.0	4.904481477099522e+17
19453.0	5.153678633730057e+17
19454.0	5.324561781708111e+17
19455.0	5.454562655731712e+17
19456.0	5.555098212805292e+17
19457.0	5.635492505365156e+17
19458.0	5.669195787621786e+17
19459.0	5.783918296956937e+17
19460.0	5.844449305995944e+17
19461.0	5.891541867080361e+17
19462.0	5.930377789745834e+17
19463.0	5.963694085242879e+17
19464.0	5.993881871755946e+17
19465.0	6.022045229208918e+17
19466.0	6.047294775012009e+17
19467.0	6.07148166942993e+17
19468.0	6.099878061714097e+17
19469.0	6.137624585917782e+17
19470.0	6.167369173609132e+17
19471.0	6.191627502616575e+17
19472.0	6.211014425750186e+17
19473.0	6.227735556915201e+17
19474.0	6.242225542747476e+17
19475.0	6.254487877102249e+17
19476.0	6.266667042603007e+17
19477.0	6.276982999700818e+17
19478.0	6.287036608675839e+17
19479.0	6.295842051500714e+17
19480.0	6.30495340798498e+17
19481.0	6.313254811511465e+17
19482.0	6.321101947447978e+17
19483.0	6.328642253269674e+17
19484.0	6.336022484178259e+17
19485.0	6.343094596621652e+17
19486.0	6.349425219032404e+17
19487.0	6.355572544066899e+17
19488.0	6.3615267780253e+17
19489.0	6.367253307413844e+17
19490.0	6.372202793751891e+17
19491.0	6.378249296805887e+17
19492.0	6.38366944137489e+17
19493.0	6.393332069913938e+17
19494.0	6.405915585194665e+17
19495.0	6.4158170569769e+17
19496.0	6.423271397042854e+17
19497.0	6.430073359258964e+17
19498.0	6.433355297980417e+17
19499.0	6.383453965298314e+17
19500.0	6.44760378347793e+17
19501.0	6.450050937563817e+17
19502.0	6.454787840496977e+17
19503.0	6.457659259617277e+17
19504.0	6.459468655798953e+17
19505.0	6.463930847898284e+17
19506.0	6.465553593357652e+17
19507.0	6.467041993162751e+17
19508.0	6.469701359457622e+17
19509.0	6.471845080814932e+17
19510.0	6.472921534256467e+17
19511.0	6.410338180268e+17
19512.0	6.465895410958319e+17
19513.0	6.461101378109413e+17
19514.0	6.466310172398913e+17
19515.0	6.478856822543702e+17
19516.0	6.48053227921954e+17
19517.0	6.481312655343616e+17
19518.0	6.482094285564585e+17
19519.0	6.483172077688147e+17
19520.0	6.484412619292671e+17
19521.0	6.48505509159458e+17
19522.0	6.485608403479209e+17
19523.0	6.48615688282658e+17
19524.0	6.486642883821567e+17
19525.0	6.487102517324457e+17
19526.0	6.487532410415785e+17
19527.0	6.487920835122516e+17
19528.0	6.488252317958143e+17
19529.0	6.488522254275924e+17
19530.0	6.489022655015593e+17
19531.0	6.489543544930303e+17
19532.0	6.489727890882559e+17
19533.0	6.489889007381161e+17
19534.0	6.490025421526356e+17
19535.0	6.490135531094015e+17
19536.0	6.490212497970516e+17
19537.0	6.490310367161001e+17
19538.0	6.490291385139197e+17
19539.0	6.490082429807274e+17
19540.0	6.490386131670356e+17
19541.0	6.490390254671188e+17
19542.0	6.490355606224895e+17
19543.0	6.490289274006185e+17
19544.0	6.490229453444436e+17
19545.0	6.489871420664489e+17
19546.0	6.489512637104127e+17
19547.0	6.48989078856226e+17
19548.0	6.48971818176785e+17
19549.0	6.489456202743808e+17
19550.0	6.489290316622504e+17
19551.0	6.489045040016041e+17
19552.0	6.488776552131241e+17
19553.0	6.488474897787561e+17
19554.0	6.488158462017535e+17
19555.0	6.487855980696916e+17
19556.0	6.487779221438463e+17
19557.0	6.487409601194666e+17
19558.0	6.487024954856788e+17
19559.0	6.486621109092351e+17
19560.0	6.486179471250771e+17
19561.0	6.485748291906217e+17
19562.0	6.485306723270655e+17
19563.0	6.484842959776426e+17
19564.0	6.484357658531156e+17
19565.0	6.483856781038932e+17
19566.0	6.483328869160276e+17
19567.0	6.482809333306707e+17
19568.0	6.482248071817897e+17
19569.0	6.481700909481983e+17
19570.0	6.481133167793492e+17
19571.0	6.480544476954623e+17
19572.0	6.479929120828074e+17
19573.0	6.479329157797204e+17
19574.0	6.478669155401727e+17
19575.0	6.478098509157716e+17
19576.0	6.477459005024937e+17
19577.0	6.476801075314687e+17
19578.0	6.476120087418196e+17
19579.0	6.475454396148393e+17
19580.0	6.474770405130239e+17
19581.0	6.474078836402857e+17
19582.0	6.47338230161954e+17
19583.0	6.472665595729236e+17
19584.0	6.471918200116563e+17
19585.0	6.47113240355362e+17
19586.0	6.470344845382995e+17
19587.0	6.469484066548394e+17
19588.0	6.4686579515392e+17
19589.0	6.468143068566868e+17
19590.0	6.467316068559529e+17
19591.0	6.466589893328895e+17
19592.0	6.465795086701908e+17
19593.0	6.464977362397865e+17
19594.0	6.464007986741247e+17
19595.0	6.463331607685802e+17
19596.0	6.459693437637975e+17
19597.0	6.461624082759679e+17
19598.0	6.460656328900605e+17
19599.0	6.459999835739476e+17
19600.0	6.459143855188649e+17
19601.0	6.458238460843348e+17
19602.0	6.457376970375167e+17
19603.0	6.455694281321129e+17
19604.0	6.455542900501162e+17
19605.0	6.454584894204585e+17
19606.0	6.45387544236305e+17
19607.0	6.452981462117034e+17
19608.0	6.452073325395967e+17
19609.0	6.451133335033172e+17
19610.0	6.450250387903827e+17
19611.0	6.449325817899689e+17
19612.0	6.448416489996287e+17
19613.0	6.447481265760937e+17
19614.0	6.446528610697215e+17
19615.0	6.445605538059603e+17
19616.0	6.444306140583252e+17
19617.0	6.443711563737769e+17
19618.0	6.442440772812797e+17
19619.0	6.441402610570578e+17
19620.0	6.440458213392383e+17
19621.0	6.439876462029482e+17
19622.0	6.438922856955903e+17
19623.0	6.437949777728852e+17
19624.0	6.43697198829841e+17
19625.0	6.435987770398036e+17
19626.0	6.434999456060756e+17
19627.0	6.433989438297427e+17
19628.0	6.432081780757846e+17
19629.0	6.431831859658751e+17
19630.0	6.42814633172446e+17
19631.0	6.39004586278912e+17
19632.0	6.428813473524393e+17
19633.0	6.427916427941204e+17
19634.0	6.42699545874705e+17
19635.0	6.42596678471953e+17
19636.0	6.424963456871082e+17
19637.0	6.423715779357353e+17
19638.0	6.422942970456746e+17
19639.0	6.421909800135337e+17
19640.0	6.420845281585833e+17
19641.0	6.419441619304447e+17
19642.0	6.418839972959572e+17
19643.0	6.417788978943316e+17
19644.0	6.41673123209762e+17
19645.0	6.415569074345299e+17
19646.0	6.41467425104418e+17
19647.0	6.413648877234858e+17
19648.0	6.412604796829695e+17
19649.0	6.411556042571776e+17
19650.0	6.410508392813907e+17
19651.0	6.409456995445417e+17
19652.0	6.408403547062271e+17
19653.0	6.407329044671145e+17
19654.0	6.406290672014676e+17
19655.0	6.405228590355795e+17
19656.0	6.404166018662399e+17
19657.0	6.403107291048617e+17
19658.0	6.402040183914495e+17
19659.0	6.401153108191913e+17
19660.0	6.400134299866451e+17
19661.0	6.39906394284578e+17
19662.0	6.397991442535764e+17
19663.0	6.396869990503763e+17
19664.0	6.395679742798505e+17
19665.0	6.394766086373376e+17
