# Flux units: erg / (cm m2 s)
# Wavelength units: Angstrom
wave	flux
19000.0	7.517122822755668e+17
19001.0	7.515690628721321e+17
19002.0	7.514390764978175e+17
19003.0	7.513021657470291e+17
19004.0	7.511652457687721e+17
19005.0	7.510284671385597e+17
19006.0	7.508914066511187e+17
19007.0	7.507483097213608e+17
19008.0	7.506132219549012e+17
19009.0	7.504740405477375e+17
19010.0	7.503132321906687e+17
19011.0	7.502015757636947e+17
19012.0	7.500344219839145e+17
19013.0	7.499289192999594e+17
19014.0	7.49787424174899e+17
19015.0	7.496513195693396e+17
19016.0	7.495692452888577e+17
19017.0	7.494367020668246e+17
19018.0	7.49297181200657e+17
19019.0	7.491604698191187e+17
19020.0	7.490213098029055e+17
19021.0	7.488852766403241e+17
19022.0	7.487473427589802e+17
19023.0	7.486060682543103e+17
19024.0	7.484686365709651e+17
19025.0	7.483290107073875e+17
19026.0	7.481877977191764e+17
19027.0	7.480248913712467e+17
19028.0	7.479155694938794e+17
19029.0	7.477770741350399e+17
19030.0	7.476395791177044e+17
19031.0	7.475007682073939e+17
19032.0	7.473617629609981e+17
19033.0	7.472162800315049e+17
19034.0	7.470804356126036e+17
19035.0	7.469450497709395e+17
19036.0	7.44926565297902e+17
19037.0	7.466753530877267e+17
19038.0	7.465482709893119e+17
19039.0	7.4641274072378e+17
19040.0	7.462742309644969e+17
19041.0	7.461353237250045e+17
19042.0	7.459883722298706e+17
19043.0	7.458571752396118e+17
19044.0	7.457176859705344e+17
19045.0	7.455772919900841e+17
19046.0	7.454359857485139e+17
19047.0	7.452983288310442e+17
19048.0	7.451473105387517e+17
19049.0	7.450124603097088e+17
19050.0	7.44875319291631e+17
19051.0	7.444341067524773e+17
19052.0	7.445380548875603e+17
19053.0	7.444591516407126e+17
19054.0	7.443225100244308e+17
19055.0	7.4416563173021e+17
19056.0	7.440420699111424e+17
19057.0	7.439033632991913e+17
19058.0	7.43760372764945e+17
19059.0	7.436238738948093e+17
19060.0	7.434834290234708e+17
19061.0	7.433450555790674e+17
19062.0	7.432493816872957e+17
19063.0	7.431466915637932e+17
19064.0	7.429998429689172e+17
19065.0	7.428546762899455e+17
19066.0	7.42722081198353e+17
19067.0	7.425869531665747e+17
19068.0	7.4244692129437e+17
19069.0	7.423069078771028e+17
19070.0	7.421652255462739e+17
19071.0	7.420256168793427e+17
19072.0	7.41885673087522e+17
19073.0	7.417460820366676e+17
19074.0	7.416062173773823e+17
19075.0	7.414659903302313e+17
19076.0	7.413244822028287e+17
19077.0	7.411845768587945e+17
19078.0	7.410435797374292e+17
19079.0	7.409047756778153e+17
19080.0	7.407634504220672e+17
19081.0	7.40621176414754e+17
19082.0	7.404809124577276e+17
19083.0	7.403350007305556e+17
19084.0	7.401859088820906e+17
19085.0	7.400610328477693e+17
19086.0	7.398886205292543e+17
19087.0	7.397343942934525e+17
19088.0	7.396217284373161e+17
19089.0	7.394614667378688e+17
19090.0	7.39352037486319e+17
19091.0	7.392147003146239e+17
19092.0	7.390625160058194e+17
19093.0	7.389368636058281e+17
19094.0	7.387445047154004e+17
19095.0	7.385763935158272e+17
19096.0	7.384351845821097e+17
19097.0	7.38295506988783e+17
19098.0	7.381544043107667e+17
19099.0	7.380136560514387e+17
19100.0	7.378703362643283e+17
19101.0	7.377317840027647e+17
19102.0	7.375864935918249e+17
19103.0	7.374516675499348e+17
19104.0	7.373107332033193e+17
19105.0	7.371674047479808e+17
19106.0	7.37020464018227e+17
19107.0	7.368848539211092e+17
19108.0	7.367415401458345e+17
19109.0	7.364536579391484e+17
19110.0	7.364453871910911e+17
19111.0	7.363219525992447e+17
19112.0	7.361832613664082e+17
19113.0	7.360434822709247e+17
19114.0	7.359025593887402e+17
19115.0	7.357546690685609e+17
19116.0	7.356191313930922e+17
19117.0	7.354774549342889e+17
19118.0	7.353254065209344e+17
19119.0	7.349847900291067e+17
19120.0	7.350382275592191e+17
19121.0	7.349030717052244e+17
19122.0	7.3477501485056e+17
19123.0	7.346340995181225e+17
19124.0	7.34480961564399e+17
19125.0	7.343509554768553e+17
19126.0	7.342090790895615e+17
19127.0	7.339617565016063e+17
19128.0	7.338910222210387e+17
19129.0	7.33781242745105e+17
19130.0	7.336451107367593e+17
19131.0	7.335042194516649e+17
19132.0	7.333634909055657e+17
19133.0	7.332120899529386e+17
19134.0	7.330641102940842e+17
19135.0	7.329392169233064e+17
19136.0	7.327985714244266e+17
19137.0	7.326474422626985e+17
19138.0	7.325144819870378e+17
19139.0	7.323745468634454e+17
19140.0	7.322333740007423e+17
19141.0	7.320919809370794e+17
19142.0	7.319488484955476e+17
19143.0	7.318057375847763e+17
19144.0	7.31664879854114e+17
19145.0	7.315257549302442e+17
19146.0	7.313439384229204e+17
19147.0	7.312376051269632e+17
19148.0	7.310995847031466e+17
19149.0	7.309379215469225e+17
19150.0	7.307621873396394e+17
19151.0	7.306208574701568e+17
19152.0	7.304767365709823e+17
19153.0	7.303345094000639e+17
19154.0	7.301870954130089e+17
19155.0	7.300517081732436e+17
19156.0	7.299085417578493e+17
19157.0	7.297540909869738e+17
19158.0	7.295365813720403e+17
19159.0	7.294747836153855e+17
19160.0	7.293376020523688e+17
19161.0	7.291892735672319e+17
19162.0	7.288220162544982e+17
19163.0	7.288870044783956e+17
19164.0	7.287716310592169e+17
19165.0	7.286268039790591e+17
19166.0	7.284784146765139e+17
19167.0	7.283254616915968e+17
19168.0	7.282026133236393e+17
19169.0	7.280602421482836e+17
19170.0	7.279208208269311e+17
19171.0	7.277689097071274e+17
19172.0	7.276342167644842e+17
19173.0	7.274943839819091e+17
19174.0	7.273497654984701e+17
19175.0	7.272107712970752e+17
19176.0	7.270680676532223e+17
19177.0	7.269146043613183e+17
19178.0	7.267741959804244e+17
19179.0	7.266241741149523e+17
19180.0	7.264947223745875e+17
19181.0	7.263473834655743e+17
19182.0	7.261681744172372e+17
19183.0	7.259644496620202e+17
19184.0	7.258186279725738e+17
19185.0	7.256766275736916e+17
19186.0	7.25533808866099e+17
19187.0	7.25385511838242e+17
19188.0	7.252468443731283e+17
19189.0	7.251024034485587e+17
19190.0	7.249574459255466e+17
19191.0	7.248118905744041e+17
19192.0	7.246723930565289e+17
19193.0	7.245271431905279e+17
19194.0	7.243816241900202e+17
19195.0	7.242363069355347e+17
19196.0	7.240859084215636e+17
19197.0	7.239271631028223e+17
19198.0	7.237221088930474e+17
19199.0	7.221849798038865e+17
19200.0	7.223715266472622e+17
19201.0	7.233001196879871e+17
19202.0	7.23210331942639e+17
19203.0	7.230763043564202e+17
19204.0	7.229398210052096e+17
19205.0	7.227999770378239e+17
19206.0	7.226574492751187e+17
19207.0	7.225083037395625e+17
19208.0	7.223582390921897e+17
19209.0	7.222260813266943e+17
19210.0	7.220826782127442e+17
19211.0	7.219379685730985e+17
19212.0	7.21792509551138e+17
19213.0	7.216324463820799e+17
19214.0	7.214796740318548e+17
19215.0	7.213248116599464e+17
19216.0	7.211505846059007e+17
19217.0	7.210052793750868e+17
19218.0	7.208101912510463e+17
19219.0	7.20703455301905e+17
19220.0	7.205675330087593e+17
19221.0	7.20404841828625e+17
19222.0	7.202773731551913e+17
19223.0	7.201319831994368e+17
19224.0	7.199834754777087e+17
19225.0	7.198321164681215e+17
19226.0	7.196928525729791e+17
19227.0	7.195463363067904e+17
19228.0	7.194019201286144e+17
19229.0	7.192552187538088e+17
19230.0	7.191068920862036e+17
19231.0	7.189596521627647e+17
19232.0	7.188139027551571e+17
19233.0	7.186625121484797e+17
19234.0	7.185185718839978e+17
19235.0	7.183709418902868e+17
19236.0	7.182247940237994e+17
19237.0	7.180759940988927e+17
19238.0	7.179210244926121e+17
19239.0	7.177809418693289e+17
19240.0	7.176312752614058e+17
19241.0	7.174822959600982e+17
19242.0	7.173346468123987e+17
19243.0	7.171754146747731e+17
19244.0	7.170381661427028e+17
19245.0	7.168890130573993e+17
19246.0	7.167387530952704e+17
19247.0	7.165900809568253e+17
19248.0	7.164404999127039e+17
19249.0	7.162203740307455e+17
19250.0	7.16051822289442e+17
19251.0	7.158958847776083e+17
19252.0	7.157319529223508e+17
19253.0	7.155999995592701e+17
19254.0	7.154503463731199e+17
19255.0	7.152860567437311e+17
19256.0	7.151452540982611e+17
19257.0	7.149962577401172e+17
19258.0	7.148443568264532e+17
19259.0	7.146868099601747e+17
19260.0	7.145052631465981e+17
19261.0	7.14386676191505e+17
19262.0	7.142300681502719e+17
19263.0	7.14076482384691e+17
19264.0	7.138948153343997e+17
19265.0	7.13761523568913e+17
19266.0	7.13609053208576e+17
19267.0	7.134653267137875e+17
19268.0	7.133106858011305e+17
19269.0	7.131556525812394e+17
19270.0	7.129996659960489e+17
19271.0	7.128242602027689e+17
19272.0	7.126857012303187e+17
19273.0	7.124743572422653e+17
19274.0	7.123273647827625e+17
19275.0	7.122180099102036e+17
19276.0	7.120596152352765e+17
19277.0	7.119021350584319e+17
19278.0	7.117442231478952e+17
19279.0	7.115842052773204e+17
19280.0	7.114218802599251e+17
19281.0	7.112660544563881e+17
19282.0	7.110960028319743e+17
19283.0	7.108002680493398e+17
19284.0	7.106387922386943e+17
19285.0	7.104835688770217e+17
19286.0	7.103290926607017e+17
19287.0	7.101663901559466e+17
19288.0	7.094928193268389e+17
19289.0	7.086043569673536e+17
19290.0	7.09676292444433e+17
19291.0	7.09499369291776e+17
19292.0	7.093532751123795e+17
19293.0	7.091881674539005e+17
19294.0	7.090222809131689e+17
19295.0	7.08857080980002e+17
19296.0	7.086897089566036e+17
19297.0	7.085214091531603e+17
19298.0	7.083543322689535e+17
19299.0	7.081861880741887e+17
19300.0	7.080178752684032e+17
19301.0	7.078478535633577e+17
19302.0	7.075217383183697e+17
19303.0	7.07317714649088e+17
19304.0	7.071482203078655e+17
19305.0	7.069759340980905e+17
19306.0	7.068020163040595e+17
19307.0	7.066232436031487e+17
19308.0	7.064473838463658e+17
19309.0	7.062256837023059e+17
19310.0	7.060272996941823e+17
19311.0	7.059089741840383e+17
19312.0	7.057404491464701e+17
19313.0	7.055600529702911e+17
19314.0	7.040912363705678e+17
19315.0	7.038027594115775e+17
19316.0	7.047595953575252e+17
19317.0	7.045846594661033e+17
19318.0	7.044001043578879e+17
19319.0	7.042153501600425e+17
19320.0	7.040273867603968e+17
19321.0	7.038378379138387e+17
19322.0	7.0363840512e+17
19323.0	7.034370782483796e+17
19324.0	7.030044103453353e+17
19325.0	7.027137682167124e+17
19326.0	7.025492032312659e+17
19327.0	7.023556839167316e+17
19328.0	7.021577962345812e+17
19329.0	7.019599625890474e+17
19330.0	7.0175677218816e+17
19331.0	7.012301234241533e+17
19332.0	7.009491565062825e+17
19333.0	7.007411287446867e+17
19334.0	7.005330493931519e+17
19335.0	7.003011078073002e+17
19336.0	7.000879371998548e+17
19337.0	6.994340628922364e+17
19338.0	6.991517306585087e+17
19339.0	6.989451337138175e+17
19340.0	6.987198856779092e+17
19341.0	6.984979878423209e+17
19342.0	6.978711924506619e+17
19343.0	6.974569174095187e+17
19344.0	6.972242907540138e+17
19345.0	6.968788052344828e+17
19346.0	6.967078242921129e+17
19347.0	6.962131707974996e+17
19348.0	6.959352311185407e+17
19349.0	6.956882528829437e+17
19350.0	6.954393709226666e+17
19351.0	6.951883578365268e+17
19352.0	6.949304575634089e+17
19353.0	6.946811635826687e+17
19354.0	6.944235755754836e+17
19355.0	6.941571713510057e+17
19356.0	6.938998913455444e+17
19357.0	6.936340268580863e+17
19358.0	6.933640063046998e+17
19359.0	6.930407380833619e+17
19360.0	6.927636481004884e+17
19361.0	6.924866961801215e+17
19362.0	6.922072534024191e+17
19363.0	6.919222898720767e+17
19364.0	6.916339201474559e+17
19365.0	6.913420439846911e+17
19366.0	6.910466779512831e+17
19367.0	6.907477293531135e+17
19368.0	6.904452642504703e+17
19369.0	6.901359093743613e+17
19370.0	6.897927490371583e+17
19371.0	6.894173719713108e+17
19372.0	6.891007019494057e+17
19373.0	6.887732861206527e+17
19374.0	6.884429861486591e+17
19375.0	6.881075026460671e+17
19376.0	6.877684372078591e+17
19377.0	6.873795158256298e+17
19378.0	6.869268894668115e+17
19379.0	6.865726544194218e+17
19380.0	6.862140347165354e+17
19381.0	6.858509359164074e+17
19382.0	6.854661430575101e+17
19383.0	6.848848081889961e+17
19384.0	6.845090130908499e+17
19385.0	6.841225862709247e+17
19386.0	6.837319095025661e+17
19387.0	6.831156997652476e+17
19388.0	6.826275381444607e+17
19389.0	6.822040526913535e+17
19390.0	6.816554509402111e+17
19391.0	6.794772306635412e+17
19392.0	6.804394220366504e+17
19393.0	6.797402642754216e+17
19394.0	6.790375827395924e+17
19395.0	6.784080489567571e+17
19396.0	6.774233689838931e+17
19397.0	6.767858126159868e+17
19398.0	6.756198628633257e+17
19399.0	6.747409813427537e+17
19400.0	6.7359987480221e+17
19401.0	6.723393442633036e+17
19402.0	6.712622809699663e+17
19403.0	6.701126125267626e+17
19404.0	6.693929016273578e+17
19405.0	6.686547244657321e+17
19406.0	6.679009840594943e+17
19407.0	6.671291775975423e+17
19408.0	6.663035288551423e+17
19409.0	6.655271675887615e+17
19410.0	6.646916383244287e+17
19411.0	6.638357807366143e+17
19412.0	6.629553138390356e+17
19413.0	6.620365291083091e+17
19414.0	6.611215137985875e+17
19415.0	6.601912026311338e+17
19416.0	6.592278004323667e+17
19417.0	6.582571330699263e+17
19418.0	6.572416950075392e+17
19419.0	6.561589027842729e+17
19420.0	6.550789647848788e+17
19421.0	6.539466081217193e+17
19422.0	6.526809840899412e+17
19423.0	6.514701028556797e+17
19424.0	6.500883263127553e+17
19425.0	6.48687225213201e+17
19426.0	6.470848759551314e+17
19427.0	6.454518494877016e+17
19428.0	6.435455423741951e+17
19429.0	6.415745112779436e+17
19430.0	6.394146116512428e+17
19431.0	6.368582576723288e+17
19432.0	6.344493938769915e+17
19433.0	6.315594232102907e+17
19434.0	6.284245688036012e+17
19435.0	6.249480466027858e+17
19436.0	6.214159683988138e+17
19437.0	6.182964576649216e+17
19438.0	6.134240019567956e+17
19439.0	6.112679801039532e+17
19440.0	6.071628607083859e+17
19441.0	6.024421282152445e+17
19442.0	5.971691934405974e+17
19443.0	5.910910615595689e+17
19444.0	5.841102905016316e+17
19445.0	5.7603034881283437e+17
19446.0	5.665239447459156e+17
19447.0	5.551941171369294e+17
19448.0	5.41221541275239e+17
19449.0	5.2327127114055686e+17
19450.0	4.985071761096694e+17
19451.0	4.8522554891741926e+17
19452.0	5.120504333598719e+17
19453.0	5.327883536258396e+17
19454.0	5.482403329299791e+17
19455.0	5.605207729766398e+17
19456.0	5.706271551040174e+17
19457.0	5.791213517012986e+17
19458.0	5.846949048265414e+17
19459.0	5.926571788817755e+17
19460.0	5.980808518391121e+17
19461.0	6.028108321434281e+17
19462.0	6.070017514799104e+17
19463.0	6.107206659342333e+17
19464.0	6.139178227422548e+17
19465.0	6.168411579787945e+17
19466.0	6.199609699336184e+17
19467.0	6.233117299135826e+17
19468.0	6.262935880641193e+17
19469.0	6.29033086956339e+17
19470.0	6.315408490845518e+17
19471.0	6.33789935692459e+17
19472.0	6.358024846660947e+17
19473.0	6.37628292110746e+17
19474.0	6.392434395884201e+17
19475.0	6.407164396568573e+17
19476.0	6.421782191931392e+17
19477.0	6.433558753181696e+17
19478.0	6.445584219111423e+17
19479.0	6.455700641284095e+17
19480.0	6.465559830986751e+17
19481.0	6.475107746709503e+17
19482.0	6.483607221349033e+17
19483.0	6.491788704830804e+17
19484.0	6.500165163330217e+17
19485.0	6.507443382474068e+17
19486.0	6.514501069307904e+17
19487.0	6.521395453711699e+17
19488.0	6.528093322390185e+17
19489.0	6.534632373747711e+17
19490.0	6.540555863457791e+17
19491.0	6.547275655064234e+17
19492.0	6.553223042520404e+17
19493.0	6.558901001169578e+17
19494.0	6.564336639497555e+17
19495.0	6.569577565650943e+17
19496.0	6.574451186117289e+17
19497.0	6.579458625153705e+17
19498.0	6.582587666115242e+17
19499.0	6.569705792514715e+17
19500.0	6.598162800880298e+17
19501.0	6.610582986468018e+17
19502.0	6.61711431051946e+17
19503.0	6.626325533381971e+17
19504.0	6.632470856335355e+17
19505.0	6.63921188999441e+17
19506.0	6.64402099717188e+17
19507.0	6.650123776600746e+17
19508.0	6.652506806069929e+17
19509.0	6.659303336662354e+17
19510.0	6.661212735537151e+17
19511.0	6.640214820083014e+17
19512.0	6.665120958644215e+17
19513.0	6.66381649514768e+17
19514.0	6.667203891254606e+17
19515.0	6.675388369469441e+17
19516.0	6.677713256098473e+17
19517.0	6.67899672081203e+17
19518.0	6.680287384349353e+17
19519.0	6.682370888783187e+17
19520.0	6.684636702834687e+17
19521.0	6.685722918518783e+17
19522.0	6.68671707132723e+17
19523.0	6.687701204642473e+17
19524.0	6.688792513609727e+17
19525.0	6.690884516402516e+17
19526.0	6.691701773740714e+17
19527.0	6.692472656756733e+17
19528.0	6.693196498556244e+17
19529.0	6.693888594367827e+17
19530.0	6.694514580258815e+17
19531.0	6.695089108331178e+17
19532.0	6.696468371647146e+17
19533.0	6.696954765508607e+17
19534.0	6.697388097230164e+17
19535.0	6.697781684426068e+17
19536.0	6.698128556862121e+17
19537.0	6.698479353069565e+17
19538.0	6.69869987209762e+17
19539.0	6.698720785596416e+17
19540.0	6.699232803859114e+17
19541.0	6.699441010507775e+17
19542.0	6.699596694683647e+17
19543.0	6.699714737078271e+17
19544.0	6.700258511814655e+17
19545.0	6.700074410530131e+17
19546.0	6.699868328995498e+17
19547.0	6.700384359109972e+17
19548.0	6.700365887395155e+17
19549.0	6.700254845293908e+17
19550.0	6.700250416108884e+17
19551.0	6.70016318087714e+17
19552.0	6.700048573617491e+17
19553.0	6.699894750314495e+17
19554.0	6.699703103477076e+17
19555.0	6.701177769732776e+17
19556.0	6.702458349464233e+17
19557.0	6.702182942375935e+17
19558.0	6.701892014265684e+17
19559.0	6.701582355092819e+17
19560.0	6.705006045910355e+17
19561.0	6.706290203383126e+17
19562.0	6.705916802673321e+17
19563.0	6.705506398415529e+17
19564.0	6.705078835260074e+17
19565.0	6.70636844323089e+17
19566.0	6.708642013249536e+17
19567.0	6.708158623208788e+17
19568.0	6.707623764863657e+17
19569.0	6.707179604847273e+17
19570.0	6.706751183956649e+17
19571.0	6.707372005261313e+17
19572.0	6.709226016953684e+17
19573.0	6.708625356270249e+17
19574.0	6.707948032797352e+17
19575.0	6.707374728063657e+17
19576.0	6.706728905910953e+17
19577.0	6.706066331708073e+17
19578.0	6.705736209924095e+17
19579.0	6.707568750974292e+17
19580.0	6.706861177481898e+17
19581.0	6.706148220600319e+17
19582.0	6.705425254012244e+17
19583.0	6.704681206153215e+17
19584.0	6.703917278691327e+17
19585.0	6.703085736951807e+17
19586.0	6.702278434794153e+17
19587.0	6.70152395010867e+17
19588.0	6.701548775494996e+17
19589.0	6.702177549899091e+17
19590.0	6.701315982535338e+17
19591.0	6.700544406061055e+17
19592.0	6.699707484427604e+17
19593.0	6.69884862378803e+17
19594.0	6.697843870575273e+17
19595.0	6.697128363556864e+17
19596.0	6.69546285367296e+17
19597.0	6.695380167163901e+17
19598.0	6.694317280198655e+17
19599.0	6.693614848223914e+17
19600.0	6.692721632040275e+17
19601.0	6.691771086711466e+17
19602.0	6.692172464827049e+17
19603.0	6.691127170869929e+17
19604.0	6.690580465713151e+17
19605.0	6.689530400735231e+17
19606.0	6.688783426650111e+17
19607.0	6.687840484196351e+17
19608.0	6.686884764494505e+17
19609.0	6.685900800349524e+17
19610.0	6.684968408667476e+17
19611.0	6.683997576888319e+17
19612.0	6.683038013106857e+17
19613.0	6.682054755003049e+17
19614.0	6.681053815810729e+17
19615.0	6.680091258694314e+17
19616.0	6.678958072397824e+17
19617.0	6.678101620686847e+17
19618.0	6.676767125274623e+17
19619.0	6.675671930284712e+17
19620.0	6.674700154787155e+17
19621.0	6.674079205556223e+17
19622.0	6.673078311802198e+17
19623.0	6.672969405300736e+17
19624.0	6.672143033739946e+17
19625.0	6.671117639658153e+17
19626.0	6.670078006613331e+17
19627.0	6.669011951550463e+17
19628.0	6.66761053741602e+17
19629.0	6.666721595228159e+17
19630.0	6.663790106684073e+17
19631.0	6.649180491612159e+17
19632.0	6.663507346980863e+17
19633.0	6.662658946236416e+17
19634.0	6.661688246577834e+17
19635.0	6.660617462437204e+17
19636.0	6.659580742336511e+17
19637.0	6.658259566635689e+17
19638.0	6.657459004025513e+17
19639.0	6.656550930918057e+17
19640.0	6.65552072876578e+17
19641.0	6.65406334234351e+17
19642.0	6.653415297209684e+17
19643.0	6.652333110853631e+17
19644.0	6.651213154091008e+17
19645.0	6.650006249406463e+17
19646.0	6.649069922069161e+17
19647.0	6.647992945038676e+17
19648.0	6.646900807696383e+17
19649.0	6.645804605374463e+17
19650.0	6.644709508251645e+17
19651.0	6.643610724335616e+17
19652.0	6.642509901288788e+17
19653.0	6.641398561024682e+17
19654.0	6.640302500610047e+17
19655.0	6.639193149844136e+17
19656.0	6.638083770417151e+17
19657.0	6.636978228778324e+17
19658.0	6.635866651536041e+17
19659.0	6.634752454950911e+17
19660.0	6.633638528898388e+17
19661.0	6.632969748523689e+17
19662.0	6.632118582334804e+17
19663.0	6.63095986041651e+17
19664.0	6.629821259273556e+17
19665.0	6.628752359074474e+17
