# Flux units: erg / (cm m2 s)
# Wavelength units: Angstrom
wave	flux
19000.0	4.1467226717771085e+17
19001.0	4.1458359630561274e+17
19002.0	4.145301394117972e+17
19003.0	4.144574981909161e+17
19004.0	4.143789290902868e+17
19005.0	4.143059899340117e+17
19006.0	4.1421701595354445e+17
19007.0	4.1417041283208525e+17
19008.0	4.1408736337592314e+17
19009.0	4.140152478411434e+17
19010.0	4.138489850713427e+17
19011.0	4.138734299643904e+17
19012.0	4.137750769609385e+17
19013.0	4.137404807337301e+17
19014.0	4.136568527432361e+17
19015.0	4.1357591414046714e+17
19016.0	4.135067095225685e+17
19017.0	4.134513340142933e+17
19018.0	4.1337775564608845e+17
19019.0	4.133050995354281e+17
19020.0	4.132352194947755e+17
19021.0	4.131644773149353e+17
19022.0	4.1309494449274874e+17
19023.0	4.130100241672874e+17
19024.0	4.129349604562261e+17
19025.0	4.128782875798185e+17
19026.0	4.1280194292831565e+17
19027.0	4.1272779294638074e+17
19028.0	4.1266108289078605e+17
19029.0	4.1258634514705056e+17
19030.0	4.125160420409343e+17
19031.0	4.124433798485333e+17
19032.0	4.123780620921514e+17
19033.0	4.1228954123632634e+17
19034.0	4.122338745734485e+17
19035.0	4.1216267143959885e+17
19036.0	4.114017236112718e+17
19037.0	4.1201610896616096e+17
19038.0	4.1194555196484256e+17
19039.0	4.118758321466027e+17
19040.0	4.118039141635413e+17
19041.0	4.117321621351082e+17
19042.0	4.110365321330679e+17
19043.0	4.115943026327551e+17
19044.0	4.115233028527444e+17
19045.0	4.1144898579770016e+17
19046.0	4.1136719756875085e+17
19047.0	4.1130618652371616e+17
19048.0	4.1111584495370234e+17
19049.0	4.0988149323311616e+17
19050.0	4.110828567527422e+17
19051.0	4.1090198109771066e+17
19052.0	4.109448115825323e+17
19053.0	4.108821270801066e+17
19054.0	4.1080801142155936e+17
19055.0	4.1050898376075955e+17
19056.0	4.106064449153704e+17
19057.0	4.105981571803817e+17
19058.0	4.0987128597490234e+17
19059.0	4.101888862934355e+17
19060.0	4.1038108992471034e+17
19061.0	4.103114693716649e+17
19062.0	4.1023731400704e+17
19063.0	4.1017223406769485e+17
19064.0	4.100803047806294e+17
19065.0	4.100045059478868e+17
19066.0	4.097035977708888e+17
19067.0	4.098783352717312e+17
19068.0	4.098177491795968e+17
19069.0	4.097467878473727e+17
19070.0	4.096654775593641e+17
19071.0	4.096003005917866e+17
19072.0	4.092759959579303e+17
19073.0	4.094630312979114e+17
19074.0	4.093880404279295e+17
19075.0	4.0932180852299085e+17
19076.0	4.0923916871051936e+17
19077.0	4.09175214522368e+17
19078.0	4.0909586325394765e+17
19079.0	4.0903460691203405e+17
19080.0	4.089651837009919e+17
19081.0	4.0888645479738016e+17
19082.0	4.0881736489369594e+17
19083.0	4.0874398631417165e+17
19084.0	4.086550089083562e+17
19085.0	4.086073584691883e+17
19086.0	4.0818264031013523e+17
19087.0	4.079311691360933e+17
19088.0	4.080871581679611e+17
19089.0	4.0829790670465696e+17
19090.0	4.0825727487399245e+17
19091.0	4.081469225260375e+17
19092.0	4.076213579896162e+17
19093.0	4.0804797910439245e+17
19094.0	4.079781519818751e+17
19095.0	4.079046684049408e+17
19096.0	4.078340203872255e+17
19097.0	4.077647070669482e+17
19098.0	4.074388162172243e+17
19099.0	4.073139967361026e+17
19100.0	4.075462760333311e+17
19101.0	4.074767929136468e+17
19102.0	4.073843896003241e+17
19103.0	4.073397269736106e+17
19104.0	4.0727495902057805e+17
19105.0	4.066411089494032e+17
19106.0	4.0712445264308896e+17
19107.0	4.0692687394133306e+17
19108.0	4.06783125146829e+17
19109.0	4.0688880643822925e+17
19110.0	4.068496217123498e+17
19111.0	4.066226519146493e+17
19112.0	4.065116222565031e+17
19113.0	4.066370392861354e+17
19114.0	4.064670533724841e+17
19115.0	4.0646236910387194e+17
19116.0	4.064166194533717e+17
19117.0	4.063512287161002e+17
19118.0	4.0624680389836806e+17
19119.0	4.0280497823852704e+17
19120.0	4.0612595796104525e+17
19121.0	4.0606890424183456e+17
19122.0	4.060089091271338e+17
19123.0	4.0594007871105696e+17
19124.0	4.058669777245525e+17
19125.0	4.0579904174380365e+17
19126.0	4.0572864978834765e+17
19127.0	4.053095706613073e+17
19128.0	4.055852796695891e+17
19129.0	4.0550741157696845e+17
19130.0	4.0544834766766074e+17
19131.0	4.053789646520319e+17
19132.0	4.053059023929343e+17
19133.0	4.0523205999329274e+17
19134.0	4.0516779018376525e+17
19135.0	4.050976418474665e+17
19136.0	4.0502253332725754e+17
19137.0	4.049240867908266e+17
19138.0	4.048872472401236e+17
19139.0	4.0482117157300896e+17
19140.0	4.047516996381354e+17
19141.0	4.0468068042451616e+17
19142.0	4.0460230083652256e+17
19143.0	4.045264156710229e+17
19144.0	4.044636905537536e+17
19145.0	4.043992879945045e+17
19146.0	4.042283669607766e+17
19147.0	4.042284598646099e+17
19148.0	4.039768892855641e+17
19149.0	4.03866131558127e+17
19150.0	4.040518595335509e+17
19151.0	4.039809259536383e+17
19152.0	4.0391302506523296e+17
19153.0	4.0338662215734534e+17
19154.0	4.037126340127402e+17
19155.0	4.03704673083938e+17
19156.0	4.036337009164287e+17
19157.0	4.034196375513774e+17
19158.0	4.0315406351947136e+17
19159.0	4.034107271020543e+17
19160.0	4.033523928618325e+17
19161.0	4.032849650210132e+17
19162.0	4.031652560196949e+17
19163.0	4.031470640649557e+17
19164.0	4.0307525555322874e+17
19165.0	4.0251259582327386e+17
19166.0	4.029057182203902e+17
19167.0	4.028550692732927e+17
19168.0	4.027983390048254e+17
19169.0	4.027266909951317e+17
19170.0	4.026609073214804e+17
19171.0	4.0258410374321485e+17
19172.0	4.025206918785705e+17
19173.0	4.0245334960155296e+17
19174.0	4.023708277189291e+17
19175.0	4.0231139282343245e+17
19176.0	4.022441079384746e+17
19177.0	4.021487698706432e+17
19178.0	4.020927617914197e+17
19179.0	4.020156447588351e+17
19180.0	4.019647240907434e+17
19181.0	4.018560893102761e+17
19182.0	4.0181896496633165e+17
19183.0	4.0175814154649594e+17
19184.0	4.0168531682481485e+17
19185.0	4.016164917914282e+17
19186.0	4.015508934361087e+17
19187.0	4.0147142689423354e+17
19188.0	4.0141005940326394e+17
19189.0	4.0134502336430074e+17
19190.0	4.012756540500651e+17
19191.0	4.011965758308351e+17
19192.0	4.011366720820565e+17
19193.0	4.010153939916118e+17
19194.0	4.009122201949525e+17
19195.0	4.0092948520850765e+17
19196.0	4.0085681938104314e+17
19197.0	4.0078604371667616e+17
19198.0	4.0071933904377165e+17
19199.0	4.002776146597204e+17
19200.0	4.0034862590416224e+17
19201.0	4.0051139824407885e+17
19202.0	4.004472573394943e+17
19203.0	4.003761094306474e+17
19204.0	4.0030545078736205e+17
19205.0	4.002385677167274e+17
19206.0	4.0016871486914554e+17
19207.0	4.000806407066965e+17
19208.0	3.99975298315059e+17
19209.0	3.999619702150485e+17
19210.0	3.9989010598898336e+17
19211.0	3.998258471545514e+17
19212.0	3.997574448371029e+17
19213.0	3.9967314233262074e+17
19214.0	3.995990832971776e+17
19215.0	3.995504173471061e+17
19216.0	3.99483067240721e+17
19217.0	3.9941533817896954e+17
19218.0	3.991987559945554e+17
19219.0	3.992553125489322e+17
19220.0	3.9920485017845754e+17
19221.0	3.9908089437443405e+17
19222.0	3.9906741423090336e+17
19223.0	3.98997672881903e+17
19224.0	3.9892524221508256e+17
19225.0	3.988378357858302e+17
19226.0	3.987943888781312e+17
19227.0	3.9872533916986016e+17
19228.0	3.986597501818196e+17
19229.0	3.9858453121160525e+17
19230.0	3.9851960324587514e+17
19231.0	3.9845400209435296e+17
19232.0	3.983862728927914e+17
19233.0	3.983062522134528e+17
19234.0	3.982416128857427e+17
19235.0	3.9817479636473165e+17
19236.0	3.9811138436027725e+17
19237.0	3.980366699648342e+17
19238.0	3.979513447492265e+17
19239.0	3.9790621585571834e+17
19240.0	3.9783416708027725e+17
19241.0	3.977668785602559e+17
19242.0	3.97693603090705e+17
19243.0	3.976104441632084e+17
19244.0	3.975623220046506e+17
19245.0	3.974897874589012e+17
19246.0	3.974232513970176e+17
19247.0	3.9735912510259194e+17
19248.0	3.9729098485923834e+17
19249.0	3.9721175277895674e+17
19250.0	3.970672543225172e+17
19251.0	3.9698908102437523e+17
19252.0	3.9697635375841274e+17
19253.0	3.9694339974103034e+17
19254.0	3.9688174920444576e+17
19255.0	3.9678374013392205e+17
19256.0	3.9673908519676576e+17
19257.0	3.966760609557161e+17
19258.0	3.9660691680570016e+17
19259.0	3.9653059389467296e+17
19260.0	3.964438791760554e+17
19261.0	3.964033466804906e+17
19262.0	3.963239861146964e+17
19263.0	3.9625212880923296e+17
19264.0	3.9608917289861094e+17
19265.0	3.9608602115877523e+17
19266.0	3.959634082310827e+17
19267.0	3.95995954352401e+17
19268.0	3.959228470045355e+17
19269.0	3.958584108908543e+17
19270.0	3.9579133362394445e+17
19271.0	3.9565190111778144e+17
19272.0	3.9564963801115296e+17
19273.0	3.9555195343994874e+17
19274.0	3.9545602054990483e+17
19275.0	3.9545274738496845e+17
19276.0	3.953815034265599e+17
19277.0	3.9531606074982394e+17
19278.0	3.9524184261044896e+17
19279.0	3.951765222675796e+17
19280.0	3.9509672479511885e+17
19281.0	3.950434489554261e+17
19282.0	3.949782453540181e+17
19283.0	3.949051523366912e+17
19284.0	3.9483802354974714e+17
19285.0	3.947451910193151e+17
19286.0	3.946987026819754e+17
19287.0	3.9463517051071136e+17
19288.0	3.9441813541137056e+17
19289.0	3.940042024157172e+17
19290.0	3.944364223670953e+17
19291.0	3.943285501810006e+17
19292.0	3.942996512866304e+17
19293.0	3.9423036208360096e+17
19294.0	3.941626587469142e+17
19295.0	3.9409538301951994e+17
19296.0	3.9376477882067686e+17
19297.0	3.9391582689252704e+17
19298.0	3.9388784144766285e+17
19299.0	3.935316027113475e+17
19300.0	3.937519255857834e+17
19301.0	3.936878837366783e+17
19302.0	3.936226376329898e+17
19303.0	3.9354024521454925e+17
19304.0	3.934818614815402e+17
19305.0	3.934148104989354e+17
19306.0	3.933508370868906e+17
19307.0	3.932737181668691e+17
19308.0	3.9321033167776416e+17
19309.0	3.9313247840501754e+17
19310.0	3.930621790737748e+17
19311.0	3.9300575645750605e+17
19312.0	3.929410935018838e+17
19313.0	3.9286880893665274e+17
19314.0	3.8922611980587923e+17
19315.0	3.893719638649579e+17
19316.0	3.92331761444455e+17
19317.0	3.926043503099904e+17
19318.0	3.9254073194577914e+17
19319.0	3.9247304189105485e+17
19320.0	3.923073877147645e+17
19321.0	3.9210889717131936e+17
19322.0	3.9226480224720205e+17
19323.0	3.922041569454761e+17
19324.0	3.921409709441024e+17
19325.0	3.920617118804651e+17
19326.0	3.9200676705730554e+17
19327.0	3.9193647422723405e+17
19328.0	3.913607150567429e+17
19329.0	3.918063223177215e+17
19330.0	3.917327800205311e+17
19331.0	3.9166637950457165e+17
19332.0	3.916051120477525e+17
19333.0	3.9153767351145805e+17
19334.0	3.914559764387158e+17
19335.0	3.9036036719138266e+17
19336.0	3.9132745541440845e+17
19337.0	3.9126891313670816e+17
19338.0	3.911667960949418e+17
19339.0	3.911319445744297e+17
19340.0	3.9096680888401914e+17
19341.0	3.906181132539228e+17
19342.0	3.907626189105837e+17
19343.0	3.9086770733711354e+17
19344.0	3.904207796393307e+17
19345.0	3.901118307019427e+17
19346.0	3.905362279268354e+17
19347.0	3.901235818834601e+17
19348.0	3.9053419718464845e+17
19349.0	3.904616497064618e+17
19350.0	3.902305482397013e+17
19351.0	3.903219161890816e+17
19352.0	3.897529337555618e+17
19353.0	3.9019780491618976e+17
19354.0	3.901332239592106e+17
19355.0	3.900505940732586e+17
19356.0	3.8999749823911245e+17
19357.0	3.899322871578623e+17
19358.0	3.898646920342186e+17
19359.0	3.896842249743013e+17
19360.0	3.893290081102505e+17
19361.0	3.89656124395793e+17
19362.0	3.89598725275648e+17
19363.0	3.895317216187733e+17
19364.0	3.894659869485738e+17
19365.0	3.8939763803859616e+17
19366.0	3.8932602302409376e+17
19367.0	3.892642006608555e+17
19368.0	3.891990868175529e+17
19369.0	3.8912553403460256e+17
19370.0	3.8906397255707296e+17
19371.0	3.8898946976426656e+17
19372.0	3.889313830578857e+17
19373.0	3.8886064933655885e+17
19374.0	3.887959178739711e+17
19375.0	3.887328599386793e+17
19376.0	3.886676715066708e+17
19377.0	3.8859979606370976e+17
19378.0	3.885341626859519e+17
19379.0	3.884681195246932e+17
19380.0	3.883954418133674e+17
19381.0	3.883258165067774e+17
19382.0	3.8825664816960845e+17
19383.0	3.8818240828975776e+17
19384.0	3.881228512002048e+17
19385.0	3.8806705577219405e+17
19386.0	3.880013185854122e+17
19387.0	3.879345506484223e+17
19388.0	3.8786448333209594e+17
19389.0	3.87794459496721e+17
19390.0	3.8772815747700045e+17
19391.0	3.8700895520685965e+17
19392.0	3.8759240421430605e+17
19393.0	3.8752764031576736e+17
19394.0	3.8746068678082554e+17
19395.0	3.872418414897838e+17
19396.0	3.8729310518203744e+17
19397.0	3.872609831747583e+17
19398.0	3.870713180061696e+17
19399.0	3.867874401714173e+17
19400.0	3.869543608877057e+17
19401.0	3.8699414099503776e+17
19402.0	3.8693060700624205e+17
19403.0	3.8686135701995514e+17
19404.0	3.86793792794351e+17
19405.0	3.867224255933097e+17
19406.0	3.8666154345321805e+17
19407.0	3.86409715483716e+17
19408.0	3.863624093270021e+17
19409.0	3.8645974122714445e+17
19410.0	3.863961786471765e+17
19411.0	3.8632852934710605e+17
19412.0	3.8625925789996365e+17
19413.0	3.8600203738371405e+17
19414.0	3.8612077938824525e+17
19415.0	3.860580502863872e+17
19416.0	3.8596257821054285e+17
19417.0	3.85917983461649e+17
19418.0	3.858575035553108e+17
19419.0	3.857897059865942e+17
19420.0	3.857223427380565e+17
19421.0	3.8565290694410234e+17
19422.0	3.8557763764223994e+17
19423.0	3.8551759366389754e+17
19424.0	3.8544964866539514e+17
19425.0	3.853762567340032e+17
19426.0	3.853112148230144e+17
19427.0	3.8523998987878394e+17
19428.0	3.851677929745066e+17
19429.0	3.8510127515784525e+17
19430.0	3.8502210529307315e+17
19431.0	3.848158966011224e+17
19432.0	3.848803975167999e+17
19433.0	3.8480311250234016e+17
19434.0	3.8472712555506336e+17
19435.0	3.8463574257609376e+17
19436.0	3.844891557057876e+17
19437.0	3.844710758088703e+17
19438.0	3.829864933796523e+17
19439.0	3.842232848569685e+17
19440.0	3.8418253230025376e+17
19441.0	3.840655560278016e+17
19442.0	3.8393429870946976e+17
19443.0	3.837694328526166e+17
19444.0	3.835600060809216e+17
19445.0	3.832709389134506e+17
19446.0	3.8283493982426445e+17
19447.0	3.820932277731327e+17
19448.0	3.805646191329281e+17
19449.0	3.763126939942911e+17
19450.0	3.603151555919865e+17
19451.0	3.463581969416192e+17
19452.0	3.6596111061811226e+17
19453.0	3.7769956242227226e+17
19454.0	3.8068589806223354e+17
19455.0	3.817897946251263e+17
19456.0	3.8228473046630406e+17
19457.0	3.825179124476587e+17
19458.0	3.6977415853618176e+17
19459.0	3.82406938713568e+17
19460.0	3.827570615954089e+17
19461.0	3.82774201618705e+17
19462.0	3.8275735876184736e+17
19463.0	3.827335191767722e+17
19464.0	3.8269338472065696e+17
19465.0	3.826553167981225e+17
19466.0	3.826049630601216e+17
19467.0	3.825598380113919e+17
19468.0	3.825080031248383e+17
19469.0	3.820299826320718e+17
19470.0	3.823965982162944e+17
19471.0	3.8234080733211296e+17
19472.0	3.8226948242363725e+17
19473.0	3.8221073965820576e+17
19474.0	3.817797400395769e+17
19475.0	3.819003420781223e+17
19476.0	3.8202848708307616e+17
19477.0	3.819678007470761e+17
19478.0	3.819166428910932e+17
19479.0	3.814899257267535e+17
19480.0	3.8178753277678925e+17
19481.0	3.816941803623765e+17
19482.0	3.816576934827349e+17
19483.0	3.8160337430992205e+17
19484.0	3.8153466741609805e+17
19485.0	3.814638963654655e+17
19486.0	3.810158493477557e+17
19487.0	3.8134391347609594e+17
19488.0	3.8128638069746336e+17
19489.0	3.812180062721366e+17
19490.0	3.808258135425018e+17
19491.0	3.810857784617641e+17
19492.0	3.8102849587336525e+17
19493.0	3.809637952389119e+17
19494.0	3.8089821603758074e+17
19495.0	3.8083566994718714e+17
19496.0	3.806639064875006e+17
19497.0	3.807031063128746e+17
19498.0	3.806275636122966e+17
19499.0	3.7949169317095974e+17
19500.0	3.805135160825172e+17
19501.0	3.804591032369151e+17
19502.0	3.8039559161774074e+17
19503.0	3.8033194137681914e+17
19504.0	3.8026619545190394e+17
19505.0	3.8019433185498445e+17
19506.0	3.801390099638954e+17
19507.0	3.8006783087738874e+17
19508.0	3.800078876322474e+17
19509.0	3.7994109683630074e+17
19510.0	3.797851617711444e+17
19511.0	3.743684082270147e+17
19512.0	3.796006626568868e+17
19513.0	3.792940700095822e+17
19514.0	3.793893504756392e+17
19515.0	3.7945547165095296e+17
19516.0	3.794478118731774e+17
19517.0	3.794029810548735e+17
19518.0	3.7926518509622586e+17
19519.0	3.791967300004521e+17
19520.0	3.788942394523642e+17
19521.0	3.791708175903402e+17
19522.0	3.790568238175572e+17
19523.0	3.789640604232365e+17
19524.0	3.7871612169202406e+17
19525.0	3.7890617001028256e+17
19526.0	3.788460633970004e+17
19527.0	3.787794449170432e+17
19528.0	3.7869465922874016e+17
19529.0	3.786179169572181e+17
19530.0	3.7859055289849165e+17
19531.0	3.7852544031348045e+17
19532.0	3.78460215111407e+17
19533.0	3.7839232575733754e+17
19534.0	3.783332066929322e+17
19535.0	3.782668621010261e+17
19536.0	3.7819645714322765e+17
19537.0	3.781382024549716e+17
19538.0	3.7774695868661805e+17
19539.0	3.778856313247066e+17
19540.0	3.7794402456480416e+17
19541.0	3.778183642655402e+17
19542.0	3.7779078524873376e+17
19543.0	3.774139886906028e+17
19544.0	3.776707876093951e+17
19545.0	3.775505220239354e+17
19546.0	3.7735610093404166e+17
19547.0	3.774998084845567e+17
19548.0	3.774343667864916e+17
19549.0	3.7735401014340256e+17
19550.0	3.7729955947915936e+17
19551.0	3.7724289016791034e+17
19552.0	3.7717346241303885e+17
19553.0	3.771096189545131e+17
19554.0	3.7703634145771514e+17
19555.0	3.769460506056021e+17
19556.0	3.768941646184447e+17
19557.0	3.7685318228377594e+17
19558.0	3.767920421240831e+17
19559.0	3.767287427366911e+17
19560.0	3.7654490233787706e+17
19561.0	3.765964469086889e+17
19562.0	3.764218525734227e+17
19563.0	3.7647360406323194e+17
19564.0	3.764021524867754e+17
19565.0	3.763423200411647e+17
19566.0	3.7627114333143034e+17
19567.0	3.762179117416447e+17
19568.0	3.761511543603199e+17
19569.0	3.7608649112507725e+17
19570.0	3.760243440528042e+17
19571.0	3.7595953520530765e+17
19572.0	3.758929246246229e+17
19573.0	3.757968784184661e+17
19574.0	3.7574403228521805e+17
19575.0	3.757071683376469e+17
19576.0	3.756267696117076e+17
19577.0	3.7552868902830086e+17
19578.0	3.7550738406113274e+17
19579.0	3.7544796230778874e+17
19580.0	3.7538325027880954e+17
19581.0	3.753158365588138e+17
19582.0	3.752604864959829e+17
19583.0	3.7519893242839034e+17
19584.0	3.7513127928354125e+17
19585.0	3.7505237030447776e+17
19586.0	3.7498535986681165e+17
19587.0	3.749411476384427e+17
19588.0	3.7478408095006726e+17
19589.0	3.7481196985603405e+17
19590.0	3.747174678527999e+17
19591.0	3.74686334652689e+17
19592.0	3.746208664606037e+17
19593.0	3.745314539656531e+17
19594.0	3.744300237411667e+17
19595.0	3.744303434170368e+17
19596.0	3.7436428606504954e+17
19597.0	3.7430515749355514e+17
19598.0	3.740774803963901e+17
19599.0	3.741786911888725e+17
19600.0	3.741139354692266e+17
19601.0	3.740413572328107e+17
19602.0	3.739819877684565e+17
19603.0	3.7383622612746214e+17
19604.0	3.738584239221418e+17
19605.0	3.7374616917770234e+17
19606.0	3.737299818206549e+17
19607.0	3.736725133546837e+17
19608.0	3.7360063060377594e+17
19609.0	3.7353553381730976e+17
19610.0	3.733163958337539e+17
19611.0	3.7316794837019315e+17
19612.0	3.7335625276675405e+17
19613.0	3.732869252557482e+17
19614.0	3.732226003610282e+17
19615.0	3.731665164348074e+17
19616.0	3.7293429788508186e+17
19617.0	3.727845689917441e+17
19618.0	3.7285404071690214e+17
19619.0	3.7271933456220115e+17
19620.0	3.72622453409928e+17
19621.0	3.7242566414609043e+17
19622.0	3.727233843025237e+17
19623.0	3.726474778159785e+17
19624.0	3.7255750656983034e+17
19625.0	3.725336635594069e+17
19626.0	3.724674662574763e+17
19627.0	3.7240834097151994e+17
19628.0	3.723331895995051e+17
19629.0	3.714110221626021e+17
19630.0	3.72216290152721e+17
19631.0	3.718065660013224e+17
19632.0	3.7208322348154874e+17
19633.0	3.7201850655921485e+17
19634.0	3.7195866181031245e+17
19635.0	3.718600967847933e+17
19636.0	3.714185712806566e+17
19637.0	3.713357954329255e+17
19638.0	3.7168221802987494e+17
19639.0	3.716418312164693e+17
19640.0	3.715758066499584e+17
19641.0	3.710842045814118e+17
19642.0	3.714390891866795e+17
19643.0	3.713717009121279e+17
19644.0	3.71324054807074e+17
19645.0	3.712177146604201e+17
19646.0	3.707733200426318e+17
19647.0	3.7113454412868256e+17
19648.0	3.7108491768299514e+17
19649.0	3.7101545972913485e+17
19650.0	3.709586520757589e+17
19651.0	3.7089640629753165e+17
19652.0	3.7083297800519674e+17
19653.0	3.707689987910314e+17
19654.0	3.7070857970210125e+17
19655.0	3.7063665836359674e+17
