# Flux units: erg / (cm m2 s)
# Wavelength units: Angstrom
wave	flux
19000.0	6.809734427093672e+17
19001.0	6.808436148098387e+17
19002.0	6.807171869529428e+17
19003.0	6.805889127634259e+17
19004.0	6.804606259909972e+17
19005.0	6.803328286938452e+17
19006.0	6.802047258416468e+17
19007.0	6.80065864110353e+17
19008.0	6.799474185033044e+17
19009.0	6.798201059278847e+17
19010.0	6.79683925615138e+17
19011.0	6.795637852296531e+17
19012.0	6.794227511285075e+17
19013.0	6.793080693500585e+17
19014.0	6.791790345235114e+17
19015.0	6.79051459105041e+17
19016.0	6.789232898430292e+17
19017.0	6.78794311639586e+17
19018.0	6.786671053198676e+17
19019.0	6.78540096971298e+17
19020.0	6.784112105532074e+17
19021.0	6.782839452336127e+17
19022.0	6.781565981250899e+17
19023.0	6.780279167385599e+17
19024.0	6.779002319186601e+17
19025.0	6.777718409876819e+17
19026.0	6.776431264661503e+17
19027.0	6.775063072909994e+17
19028.0	6.773891751302484e+17
19029.0	6.772612817835348e+17
19030.0	6.771337780876627e+17
19031.0	6.770059937928532e+17
19032.0	6.768782221508607e+17
19033.0	6.767489317513897e+17
19034.0	6.766224521647444e+17
19035.0	6.764942922700116e+17
19036.0	6.755573847905613e+17
19037.0	6.76239541150242e+17
19038.0	6.761115027505151e+17
19039.0	6.759842910481065e+17
19040.0	6.758566565598547e+17
19041.0	6.757290361225215e+17
19042.0	6.756000384854697e+17
19043.0	6.754738892002643e+17
19044.0	6.753462640792916e+17
19045.0	6.752182648264022e+17
19046.0	6.750902950734505e+17
19047.0	6.749637022405972e+17
19048.0	6.748326301007871e+17
19049.0	6.74707650327347e+17
19050.0	6.745805504730452e+17
19051.0	6.743321918220966e+17
19052.0	6.74319286018594e+17
19053.0	6.741963877384191e+17
19054.0	6.740716385118889e+17
19055.0	6.739399117810346e+17
19056.0	6.738165403134633e+17
19057.0	6.736892868078249e+17
19058.0	6.73559453245986e+17
19059.0	6.734350032131412e+17
19060.0	6.733073088861524e+17
19061.0	6.731804792149332e+17
19062.0	6.730531739795455e+17
19063.0	6.729260121893546e+17
19064.0	6.727968780277076e+17
19065.0	6.72668557980467e+17
19066.0	6.72543420780817e+17
19067.0	6.724173954372948e+17
19068.0	6.722902702074537e+17
19069.0	6.721632001327103e+17
19070.0	6.720356768634196e+17
19071.0	6.719086297874431e+17
19072.0	6.717819740400297e+17
19073.0	6.716549546464598e+17
19074.0	6.715280584256169e+17
19075.0	6.714010915307519e+17
19076.0	6.712737481971028e+17
19077.0	6.711470680528212e+17
19078.0	6.710195909907796e+17
19079.0	6.708934244390227e+17
19080.0	6.707665224859647e+17
19081.0	6.706389429430953e+17
19082.0	6.70511992475921e+17
19083.0	6.70384160575761e+17
19084.0	6.702551085525674e+17
19085.0	6.701325335833257e+17
19086.0	6.69998403166754e+17
19087.0	6.698553799868415e+17
19088.0	6.69750896169233e+17
19089.0	6.696100401861971e+17
19090.0	6.694983792852991e+17
19091.0	6.693719827458729e+17
19092.0	6.692392062506323e+17
19093.0	6.691192066539519e+17
19094.0	6.689920067654996e+17
19095.0	6.688652461604861e+17
19096.0	6.687382011816616e+17
19097.0	6.686129001944403e+17
19098.0	6.684866005434367e+17
19099.0	6.683601071155881e+17
19100.0	6.682323862246739e+17
19101.0	6.68106834977314e+17
19102.0	6.679793751119188e+17
19103.0	6.678545474519039e+17
19104.0	6.677281939739988e+17
19105.0	6.676018419641002e+17
19106.0	6.674710737016148e+17
19107.0	6.673489744363519e+17
19108.0	6.672229348321961e+17
19109.0	6.670161469767679e+17
19110.0	6.669701086183423e+17
19111.0	6.668440089657341e+17
19112.0	6.66718137623074e+17
19113.0	6.665919955380906e+17
19114.0	6.664658595348479e+17
19115.0	6.663375947825151e+17
19116.0	6.662132473004031e+17
19117.0	6.660873011593215e+17
19118.0	6.659560629949779e+17
19119.0	6.657869649455785e+17
19120.0	6.657029781323773e+17
19121.0	6.655794848202751e+17
19122.0	6.654575262040063e+17
19123.0	6.653314101936127e+17
19124.0	6.652013485315412e+17
19125.0	6.650790565380095e+17
19126.0	6.649518213474985e+17
19127.0	6.647994024372905e+17
19128.0	6.646377443841363e+17
19129.0	6.645747629948927e+17
19130.0	6.644503256847699e+17
19131.0	6.643227144050003e+17
19132.0	6.641989776135508e+17
19133.0	6.64058263887326e+17
19134.0	6.639160536334335e+17
19135.0	6.638215477155156e+17
19136.0	6.636962377105407e+17
19137.0	6.635677685557929e+17
19138.0	6.634378597061971e+17
19139.0	6.633192480047104e+17
19140.0	6.631937688993791e+17
19141.0	6.630682187005951e+17
19142.0	6.629422497704617e+17
19143.0	6.62816136765986e+17
19144.0	6.626911224594431e+17
19145.0	6.625658795633321e+17
19146.0	6.624286898913279e+17
19147.0	6.623137983976788e+17
19148.0	6.621893002701481e+17
19149.0	6.620640837981524e+17
19150.0	6.619386649509887e+17
19151.0	6.618136828706816e+17
19152.0	6.616872264226132e+17
19153.0	6.615626293095082e+17
19154.0	6.614355411992575e+17
19155.0	6.613121609236479e+17
19156.0	6.611870567890943e+17
19157.0	6.61061015507217e+17
19158.0	6.608811633322665e+17
19159.0	6.608109018196648e+17
19160.0	6.606848405449385e+17
19161.0	6.605546187303593e+17
19162.0	6.603114443090604e+17
19163.0	6.603101893033983e+17
19164.0	6.601856748879871e+17
19165.0	6.600585363062783e+17
19166.0	6.599311157275306e+17
19167.0	6.597987178381311e+17
19168.0	6.596831810508116e+17
19169.0	6.595573367614122e+17
19170.0	6.594353566842879e+17
19171.0	6.59303649387042e+17
19172.0	6.591848907451049e+17
19173.0	6.590602009378815e+17
19174.0	6.589346724795732e+17
19175.0	6.588107068189353e+17
19176.0	6.586858007953408e+17
19177.0	6.585583567983955e+17
19178.0	6.584346437746687e+17
19179.0	6.583010157658112e+17
19180.0	6.581740334219263e+17
19181.0	6.580595039666176e+17
19182.0	6.579352674238464e+17
19183.0	6.578105250480128e+17
19184.0	6.57684186669602e+17
19185.0	6.575623013837482e+17
19186.0	6.574376847671295e+17
19187.0	6.573114345390079e+17
19188.0	6.571875154351444e+17
19189.0	6.570607200873129e+17
19190.0	6.569354477611689e+17
19191.0	6.56812101669137e+17
19192.0	6.566888686135978e+17
19193.0	6.565568914827945e+17
19194.0	6.564364520434345e+17
19195.0	6.563145779423914e+17
19196.0	6.561908084353706e+17
19197.0	6.560660298487124e+17
19198.0	6.559406959362047e+17
19199.0	6.550732601819133e+17
19200.0	6.552197509327533e+17
19201.0	6.555589160555862e+17
19202.0	6.554352301550249e+17
19203.0	6.553093061738495e+17
19204.0	6.551857779791188e+17
19205.0	6.550621046614698e+17
19206.0	6.549374625994068e+17
19207.0	6.54811880174387e+17
19208.0	6.54685029601553e+17
19209.0	6.545637881413631e+17
19210.0	6.544399319520595e+17
19211.0	6.543154327759529e+17
19212.0	6.541911248601087e+17
19213.0	6.540587921921366e+17
19214.0	6.539309279958356e+17
19215.0	6.538153101186388e+17
19216.0	6.53693097746978e+17
19217.0	6.535692094712489e+17
19218.0	6.534309034852351e+17
19219.0	6.533177186538836e+17
19220.0	6.531952602163882e+17
19221.0	6.530656628637696e+17
19222.0	6.529474945701203e+17
19223.0	6.528230939601578e+17
19224.0	6.526972907749375e+17
19225.0	6.525718650770772e+17
19226.0	6.524498436860585e+17
19227.0	6.523254534220457e+17
19228.0	6.522015593441961e+17
19229.0	6.520772348608511e+17
19230.0	6.51950425182481e+17
19231.0	6.518266037359956e+17
19232.0	6.517034503722323e+17
19233.0	6.515785600772778e+17
19234.0	6.514551952506877e+17
19235.0	6.513309266913961e+17
19236.0	6.512069998280703e+17
19237.0	6.510824010372436e+17
19238.0	6.509556779013459e+17
19239.0	6.508340533613907e+17
19240.0	6.507053719049556e+17
19241.0	6.50583839220258e+17
19242.0	6.504607051502932e+17
19243.0	6.5033360389789e+17
19244.0	6.502122485623466e+17
19245.0	6.500879366619135e+17
19246.0	6.499632875394388e+17
19247.0	6.498390901435049e+17
19248.0	6.497147744681983e+17
19249.0	6.495900460733779e+17
19250.0	6.494655670299306e+17
19251.0	6.493400805146623e+17
19252.0	6.492109915116884e+17
19253.0	6.490921707940521e+17
19254.0	6.489674373660671e+17
19255.0	6.488395475146068e+17
19256.0	6.487169824718847e+17
19257.0	6.48594454548753e+17
19258.0	6.484699238454612e+17
19259.0	6.483414381931178e+17
19260.0	6.482059618243923e+17
19261.0	6.480927096045567e+17
19262.0	6.479671865988436e+17
19263.0	6.47842520769058e+17
19264.0	6.477101204329812e+17
19265.0	6.475906723173716e+17
19266.0	6.474665911735635e+17
19267.0	6.473443693647188e+17
19268.0	6.472195345743871e+17
19269.0	6.47083030810897e+17
19270.0	6.469456038810963e+17
19271.0	6.468152625987583e+17
19272.0	6.466952781015722e+17
19273.0	6.464549007218003e+17
19274.0	6.463886442801833e+17
19275.0	6.463207140316499e+17
19276.0	6.461952373030911e+17
19277.0	6.460701075832831e+17
19278.0	6.459451522766164e+17
19279.0	6.458174371179177e+17
19280.0	6.456931775064746e+17
19281.0	6.455687862637907e+17
19282.0	6.454435653877759e+17
19283.0	6.453064660331176e+17
19284.0	6.451697905827837e+17
19285.0	6.450630744167763e+17
19286.0	6.449405569794047e+17
19287.0	6.448153366626303e+17
19288.0	6.445136460382208e+17
19289.0	6.439935135449075e+17
19290.0	6.444375262713172e+17
19291.0	6.443069115902634e+17
19292.0	6.441852632126804e+17
19293.0	6.440588434647721e+17
19294.0	6.439326185422847e+17
19295.0	6.438061640515583e+17
19296.0	6.436796142802259e+17
19297.0	6.435525614021289e+17
19298.0	6.434258681156948e+17
19299.0	6.432993155481599e+17
19300.0	6.431723143998121e+17
19301.0	6.430450711003136e+17
19302.0	6.429178452071766e+17
19303.0	6.427889120225961e+17
19304.0	6.426620626381481e+17
19305.0	6.425351346804052e+17
19306.0	6.424026031325183e+17
19307.0	6.422681420649812e+17
19308.0	6.421408105452883e+17
19309.0	6.419914440398166e+17
19310.0	6.41851675779618e+17
19311.0	6.417561544207017e+17
19312.0	6.41629383819264e+17
19313.0	6.414993689935871e+17
19314.0	6.409726403280886e+17
19315.0	6.408788714192904e+17
19316.0	6.411114837442559e+17
19317.0	6.40983400185856e+17
19318.0	6.408534109454335e+17
19319.0	6.407236775575551e+17
19320.0	6.405929712309588e+17
19321.0	6.404627860466346e+17
19322.0	6.403291210579967e+17
19323.0	6.401884308897792e+17
19324.0	6.400690763071487e+17
19325.0	6.399168895516672e+17
19326.0	6.398058561186473e+17
19327.0	6.396735592420692e+17
19328.0	6.395413578558121e+17
19329.0	6.394085314483539e+17
19330.0	6.392746495442943e+17
19331.0	6.391410954250921e+17
19332.0	6.390079515088212e+17
19333.0	6.388733481844735e+17
19334.0	6.387382414038356e+17
19335.0	6.386034742919167e+17
19336.0	6.38447559708945e+17
19337.0	6.383008732239188e+17
19338.0	6.381528635757908e+17
19339.0	6.380159566697812e+17
19340.0	6.378778262852947e+17
19341.0	6.377409310534314e+17
19342.0	6.375950671413247e+17
19343.0	6.374638166037843e+17
19344.0	6.373243550171135e+17
19345.0	6.371481947384489e+17
19346.0	6.3703487086592e+17
19347.0	6.369012841010516e+17
19348.0	6.367402605062825e+17
19349.0	6.365949562541395e+17
19350.0	6.364514211594239e+17
19351.0	6.363074739743401e+17
19352.0	6.361616808760659e+17
19353.0	6.360170823854761e+17
19354.0	6.358616441356287e+17
19355.0	6.357072422283946e+17
19356.0	6.355601005215744e+17
19357.0	6.354105233921363e+17
19358.0	6.352339475278505e+17
19359.0	6.350623970689023e+17
19360.0	6.349150724904275e+17
19361.0	6.347609006407679e+17
19362.0	6.346065533293908e+17
19363.0	6.34449975906577e+17
19364.0	6.34288235225634e+17
19365.0	6.341244168962047e+17
19366.0	6.339636492937897e+17
19367.0	6.338013012776278e+17
19368.0	6.336372952530943e+17
19369.0	6.334690487872169e+17
19370.0	6.332511711920127e+17
19371.0	6.330834211220137e+17
19372.0	6.329128528991572e+17
19373.0	6.32738869673984e+17
19374.0	6.325633326688938e+17
19375.0	6.323850567832916e+17
19376.0	6.322043893754537e+17
19377.0	6.3201701541533e+17
19378.0	6.317735690633215e+17
19379.0	6.315846347522047e+17
19380.0	6.313926457993897e+17
19381.0	6.311974429611347e+17
19382.0	6.309972805681151e+17
19383.0	6.30756630209058e+17
19384.0	6.305166192716457e+17
19385.0	6.303065869123583e+17
19386.0	6.300924626599935e+17
19387.0	6.298222897135615e+17
19388.0	6.295264402167124e+17
19389.0	6.292979573937492e+17
19390.0	6.290635991897427e+17
19391.0	6.280188370703688e+17
19392.0	6.284753836354216e+17
19393.0	6.282186644783104e+17
19394.0	6.279067718385663e+17
19395.0	6.276403081248767e+17
19396.0	6.273675529551871e+17
19397.0	6.270886710258346e+17
19398.0	6.267871815183018e+17
19399.0	6.264314619669161e+17
19400.0	6.261338878421674e+17
19401.0	6.258160528523263e+17
19402.0	6.25486388666914e+17
19403.0	6.251446436975956e+17
19404.0	6.24791007666722e+17
19405.0	6.243528335512915e+17
19406.0	6.239690328550057e+17
19407.0	6.235716824596479e+17
19408.0	6.231459129283924e+17
19409.0	6.226352896912041e+17
19410.0	6.221808372722346e+17
19411.0	6.217036712290985e+17
19412.0	6.210971991976617e+17
19413.0	6.205646860277076e+17
19414.0	6.198997857337341e+17
19415.0	6.192968582387028e+17
19416.0	6.185230568958634e+17
19417.0	6.177866762944511e+17
19418.0	6.169713451204608e+17
19419.0	6.160378348874409e+17
19420.0	6.150028338222418e+17
19421.0	6.138392071547558e+17
19422.0	6.126476911618728e+17
19423.0	6.116234572245673e+17
19424.0	6.106290872909823e+17
19425.0	6.095938245711188e+17
19426.0	6.084918984223401e+17
19427.0	6.072604293070848e+17
19428.0	6.059955214527146e+17
19429.0	6.045960183829846e+17
19430.0	6.031065394533716e+17
19431.0	6.013180625726126e+17
19432.0	5.996508230975485e+17
19433.0	5.975708486598656e+17
19434.0	5.952371587459749e+17
19435.0	5.924294067836246e+17
19436.0	5.889502919436975e+17
19437.0	5.85423376089088e+17
19438.0	5.815967528867154e+17
19439.0	5.791960168136704e+17
19440.0	5.75567767413282e+17
19441.0	5.7142270594034323e+17
19442.0	5.665390307486379e+17
19443.0	5.6038680592820883e+17
19444.0	5.530381712009896e+17
19445.0	5.46086510709965e+17
19446.0	5.376951468425212e+17
19447.0	5.2685783412244474e+17
19448.0	5.144089028023642e+17
19449.0	4.974123283382272e+17
19450.0	4.672464152603293e+17
19451.0	4.572797880412835e+17
19452.0	4.8363790523869894e+17
19453.0	5.0677351833053926e+17
19454.0	5.2049913874568474e+17
19455.0	5.320313071293782e+17
19456.0	5.413030392583511e+17
19457.0	5.486184507637756e+17
19458.0	5.548572730720267e+17
19459.0	5.6217967599288365e+17
19460.0	5.673569951765842e+17
19461.0	5.716013552588117e+17
19462.0	5.7524361440351584e+17
19463.0	5.784561266283858e+17
19464.0	5.813036900854441e+17
19465.0	5.842315455234053e+17
19466.0	5.876940841943037e+17
19467.0	5.905507351003128e+17
19468.0	5.92862131309773e+17
19469.0	5.948022547196584e+17
19470.0	5.965101601390591e+17
19471.0	5.979999338583379e+17
19472.0	5.99308610253619e+17
19473.0	6.005486393840979e+17
19474.0	6.016187755047594e+17
19475.0	6.026342594248703e+17
19476.0	6.035666513166335e+17
19477.0	6.043990166077437e+17
19478.0	6.0516767119005e+17
19479.0	6.059177970150057e+17
19480.0	6.068013461667841e+17
19481.0	6.077742162378753e+17
19482.0	6.086108401456467e+17
19483.0	6.093379872664233e+17
19484.0	6.09956343788339e+17
19485.0	6.105668294890835e+17
19486.0	6.110209947380393e+17
19487.0	6.114661823589033e+17
19488.0	6.118724182474751e+17
19489.0	6.122258933568852e+17
19490.0	6.125234596522664e+17
19491.0	6.128641136132096e+17
19492.0	6.130891174008148e+17
19493.0	6.133284279593642e+17
19494.0	6.135696305684479e+17
19495.0	6.137373181433172e+17
19496.0	6.138843984035839e+17
19497.0	6.140472695892649e+17
19498.0	6.14194471694063e+17
19499.0	6.131466359887174e+17
19500.0	6.144310372204544e+17
19501.0	6.145185657039529e+17
19502.0	6.145948335297876e+17
19503.0	6.146621931432618e+17
19504.0	6.147606128361472e+17
19505.0	6.148209146243753e+17
19506.0	6.148643163034966e+17
19507.0	6.148964696981503e+17
19508.0	6.149254700946772e+17
19509.0	6.149977552890538e+17
19510.0	6.150069797519359e+17
19511.0	6.14044015718126e+17
19512.0	6.149799141878436e+17
19513.0	6.147884294602746e+17
19514.0	6.148852261672273e+17
19515.0	6.151156912182611e+17
19516.0	6.151593493091667e+17
19517.0	6.151579426794153e+17
19518.0	6.151313757481642e+17
19519.0	6.151067583294122e+17
19520.0	6.151336149472595e+17
19521.0	6.150955554133332e+17
19522.0	6.150530958447956e+17
19523.0	6.150088797017427e+17
19524.0	6.14961087844625e+17
19525.0	6.149174154231805e+17
19526.0	6.149142801110356e+17
19527.0	6.14858633650722e+17
19528.0	6.148004871755092e+17
19529.0	6.147403358928895e+17
19530.0	6.14678033211938e+17
19531.0	6.146136746928809e+17
19532.0	6.145473034671446e+17
19533.0	6.14479122539042e+17
19534.0	6.144333173839188e+17
19535.0	6.14383334072866e+17
19536.0	6.143097028564308e+17
19537.0	6.142356962497876e+17
19538.0	6.14159049957922e+17
19539.0	6.140722589029716e+17
19540.0	6.140027355878739e+17
19541.0	6.139306856939519e+17
19542.0	6.13849515495697e+17
19543.0	6.137672516326739e+17
19544.0	6.136838729236479e+17
19545.0	6.135939866121556e+17
19546.0	6.134978820352682e+17
19547.0	6.134275627810815e+17
19548.0	6.133546488605353e+17
19549.0	6.132865967674708e+17
19550.0	6.13199407882786e+17
19551.0	6.131096640378195e+17
19552.0	6.130190974801235e+17
19553.0	6.12933574992418e+17
19554.0	6.128479763081898e+17
19555.0	6.127558254919679e+17
19556.0	6.126628605613396e+17
19557.0	6.125689456907604e+17
19558.0	6.12474550362658e+17
19559.0	6.12379194888465e+17
19560.0	6.122835411293524e+17
19561.0	6.121874736021503e+17
19562.0	6.120914067739988e+17
19563.0	6.119942812336127e+17
19564.0	6.118968461535914e+17
19565.0	6.117988923779753e+17
19566.0	6.117001710447273e+17
19567.0	6.116016363580074e+17
19568.0	6.115020119911082e+17
19569.0	6.11402810270242e+17
19570.0	6.113030041501693e+17
19571.0	6.112026921271296e+17
19572.0	6.111015167765162e+17
19573.0	6.110123522348371e+17
19574.0	6.109176995861844e+17
19575.0	6.108178559270911e+17
19576.0	6.107199148042921e+17
19577.0	6.106231086601556e+17
19578.0	6.105211807814996e+17
19579.0	6.104187453920596e+17
19580.0	6.103337605442218e+17
19581.0	6.102400244908031e+17
19582.0	6.101369267508564e+17
19583.0	6.100332952158208e+17
19584.0	6.099291406510761e+17
19585.0	6.098233696015699e+17
19586.0	6.097174242787327e+17
19587.0	6.096107815130454e+17
19588.0	6.095036979260074e+17
19589.0	6.09404108931072e+17
19590.0	6.093004864137897e+17
19591.0	6.091970731922772e+17
19592.0	6.090917760991231e+17
19593.0	6.089859689086976e+17
19594.0	6.088751329574911e+17
19595.0	6.087745587205459e+17
19596.0	6.085202162657964e+17
19597.0	6.085623182000127e+17
19598.0	6.08452059734562e+17
19599.0	6.083506117541887e+17
19600.0	6.082442117687978e+17
19601.0	6.081365383228073e+17
19602.0	6.080303456758442e+17
19603.0	6.079056238521001e+17
19604.0	6.078162135941119e+17
19605.0	6.077053177342633e+17
19606.0	6.076032674518356e+17
19607.0	6.074962985790121e+17
19608.0	6.07388920062498e+17
19609.0	6.072805231689727e+17
19610.0	6.071743324793513e+17
19611.0	6.070667478827008e+17
19612.0	6.069592815654227e+17
19613.0	6.068513886874282e+17
19614.0	6.067431965458431e+17
19615.0	6.066361104422228e+17
19616.0	6.065220752157353e+17
19617.0	6.064203188142079e+17
19618.0	6.063041285543252e+17
19619.0	6.061926761103359e+17
19620.0	6.060855568018089e+17
19621.0	6.059881041057108e+17
19622.0	6.058798982627327e+17
19623.0	6.057716450241194e+17
19624.0	6.056633450190163e+17
19625.0	6.055548156553897e+17
19626.0	6.054465528397823e+17
19627.0	6.053381069428052e+17
19628.0	6.052126593646593e+17
19629.0	6.05119511212851e+17
19630.0	6.050031639461887e+17
19631.0	6.041114369501861e+17
19632.0	6.047948133629952e+17
19633.0	6.046854826775892e+17
19634.0	6.045779078676477e+17
19635.0	6.044684805734399e+17
19636.0	6.043604373995519e+17
19637.0	6.042449000529919e+17
19638.0	6.041426880102399e+17
19639.0	6.040334005960704e+17
19640.0	6.039240048989524e+17
19641.0	6.038053880244906e+17
19642.0	6.037072760537088e+17
19643.0	6.03597730619938e+17
19644.0	6.034883303090857e+17
19645.0	6.033759533006845e+17
19646.0	6.032713918185471e+17
19647.0	6.031623772438527e+17
19648.0	6.0305333813248e+17
19649.0	6.029442409299967e+17
19650.0	6.028352303398912e+17
19651.0	6.027261404774399e+17
19652.0	6.026170522927103e+17
19653.0	6.025076042366976e+17
19654.0	6.023988343996415e+17
19655.0	6.022896364639571e+17
19656.0	6.02180445868305e+17
19657.0	6.020714224156671e+17
19658.0	6.01962175266816e+17
19659.0	6.018530950512639e+17
19660.0	6.017439550668799e+17
19661.0	6.016347820873044e+17
19662.0	6.015256036551338e+17
19663.0	6.014155989450751e+17
19664.0	6.013041374134272e+17
19665.0	6.01198047526912e+17
