# Flux units: erg / (cm m2 s)
# Wavelength units: Angstrom
wave	flux
19000.0	6.525088353135274e+17
19001.0	6.523163445821437e+17
19002.0	6.522729650629289e+17
19003.0	6.521504709039444e+17
19004.0	6.520327491638612e+17
19005.0	6.519072629282132e+17
19006.0	6.517864810239316e+17
19007.0	6.516634859252393e+17
19008.0	6.515149322059776e+17
19009.0	6.513138731406676e+17
19010.0	6.511546398146559e+17
19011.0	6.511464073046697e+17
19012.0	6.509922606208339e+17
19013.0	6.509483656915625e+17
19014.0	6.507945916017321e+17
19015.0	6.506876351720106e+17
19016.0	6.505937203014314e+17
19017.0	6.504747721468585e+17
19018.0	6.503550298008234e+17
19019.0	6.502392208031743e+17
19020.0	6.50115491491567e+17
19021.0	6.500098553588394e+17
19022.0	6.49887506043153e+17
19023.0	6.497401578367657e+17
19024.0	6.496328633461417e+17
19025.0	6.495200556526249e+17
19026.0	6.493959237577385e+17
19027.0	6.492772815776425e+17
19028.0	6.491629605093375e+17
19029.0	6.49036448207121e+17
19030.0	6.489362648094035e+17
19031.0	6.488163918107988e+17
19032.0	6.486859488864937e+17
19033.0	6.48478942507827e+17
19034.0	6.483597021500756e+17
19035.0	6.479038848346793e+17
19036.0	6.464581400526847e+17
19037.0	6.47749800436258e+17
19038.0	6.478884082723497e+17
19039.0	6.478355574554624e+17
19040.0	6.477389753570644e+17
19041.0	6.476247353087316e+17
19042.0	6.473855993730387e+17
19043.0	6.473962490604202e+17
19044.0	6.472722601913001e+17
19045.0	6.47152543011089e+17
19046.0	6.47007449313007e+17
19047.0	6.468783648538623e+17
19048.0	6.467207322839721e+17
19049.0	6.4646916121559e+17
19050.0	6.46459847414033e+17
19051.0	6.46168233255458e+17
19052.0	6.461522055615827e+17
19053.0	6.461642820113748e+17
19054.0	6.460745075479891e+17
19055.0	6.457673039304028e+17
19056.0	6.458333996602708e+17
19057.0	6.457398574536019e+17
19058.0	6.455520047136765e+17
19059.0	6.454811132865193e+17
19060.0	6.45387454128674e+17
19061.0	6.452730226802687e+17
19062.0	6.451502561711444e+17
19063.0	6.450288010111657e+17
19064.0	6.448703565638314e+17
19065.0	6.446890615483052e+17
19066.0	6.446096036047529e+17
19067.0	6.445553625858047e+17
19068.0	6.444479493264723e+17
19069.0	6.443305863391913e+17
19070.0	6.441979035167401e+17
19071.0	6.440902843869865e+17
19072.0	6.439542836603561e+17
19073.0	6.438579862153897e+17
19074.0	6.437430981470889e+17
19075.0	6.436246187059881e+17
19076.0	6.435022492576426e+17
19077.0	6.433766940955988e+17
19078.0	6.43247145956147e+17
19079.0	6.431490820800511e+17
19080.0	6.430225677505876e+17
19081.0	6.428759272630953e+17
19082.0	6.427875639732905e+17
19083.0	6.426028210301609e+17
19084.0	6.423874856725164e+17
19085.0	6.424259133265236e+17
19086.0	6.42003496022835e+17
19087.0	6.421308525685417e+17
19088.0	6.419872926575273e+17
19089.0	6.418236304960174e+17
19090.0	6.418202398206634e+17
19091.0	6.417117291915946e+17
19092.0	6.415166907700566e+17
19093.0	6.414946355118079e+17
19094.0	6.413793907179519e+17
19095.0	6.412649792623956e+17
19096.0	6.411458884315817e+17
19097.0	6.410293299817129e+17
19098.0	6.408824841830399e+17
19099.0	6.407586015696212e+17
19100.0	6.406651981944148e+17
19101.0	6.405423620598441e+17
19102.0	6.404012559564799e+17
19103.0	6.40314813518097e+17
19104.0	6.402051055550463e+17
19105.0	6.400201398244694e+17
19106.0	6.399609605018964e+17
19107.0	6.398183152986793e+17
19108.0	6.396858683359231e+17
19109.0	6.39566697603618e+17
19110.0	6.394650589222227e+17
19111.0	6.39346211430946e+17
19112.0	6.392348741905066e+17
19113.0	6.391387917036201e+17
19114.0	6.390045198690985e+17
19115.0	6.388718139779754e+17
19116.0	6.387549367610025e+17
19117.0	6.386108645157546e+17
19118.0	6.382104035546452e+17
19119.0	6.35602322133263e+17
19120.0	6.381194832773119e+17
19121.0	6.381494722712916e+17
19122.0	6.380653420827988e+17
19123.0	6.37951427093026e+17
19124.0	6.378043371159551e+17
19125.0	6.376765692488362e+17
19126.0	6.374385446638932e+17
19127.0	6.369562762499412e+17
19128.0	6.371753186033663e+17
19129.0	6.371483788683945e+17
19130.0	6.371192952149332e+17
19131.0	6.370260820514131e+17
19132.0	6.369140003919188e+17
19133.0	6.367712115337897e+17
19134.0	6.366759572122281e+17
19135.0	6.365641769134761e+17
19136.0	6.36442061709858e+17
19137.0	6.362982651002879e+17
19138.0	6.362006477777577e+17
19139.0	6.36100993421585e+17
19140.0	6.359889429397503e+17
19141.0	6.358730250999124e+17
19142.0	6.357346336899071e+17
19143.0	6.356211435831295e+17
19144.0	6.354892094439423e+17
19145.0	6.353993934569471e+17
19146.0	6.348364765462532e+17
19147.0	6.351471220097024e+17
19148.0	6.350280780152831e+17
19149.0	6.349085067968511e+17
19150.0	6.348194365571071e+17
19151.0	6.346991849526612e+17
19152.0	6.345788960888148e+17
19153.0	6.343970801407315e+17
19154.0	6.343167789323604e+17
19155.0	6.342163546417834e+17
19156.0	6.341040525017087e+17
19157.0	6.339651121272148e+17
19158.0	6.338192262649172e+17
19159.0	6.337395953063252e+17
19160.0	6.336150093081257e+17
19161.0	6.334849933639679e+17
19162.0	6.333302884881747e+17
19163.0	6.332403850499412e+17
19164.0	6.331543047198035e+17
19165.0	6.329904426997075e+17
19166.0	6.328962326200319e+17
19167.0	6.328108418334719e+17
19168.0	6.327081558343679e+17
19169.0	6.325958913032191e+17
19170.0	6.324856579336873e+17
19171.0	6.323663074055508e+17
19172.0	6.322484967462228e+17
19173.0	6.321356067744425e+17
19174.0	6.320055641964543e+17
19175.0	6.318989444295337e+17
19176.0	6.317857203814397e+17
19177.0	6.315633641084243e+17
19178.0	6.31554022904081e+17
19179.0	6.314359677168297e+17
19180.0	6.313112597342889e+17
19181.0	6.311570662140586e+17
19182.0	6.310625895863636e+17
19183.0	6.309711846572031e+17
19184.0	6.308554188608852e+17
19185.0	6.307321126147412e+17
19186.0	6.306214077355348e+17
19187.0	6.304508472022355e+17
19188.0	6.303822022443005e+17
19189.0	6.302621900647082e+17
19190.0	6.301411065899689e+17
19191.0	6.29994106790434e+17
19192.0	6.298900746993663e+17
19193.0	6.29746595668514e+17
19194.0	6.295916012459348e+17
19195.0	6.29460493804066e+17
19196.0	6.292782675831466e+17
19197.0	6.290662369875284e+17
19198.0	6.287652951162879e+17
19199.0	6.282902872522751e+17
19200.0	6.282303111517524e+17
19201.0	6.284361417271977e+17
19202.0	6.284967447363581e+17
19203.0	6.284715999537834e+17
19204.0	6.284124716619092e+17
19205.0	6.283256212575574e+17
19206.0	6.282321559464618e+17
19207.0	6.280372557971453e+17
19208.0	6.279650148526761e+17
19209.0	6.27909912044066e+17
19210.0	6.278117853233151e+17
19211.0	6.277116981848746e+17
19212.0	6.275922419602772e+17
19213.0	6.274074850361341e+17
19214.0	6.27326337417216e+17
19215.0	6.272369303049556e+17
19216.0	6.271120301533866e+17
19217.0	6.269404276850687e+17
19218.0	6.267037163367082e+17
19219.0	6.265867871802707e+17
19220.0	6.266095673540608e+17
19221.0	6.26477002531362e+17
19222.0	6.263992100760233e+17
19223.0	6.263021712179199e+17
19224.0	6.261716084064255e+17
19225.0	6.260729954959359e+17
19226.0	6.25967092605474e+17
19227.0	6.258617706960212e+17
19228.0	6.25767669178914e+17
19229.0	6.256537750907562e+17
19230.0	6.255375618321065e+17
19231.0	6.25415029854481e+17
19232.0	6.253061981514409e+17
19233.0	6.251506370783914e+17
19234.0	6.250726708390569e+17
19235.0	6.249352174152361e+17
19236.0	6.248472898437119e+17
19237.0	6.247249857566036e+17
19238.0	6.245646269590185e+17
19239.0	6.245025581804202e+17
19240.0	6.243873144351401e+17
19241.0	6.242591701292372e+17
19242.0	6.241468162594132e+17
19243.0	6.239181782472019e+17
19244.0	6.239269396589225e+17
19245.0	6.23805916582161e+17
19246.0	6.236916238953129e+17
19247.0	6.235698301850964e+17
19248.0	6.234630390109523e+17
19249.0	6.23344655409698e+17
19250.0	6.232090465708714e+17
19251.0	6.230420271486287e+17
19252.0	6.227708837101568e+17
19253.0	6.228709194683731e+17
19254.0	6.227684276655444e+17
19255.0	6.225039713457489e+17
19256.0	6.225271052391766e+17
19257.0	6.224191729347241e+17
19258.0	6.223034585186301e+17
19259.0	6.221194650277203e+17
19260.0	6.22008595522082e+17
19261.0	6.21930263749154e+17
19262.0	6.217687934610089e+17
19263.0	6.21614777639458e+17
19264.0	6.213901228179455e+17
19265.0	6.213467367975594e+17
19266.0	6.212425535717376e+17
19267.0	6.21240159183394e+17
19268.0	6.211271078707199e+17
19269.0	6.210063770670419e+17
19270.0	6.208591909005993e+17
19271.0	6.206790043697151e+17
19272.0	6.206309514171731e+17
19273.0	6.204018035174058e+17
19274.0	6.201468828079437e+17
19275.0	6.203212855334227e+17
19276.0	6.201956891972948e+17
19277.0	6.200826861890218e+17
19278.0	6.199654733578237e+17
19279.0	6.198280171378004e+17
19280.0	6.197065598107647e+17
19281.0	6.196048563273727e+17
19282.0	6.194978975907837e+17
19283.0	6.193756197879808e+17
19284.0	6.192321865449471e+17
19285.0	6.190959733768191e+17
19286.0	6.189528389080403e+17
19287.0	6.187729882710015e+17
19288.0	6.178649531919016e+17
19289.0	6.174761399528102e+17
19290.0	6.183987412205565e+17
19291.0	6.182150283285852e+17
19292.0	6.183172569388371e+17
19293.0	6.182144804126719e+17
19294.0	6.180945489734314e+17
19295.0	6.179904868930899e+17
19296.0	6.178395571705172e+17
19297.0	6.177328018576724e+17
19298.0	6.176187265056767e+17
19299.0	6.174877056062804e+17
19300.0	6.17403191988497e+17
19301.0	6.17286902812945e+17
19302.0	6.171562853356883e+17
19303.0	6.170052862672895e+17
19304.0	6.16922644287761e+17
19305.0	6.167949203909289e+17
19306.0	6.16678602064964e+17
19307.0	6.165345496727551e+17
19308.0	6.164139433000957e+17
19309.0	6.162908065038333e+17
19310.0	6.161479627702272e+17
19311.0	6.160258905582249e+17
19312.0	6.159041043977556e+17
19313.0	6.156853097179818e+17
19314.0	6.119803739002205e+17
19315.0	6.120579918725137e+17
19316.0	6.152886256577194e+17
19317.0	6.153127584246441e+17
19318.0	6.152233729829544e+17
19319.0	6.151261899106985e+17
19320.0	6.149980619625811e+17
19321.0	6.148596489519103e+17
19322.0	6.147599757912746e+17
19323.0	6.146378157785087e+17
19324.0	6.145236087952724e+17
19325.0	6.144072348947796e+17
19326.0	6.142882555625471e+17
19327.0	6.141685546003114e+17
19328.0	6.139975742171818e+17
19329.0	6.139309493758634e+17
19330.0	6.138029939534505e+17
19331.0	6.136533682399913e+17
19332.0	6.135605530460159e+17
19333.0	6.134278349215059e+17
19334.0	6.133136995909631e+17
19335.0	6.130809664001366e+17
19336.0	6.130629853489834e+17
19337.0	6.12938293584418e+17
19338.0	6.126645681324028e+17
19339.0	6.126716901305001e+17
19340.0	6.124775158753962e+17
19341.0	6.123060558736042e+17
19342.0	6.121618647198377e+17
19343.0	6.120903256222378e+17
19344.0	6.118221759381504e+17
19345.0	6.111831499560275e+17
19346.0	6.111728874728105e+17
19347.0	6.114560524156927e+17
19348.0	6.114810996806995e+17
19349.0	6.113602021534377e+17
19350.0	6.112294715697833e+17
19351.0	6.111157503568552e+17
19352.0	6.109213683438931e+17
19353.0	6.108927654974804e+17
19354.0	6.107645345092948e+17
19355.0	6.105586560488792e+17
19356.0	6.104998288381267e+17
19357.0	6.103630173525331e+17
19358.0	6.102233964522154e+17
19359.0	6.100638261138771e+17
19360.0	6.098904663719935e+17
19361.0	6.098085071552511e+17
19362.0	6.096773756660393e+17
19363.0	6.095401154598228e+17
19364.0	6.094009258737663e+17
19365.0	6.092563790430207e+17
19366.0	6.091181689667583e+17
19367.0	6.08974219125282e+17
19368.0	6.088289545093119e+17
19369.0	6.086652099996329e+17
19370.0	6.085249555496959e+17
19371.0	6.083523528097791e+17
19372.0	6.082450685951999e+17
19373.0	6.080812061556735e+17
19374.0	6.079393843642367e+17
19375.0	6.077895346749439e+17
19376.0	6.076342417577299e+17
19377.0	6.074702712449706e+17
19378.0	6.073094846283775e+17
19379.0	6.071504631846228e+17
19380.0	6.069866693219667e+17
19381.0	6.068165382853972e+17
19382.0	6.065872089819818e+17
19383.0	6.06442067608644e+17
19384.0	6.063004731484842e+17
19385.0	6.061310706625193e+17
19386.0	6.059530951589887e+17
19387.0	6.057645179229524e+17
19388.0	6.055655630700543e+17
19389.0	6.053457443509588e+17
19390.0	6.04985364648209e+17
19391.0	6.035255954418341e+17
19392.0	6.042668889713321e+17
19393.0	6.045223831120553e+17
19394.0	6.043887737678506e+17
19395.0	6.041856867565568e+17
19396.0	6.03998238417442e+17
19397.0	6.037823076084393e+17
19398.0	6.034983495226708e+17
19399.0	6.031183355838463e+17
19400.0	6.029699876651007e+17
19401.0	6.028540956202324e+17
19402.0	6.026376153574057e+17
19403.0	6.023835557385556e+17
19404.0	6.021407888637951e+17
19405.0	6.018593402301097e+17
19406.0	6.01582676668143e+17
19407.0	6.012531636174847e+17
19408.0	6.008064860400298e+17
19409.0	6.006324175306751e+17
19410.0	6.004134801746601e+17
19411.0	6.00114807841314e+17
19412.0	5.997944059374249e+17
19413.0	5.994472299735721e+17
19414.0	5.991043294735018e+17
19415.0	5.98731157283362e+17
19416.0	5.982683090561705e+17
19417.0	5.979769311068159e+17
19418.0	5.97565702808098e+17
19419.0	5.971402094018559e+17
19420.0	5.966944424077993e+17
19421.0	5.962247195066367e+17
19422.0	5.957002396172285e+17
19423.0	5.952045437681663e+17
19424.0	5.946677201818964e+17
19425.0	5.940998976831487e+17
19426.0	5.935002467084969e+17
19427.0	5.92866756718319e+17
19428.0	5.92191263150353e+17
19429.0	5.914424349032447e+17
19430.0	5.905748511599274e+17
19431.0	5.89674100748015e+17
19432.0	5.8898145869824e+17
19433.0	5.880868467201366e+17
19434.0	5.870831941626538e+17
19435.0	5.859694767767551e+17
19436.0	5.847403477336064e+17
19437.0	5.83310593106466e+17
19438.0	5.797189685783213e+17
19439.0	5.798416959406077e+17
19440.0	5.791374156059988e+17
19441.0	5.775198312377001e+17
19442.0	5.7558227257480544e+17
19443.0	5.7338382687491405e+17
19444.0	5.7085132646208826e+17
19445.0	5.679126344805035e+17
19446.0	5.644111270204756e+17
19447.0	5.601358971404285e+17
19448.0	5.546723037762903e+17
19449.0	5.4722319372779514e+17
19450.0	5.3511782994192966e+17
19451.0	5.2592392557035546e+17
19452.0	5.4210023845614925e+17
19453.0	5.51003481824734e+17
19454.0	5.5705160548788883e+17
19455.0	5.6160626059946656e+17
19456.0	5.651610880092845e+17
19457.0	5.679255422413481e+17
19458.0	5.613952597753933e+17
19459.0	5.7103503215384083e+17
19460.0	5.746297729100457e+17
19461.0	5.7639388046513485e+17
19462.0	5.778898419711999e+17
19463.0	5.792270260720979e+17
19464.0	5.804131126083583e+17
19465.0	5.815016413113002e+17
19466.0	5.824517477061971e+17
19467.0	5.833125755442516e+17
19468.0	5.840972889281876e+17
19469.0	5.847520502611967e+17
19470.0	5.854862845673471e+17
19471.0	5.861315929178111e+17
19472.0	5.866825839542271e+17
19473.0	5.871855025345875e+17
19474.0	5.875882110134954e+17
19475.0	5.877746179069267e+17
19476.0	5.883823275376637e+17
19477.0	5.888304292211369e+17
19478.0	5.891892527671977e+17
19479.0	5.894663119219369e+17
19480.0	5.897688858667689e+17
19481.0	5.90040949465634e+17
19482.0	5.902946678079487e+17
19483.0	5.905177606007465e+17
19484.0	5.907050669626708e+17
19485.0	5.908741199233023e+17
19486.0	5.909918006291114e+17
19487.0	5.911778338799615e+17
19488.0	5.912831195086848e+17
19489.0	5.912060837756927e+17
19490.0	5.911349028017491e+17
19491.0	5.915432914867539e+17
19492.0	5.917297895363926e+17
19493.0	5.918223300034559e+17
19494.0	5.918849459989161e+17
19495.0	5.919110971348308e+17
19496.0	5.917981417319081e+17
19497.0	5.918148609267028e+17
19498.0	5.909661861543933e+17
19499.0	5.897912431848106e+17
19500.0	5.918176934800041e+17
19501.0	5.920899887442602e+17
19502.0	5.921647866063529e+17
19503.0	5.921966459802964e+17
19504.0	5.922049453195263e+17
19505.0	5.922034800394237e+17
19506.0	5.922001429812563e+17
19507.0	5.921627737598633e+17
19508.0	5.92131645313297e+17
19509.0	5.920262634252969e+17
19510.0	5.916297517509289e+17
19511.0	5.864427870661275e+17
19512.0	5.907716365789865e+17
19513.0	5.909204796353192e+17
19514.0	5.910821659301203e+17
19515.0	5.916924134643027e+17
19516.0	5.918290108306771e+17
19517.0	5.918394719141887e+17
19518.0	5.918263164796927e+17
19519.0	5.91787040178176e+17
19520.0	5.917059640721405e+17
19521.0	5.917123439580499e+17
19522.0	5.916261874313898e+17
19523.0	5.915939558828714e+17
19524.0	5.915144399181142e+17
19525.0	5.914836665892863e+17
19526.0	5.91431206052386e+17
19527.0	5.913571885405524e+17
19528.0	5.912900295546195e+17
19529.0	5.912173684806995e+17
19530.0	5.911588978556927e+17
19531.0	5.910919740304042e+17
19532.0	5.910184469026132e+17
19533.0	5.909454327382015e+17
19534.0	5.908696452999849e+17
19535.0	5.907741953141417e+17
19536.0	5.906812166821203e+17
19537.0	5.906049666121727e+17
19538.0	5.903928285724672e+17
19539.0	5.903075743804074e+17
19540.0	5.903380072715606e+17
19541.0	5.902896207320403e+17
19542.0	5.90213546053905e+17
19543.0	5.900806133907455e+17
19544.0	5.899941832556543e+17
19545.0	5.896979229267284e+17
19546.0	5.895813864270506e+17
19547.0	5.897446111226538e+17
19548.0	5.897110636811606e+17
19549.0	5.89565086872371e+17
19550.0	5.89562447396864e+17
19551.0	5.8947822682112e+17
19552.0	5.893883678425088e+17
19553.0	5.892925329593684e+17
19554.0	5.891998047272959e+17
19555.0	5.891072608348842e+17
19556.0	5.890313298815658e+17
19557.0	5.889455713943551e+17
19558.0	5.888538951636307e+17
19559.0	5.887641785117353e+17
19560.0	5.886396517930323e+17
19561.0	5.885615499378688e+17
19562.0	5.884681604737706e+17
19563.0	5.883963191765674e+17
19564.0	5.883011439176361e+17
19565.0	5.882062977018537e+17
19566.0	5.881007768425812e+17
19567.0	5.880175814246399e+17
19568.0	5.879048200082771e+17
19569.0	5.878170685975209e+17
19570.0	5.877330798968832e+17
19571.0	5.8763830113949e+17
19572.0	5.875152729057964e+17
19573.0	5.874428145565695e+17
19574.0	5.872885186254162e+17
19575.0	5.872642223505408e+17
19576.0	5.871630620994218e+17
19577.0	5.870462762483711e+17
19578.0	5.869623203332095e+17
19579.0	5.868533495889917e+17
19580.0	5.867596899418111e+17
19581.0	5.866781428853418e+17
19582.0	5.865842587030867e+17
19583.0	5.864853883322367e+17
19584.0	5.863839223163561e+17
19585.0	5.861967664600403e+17
19586.0	5.860761785423192e+17
19587.0	5.860424682919252e+17
19588.0	5.858462405055828e+17
19589.0	5.858229555473066e+17
19590.0	5.857184513174185e+17
19591.0	5.856777032346282e+17
19592.0	5.855920644947967e+17
19593.0	5.854757679792127e+17
19594.0	5.852073679650811e+17
19595.0	5.852765817405439e+17
19596.0	5.851675818459135e+17
19597.0	5.850679297966079e+17
19598.0	5.847796018752169e+17
19599.0	5.848589232242687e+17
19600.0	5.84778391888418e+17
19601.0	5.8463948374016e+17
19602.0	5.845101835539796e+17
19603.0	5.843565041855145e+17
19604.0	5.843055159891284e+17
19605.0	5.841109476791642e+17
19606.0	5.841675665888595e+17
19607.0	5.840774347008682e+17
19608.0	5.839749087843668e+17
19609.0	5.838567123189759e+17
19610.0	5.837617843142655e+17
19611.0	5.836474956120064e+17
19612.0	5.835816574124032e+17
19613.0	5.834705184227327e+17
19614.0	5.833425104317097e+17
19615.0	5.832579900331348e+17
19616.0	5.831134839570431e+17
19617.0	5.829581550387199e+17
19618.0	5.826414175584255e+17
19619.0	5.824579710746624e+17
19620.0	5.824764059495081e+17
19621.0	5.825329643214163e+17
19622.0	5.825277689768618e+17
19623.0	5.824383771738112e+17
19624.0	5.823259284428116e+17
19625.0	5.82234661855778e+17
19626.0	5.821115154825215e+17
19627.0	5.819912512252586e+17
19628.0	5.818292598647468e+17
19629.0	5.814769825786536e+17
19630.0	5.812658004208297e+17
19631.0	5.809326091752788e+17
19632.0	5.812503262352724e+17
19633.0	5.812747804955987e+17
19634.0	5.81272095302178e+17
19635.0	5.811674839078228e+17
19636.0	5.810610557506899e+17
19637.0	5.807055358481754e+17
19638.0	5.809093329551359e+17
19639.0	5.808025252833961e+17
19640.0	5.805340583701161e+17
19641.0	5.801955395196248e+17
19642.0	5.804805287051263e+17
19643.0	5.803887313988266e+17
19644.0	5.802505308995581e+17
19645.0	5.801379171226963e+17
19646.0	5.800508189048831e+17
19647.0	5.800135581062483e+17
19648.0	5.799140945210025e+17
19649.0	5.798137049732436e+17
19650.0	5.797161390309375e+17
19651.0	5.796100764773034e+17
19652.0	5.79506501984802e+17
19653.0	5.794104843698175e+17
19654.0	5.79301358506257e+17
19655.0	5.791955529935532e+17
19656.0	5.791021947770195e+17
19657.0	5.789954108030975e+17
19658.0	5.78897909522978e+17
19659.0	5.78795131319091e+17
19660.0	5.786958643767978e+17
19661.0	5.785893090623487e+17
19662.0	5.784867542051497e+17
19663.0	5.783736817112406e+17
19664.0	5.782742365110271e+17
19665.0	5.781811107987455e+17
