# Flux units: erg / (cm m2 s)
# Wavelength units: Angstrom
wave	flux
19000.0	5.699660722558291e+17
19001.0	5.6985115881198925e+17
19002.0	5.697594067342676e+17
19003.0	5.696557319279956e+17
19004.0	5.6955266124130976e+17
19005.0	5.6944803565622605e+17
19006.0	5.693449082765311e+17
19007.0	5.6924226834486605e+17
19008.0	5.6913325286140576e+17
19009.0	5.690159160885247e+17
19010.0	5.688905645599403e+17
19011.0	5.688238666678271e+17
19012.0	5.6870654080013645e+17
19013.0	5.686220777936213e+17
19014.0	5.6851375283240954e+17
19015.0	5.684113393232554e+17
19016.0	5.683090764595198e+17
19017.0	5.68209778549282e+17
19018.0	5.681059629542058e+17
19019.0	5.6800332847513594e+17
19020.0	5.6789949225806496e+17
19021.0	5.677982799975764e+17
19022.0	5.676946963475113e+17
19023.0	5.675874786126505e+17
19024.0	5.6748484651035296e+17
19025.0	5.673841429490345e+17
19026.0	5.672787971320489e+17
19027.0	5.6717015941556896e+17
19028.0	5.6707619568134816e+17
19029.0	5.6697229018835616e+17
19030.0	5.6687192594623136e+17
19031.0	5.6676929510222496e+17
19032.0	5.6666503805665274e+17
19033.0	5.6655142435771725e+17
19034.0	5.6645189708895565e+17
19035.0	5.6630905076886176e+17
19036.0	5.654994848055294e+17
19037.0	5.661164613315241e+17
19038.0	5.6604102747313485e+17
19039.0	5.659446948659199e+17
19040.0	5.658439307668137e+17
19041.0	5.6574100506323616e+17
19042.0	5.655812289243817e+17
19043.0	5.6553756013800096e+17
19044.0	5.6543381193140896e+17
19045.0	5.6533113620834976e+17
19046.0	5.652236315830953e+17
19047.0	5.6512094299750394e+17
19048.0	5.6499890566813005e+17
19049.0	5.6481197672366054e+17
19050.0	5.648071971045375e+17
19051.0	5.646082920939519e+17
19052.0	5.645664328701267e+17
19053.0	5.6450863724844365e+17
19054.0	5.644094836921684e+17
19055.0	5.6426608274527565e+17
19056.0	5.641982786753876e+17
19057.0	5.641031906579796e+17
19058.0	5.639491113626281e+17
19059.0	5.638792004938409e+17
19060.0	5.637957451688617e+17
19061.0	5.636950855079251e+17
19062.0	5.6359245620183034e+17
19063.0	5.6348990994295456e+17
19064.0	5.6337769078019405e+17
19065.0	5.6326796841669965e+17
19066.0	5.631593743209813e+17
19067.0	5.630809411158015e+17
19068.0	5.6298033458271565e+17
19069.0	5.6287834036415136e+17
19070.0	5.6277342418370554e+17
19071.0	5.626731809472511e+17
19072.0	5.625532058173439e+17
19073.0	5.6247015957681485e+17
19074.0	5.623685306122239e+17
19075.0	5.622665191271083e+17
19076.0	5.621632168449364e+17
19077.0	5.620603901269332e+17
19078.0	5.619566098339156e+17
19079.0	5.618586875854847e+17
19080.0	5.6175575580016634e+17
19081.0	5.616499267993599e+17
19082.0	5.61550461116962e+17
19083.0	5.6144090561686176e+17
19084.0	5.613262437613567e+17
19085.0	5.6124546398289914e+17
19086.0	5.6107796578085536e+17
19087.0	5.6099027323016506e+17
19088.0	5.609024003244031e+17
19089.0	5.608154399593813e+17
19090.0	5.6073347647842976e+17
19091.0	5.606309516804096e+17
19092.0	5.604888627817131e+17
19093.0	5.604342890845524e+17
19094.0	5.6033351009566714e+17
19095.0	5.602321932571987e+17
19096.0	5.6012963217844896e+17
19097.0	5.6002887122507085e+17
19098.0	5.599065997836287e+17
19099.0	5.5980034953489075e+17
19100.0	5.597219723236692e+17
19101.0	5.596214358354602e+17
19102.0	5.595110341345279e+17
19103.0	5.594202731009364e+17
19104.0	5.5931935556020896e+17
19105.0	5.591706441351168e+17
19106.0	5.591140336839337e+17
19107.0	5.590004779362985e+17
19108.0	5.5889128950770336e+17
19109.0	5.587828059318953e+17
19110.0	5.586999172573866e+17
19111.0	5.5859491705105043e+17
19112.0	5.584926663507966e+17
19113.0	5.584075519688703e+17
19114.0	5.5829712957603834e+17
19115.0	5.5819792009570976e+17
19116.0	5.581010748047358e+17
19117.0	5.579978040497492e+17
19118.0	5.578723338223615e+17
19119.0	5.5697383833818336e+17
19120.0	5.5768101260274336e+17
19121.0	5.575915647358292e+17
19122.0	5.574975904459434e+17
19123.0	5.573972898873343e+17
19124.0	5.5729125082180256e+17
19125.0	5.571934194499583e+17
19126.0	5.5708150150813005e+17
19127.0	5.568359926770347e+17
19128.0	5.5687607498397005e+17
19129.0	5.5678142534123514e+17
19130.0	5.566899572178942e+17
19131.0	5.565910903422975e+17
19132.0	5.564903026851839e+17
19133.0	5.563852437585919e+17
19134.0	5.562884604734121e+17
19135.0	5.561882972083541e+17
19136.0	5.5608710480090445e+17
19137.0	5.559748170612735e+17
19138.0	5.55884045472017e+17
19139.0	5.55786244928307e+17
19140.0	5.5568616422113274e+17
19141.0	5.555856733110271e+17
19142.0	5.5548225295919776e+17
19143.0	5.553798312012457e+17
19144.0	5.5527902487947936e+17
19145.0	5.551829880406015e+17
19146.0	5.550136690911915e+17
19147.0	5.5497530407212365e+17
19148.0	5.5486526175313914e+17
19149.0	5.54761501802496e+17
19150.0	5.5468112090234874e+17
19151.0	5.545803313577983e+17
19152.0	5.544792181527892e+17
19153.0	5.5434100821633696e+17
19154.0	5.542656190272851e+17
19155.0	5.5417635515050656e+17
19156.0	5.5407599167733754e+17
19157.0	5.5395985559388154e+17
19158.0	5.538364382685866e+17
19159.0	5.537703119902035e+17
19160.0	5.536725215827284e+17
19161.0	5.535686885812905e+17
19162.0	5.534284699926528e+17
19163.0	5.533583513660074e+17
19164.0	5.5327273303845536e+17
19165.0	5.5313523452586643e+17
19166.0	5.530623148731049e+17
19167.0	5.5297056244585805e+17
19168.0	5.528744250834944e+17
19169.0	5.5277528376060576e+17
19170.0	5.5267587246434976e+17
19171.0	5.525746320321194e+17
19172.0	5.5247545142258336e+17
19173.0	5.523765163895467e+17
19174.0	5.522720490695339e+17
19175.0	5.5217654763356154e+17
19176.0	5.5207702560768e+17
19177.0	5.519606644998142e+17
19178.0	5.518752769987926e+17
19179.0	5.517745486910805e+17
19180.0	5.516763101222228e+17
19181.0	5.515653355492691e+17
19182.0	5.5147531613853005e+17
19183.0	5.513791866754388e+17
19184.0	5.512794375279957e+17
19185.0	5.5117891467127456e+17
19186.0	5.510800569532415e+17
19187.0	5.509738132755796e+17
19188.0	5.508802702300501e+17
19189.0	5.507808964728149e+17
19190.0	5.5068062513452365e+17
19191.0	5.5057728083940685e+17
19192.0	5.5048063086318925e+17
19193.0	5.503746912026623e+17
19194.0	5.5026953189239456e+17
19195.0	5.501758517630292e+17
19196.0	5.500687234367487e+17
19197.0	5.4995555069897376e+17
19198.0	5.498035481433428e+17
19199.0	5.4939641893792403e+17
19200.0	5.493419928802645e+17
19201.0	5.4951273006366714e+17
19202.0	5.4946098060110496e+17
19203.0	5.493736259715071e+17
19204.0	5.4928004783363405e+17
19205.0	5.4918404587738445e+17
19206.0	5.490866217025535e+17
19207.0	5.4897387531578016e+17
19208.0	5.4887059246721696e+17
19209.0	5.4879112942059514e+17
19210.0	5.486925856462164e+17
19211.0	5.4859512085654176e+17
19212.0	5.4849513137547936e+17
19213.0	5.483844575341226e+17
19214.0	5.482858339281577e+17
19215.0	5.4819606428822176e+17
19216.0	5.480983363758762e+17
19217.0	5.479934428446719e+17
19218.0	5.478365964271615e+17
19219.0	5.477779671875583e+17
19220.0	5.4769818712145914e+17
19221.0	5.4758081232022176e+17
19222.0	5.474994496034131e+17
19223.0	5.4740447476230816e+17
19224.0	5.473020595055274e+17
19225.0	5.4719862104828576e+17
19226.0	5.4710778248997536e+17
19227.0	5.470101128085502e+17
19228.0	5.4691414999913805e+17
19229.0	5.4681523034521594e+17
19230.0	5.467158186994347e+17
19231.0	5.466162973726037e+17
19232.0	5.4651809312713376e+17
19233.0	5.4641311193497594e+17
19234.0	5.463198970238292e+17
19235.0	5.462190407199402e+17
19236.0	5.4612384029518496e+17
19237.0	5.460235857341098e+17
19238.0	5.4591696533804365e+17
19239.0	5.4582816632995834e+17
19240.0	5.4572964890978976e+17
19241.0	5.456289044540074e+17
19242.0	5.455308349156009e+17
19243.0	5.454167590742698e+17
19244.0	5.453355597256021e+17
19245.0	5.452362661494783e+17
19246.0	5.451372166818475e+17
19247.0	5.450386761930068e+17
19248.0	5.44941426291507e+17
19249.0	5.4484119801473696e+17
19250.0	5.447347008613034e+17
19251.0	5.446287915395753e+17
19252.0	5.445151900740266e+17
19253.0	5.444463964280147e+17
19254.0	5.4435071687393274e+17
19255.0	5.4423099766647456e+17
19256.0	5.4415214482117965e+17
19257.0	5.4405521676260685e+17
19258.0	5.439569752577365e+17
19259.0	5.4384971942461434e+17
19260.0	5.437384865524393e+17
19261.0	5.4365957393831245e+17
19262.0	5.43555470893602e+17
19263.0	5.4345119923787085e+17
19264.0	5.4331487093609786e+17
19265.0	5.432448032702462e+17
19266.0	5.4313996195812685e+17
19267.0	5.4307155782314656e+17
19268.0	5.429730248141481e+17
19269.0	5.428748932699477e+17
19270.0	5.4277303298949114e+17
19271.0	5.426487138189311e+17
19272.0	5.425763631235071e+17
19273.0	5.424570014105598e+17
19274.0	5.4233939983728614e+17
19275.0	5.4228658173597005e+17
19276.0	5.421865213012651e+17
19277.0	5.4208905763007136e+17
19278.0	5.4199006625355085e+17
19279.0	5.418902867673087e+17
19280.0	5.41788147425826e+17
19281.0	5.416947994154324e+17
19282.0	5.4159833294001485e+17
19283.0	5.414977110278143e+17
19284.0	5.4139600628613114e+17
19285.0	5.4129216433684474e+17
19286.0	5.411969443386708e+17
19287.0	5.410957585722026e+17
19288.0	5.4073711992504294e+17
19289.0	5.404221036472996e+17
19290.0	5.4079952564606285e+17
19291.0	5.406853561319424e+17
19292.0	5.406169712907604e+17
19293.0	5.405197199911594e+17
19294.0	5.4042085661081594e+17
19295.0	5.4032485108940794e+17
19296.0	5.402033942517077e+17
19297.0	5.4012283460430496e+17
19298.0	5.4002762753856845e+17
19299.0	5.3990707121793696e+17
19300.0	5.398337377271807e+17
19301.0	5.397365629736277e+17
19302.0	5.3963698754027514e+17
19303.0	5.3953277970786976e+17
19304.0	5.39440171852322e+17
19305.0	5.3934210371201696e+17
19306.0	5.392445518905343e+17
19307.0	5.391415031540394e+17
19308.0	5.39043919106321e+17
19309.0	5.389357161294505e+17
19310.0	5.38831536398882e+17
19311.0	5.3874381357929805e+17
19312.0	5.386492156663124e+17
19313.0	5.3853987072027296e+17
19314.0	5.367288137340235e+17
19315.0	5.367815309623318e+17
19316.0	5.382138952155136e+17
19317.0	5.381588435774122e+17
19318.0	5.380647098340692e+17
19319.0	5.379700590728533e+17
19320.0	5.3786307447138976e+17
19321.0	5.37752901779456e+17
19322.0	5.376692735792468e+17
19323.0	5.37572558311697e+17
19324.0	5.374748997451775e+17
19325.0	5.373727578172074e+17
19326.0	5.3727982651091616e+17
19327.0	5.3718263064603296e+17
19328.0	5.3704450047126176e+17
19329.0	5.369881864175615e+17
19330.0	5.3688719170164045e+17
19331.0	5.367857773456041e+17
19332.0	5.3669306456255136e+17
19333.0	5.365928722868905e+17
19334.0	5.3649508299789645e+17
19335.0	5.3631320105943046e+17
19336.0	5.362972745181866e+17
19337.0	5.361991133342377e+17
19338.0	5.3607795366297594e+17
19339.0	5.3600077001086285e+17
19340.0	5.358825413891413e+17
19341.0	5.3576067064354125e+17
19342.0	5.356637797045588e+17
19343.0	5.355996697679188e+17
19344.0	5.3546394404782086e+17
19345.0	5.352108505868968e+17
19346.0	5.351860386922494e+17
19347.0	5.3515553519697914e+17
19348.0	5.351051381178367e+17
19349.0	5.35003710689553e+17
19350.0	5.348902695862271e+17
19351.0	5.348039698240852e+17
19352.0	5.346596967415806e+17
19353.0	5.346089270684329e+17
19354.0	5.3450929710912845e+17
19355.0	5.343981892971179e+17
19356.0	5.343082740449279e+17
19357.0	5.3420776209339725e+17
19358.0	5.34106276364288e+17
19359.0	5.3399307035170125e+17
19360.0	5.3386745653930656e+17
19361.0	5.3380042561945594e+17
19362.0	5.337018409506133e+17
19363.0	5.335990619777706e+17
19364.0	5.3349681973602976e+17
19365.0	5.3339463006289914e+17
19366.0	5.3329222459282765e+17
19367.0	5.331895506873002e+17
19368.0	5.3308656696251725e+17
19369.0	5.329793725759488e+17
19370.0	5.328766788173824e+17
19371.0	5.3276991022257485e+17
19372.0	5.3267194798844576e+17
19373.0	5.325655453466623e+17
19374.0	5.32461939466786e+17
19375.0	5.3235698490845856e+17
19376.0	5.3225159323374925e+17
19377.0	5.321440953193813e+17
19378.0	5.3203529717077325e+17
19379.0	5.3192849082722976e+17
19380.0	5.31820962713873e+17
19381.0	5.3171202195892896e+17
19382.0	5.315947964749141e+17
19383.0	5.314853090623487e+17
19384.0	5.313816412465834e+17
19385.0	5.3127271622027936e+17
19386.0	5.311587799094613e+17
19387.0	5.310436981342206e+17
19388.0	5.309292455045802e+17
19389.0	5.3081177479359136e+17
19390.0	5.306796309392042e+17
19391.0	5.299118332532046e+17
19392.0	5.3037971198880403e+17
19393.0	5.303323227848704e+17
19394.0	5.302172699503274e+17
19395.0	5.300852689119913e+17
19396.0	5.299722319997609e+17
19397.0	5.2984455794524154e+17
19398.0	5.296998195746132e+17
19399.0	5.295096847837867e+17
19400.0	5.294265072615423e+17
19401.0	5.293112602307241e+17
19402.0	5.291795042096469e+17
19403.0	5.290397299376126e+17
19404.0	5.2889463840658765e+17
19405.0	5.28747704946961e+17
19406.0	5.2860227255883085e+17
19407.0	5.284368261403988e+17
19408.0	5.282299922175317e+17
19409.0	5.281316434782889e+17
19410.0	5.2798059247042554e+17
19411.0	5.278092817159508e+17
19412.0	5.276334372683775e+17
19413.0	5.274395285826219e+17
19414.0	5.2726471048123725e+17
19415.0	5.270677157664085e+17
19416.0	5.2684578165009056e+17
19417.0	5.266503437910015e+17
19418.0	5.2643425583540896e+17
19419.0	5.261982335412906e+17
19420.0	5.259581404654249e+17
19421.0	5.256878896447487e+17
19422.0	5.254094511931391e+17
19423.0	5.251087699279871e+17
19424.0	5.247883362871978e+17
19425.0	5.244350676773546e+17
19426.0	5.240764649613993e+17
19427.0	5.2366907109539834e+17
19428.0	5.232465232789503e+17
19429.0	5.227846563790847e+17
19430.0	5.222558819418111e+17
19431.0	5.2166619132067834e+17
19432.0	5.212070515572734e+17
19433.0	5.205722261007017e+17
19434.0	5.1988090497706656e+17
19435.0	5.190796781988522e+17
19436.0	5.182029063432874e+17
19437.0	5.1723054811709434e+17
19438.0	5.148559841514837e+17
19439.0	5.1467995123985056e+17
19440.0	5.134105877064362e+17
19441.0	5.1178037121297056e+17
19442.0	5.098786056918358e+17
19443.0	5.0754622859509754e+17
19444.0	5.0480660366404243e+17
19445.0	5.0147829656234675e+17
19446.0	4.9725041492186445e+17
19447.0	4.916319713492988e+17
19448.0	4.8387087051434694e+17
19449.0	4.717869090035028e+17
19450.0	4.469385674620912e+17
19451.0	4.265097041368425e+17
19452.0	4.6221014779385216e+17
19453.0	4.7844190819014016e+17
19454.0	4.877215245620562e+17
19455.0	4.940153999764138e+17
19456.0	4.986588249456641e+17
19457.0	5.0215606623928294e+17
19458.0	4.9962548947409005e+17
19459.0	5.0701444649233165e+17
19460.0	5.092328391136595e+17
19461.0	5.1084826348530336e+17
19462.0	5.121732086071296e+17
19463.0	5.133800847005012e+17
19464.0	5.14379080601873e+17
19465.0	5.152228471996416e+17
19466.0	5.159509088185002e+17
19467.0	5.165691194485417e+17
19468.0	5.17095253152017e+17
19469.0	5.1753268494554426e+17
19470.0	5.1798133090986656e+17
19471.0	5.183417113116671e+17
19472.0	5.186463226396671e+17
19473.0	5.189163037665962e+17
19474.0	5.191598744098132e+17
19475.0	5.1931325654193485e+17
19476.0	5.1957664226563405e+17
19477.0	5.1976075648259405e+17
19478.0	5.1990303069962234e+17
19479.0	5.20006824833843e+17
19480.0	5.2012307605094394e+17
19481.0	5.2020792968697165e+17
19482.0	5.2027495941843616e+17
19483.0	5.203228673179647e+17
19484.0	5.203655333860693e+17
19485.0	5.203846146730666e+17
19486.0	5.203696205955072e+17
19487.0	5.2041843229764256e+17
19488.0	5.204179560344234e+17
19489.0	5.203759490312873e+17
19490.0	5.202738654041428e+17
19491.0	5.2037741137537696e+17
19492.0	5.20364314800947e+17
19493.0	5.203357655717204e+17
19494.0	5.2030096081769805e+17
19495.0	5.202601542243668e+17
19496.0	5.2017335268365645e+17
19497.0	5.2015377961451514e+17
19498.0	5.1990436078332576e+17
19499.0	5.1901838963070266e+17
19500.0	5.200031848071166e+17
19501.0	5.199751480519338e+17
19502.0	5.199317314830335e+17
19503.0	5.198753270420821e+17
19504.0	5.1981449110923936e+17
19505.0	5.1975479630670496e+17
19506.0	5.196954612356437e+17
19507.0	5.196258411020287e+17
19508.0	5.1955810875473914e+17
19509.0	5.194808868645546e+17
19510.0	5.193597730510164e+17
19511.0	5.166400313578816e+17
19512.0	5.189988519335251e+17
19513.0	5.188462625248593e+17
19514.0	5.1885548852565306e+17
19515.0	5.190080894686547e+17
19516.0	5.1897296930297165e+17
19517.0	5.189035021216426e+17
19518.0	5.188253548281855e+17
19519.0	5.187466564031828e+17
19520.0	5.1864520429841056e+17
19521.0	5.1859944856616954e+17
19522.0	5.1851097447683405e+17
19523.0	5.184307689684992e+17
19524.0	5.1833433227263994e+17
19525.0	5.182751818907647e+17
19526.0	5.181963026213546e+17
19527.0	5.1811276054418765e+17
19528.0	5.180270059716607e+17
19529.0	5.179419031240703e+17
19530.0	5.1786349648281594e+17
19531.0	5.177793545502719e+17
19532.0	5.1769489399043405e+17
19533.0	5.176101110284287e+17
19534.0	5.17524771901713e+17
19535.0	5.1743723642770765e+17
19536.0	5.173510415231658e+17
19537.0	5.1726836333281274e+17
19538.0	5.171343033106432e+17
19539.0	5.170504288348842e+17
19540.0	5.170063903905109e+17
19541.0	5.1691683361150285e+17
19542.0	5.1683454178645325e+17
19543.0	5.1671980324509005e+17
19544.0	5.1665878332211194e+17
19545.0	5.1651633657937914e+17
19546.0	5.1640775485685754e+17
19547.0	5.163984801322325e+17
19548.0	5.1631425431360845e+17
19549.0	5.1621617240200525e+17
19550.0	5.161394427133951e+17
19551.0	5.160516360077311e+17
19552.0	5.159632624418815e+17
19553.0	5.1587249840237216e+17
19554.0	5.157832199853398e+17
19555.0	5.156930477621247e+17
19556.0	5.156074543906815e+17
19557.0	5.1552044970584736e+17
19558.0	5.1543195247793485e+17
19559.0	5.1534353004844365e+17
19560.0	5.1524092241291936e+17
19561.0	5.151628015435774e+17
19562.0	5.150650606288896e+17
19563.0	5.149878943831381e+17
19564.0	5.1489874438171296e+17
19565.0	5.148094804350292e+17
19566.0	5.147175470934698e+17
19567.0	5.1463055799746554e+17
19568.0	5.1453901682333005e+17
19569.0	5.144499458146304e+17
19570.0	5.14362418729233e+17
19571.0	5.1427274143389005e+17
19572.0	5.1417972449389216e+17
19573.0	5.1408915723714534e+17
19574.0	5.139928899212628e+17
19575.0	5.1391513171940685e+17
19576.0	5.138228738086228e+17
19577.0	5.1372743731445754e+17
19578.0	5.1364209014865914e+17
19579.0	5.135529467183102e+17
19580.0	5.134634226548735e+17
19581.0	5.1337542000530765e+17
19582.0	5.1328700673338016e+17
19583.0	5.13197200183569e+17
19584.0	5.131068165674324e+17
19585.0	5.130043799896062e+17
19586.0	5.1291136598562125e+17
19587.0	5.128328697260713e+17
19588.0	5.127058227199998e+17
19589.0	5.1265161357776205e+17
19590.0	5.125546510559915e+17
19591.0	5.124769942863871e+17
19592.0	5.1238810789696845e+17
19593.0	5.1229337646530554e+17
19594.0	5.121776693193385e+17
19595.0	5.121159670530047e+17
19596.0	5.1202354416626336e+17
19597.0	5.1193614416827725e+17
19598.0	5.117965838756521e+17
19599.0	5.1175609730771616e+17
19600.0	5.116681490442921e+17
19601.0	5.115715722586793e+17
19602.0	5.114771973428564e+17
19603.0	5.1136042505338874e+17
19604.0	5.112994393838932e+17
19605.0	5.111889497423872e+17
19606.0	5.11127926673681e+17
19607.0	5.1103960784349856e+17
19608.0	5.1094809302357325e+17
19609.0	5.1085496842977274e+17
19610.0	5.107549767816534e+17
19611.0	5.106575297478656e+17
19612.0	5.105900860385962e+17
19613.0	5.1049891969542816e+17
19614.0	5.104056125095935e+17
19615.0	5.103188566168915e+17
19616.0	5.1020883121493325e+17
19617.0	5.1011305400347296e+17
19618.0	5.099827547340798e+17
19619.0	5.098744714362879e+17
19620.0	5.0979896208042656e+17
19621.0	5.0974457607837005e+17
19622.0	5.0968895268672845e+17
19623.0	5.0959796124603725e+17
19624.0	5.0950389349307725e+17
19625.0	5.094194237756756e+17
19626.0	5.093280294021802e+17
19627.0	5.09235279639347e+17
19628.0	5.0913421194253645e+17
19629.0	5.089556750314153e+17
19630.0	5.08830357336883e+17
19631.0	5.0852255924660915e+17
19632.0	5.087505781795498e+17
19633.0	5.086854257486506e+17
19634.0	5.0860738876538874e+17
19635.0	5.085129378627582e+17
19636.0	5.083968229605375e+17
19637.0	5.0827339417081165e+17
19638.0	5.082495550051668e+17
19639.0	5.0816183449245005e+17
19640.0	5.080524629824853e+17
19641.0	5.0786077594965357e+17
19642.0	5.078897053226324e+17
19643.0	5.0780064472978765e+17
19644.0	5.0770539781816314e+17
19645.0	5.076018493303465e+17
19646.0	5.0749892348695866e+17
19647.0	5.074464807059455e+17
19648.0	5.0735727380179616e+17
19649.0	5.072675960870228e+17
19650.0	5.0717861001297914e+17
19651.0	5.0708858899442336e+17
19652.0	5.0699895511012685e+17
19653.0	5.069098409700009e+17
19654.0	5.0681990873087994e+17
19655.0	5.067300745685675e+17
