# Flux units: erg / (cm m2 s)
# Wavelength units: Angstrom
wave	flux
19000.0	7.518501846996306e+17
19001.0	7.517073925559636e+17
19002.0	7.515720158019583e+17
19003.0	7.514327572196009e+17
19004.0	7.512934797628755e+17
19005.0	7.511543088414719e+17
19006.0	7.510149705673385e+17
19007.0	7.508755941250387e+17
19008.0	7.507338529341439e+17
19009.0	7.505937173228202e+17
19010.0	7.504406743001768e+17
19011.0	7.503164418118995e+17
19012.0	7.50174026596352e+17
19013.0	7.500384163594237e+17
19014.0	7.498959393477972e+17
19015.0	7.497581024946858e+17
19016.0	7.496171516504745e+17
19017.0	7.494779825466025e+17
19018.0	7.493395801615017e+17
19019.0	7.491997763196244e+17
19020.0	7.490582557491199e+17
19021.0	7.489194769951402e+17
19022.0	7.487801009722708e+17
19023.0	7.486392204525565e+17
19024.0	7.484990823246505e+17
19025.0	7.483597584509608e+17
19026.0	7.482187883129513e+17
19027.0	7.480782539631274e+17
19028.0	7.479398308861268e+17
19029.0	7.477996717867007e+17
19030.0	7.476595328199338e+17
19031.0	7.475193414243667e+17
19032.0	7.473791328321535e+17
19033.0	7.472355293702825e+17
19034.0	7.470986254701908e+17
19035.0	7.469568908503721e+17
19036.0	7.467063194943487e+17
19037.0	7.466776775710035e+17
19038.0	7.465364556349439e+17
19039.0	7.463970682874538e+17
19040.0	7.462566973756755e+17
19041.0	7.461162792080723e+17
19042.0	7.459728507884884e+17
19043.0	7.458354856547667e+17
19044.0	7.456949578760191e+17
19045.0	7.455545810922153e+17
19046.0	7.454122862531926e+17
19047.0	7.45273104146978e+17
19048.0	7.451257301456212e+17
19049.0	7.449901554204671e+17
19050.0	7.448505232654335e+17
19051.0	7.446929906597887e+17
19052.0	7.445681053979987e+17
19053.0	7.44430430584832e+17
19054.0	7.44289849118993e+17
19055.0	7.441396905192105e+17
19056.0	7.440078845160106e+17
19057.0	7.438681038826153e+17
19058.0	7.437274913789267e+17
19059.0	7.435868236502356e+17
19060.0	7.434453401294164e+17
19061.0	7.433055954272255e+17
19062.0	7.431647716704253e+17
19063.0	7.430241882472447e+17
19064.0	7.428792736459433e+17
19065.0	7.427361286214995e+17
19066.0	7.425998861631487e+17
19067.0	7.42461498597922e+17
19068.0	7.423208579923968e+17
19069.0	7.421802010290857e+17
19070.0	7.420391334434131e+17
19071.0	7.418987988822697e+17
19072.0	7.417580847366143e+17
19073.0	7.416171684255059e+17
19074.0	7.414766389690368e+17
19075.0	7.413359169940138e+17
19076.0	7.411944013168637e+17
19077.0	7.410539986681855e+17
19078.0	7.409126246187007e+17
19079.0	7.407729547149311e+17
19080.0	7.406319247381844e+17
19081.0	7.404899279743658e+17
19082.0	7.403490057912317e+17
19083.0	7.402060623730003e+17
19084.0	7.400598520113833e+17
19085.0	7.39928386445858e+17
19086.0	7.397730190797484e+17
19087.0	7.396432722001919e+17
19088.0	7.395031498708308e+17
19089.0	7.393569112675668e+17
19090.0	7.392236892673363e+17
19091.0	7.390826204233727e+17
19092.0	7.389404340770132e+17
19093.0	7.388021605968553e+17
19094.0	7.386602724655103e+17
19095.0	7.385192345195859e+17
19096.0	7.383791713299114e+17
19097.0	7.382389323988991e+17
19098.0	7.380982518076755e+17
19099.0	7.379574260935336e+17
19100.0	7.378166565830653e+17
19101.0	7.376757823548074e+17
19102.0	7.37531796791842e+17
19103.0	7.373942768883028e+17
19104.0	7.372534725651113e+17
19105.0	7.37112653561856e+17
19106.0	7.369712086286335e+17
19107.0	7.368304851156991e+17
19108.0	7.366902045212671e+17
19109.0	7.365387196825599e+17
19110.0	7.3640824551069e+17
19111.0	7.362678190942889e+17
19112.0	7.3612701742749e+17
19113.0	7.359862105877161e+17
19114.0	7.35845394101043e+17
19115.0	7.357036143225514e+17
19116.0	7.355628610300586e+17
19117.0	7.354220968323753e+17
19118.0	7.352787243368449e+17
19119.0	7.350367369035772e+17
19120.0	7.349995124555775e+17
19121.0	7.348588889068884e+17
19122.0	7.347188170489855e+17
19123.0	7.345778706786985e+17
19124.0	7.344371172463956e+17
19125.0	7.342962617526953e+17
19126.0	7.341552116432893e+17
19127.0	7.339522566826666e+17
19128.0	7.338709369574739e+17
19129.0	7.337296831447039e+17
19130.0	7.335917015881046e+17
19131.0	7.334511289303039e+17
19132.0	7.333101422946986e+17
19133.0	7.331599414722557e+17
19134.0	7.330279552537939e+17
19135.0	7.328877406497449e+17
19136.0	7.327468970399059e+17
19137.0	7.32600128835857e+17
19138.0	7.324644012982272e+17
19139.0	7.323241959216467e+17
19140.0	7.321833697880744e+17
19141.0	7.320424660598783e+17
19142.0	7.319006412625236e+17
19143.0	7.317587745221289e+17
19144.0	7.316193719353341e+17
19145.0	7.314788170334208e+17
19146.0	7.313165828926122e+17
19147.0	7.311935197762899e+17
19148.0	7.310559403136339e+17
19149.0	7.309149959006889e+17
19150.0	7.307737184600063e+17
19151.0	7.306331066553683e+17
19152.0	7.304918317312681e+17
19153.0	7.303503886155775e+17
19154.0	7.302054298342739e+17
19155.0	7.300691282362368e+17
19156.0	7.299279985748649e+17
19157.0	7.297867309208916e+17
19158.0	7.296385973310804e+17
19159.0	7.295042202195284e+17
19160.0	7.293635959717888e+17
19161.0	7.292227453714432e+17
19162.0	7.290649669795839e+17
19163.0	7.289401239404544e+17
19164.0	7.287995581333501e+17
19165.0	7.28658086356582e+17
19166.0	7.285132110419283e+17
19167.0	7.283745723777023e+17
19168.0	7.282328458668713e+17
19169.0	7.280922600669183e+17
19170.0	7.279525306040319e+17
19171.0	7.278104254873597e+17
19172.0	7.276700955399508e+17
19173.0	7.275288652152832e+17
19174.0	7.273855549352616e+17
19175.0	7.272463381561343e+17
19176.0	7.27105026601779e+17
19177.0	7.269580942606335e+17
19178.0	7.268218712358911e+17
19179.0	7.266796844701012e+17
19180.0	7.265389216705193e+17
19181.0	7.263944569782271e+17
19182.0	7.262554146821462e+17
19183.0	7.261150948010664e+17
19184.0	7.259718008788308e+17
19185.0	7.258318477197311e+17
19186.0	7.256905205066408e+17
19187.0	7.255464889461417e+17
19188.0	7.25407264477457e+17
19189.0	7.252658308688553e+17
19190.0	7.251240916353024e+17
19191.0	7.249822655796564e+17
19192.0	7.248406769216169e+17
19193.0	7.246986302455807e+17
19194.0	7.245569995046911e+17
19195.0	7.244152240603135e+17
19196.0	7.242729009796436e+17
19197.0	7.241309243484842e+17
19198.0	7.239886536966143e+17
19199.0	7.237469070163965e+17
19200.0	7.236354373757612e+17
19201.0	7.235627600139603e+17
19202.0	7.234212588770646e+17
19203.0	7.232792667269802e+17
19204.0	7.231362104819711e+17
19205.0	7.229949060579327e+17
19206.0	7.228521706771798e+17
19207.0	7.227078720793258e+17
19208.0	7.225609151315968e+17
19209.0	7.224256064651264e+17
19210.0	7.222831242805245e+17
19211.0	7.221405523378175e+17
19212.0	7.219980114329599e+17
19213.0	7.218522128121853e+17
19214.0	7.217082134080169e+17
19215.0	7.215695579665748e+17
19216.0	7.214268441165823e+17
19217.0	7.212842285531135e+17
19218.0	7.211113347284991e+17
19219.0	7.209922064285693e+17
19220.0	7.208543476252671e+17
19221.0	7.207003712301738e+17
19222.0	7.205686871414099e+17
19223.0	7.204255686808916e+17
19224.0	7.202808054939645e+17
19225.0	7.201335244663466e+17
19226.0	7.19995429523729e+17
19227.0	7.198510031394132e+17
19228.0	7.197082460880896e+17
19229.0	7.195644914914644e+17
19230.0	7.194205447957161e+17
19231.0	7.192768224952319e+17
19232.0	7.1913207510685e+17
19233.0	7.189859617734655e+17
19234.0	7.188436258302633e+17
19235.0	7.186993740688041e+17
19236.0	7.185558551920637e+17
19237.0	7.184107886171476e+17
19238.0	7.182634312531968e+17
19239.0	7.181221958953641e+17
19240.0	7.179734024017236e+17
19241.0	7.178303201520298e+17
19242.0	7.176868130193407e+17
19243.0	7.175358140208467e+17
19244.0	7.173972045769386e+17
19245.0	7.1725182091264e+17
19246.0	7.171057816786259e+17
19247.0	7.169606907767466e+17
19248.0	7.168150361604096e+17
19249.0	7.166691097531731e+17
19250.0	7.165229199436457e+17
19251.0	7.163486984820054e+17
19252.0	7.161496328994815e+17
19253.0	7.160137226300074e+17
19254.0	7.158669082886143e+17
19255.0	7.157138163324244e+17
19256.0	7.15572464652561e+17
19257.0	7.154269550193321e+17
19258.0	7.152797106219689e+17
19259.0	7.151296440172543e+17
19260.0	7.149827587921235e+17
19261.0	7.148371477965481e+17
19262.0	7.146881546540372e+17
19263.0	7.145390690970281e+17
19264.0	7.143747385032701e+17
19265.0	7.14237671444753e+17
19266.0	7.140903430214995e+17
19267.0	7.139469199147007e+17
19268.0	7.137978358956032e+17
19269.0	7.136485402039636e+17
19270.0	7.13498949652753e+17
19271.0	7.133375013847039e+17
19272.0	7.131979086561279e+17
19273.0	7.129365598961661e+17
19274.0	7.128335638680916e+17
19275.0	7.127478638914217e+17
19276.0	7.125962361667583e+17
19277.0	7.124457919348735e+17
19278.0	7.122943159042047e+17
19279.0	7.121423705309183e+17
19280.0	7.119876998387028e+17
19281.0	7.118380600743251e+17
19282.0	7.116855094629718e+17
19283.0	7.115311407606441e+17
19284.0	7.113772300763135e+17
19285.0	7.112187807356244e+17
19286.0	7.110706781836627e+17
19287.0	7.109176799002623e+17
19288.0	7.107322466445993e+17
19289.0	7.105368418506067e+17
19290.0	7.10452983313203e+17
19291.0	7.102874503522985e+17
19292.0	7.10141393642018e+17
19293.0	7.09984752186163e+17
19294.0	7.098283107986089e+17
19295.0	7.096711601542483e+17
19296.0	7.095135836482217e+17
19297.0	7.093555042451455e+17
19298.0	7.091971180986368e+17
19299.0	7.090382164721663e+17
19300.0	7.088787700056063e+17
19301.0	7.087187064171178e+17
19302.0	7.085579981641046e+17
19303.0	7.083947653595135e+17
19304.0	7.082346592687444e+17
19305.0	7.08074419659298e+17
19306.0	7.07912083317282e+17
19307.0	7.07746946158865e+17
19308.0	7.075841270524586e+17
19309.0	7.074178379983529e+17
19310.0	7.071562324071764e+17
19311.0	7.069900224856063e+17
19312.0	7.068255615888042e+17
19313.0	7.066578277367808e+17
19314.0	7.064314534603433e+17
19315.0	7.062663319606612e+17
19316.0	7.061540754685952e+17
19317.0	7.059848162880169e+17
19318.0	7.058144351311187e+17
19319.0	7.056433366084265e+17
19320.0	7.054711437918207e+17
19321.0	7.052986112365908e+17
19322.0	7.051212883667626e+17
19323.0	7.049490109650259e+17
19324.0	7.047750860406783e+17
19325.0	7.045961134112765e+17
19326.0	7.044218395208361e+17
19327.0	7.042433029592404e+17
19328.0	7.040686594108072e+17
19329.0	7.038899313093289e+17
19330.0	7.037073293486762e+17
19331.0	7.035248237871101e+17
19332.0	7.033428813807615e+17
19333.0	7.030552821497856e+17
19334.0	7.028373023533738e+17
19335.0	7.026503148983636e+17
19336.0	7.024616566423551e+17
19337.0	7.022715924556457e+17
19338.0	7.020728619980115e+17
19339.0	7.018879490457599e+17
19340.0	7.016919693524991e+17
19341.0	7.014975024048809e+17
19342.0	7.012878891963731e+17
19343.0	7.011022456662697e+17
19344.0	7.009018487417513e+17
19345.0	7.006331018586793e+17
19346.0	7.00377400239718e+17
19347.0	7.001113784658601e+17
19348.0	6.999058865804628e+17
19349.0	6.996949065181865e+17
19350.0	6.994828216063316e+17
19351.0	6.992683631378431e+17
19352.0	6.990499973955583e+17
19353.0	6.988340109421225e+17
19354.0	6.986131628709203e+17
19355.0	6.982612969062397e+17
19356.0	6.979411969223338e+17
19357.0	6.977122095945044e+17
19358.0	6.974795117057364e+17
19359.0	6.972404165946026e+17
19360.0	6.970076234252287e+17
19361.0	6.967561944039424e+17
19362.0	6.96227212558336e+17
19363.0	6.959777349369855e+17
19364.0	6.957267597393919e+17
19365.0	6.95472442380561e+17
19366.0	6.952145393112403e+17
19367.0	6.946574865967785e+17
19368.0	6.943556196717907e+17
19369.0	6.940812038373373e+17
19370.0	6.937964372994729e+17
19371.0	6.93219653390609e+17
19372.0	6.928501029120681e+17
19373.0	6.92557616058641e+17
19374.0	6.920943628713983e+17
19375.0	6.9150090737309e+17
19376.0	6.911902159820116e+17
19377.0	6.907623149054634e+17
19378.0	6.902880613171197e+17
19379.0	6.89957900386304e+17
19380.0	6.896212001860266e+17
19381.0	6.892778830517587e+17
19382.0	6.889248695954089e+17
19383.0	6.885663245511337e+17
19384.0	6.88205511856401e+17
19385.0	6.877876249602729e+17
19386.0	6.873958408257535e+17
19387.0	6.870064933721427e+17
19388.0	6.86608449798144e+17
19389.0	6.862014053875712e+17
19390.0	6.857862431113215e+17
19391.0	6.852729448868521e+17
19392.0	6.849260386866516e+17
19393.0	6.844826356023293e+17
19394.0	6.839934451187711e+17
19395.0	6.834651218487977e+17
19396.0	6.829851010225491e+17
19397.0	6.82492813255202e+17
19398.0	6.819865599235412e+17
19399.0	6.814458648548691e+17
19400.0	6.808194637976915e+17
19401.0	6.80243794874641e+17
19402.0	6.796768438124541e+17
19403.0	6.790861820701356e+17
19404.0	6.782959545745407e+17
19405.0	6.776730445763923e+17
19406.0	6.769820778015402e+17
19407.0	6.761219518802601e+17
19408.0	6.754138663332522e+17
19409.0	6.744319004246015e+17
19410.0	6.736343733021353e+17
19411.0	6.725331831838035e+17
19412.0	6.714591693591887e+17
19413.0	6.702651258787154e+17
19414.0	6.689007728940367e+17
19415.0	6.673702788442796e+17
19416.0	6.655875689218045e+17
19417.0	6.637488423916884e+17
19418.0	6.623340866655572e+17
19419.0	6.611160212176895e+17
19420.0	6.598687495727784e+17
19421.0	6.585680110376276e+17
19422.0	6.572060813819903e+17
19423.0	6.557774195108521e+17
19424.0	6.542900222143146e+17
19425.0	6.527303074971647e+17
19426.0	6.511570057516371e+17
19427.0	6.494954832527359e+17
19428.0	6.477212621122217e+17
19429.0	6.458278831019348e+17
19430.0	6.43802655096832e+17
19431.0	6.415736876564481e+17
19432.0	6.391310535622655e+17
19433.0	6.363835272615252e+17
19434.0	6.330620920375982e+17
19435.0	6.289368394235891e+17
19436.0	6.242452111360001e+17
19437.0	6.20655749820143e+17
19438.0	6.169708290812584e+17
19439.0	6.130582548032172e+17
19440.0	6.08669753828966e+17
19441.0	6.036883957437779e+17
19442.0	5.979357364005553e+17
19443.0	5.90993595301888e+17
19444.0	5.826590461482322e+17
19445.0	5.744621351774893e+17
19446.0	5.6485045589770234e+17
19447.0	5.531092527699278e+17
19448.0	5.389054259145392e+17
19449.0	5.2126269032802976e+17
19450.0	4.9810604133361926e+17
19451.0	4.916101948724571e+17
19452.0	5.096077248866984e+17
19453.0	5.306407375077384e+17
19454.0	5.459460158565028e+17
19455.0	5.5869310046481075e+17
19456.0	5.690515656452783e+17
19457.0	5.775057018858149e+17
19458.0	5.855439195471872e+17
19459.0	5.93091834605295e+17
19460.0	5.991057400179369e+17
19461.0	6.042185301142184e+17
19462.0	6.086290752318124e+17
19463.0	6.125657405434537e+17
19464.0	6.16114466918673e+17
19465.0	6.193500748688042e+17
19466.0	6.233076696875007e+17
19467.0	6.27604202227849e+17
19468.0	6.310184042015401e+17
19469.0	6.33763441951812e+17
19470.0	6.361126469457235e+17
19471.0	6.381759381897219e+17
19472.0	6.400180383383551e+17
19473.0	6.417760999440381e+17
19474.0	6.433110256254975e+17
19475.0	6.447819089685161e+17
19476.0	6.461476959158271e+17
19477.0	6.474593706792278e+17
19478.0	6.487372674542249e+17
19479.0	6.499375911359827e+17
19480.0	6.510786337832959e+17
19481.0	6.521520839633576e+17
19482.0	6.531689034896724e+17
19483.0	6.541421561511936e+17
19484.0	6.551467768938491e+17
19485.0	6.565979949629432e+17
19486.0	6.581532271575031e+17
19487.0	6.594802976030715e+17
19488.0	6.606360912680276e+17
19489.0	6.616510162971304e+17
19490.0	6.625897017420454e+17
19491.0	6.6333572595712e+17
19492.0	6.640536003106134e+17
19493.0	6.6468653826048e+17
19494.0	6.652543656525823e+17
19495.0	6.657376251805695e+17
19496.0	6.662895709104809e+17
19497.0	6.666709646355113e+17
19498.0	6.67095228761156e+17
19499.0	6.674026348937215e+17
19500.0	6.678601313288191e+17
19501.0	6.681580638568447e+17
19502.0	6.685234730893311e+17
19503.0	6.688391067686228e+17
19504.0	6.690904098908842e+17
19505.0	6.693281136814761e+17
19506.0	6.695528499423914e+17
19507.0	6.697650339097257e+17
19508.0	6.700513038958591e+17
19509.0	6.702439108094633e+17
19510.0	6.704159274653012e+17
19511.0	6.704605836607487e+17
19512.0	6.707242518009172e+17
19513.0	6.708458414582441e+17
19514.0	6.710057461525161e+17
19515.0	6.711526985564159e+17
19516.0	6.71290467951138e+17
19517.0	6.714163206990506e+17
19518.0	6.715652633701033e+17
19519.0	6.716639440186025e+17
19520.0	6.717547657297919e+17
19521.0	6.718398694861481e+17
19522.0	6.719174717298004e+17
19523.0	6.719887079986516e+17
19524.0	6.720535363496617e+17
19525.0	6.72330457022464e+17
19526.0	6.724108987400191e+17
19527.0	6.724567017979903e+17
19528.0	6.728761619775487e+17
19529.0	6.72958061285649e+17
19530.0	6.729857271245481e+17
19531.0	6.73146081448209e+17
19532.0	6.733914287986003e+17
19533.0	6.734025001533437e+17
19534.0	6.734094757702314e+17
19535.0	6.734572352613034e+17
19536.0	6.737176627423914e+17
19537.0	6.737128604740266e+17
19538.0	6.736996412162047e+17
19539.0	6.736719121132201e+17
19540.0	6.736726698841428e+17
19541.0	6.738589136890538e+17
19542.0	6.738849125018281e+17
19543.0	6.738726760393385e+17
19544.0	6.738534512372393e+17
19545.0	6.738053562717524e+17
19546.0	6.737567500206079e+17
19547.0	6.737497286858068e+17
19548.0	6.738834433070422e+17
19549.0	6.73869271802402e+17
19550.0	6.738283054060883e+17
19551.0	6.737816316106068e+17
19552.0	6.737326131991892e+17
19553.0	6.736806431861418e+17
19554.0	6.73627104223778e+17
19555.0	6.735733691777023e+17
19556.0	6.735165269213183e+17
19557.0	6.734971166610771e+17
19558.0	6.735578339650217e+17
19559.0	6.734950543917055e+17
19560.0	6.734301794839209e+17
19561.0	6.733656032105812e+17
19562.0	6.732984446440788e+17
19563.0	6.732297962607955e+17
19564.0	6.731598130402644e+17
19565.0	6.730884456994131e+17
19566.0	6.730150401365334e+17
19567.0	6.729416970687827e+17
19568.0	6.72865459511842e+17
19569.0	6.727898438303741e+17
19570.0	6.727125477010089e+17
19571.0	6.726336520738132e+17
19572.0	6.725934990928553e+17
19573.0	6.725933469794303e+17
19574.0	6.725085034097322e+17
19575.0	6.724287884252499e+17
19576.0	6.723447010885631e+17
19577.0	6.722589556036948e+17
19578.0	6.721722209621332e+17
19579.0	6.720860345161043e+17
19580.0	6.719985203631444e+17
19581.0	6.719104020905984e+17
19582.0	6.718217484151466e+17
19583.0	6.71731712856337e+17
19584.0	6.7164068918941e+17
19585.0	6.715453636345855e+17
19586.0	6.714518714799444e+17
19587.0	6.713633107782314e+17
19588.0	6.712538616037375e+17
19589.0	6.711753734531753e+17
19590.0	6.710784442761215e+17
19591.0	6.709855422600532e+17
19592.0	6.708892696313855e+17
19593.0	6.707917050172755e+17
19594.0	6.706866802043561e+17
19595.0	6.705957009970516e+17
19596.0	6.704851269801299e+17
19597.0	6.703987230594388e+17
19598.0	6.702903675497129e+17
19599.0	6.702000594310484e+17
19600.0	6.700995027402751e+17
19601.0	6.700684740482387e+17
19602.0	6.699818687310505e+17
19603.0	6.698663954874365e+17
19604.0	6.69776985858594e+17
19605.0	6.696652158358868e+17
19606.0	6.695726343345491e+17
19607.0	6.694690590031872e+17
19608.0	6.693647078653951e+17
19609.0	6.692586649550847e+17
19610.0	6.691554089500671e+17
19611.0	6.69049949397538e+17
19612.0	6.689445611481769e+17
19613.0	6.688386157554346e+17
19614.0	6.687307273513642e+17
19615.0	6.686256787008169e+17
19616.0	6.685179363284308e+17
19617.0	6.684114890872148e+17
19618.0	6.682844016760147e+17
19619.0	6.681720013193215e+17
19620.0	6.680646968322729e+17
19621.0	6.679794902455636e+17
19622.0	6.678708007993343e+17
19623.0	6.677618308240724e+17
19624.0	6.676525867510441e+17
19625.0	6.675430824214528e+17
19626.0	6.674333404845395e+17
19627.0	6.673233257081514e+17
19628.0	6.672107926017364e+17
19629.0	6.670993421150889e+17
19630.0	6.66985631527731e+17
19631.0	6.667746819440637e+17
19632.0	6.667697419627177e+17
19633.0	6.666585359340884e+17
19634.0	6.665470932768084e+17
19635.0	6.664338284740607e+17
19636.0	6.663234954898089e+17
19637.0	6.661964660299092e+17
19638.0	6.660988089313961e+17
19639.0	6.659859558694911e+17
19640.0	6.65870556795153e+17
19641.0	6.657390302025044e+17
19642.0	6.656481856323583e+17
19643.0	6.655347896178004e+17
19644.0	6.654194008894121e+17
19645.0	6.652986220609535e+17
19646.0	6.651946716190035e+17
19647.0	6.650809224440489e+17
19648.0	6.649670289850367e+17
19649.0	6.648528898097151e+17
19650.0	6.64738819351074e+17
19651.0	6.646245106559658e+17
19652.0	6.645100794172755e+17
19653.0	6.64395463000064e+17
19654.0	6.642808679738025e+17
19655.0	6.641659081829034e+17
19656.0	6.640509154667178e+17
19657.0	6.63936152178961e+17
19658.0	6.638210220993193e+17
19659.0	6.637057248766634e+17
19660.0	6.635904368814761e+17
19661.0	6.634749876153002e+17
19662.0	6.633594361479168e+17
19663.0	6.632422231070036e+17
19664.0	6.63127649751313e+17
19665.0	6.630122050289661e+17
