# Flux units: erg / (cm m2 s)
# Wavelength units: Angstrom
wave	flux
19000.0	8.054155688017917e+17
19001.0	8.052631150788607e+17
19002.0	8.05112347046707e+17
19003.0	8.049606805946365e+17
19004.0	8.048089751355391e+17
19005.0	8.046573082640383e+17
19006.0	8.045055872860157e+17
19007.0	8.04343886241246e+17
19008.0	8.042014513124692e+17
19009.0	8.040500707721215e+17
19010.0	8.038945223518889e+17
19011.0	8.037463514327722e+17
19012.0	8.0358539291962e+17
19013.0	8.034430148935679e+17
19014.0	8.032906537249449e+17
19015.0	8.031392618599764e+17
19016.0	8.029869019496447e+17
19017.0	8.028330203458216e+17
19018.0	8.026827970139476e+17
19019.0	8.025316067551913e+17
19020.0	8.023791990297939e+17
19021.0	8.022273558577152e+17
19022.0	8.02075781959953e+17
19023.0	8.01923858257237e+17
19024.0	8.017718900948991e+17
19025.0	8.01619232249173e+17
19026.0	8.01466864509474e+17
19027.0	8.013085358249298e+17
19028.0	8.011640405142186e+17
19029.0	8.01012036141056e+17
19030.0	8.008600292513106e+17
19031.0	8.007080099184639e+17
19032.0	8.005559932420096e+17
19033.0	8.004031989415935e+17
19034.0	8.002519074603004e+17
19035.0	8.000997705471315e+17
19036.0	7.993569800006308e+17
19037.0	7.997957508956161e+17
19038.0	7.996438185246717e+17
19039.0	7.994918018482173e+17
19040.0	7.993397774822058e+17
19041.0	7.991877480830292e+17
19042.0	7.990350186545151e+17
19043.0	7.988837368201215e+17
19044.0	7.987316638001834e+17
19045.0	7.985792854349138e+17
19046.0	7.98427016540979e+17
19047.0	7.98275627332403e+17
19048.0	7.981219102851072e+17
19049.0	7.979710393526952e+17
19050.0	7.978192263796051e+17
19051.0	7.975850565697533e+17
19052.0	7.975096239696553e+17
19053.0	7.973610930394451e+17
19054.0	7.972116330708991e+17
19055.0	7.970574591240873e+17
19056.0	7.969076787107156e+17
19057.0	7.967555536814079e+17
19058.0	7.966012641116157e+17
19059.0	7.964517828919296e+17
19060.0	7.962996215119871e+17
19061.0	7.96147888370483e+17
19062.0	7.959959237033983e+17
19063.0	7.958440194342911e+17
19064.0	7.95691122373427e+17
19065.0	7.955385583403007e+17
19066.0	7.953876917420032e+17
19067.0	7.95236380966912e+17
19068.0	7.950844880224253e+17
19069.0	7.949326101774335e+17
19070.0	7.947805942000298e+17
19071.0	7.946285380971177e+17
19072.0	7.944769693723306e+17
19073.0	7.943251373850621e+17
19074.0	7.941733555896317e+17
19075.0	7.940215360454655e+17
19076.0	7.938695237031251e+17
19077.0	7.937178485828266e+17
19078.0	7.935655535443967e+17
19079.0	7.934143400771583e+17
19080.0	7.932625406656511e+17
19081.0	7.931103939657727e+17
19082.0	7.929585966514175e+17
19083.0	7.928063694209025e+17
19084.0	7.92653299135283e+17
19085.0	7.92503808967748e+17
19086.0	7.923478948042067e+17
19087.0	7.921836490751999e+17
19088.0	7.920472668067156e+17
19089.0	7.918865848380073e+17
19090.0	7.917450746134527e+17
19091.0	7.915933926424575e+17
19092.0	7.914375515996157e+17
19093.0	7.912904191901693e+17
19094.0	7.911365009560915e+17
19095.0	7.909842310834858e+17
19096.0	7.908345612599293e+17
19097.0	7.906837872159402e+17
19098.0	7.905324993697108e+17
19099.0	7.90380940571443e+17
19100.0	7.90228496495411e+17
19101.0	7.900775927076178e+17
19102.0	7.899257611397802e+17
19103.0	7.897749416574973e+17
19104.0	7.896234433970173e+17
19105.0	7.894719149375488e+17
19106.0	7.893174282354685e+17
19107.0	7.891688138386089e+17
19108.0	7.890174165210451e+17
19109.0	7.887981926940667e+17
19110.0	7.887137817668264e+17
19111.0	7.885632782554454e+17
19112.0	7.884119386794664e+17
19113.0	7.882605644305748e+17
19114.0	7.881092048617471e+17
19115.0	7.879566131462144e+17
19116.0	7.878064860037117e+17
19117.0	7.876549571248125e+17
19118.0	7.875001620015786e+17
19119.0	7.873359489881428e+17
19120.0	7.87196776808448e+17
19121.0	7.870471160725505e+17
19122.0	7.868986226114557e+17
19123.0	7.867471331590143e+17
19124.0	7.865928009471314e+17
19125.0	7.86443897283106e+17
19126.0	7.862918084646227e+17
19127.0	7.861284989042684e+17
19128.0	7.859317248098301e+17
19129.0	7.858391561011199e+17
19130.0	7.856888133713919e+17
19131.0	7.855357074341885e+17
19132.0	7.85386455642931e+17
19133.0	7.852237040648191e+17
19134.0	7.850552926928893e+17
19135.0	7.849328567648255e+17
19136.0	7.847818861477885e+17
19137.0	7.846291516861097e+17
19138.0	7.84471585805653e+17
19139.0	7.84328239874048e+17
19140.0	7.841774777139199e+17
19141.0	7.840264689287165e+17
19142.0	7.838753842266112e+17
19143.0	7.837237867009363e+17
19144.0	7.835730267777704e+17
19145.0	7.834219335472468e+17
19146.0	7.83264184096085e+17
19147.0	7.831194864801108e+17
19148.0	7.829687300521983e+17
19149.0	7.828178546458624e+17
19150.0	7.826666017521661e+17
19151.0	7.825135481039528e+17
19152.0	7.823597436753238e+17
19153.0	7.822096231038973e+17
19154.0	7.820575560957951e+17
19155.0	7.819076042751999e+17
19156.0	7.817565300588543e+17
19157.0	7.816042058001066e+17
19158.0	7.814081411022845e+17
19159.0	7.813030458250579e+17
19160.0	7.811515551143254e+17
19161.0	7.809952710131711e+17
19162.0	7.807466547620524e+17
19163.0	7.806986980687871e+17
19164.0	7.805490406883327e+17
19165.0	7.803967333466111e+17
19166.0	7.802445955945812e+17
19167.0	7.800864444689064e+17
19168.0	7.799438386921471e+17
19169.0	7.797924226400255e+17
19170.0	7.796435213527721e+17
19171.0	7.794879301506387e+17
19172.0	7.793412217853267e+17
19173.0	7.79190673674513e+17
19174.0	7.790395446525951e+17
19175.0	7.78889087418368e+17
19176.0	7.7873813651456e+17
19177.0	7.785858795044861e+17
19178.0	7.784345853668009e+17
19179.0	7.782781470550697e+17
19180.0	7.78120098550033e+17
19181.0	7.779819381762728e+17
19182.0	7.778313444873556e+17
19183.0	7.776799601721344e+17
19184.0	7.775281439834111e+17
19185.0	7.773796148707325e+17
19186.0	7.772287440781311e+17
19187.0	7.770771350880255e+17
19188.0	7.769261256037715e+17
19189.0	7.767730281949868e+17
19190.0	7.76621484356403e+17
19191.0	7.764724158562303e+17
19192.0	7.763210170007548e+17
19193.0	7.761564084644522e+17
19194.0	7.760139169125718e+17
19195.0	7.758680778866687e+17
19196.0	7.757179875142314e+17
19197.0	7.75566327493427e+17
19198.0	7.754127032800596e+17
19199.0	7.746370485441875e+17
19200.0	7.747041033016663e+17
19201.0	7.749597578745172e+17
19202.0	7.748108792365055e+17
19203.0	7.746589925834751e+17
19204.0	7.745090688647167e+17
19205.0	7.743581703897088e+17
19206.0	7.742068980624041e+17
19207.0	7.74055368204834e+17
19208.0	7.739028854013951e+17
19209.0	7.737532238266365e+17
19210.0	7.736018711085053e+17
19211.0	7.734503896252416e+17
19212.0	7.732990134190079e+17
19213.0	7.731417358270463e+17
19214.0	7.729871379759101e+17
19215.0	7.728422813958143e+17
19216.0	7.726927615885311e+17
19217.0	7.725416659812351e+17
19218.0	7.723833612042239e+17
19219.0	7.722370378760191e+17
19220.0	7.720865873526781e+17
19221.0	7.719318847837526e+17
19222.0	7.7178346695994e+17
19223.0	7.716316790128637e+17
19224.0	7.714792089321471e+17
19225.0	7.713266709037055e+17
19226.0	7.711761604018173e+17
19227.0	7.710242267725821e+17
19228.0	7.708722402951164e+17
19229.0	7.707201916021417e+17
19230.0	7.705656129049939e+17
19231.0	7.70414256272179e+17
19232.0	7.702631171839318e+17
19233.0	7.701108671643647e+17
19234.0	7.699589858241194e+17
19235.0	7.698068480720896e+17
19236.0	7.696544052543488e+17
19237.0	7.695017825009664e+17
19238.0	7.693476200185855e+17
19239.0	7.691967404179455e+17
19240.0	7.690411862654973e+17
19241.0	7.688904680057514e+17
19242.0	7.687384601373352e+17
19243.0	7.685839398808233e+17
19244.0	7.684325158595242e+17
19245.0	7.682794666852352e+17
19246.0	7.681261922768211e+17
19247.0	7.679729870744233e+17
19248.0	7.678197680308221e+17
19249.0	7.676663489189204e+17
19250.0	7.675127897172649e+17
19251.0	7.673584630977876e+17
19252.0	7.672023983587328e+17
19253.0	7.670516603857578e+17
19254.0	7.668973789249535e+17
19255.0	7.667419524191574e+17
19256.0	7.665877277212671e+17
19257.0	7.664353676711254e+17
19258.0	7.662810606250666e+17
19259.0	7.661259151376381e+17
19260.0	7.659651867519657e+17
19261.0	7.658173134886227e+17
19262.0	7.656624581072214e+17
19263.0	7.655072871743488e+17
19264.0	7.653484470643369e+17
19265.0	7.65195565802018e+17
19266.0	7.650406905675773e+17
19267.0	7.648861160647336e+17
19268.0	7.647304007112019e+17
19269.0	7.64574523457536e+17
19270.0	7.644182573918889e+17
19271.0	7.642594793575764e+17
19272.0	7.641055751045119e+17
19273.0	7.638756826458793e+17
19274.0	7.63755451523618e+17
19275.0	7.636356423483391e+17
19276.0	7.634785374218922e+17
19277.0	7.63321215230498e+17
19278.0	7.631600577675263e+17
19279.0	7.629981189057194e+17
19280.0	7.62841360428783e+17
19281.0	7.626837851810472e+17
19282.0	7.625252163026943e+17
19283.0	7.623572228232531e+17
19284.0	7.621855549936978e+17
19285.0	7.620469256967508e+17
19286.0	7.618893623328768e+17
19287.0	7.617297325752317e+17
19288.0	7.614375443562496e+17
19289.0	7.610024750743542e+17
19290.0	7.612491285310121e+17
19291.0	7.610860349773139e+17
19292.0	7.609272794524326e+17
19293.0	7.607657984688128e+17
19294.0	7.606041199334739e+17
19295.0	7.604420546833064e+17
19296.0	7.602796501139455e+17
19297.0	7.601168579908948e+17
19298.0	7.599537391315626e+17
19299.0	7.597902255882239e+17
19300.0	7.596263043585363e+17
19301.0	7.594619362956628e+17
19302.0	7.592972150723923e+17
19303.0	7.591312603043156e+17
19304.0	7.589659504803839e+17
19305.0	7.588004974908758e+17
19306.0	7.586337329425066e+17
19307.0	7.584660628439039e+17
19308.0	7.582988493651965e+17
19309.0	7.581127388692479e+17
19310.0	7.579338090217471e+17
19311.0	7.577918993596415e+17
19312.0	7.576241934696445e+17
19313.0	7.574499057380009e+17
19314.0	7.570980926914554e+17
19315.0	7.569350698816856e+17
19316.0	7.56923639144994e+17
19317.0	7.567524182884352e+17
19318.0	7.565791011187368e+17
19319.0	7.564050636472319e+17
19320.0	7.562299460026368e+17
19321.0	7.560547176284157e+17
19322.0	7.558762881613821e+17
19323.0	7.556911125757951e+17
19324.0	7.555230195515391e+17
19325.0	7.553300779324756e+17
19326.0	7.551645797842943e+17
19327.0	7.549842400914089e+17
19328.0	7.54802919350818e+17
19329.0	7.546204425202348e+17
19330.0	7.544365983465471e+17
19331.0	7.542520358283948e+17
19332.0	7.540666913521663e+17
19333.0	7.538694975477075e+17
19334.0	7.536812107672233e+17
19335.0	7.53494273573956e+17
19336.0	7.533064887118505e+17
19337.0	7.531148238389247e+17
19338.0	7.529201913561088e+17
19339.0	7.527276539281408e+17
19340.0	7.525315755289258e+17
19341.0	7.523346001078953e+17
19342.0	7.521320231938728e+17
19343.0	7.519329527179948e+17
19344.0	7.517278565651796e+17
19345.0	7.514949454659581e+17
19346.0	7.51301906539042e+17
19347.0	7.510982207908521e+17
19348.0	7.508895450791935e+17
19349.0	7.506730493673472e+17
19350.0	7.504537947821395e+17
19351.0	7.502383951817385e+17
19352.0	7.500203301011456e+17
19353.0	7.497897678121641e+17
19354.0	7.495617955059028e+17
19355.0	7.49336333910016e+17
19356.0	7.491095723595091e+17
19357.0	7.4887905439034e+17
19358.0	7.486454489939969e+17
19359.0	7.484000894801236e+17
19360.0	7.481503897004714e+17
19361.0	7.479081440378879e+17
19362.0	7.476632976272042e+17
19363.0	7.474144829855059e+17
19364.0	7.471594361673046e+17
19365.0	7.468770766006956e+17
19366.0	7.466171678851071e+17
19367.0	7.463531414814717e+17
19368.0	7.460848143783254e+17
19369.0	7.458106408348329e+17
19370.0	7.455259741214036e+17
19371.0	7.452521049445714e+17
19372.0	7.449646005048662e+17
19373.0	7.446717370029395e+17
19374.0	7.443544165143891e+17
19375.0	7.440459074196819e+17
19376.0	7.43735611551471e+17
19377.0	7.434188497442132e+17
19378.0	7.430954563229011e+17
19379.0	7.427649915846656e+17
19380.0	7.42411132416819e+17
19381.0	7.420506143719423e+17
19382.0	7.416963859655338e+17
19383.0	7.413343848147626e+17
19384.0	7.409555217230505e+17
19385.0	7.40539474448657e+17
19386.0	7.401432037370538e+17
19387.0	7.397427911502505e+17
19388.0	7.393244437195434e+17
19389.0	7.388592090032809e+17
19390.0	7.384248720468649e+17
19391.0	7.374917163024375e+17
19392.0	7.374574445046442e+17
19393.0	7.369859030930772e+17
19394.0	7.364496923645268e+17
19395.0	7.359177582881449e+17
19396.0	7.35335503049523e+17
19397.0	7.347608197879123e+17
19398.0	7.341414667692714e+17
19399.0	7.335284119175165e+17
19400.0	7.328858397911722e+17
19401.0	7.322752058916863e+17
19402.0	7.316143384909138e+17
19403.0	7.309562327597053e+17
19404.0	7.302762366763007e+17
19405.0	7.295702291972093e+17
19406.0	7.287991101816832e+17
19407.0	7.280284027671892e+17
19408.0	7.272290058939049e+17
19409.0	7.263558823837696e+17
19410.0	7.254834321992361e+17
19411.0	7.245443936638291e+17
19412.0	7.235773227772585e+17
19413.0	7.22528719933713e+17
19414.0	7.214563068652202e+17
19415.0	7.202744604906836e+17
19416.0	7.190302839625042e+17
19417.0	7.177137879864659e+17
19418.0	7.163166435136851e+17
19419.0	7.148032340525053e+17
19420.0	7.131560959191717e+17
19421.0	7.11583206613538e+17
19422.0	7.100817869897727e+17
19423.0	7.084865038756521e+17
19424.0	7.068113019338752e+17
19425.0	7.050308169498624e+17
19426.0	7.03127051514675e+17
19427.0	7.01088260878063e+17
19428.0	6.989123230717267e+17
19429.0	6.965775218070868e+17
19430.0	6.94027693186526e+17
19431.0	6.912232691946836e+17
19432.0	6.882735467528191e+17
19433.0	6.848953202333009e+17
19434.0	6.816474743526739e+17
19435.0	6.783651275953491e+17
19436.0	6.748167984207188e+17
19437.0	6.710321590829056e+17
19438.0	6.665142310447784e+17
19439.0	6.622469567108439e+17
19440.0	6.570608057210195e+17
19441.0	6.514840385705298e+17
19442.0	6.459087750081197e+17
19443.0	6.396932814187177e+17
19444.0	6.327384937245349e+17
19445.0	6.250481556215128e+17
19446.0	6.167760826531839e+17
19447.0	6.074180433521317e+17
19448.0	5.968081834038616e+17
19449.0	5.833077971834195e+17
19450.0	5.556378480760087e+17
19451.0	5.437780041662472e+17
19452.0	5.716146296717314e+17
19453.0	5.905209700122629e+17
19454.0	6.018161744805883e+17
19455.0	6.115130809690793e+17
19456.0	6.200450587383126e+17
19457.0	6.277427831504892e+17
19458.0	6.347371498351277e+17
19459.0	6.411653293102424e+17
19460.0	6.467735368237052e+17
19461.0	6.520145748251988e+17
19462.0	6.57261630184926e+17
19463.0	6.618543080603644e+17
19464.0	6.659732142729897e+17
19465.0	6.696974358500694e+17
19466.0	6.730624514304681e+17
19467.0	6.762079673384959e+17
19468.0	6.791430365599062e+17
19469.0	6.822527907135487e+17
19470.0	6.85187218416162e+17
19471.0	6.877860940393132e+17
19472.0	6.901328979339944e+17
19473.0	6.92289484479966e+17
19474.0	6.942756038159018e+17
19475.0	6.960939493141161e+17
19476.0	6.977717480893097e+17
19477.0	6.993518850124458e+17
19478.0	7.007831689527293e+17
19479.0	7.021503206566568e+17
19480.0	7.034106847515988e+17
19481.0	7.046444390634835e+17
19482.0	7.059902249828351e+17
19483.0	7.072817206700714e+17
19484.0	7.08463585918976e+17
19485.0	7.095420273207977e+17
19486.0	7.1052468172445e+17
19487.0	7.114384009243305e+17
19488.0	7.122747160614228e+17
19489.0	7.130682576863232e+17
19490.0	7.137538078670847e+17
19491.0	7.144576138958164e+17
19492.0	7.150601056725674e+17
19493.0	7.156563515714217e+17
19494.0	7.162038049920339e+17
19495.0	7.16696975310848e+17
19496.0	7.171848424914943e+17
19497.0	7.176381684602198e+17
19498.0	7.180244019227306e+17
19499.0	7.176607747801078e+17
19500.0	7.188004770676735e+17
19501.0	7.191524198580224e+17
19502.0	7.194929140159828e+17
19503.0	7.198171475563859e+17
19504.0	7.201709190632787e+17
19505.0	7.20451735405636e+17
19506.0	7.207705605308415e+17
19507.0	7.210207710369108e+17
19508.0	7.212829526458365e+17
19509.0	7.214957390550356e+17
19510.0	7.216877066169002e+17
19511.0	7.213700788256764e+17
19512.0	7.219614412963835e+17
19513.0	7.219920274194427e+17
19514.0	7.222310585674406e+17
19515.0	7.224855563512489e+17
19516.0	7.226084624607913e+17
19517.0	7.227214280698536e+17
19518.0	7.228370240667647e+17
19519.0	7.229282394133844e+17
19520.0	7.230018820243455e+17
19521.0	7.230668311014058e+17
19522.0	7.231381450347862e+17
19523.0	7.232025334732118e+17
19524.0	7.232450832891901e+17
19525.0	7.232803614403241e+17
19526.0	7.233100491434664e+17
19527.0	7.233332208555348e+17
19528.0	7.233505134116864e+17
19529.0	7.233819606253565e+17
19530.0	7.233898568220671e+17
19531.0	7.233909959950335e+17
19532.0	7.233871976333311e+17
19533.0	7.233787236013395e+17
19534.0	7.233657281096361e+17
19535.0	7.233484376506368e+17
19536.0	7.233270907404288e+17
19537.0	7.233017714049023e+17
19538.0	7.232775417495552e+17
19539.0	7.232619161496233e+17
19540.0	7.23230260339234e+17
19541.0	7.231908769431551e+17
19542.0	7.231482748381864e+17
19543.0	7.231026117301587e+17
19544.0	7.23072027145011e+17
19545.0	7.230189205454845e+17
19546.0	7.229601906425853e+17
19547.0	7.229108576583677e+17
19548.0	7.228516280740522e+17
19549.0	7.22789348811298e+17
19550.0	7.227270196363261e+17
19551.0	7.226758323503104e+17
19552.0	7.226077738958847e+17
19553.0	7.225375002897064e+17
19554.0	7.224653560239444e+17
19555.0	7.223918788083711e+17
19556.0	7.223227225647786e+17
19557.0	7.222481600031402e+17
19558.0	7.221688968850089e+17
19559.0	7.220877340267859e+17
19560.0	7.220131133041321e+17
19561.0	7.219335265255424e+17
19562.0	7.218481026738858e+17
19563.0	7.217611922210815e+17
19564.0	7.216730939413844e+17
19565.0	7.215835971409236e+17
19566.0	7.214926819666602e+17
19567.0	7.214014601887743e+17
19568.0	7.213118136516607e+17
19569.0	7.212174609656489e+17
19570.0	7.211221272319316e+17
19571.0	7.210256684460714e+17
19572.0	7.209281876481366e+17
19573.0	7.208296029093887e+17
19574.0	7.207362830008319e+17
19575.0	7.206391622139901e+17
19576.0	7.205380048289791e+17
19577.0	7.204354345227604e+17
19578.0	7.203327306978644e+17
19579.0	7.202291154507091e+17
19580.0	7.201246925204138e+17
19581.0	7.200194972789417e+17
19582.0	7.199136871525033e+17
19583.0	7.198070027933012e+17
19584.0	7.196996066607104e+17
19585.0	7.195906225646249e+17
19586.0	7.194795853567316e+17
19587.0	7.193677084491775e+17
19588.0	7.19259031376145e+17
19589.0	7.191487277520212e+17
19590.0	7.190413367924051e+17
19591.0	7.189308890240339e+17
19592.0	7.188188907612841e+17
19593.0	7.187063768787625e+17
19594.0	7.185899564214953e+17
19595.0	7.184797249394003e+17
19596.0	7.182196599160832e+17
19597.0	7.182507659930281e+17
19598.0	7.181378975520084e+17
19599.0	7.180279926663849e+17
19600.0	7.179122988023807e+17
19601.0	7.177958685584042e+17
19602.0	7.176793530302463e+17
19603.0	7.175498204796244e+17
19604.0	7.174446786456233e+17
19605.0	7.173263451663017e+17
19606.0	7.172156436425385e+17
19607.0	7.170975202978474e+17
19608.0	7.16978914328576e+17
19609.0	7.168598578910547e+17
19610.0	7.167408966642345e+17
19611.0	7.16621379412514e+17
19612.0	7.165016667062271e+17
19613.0	7.163816146807466e+17
19614.0	7.162609493082111e+17
19615.0	7.161407406953812e+17
19616.0	7.160155945478825e+17
19617.0	7.158989413067433e+17
19618.0	7.157737459460777e+17
19619.0	7.156507004458323e+17
19620.0	7.155293066625024e+17
19621.0	7.154123886209705e+17
19622.0	7.152901979198803e+17
19623.0	7.151678184751104e+17
19624.0	7.150452263791274e+17
19625.0	7.149223352292692e+17
19626.0	7.147994059112447e+17
19627.0	7.146762224183977e+17
19628.0	7.145388913983487e+17
19629.0	7.144283769405437e+17
19630.0	7.142928174546944e+17
19631.0	7.135298943888036e+17
19632.0	7.140571209181865e+17
19633.0	7.139334048885417e+17
19634.0	7.138094667005951e+17
19635.0	7.136846911897597e+17
19636.0	7.135605171421183e+17
19637.0	7.134321374658557e+17
19638.0	7.133108970542419e+17
19639.0	7.131858737998505e+17
19640.0	7.130604441174016e+17
19641.0	7.129315749658623e+17
19642.0	7.128103084097533e+17
19643.0	7.126846681732435e+17
19644.0	7.125590233229993e+17
19645.0	7.124314952302591e+17
19646.0	7.123078270156797e+17
19647.0	7.121819190427645e+17
19648.0	7.120559305392127e+17
19649.0	7.119298245951487e+17
19650.0	7.118036685990568e+17
19651.0	7.116773934847316e+17
19652.0	7.115510407757823e+17
19653.0	7.114245753798655e+17
19654.0	7.112980697186304e+17
19655.0	7.111714250861225e+17
19656.0	7.110447120864595e+17
19657.0	7.109180074754047e+17
19658.0	7.107911817887743e+17
19659.0	7.106642650857471e+17
19660.0	7.105373005676543e+17
19661.0	7.104102604122794e+17
19662.0	7.102831476954451e+17
19663.0	7.101554721030143e+17
19664.0	7.100261863172777e+17
19665.0	7.099014534485332e+17
