# Flux units: erg / (cm m2 s)
# Wavelength units: Angstrom
wave	flux
19000.0	8.479385244576426e+17
19001.0	8.477528909938685e+17
19002.0	8.476506461656404e+17
19003.0	8.475034446899881e+17
19004.0	8.473582336912042e+17
19005.0	8.472120640143357e+17
19006.0	8.470655080420692e+17
19007.0	8.469018272858111e+17
19008.0	8.467510296139092e+17
19009.0	8.465789185862313e+17
19010.0	8.463194003603453e+17
19011.0	8.463160934312617e+17
19012.0	8.460932025242962e+17
19013.0	8.460343902732285e+17
19014.0	8.458598557766995e+17
19015.0	8.457239680166569e+17
19016.0	8.455776390960467e+17
19017.0	8.454339514684755e+17
19018.0	8.452885307544915e+17
19019.0	8.451405636785492e+17
19020.0	8.449866015440893e+17
19021.0	8.448466643233449e+17
19022.0	8.446971433975807e+17
19023.0	8.445294621141672e+17
19024.0	8.443900235961683e+17
19025.0	8.442379982514858e+17
19026.0	8.440798117538476e+17
19027.0	8.438839838943913e+17
19028.0	8.437928808153085e+17
19029.0	8.436367338678953e+17
19030.0	8.434978712278356e+17
19031.0	8.43348784971776e+17
19032.0	8.431953413931004e+17
19033.0	8.430015054086143e+17
19034.0	8.42870452842223e+17
19035.0	8.426248355184639e+17
19036.0	8.383541019323043e+17
19037.0	8.423551430295552e+17
19038.0	8.422610866012157e+17
19039.0	8.421262376304639e+17
19040.0	8.419792850168489e+17
19041.0	8.418244169127251e+17
19042.0	8.416344269651967e+17
19043.0	8.415216499600041e+17
19044.0	8.413645762112169e+17
19045.0	8.412131236686505e+17
19046.0	8.410628509837994e+17
19047.0	8.409504025324198e+17
19048.0	8.407362254318249e+17
19049.0	8.406174707045715e+17
19050.0	8.404637764463272e+17
19051.0	8.39658911878348e+17
19052.0	8.399818496584361e+17
19053.0	8.400239559966717e+17
19054.0	8.398795835790676e+17
19055.0	8.396191610612397e+17
19056.0	8.395637976465408e+17
19057.0	8.39417440903714e+17
19058.0	8.392535340744701e+17
19059.0	8.39108737333111e+17
19060.0	8.390118026335574e+17
19061.0	8.388642306610515e+17
19062.0	8.387054878588927e+17
19063.0	8.385503173454505e+17
19064.0	8.383452081902932e+17
19065.0	8.3815737355578e+17
19066.0	8.380538058440703e+17
19067.0	8.37920035508497e+17
19068.0	8.377689411594921e+17
19069.0	8.376131412208297e+17
19070.0	8.3744465616896e+17
19071.0	8.372947858576723e+17
19072.0	8.371418272803497e+17
19073.0	8.369828247109631e+17
19074.0	8.368291610711379e+17
19075.0	8.366715686267561e+17
19076.0	8.365071849051476e+17
19077.0	8.363503653311828e+17
19078.0	8.361821527692628e+17
19079.0	8.360387693685418e+17
19080.0	8.35874951738163e+17
19081.0	8.35702763954722e+17
19082.0	8.355496659866964e+17
19083.0	8.353471974255272e+17
19084.0	8.351326396219392e+17
19085.0	8.350760661505364e+17
19086.0	8.347309252629843e+17
19087.0	8.346907937428819e+17
19088.0	8.345369312930472e+17
19089.0	8.343197649119914e+17
19090.0	8.3425977462074e+17
19091.0	8.341120232718336e+17
19092.0	8.339278975205375e+17
19093.0	8.338094684110847e+17
19094.0	8.336554063123794e+17
19095.0	8.334982202960553e+17
19096.0	8.333343821135872e+17
19097.0	8.331790024441853e+17
19098.0	8.33018286921045e+17
19099.0	8.328580390628009e+17
19100.0	8.326919577665535e+17
19101.0	8.325358017314816e+17
19102.0	8.323467841634301e+17
19103.0	8.322160395987624e+17
19104.0	8.320580665911978e+17
19105.0	8.318910796049066e+17
19106.0	8.317192431643305e+17
19107.0	8.315574687192403e+17
19108.0	8.313834771054591e+17
19109.0	8.309242757556901e+17
19110.0	8.310074362210985e+17
19111.0	8.309170170931881e+17
19112.0	8.307668330479612e+17
19113.0	8.306082887761917e+17
19114.0	8.30445447439974e+17
19115.0	8.302594208301055e+17
19116.0	8.301135372047698e+17
19117.0	8.299487901166249e+17
19118.0	8.29750965768465e+17
19119.0	8.287249850433522e+17
19120.0	8.294256025621843e+17
19121.0	8.292834055902547e+17
19122.0	8.29153353225557e+17
19123.0	8.289903244039508e+17
19124.0	8.287965036587688e+17
19125.0	8.286267034129748e+17
19126.0	8.284268950192127e+17
19127.0	8.276643838339752e+17
19128.0	8.279744048354642e+17
19129.0	8.279166206083071e+17
19130.0	8.277888784662527e+17
19131.0	8.276293081279145e+17
19132.0	8.274670706316628e+17
19133.0	8.27249524666095e+17
19134.0	8.270831925504681e+17
19135.0	8.269772953223165e+17
19136.0	8.268145073935702e+17
19137.0	8.265971758967464e+17
19138.0	8.264796222783485e+17
19139.0	8.263239014722216e+17
19140.0	8.261615445781161e+17
19141.0	8.259974189460136e+17
19142.0	8.25820291530752e+17
19143.0	8.256474729239891e+17
19144.0	8.254829032549032e+17
19145.0	8.253356053102591e+17
19146.0	8.249157448542894e+17
19147.0	8.249777423996243e+17
19148.0	8.248382933958655e+17
19149.0	8.246716411150335e+17
19150.0	8.245083371470845e+17
19151.0	8.243418153091071e+17
19152.0	8.241715462799357e+17
19153.0	8.239989179547647e+17
19154.0	8.237982816053928e+17
19155.0	8.236684892875433e+17
19156.0	8.234962275445417e+17
19157.0	8.232907548830377e+17
19158.0	8.230096810104147e+17
19159.0	8.229634353135615e+17
19160.0	8.228105976720041e+17
19161.0	8.226119298493097e+17
19162.0	8.219895303678634e+17
19163.0	8.222111028652713e+17
19164.0	8.221525365402282e+17
19165.0	8.219884893416105e+17
19166.0	8.217882357923839e+17
19167.0	8.216185058710867e+17
19168.0	8.214823681305256e+17
19169.0	8.213225956267347e+17
19170.0	8.21162702606609e+17
19171.0	8.209811573309437e+17
19172.0	8.208204331395753e+17
19173.0	8.206599248150527e+17
19174.0	8.204729797924182e+17
19175.0	8.203240884316841e+17
19176.0	8.201525042085885e+17
19177.0	8.199193819960658e+17
19178.0	8.19798839656448e+17
19179.0	8.196200279485097e+17
19180.0	8.194636255679828e+17
19181.0	8.192683604443135e+17
19182.0	8.191241194482344e+17
19183.0	8.189632115463508e+17
19184.0	8.187851578889558e+17
19185.0	8.185888886489085e+17
19186.0	8.183718789950121e+17
19187.0	8.181605294145533e+17
19188.0	8.18023643410159e+17
19189.0	8.178479311530664e+17
19190.0	8.176651896619008e+17
19191.0	8.174608544956415e+17
19192.0	8.17300778464051e+17
19193.0	8.171153712130728e+17
19194.0	8.169263210692607e+17
19195.0	8.167402367178068e+17
19196.0	8.16521543050854e+17
19197.0	8.162612309830314e+17
19198.0	8.157761985926484e+17
19199.0	8.128345984204797e+17
19200.0	8.131630226298202e+17
19201.0	8.152980367518377e+17
19202.0	8.154030478633642e+17
19203.0	8.153041562413736e+17
19204.0	8.15166543643716e+17
19205.0	8.150142532190207e+17
19206.0	8.148494258798591e+17
19207.0	8.14639793307648e+17
19208.0	8.14448089847125e+17
19209.0	8.143356794241021e+17
19210.0	8.141634989107881e+17
19211.0	8.139939810814634e+17
19212.0	8.138131221337427e+17
19213.0	8.135820154241021e+17
19214.0	8.133895887257599e+17
19215.0	8.132686332471976e+17
19216.0	8.130644246091092e+17
19217.0	8.128099543678975e+17
19218.0	8.123620183594321e+17
19219.0	8.123780705200808e+17
19220.0	8.12273438154206e+17
19221.0	8.120009052826281e+17
19222.0	8.119146439682728e+17
19223.0	8.117391133245437e+17
19224.0	8.115454922282323e+17
19225.0	8.113378722228905e+17
19226.0	8.111941613868372e+17
19227.0	8.110128965702996e+17
19228.0	8.10843977687586e+17
19229.0	8.106608865312765e+17
19230.0	8.104705568451242e+17
19231.0	8.102851764376915e+17
19232.0	8.101054370895187e+17
19233.0	8.098937795073363e+17
19234.0	8.097314553288019e+17
19235.0	8.095372449327786e+17
19236.0	8.093684437701972e+17
19237.0	8.091750992183293e+17
19238.0	8.088420387651583e+17
19239.0	8.086731085578237e+17
19240.0	8.084739856531453e+17
19241.0	8.082827698503679e+17
19242.0	8.081015194342739e+17
19243.0	8.078406401567398e+17
19244.0	8.077316661269842e+17
19245.0	8.075385284941139e+17
19246.0	8.073445901686098e+17
19247.0	8.07154268591445e+17
19248.0	8.069668139608745e+17
19249.0	8.067731198836733e+17
19250.0	8.065735976812543e+17
19251.0	8.063403862698664e+17
19252.0	8.060611444692306e+17
19253.0	8.059465065911638e+17
19254.0	8.056344288428031e+17
19255.0	8.053536070478504e+17
19256.0	8.052295684762284e+17
19257.0	8.050456138525352e+17
19258.0	8.048490855443113e+17
19259.0	8.046080504976722e+17
19260.0	8.043266055689555e+17
19261.0	8.04197291401762e+17
19262.0	8.039772703774039e+17
19263.0	8.037704489675433e+17
19264.0	8.034154578968572e+17
19265.0	8.033291574356649e+17
19266.0	8.030400137221463e+17
19267.0	8.027873713586175e+17
19268.0	8.025804931858431e+17
19269.0	8.023752642134015e+17
19270.0	8.021644509446143e+17
19271.0	8.018489135945047e+17
19272.0	8.017351029729961e+17
19273.0	8.01127676457779e+17
19274.0	8.009949250584568e+17
19275.0	8.01128005570833e+17
19276.0	8.009156113290577e+17
19277.0	8.005848352336552e+17
19278.0	8.003740309127167e+17
19279.0	8.001450669331794e+17
19280.0	7.999174547778217e+17
19281.0	7.997267933222228e+17
19282.0	7.995140824104961e+17
19283.0	7.992754864914431e+17
19284.0	7.990193715238227e+17
19285.0	7.988151581321896e+17
19286.0	7.986225186428246e+17
19287.0	7.98407616626688e+17
19288.0	7.96968665288976e+17
19289.0	7.953136826886789e+17
19290.0	7.976553971449855e+17
19291.0	7.973411457684826e+17
19292.0	7.97231444865843e+17
19293.0	7.970065630625791e+17
19294.0	7.967765876965375e+17
19295.0	7.965534886122838e+17
19296.0	7.963198820974592e+17
19297.0	7.960780098677416e+17
19298.0	7.958457332269055e+17
19299.0	7.956231259947007e+17
19300.0	7.953876489601024e+17
19301.0	7.951493477608106e+17
19302.0	7.949050617091412e+17
19303.0	7.946410276159485e+17
19304.0	7.944174837956608e+17
19305.0	7.941764276376915e+17
19306.0	7.939315961866922e+17
19307.0	7.936112658655913e+17
19308.0	7.932856382783488e+17
19309.0	7.929482507015506e+17
19310.0	7.926374708106579e+17
19311.0	7.9250753336989e+17
19312.0	7.922866260890963e+17
19313.0	7.920303935411539e+17
19314.0	7.898546383268517e+17
19315.0	7.89736312956521e+17
19316.0	7.912323619138217e+17
19317.0	7.909818534723583e+17
19318.0	7.907118100600148e+17
19319.0	7.904459020916051e+17
19320.0	7.900713461306708e+17
19321.0	7.897060507735379e+17
19322.0	7.893905349541885e+17
19323.0	7.891054653079552e+17
19324.0	7.888455174455296e+17
19325.0	7.88526954324514e+17
19326.0	7.882736057800019e+17
19327.0	7.879880923764051e+17
19328.0	7.876975228791464e+17
19329.0	7.874008737382399e+17
19330.0	7.869632091608406e+17
19331.0	7.865243689200297e+17
19332.0	7.862331456705878e+17
19333.0	7.859161207406591e+17
19334.0	7.856101732472148e+17
19335.0	7.85291434944102e+17
19336.0	7.849726714751657e+17
19337.0	7.846519115175251e+17
19338.0	7.841507002985125e+17
19339.0	7.836780904579071e+17
19340.0	7.83328560091409e+17
19341.0	7.829961304615593e+17
19342.0	7.82548492108868e+17
19343.0	7.823279652514473e+17
19344.0	7.819728904344915e+17
19345.0	7.809069146439666e+17
19346.0	7.805824986513405e+17
19347.0	7.805187144723112e+17
19348.0	7.801888499389779e+17
19349.0	7.79816669352209e+17
19350.0	7.794584359447208e+17
19351.0	7.789285254802089e+17
19352.0	7.781841732545193e+17
19353.0	7.77824793124318e+17
19354.0	7.774311715351209e+17
19355.0	7.769957836259327e+17
19356.0	7.766276283127126e+17
19357.0	7.757153308420772e+17
19358.0	7.752506844468563e+17
19359.0	7.748197088056659e+17
19360.0	7.744013030741332e+17
19361.0	7.739788259317078e+17
19362.0	7.729354652691116e+17
19363.0	7.724947132645373e+17
19364.0	7.720517094779562e+17
19365.0	7.716004896090794e+17
19366.0	7.709926217132708e+17
19367.0	7.70274301714978e+17
19368.0	7.698079552285354e+17
19369.0	7.693096007499773e+17
19370.0	7.688162752419156e+17
19371.0	7.68345257279488e+17
19372.0	7.67868198261009e+17
19373.0	7.673520652462761e+17
19374.0	7.668425395186348e+17
19375.0	7.663199518894761e+17
19376.0	7.657008438181888e+17
19377.0	7.651253038000809e+17
19378.0	7.645658816533844e+17
19379.0	7.639968548301481e+17
19380.0	7.634183281879721e+17
19381.0	7.628269472623272e+17
19382.0	7.622023101196969e+17
19383.0	7.6151068309149e+17
19384.0	7.608469821587455e+17
19385.0	7.602199755139753e+17
19386.0	7.595811194011647e+17
19387.0	7.589296350778708e+17
19388.0	7.582640286728191e+17
19389.0	7.574512635740157e+17
19390.0	7.566669559889919e+17
19391.0	7.532414105900337e+17
19392.0	7.551081877864444e+17
19393.0	7.544866475780777e+17
19394.0	7.535032106571092e+17
19395.0	7.526441033924607e+17
19396.0	7.518279680305833e+17
19397.0	7.50995260833792e+17
19398.0	7.500350416224255e+17
19399.0	7.487515686600701e+17
19400.0	7.479830143216297e+17
19401.0	7.470726473493161e+17
19402.0	7.460780809824933e+17
19403.0	7.447220162221396e+17
19404.0	7.436933894504447e+17
19405.0	7.426236593384105e+17
19406.0	7.415157621784577e+17
19407.0	7.399912870248449e+17
19408.0	7.386829498089472e+17
19409.0	7.376735089022294e+17
19410.0	7.364945061259945e+17
19411.0	7.349803088347135e+17
19412.0	7.335979327859372e+17
19413.0	7.322742421804372e+17
19414.0	7.308736469139455e+17
19415.0	7.294057069237591e+17
19416.0	7.2749249752378e+17
19417.0	7.259871321784317e+17
19418.0	7.244270689146196e+17
19419.0	7.227808738006356e+17
19420.0	7.210661668279636e+17
19421.0	7.192478303475028e+17
19422.0	7.173989488481619e+17
19423.0	7.155048414270803e+17
19424.0	7.135043187813034e+17
19425.0	7.113869190583636e+17
19426.0	7.09096262284083e+17
19427.0	7.067540691178838e+17
19428.0	7.043016951507625e+17
19429.0	7.017345371340797e+17
19430.0	6.989840263763286e+17
19431.0	6.958886551202478e+17
19432.0	6.931794702106621e+17
19433.0	6.900358802571264e+17
19434.0	6.866948279937706e+17
19435.0	6.831078255187282e+17
19436.0	6.792308248106323e+17
19437.0	6.753538640183295e+17
19438.0	6.690669515680428e+17
19439.0	6.664130945613825e+17
19440.0	6.616413023589716e+17
19441.0	6.564086826052262e+17
19442.0	6.507611641872385e+17
19443.0	6.446744566322516e+17
19444.0	6.380702097124006e+17
19445.0	6.309021889156439e+17
19446.0	6.230796063648425e+17
19447.0	6.144899881631739e+17
19448.0	6.049610611032067e+17
19449.0	5.941805059145727e+17
19450.0	5.811508709687287e+17
19451.0	5.7374514036954477e+17
19452.0	5.880472232700586e+17
19453.0	5.994894315225093e+17
19454.0	6.093500165302949e+17
19455.0	6.181428979739306e+17
19456.0	6.260914941242029e+17
19457.0	6.33336563726199e+17
19458.0	6.386777771562346e+17
19459.0	6.460204489113604e+17
19460.0	6.516583431492946e+17
19461.0	6.568543228613972e+17
19462.0	6.616443000280407e+17
19463.0	6.661200590230867e+17
19464.0	6.702693007491071e+17
19465.0	6.741336043203244e+17
19466.0	6.777520254877693e+17
19467.0	6.811513457213439e+17
19468.0	6.843199507136513e+17
19469.0	6.872427139170301e+17
19470.0	6.901293051630932e+17
19471.0	6.927978662111913e+17
19472.0	6.952579829334013e+17
19473.0	6.975940762533887e+17
19474.0	6.99833224527872e+17
19475.0	7.018124835203752e+17
19476.0	7.03978070413585e+17
19477.0	7.059105448110762e+17
19478.0	7.076997715634857e+17
19479.0	7.093586877218815e+17
19480.0	7.109437082129748e+17
19481.0	7.124946017495722e+17
19482.0	7.13991411413811e+17
19483.0	7.153889582601556e+17
19484.0	7.167202843164671e+17
19485.0	7.179880068284415e+17
19486.0	7.194433279754237e+17
19487.0	7.207788304400383e+17
19488.0	7.219346026441386e+17
19489.0	7.229596023215446e+17
19490.0	7.237187898004815e+17
19491.0	7.253242436823718e+17
19492.0	7.262850112290816e+17
19493.0	7.271759873747624e+17
19494.0	7.280382323982335e+17
19495.0	7.291187544544595e+17
19496.0	7.300135439215274e+17
19497.0	7.308696523986259e+17
19498.0	7.31192494129152e+17
19499.0	7.28672855899066e+17
19500.0	7.33409158906948e+17
19501.0	7.341012313702399e+17
19502.0	7.347372900220927e+17
19503.0	7.354526914838524e+17
19504.0	7.362443957239807e+17
19505.0	7.368043786491219e+17
19506.0	7.373452303750484e+17
19507.0	7.378538920760659e+17
19508.0	7.385712943606437e+17
19509.0	7.390822963434835e+17
19510.0	7.394690793996287e+17
19511.0	7.361291984655679e+17
19512.0	7.395695150847305e+17
19513.0	7.395978866152772e+17
19514.0	7.403381780556444e+17
19515.0	7.415407579933357e+17
19516.0	7.420464954256042e+17
19517.0	7.423836407114409e+17
19518.0	7.427463959980714e+17
19519.0	7.431980751432361e+17
19520.0	7.435006172812628e+17
19521.0	7.438110142322003e+17
19522.0	7.440883441292628e+17
19523.0	7.443819178666666e+17
19524.0	7.446516715924136e+17
19525.0	7.449103074765481e+17
19526.0	7.452381581847206e+17
19527.0	7.454956719527254e+17
19528.0	7.457204433059837e+17
19529.0	7.459365429357225e+17
19530.0	7.461485954815318e+17
19531.0	7.463491166273536e+17
19532.0	7.465374790451197e+17
19533.0	7.467219776700416e+17
19534.0	7.46896245129216e+17
19535.0	7.47195672017852e+17
19536.0	7.476002618518185e+17
19537.0	7.477717008121855e+17
19538.0	7.478795841830913e+17
19539.0	7.479156723941379e+17
19540.0	7.486494755258363e+17
19541.0	7.489347999061331e+17
19542.0	7.490617705758719e+17
19543.0	7.491823654841002e+17
19544.0	7.492995305701375e+17
19545.0	7.496738387875156e+17
19546.0	7.49776460124433e+17
19547.0	7.501452491969876e+17
19548.0	7.502490436807338e+17
19549.0	7.503036054241279e+17
19550.0	7.506434930857302e+17
19551.0	7.509737667035135e+17
19552.0	7.510540166015658e+17
19553.0	7.51111110725905e+17
19554.0	7.511674079324842e+17
19555.0	7.512331603585706e+17
19556.0	7.514224947363836e+17
19557.0	7.517093329808042e+17
19558.0	7.517566798222676e+17
19559.0	7.518020294759764e+17
19560.0	7.518333827372372e+17
19561.0	7.51872117973538e+17
19562.0	7.519161328599039e+17
19563.0	7.520677888262143e+17
19564.0	7.522739187351551e+17
19565.0	7.522994993758208e+17
19566.0	7.523120519490217e+17
19567.0	7.523429093037395e+17
19568.0	7.52347206787618e+17
19569.0	7.523657387606015e+17
19570.0	7.523859643935402e+17
19571.0	7.52435342816051e+17
19572.0	7.526145847197693e+17
19573.0	7.526288042491903e+17
19574.0	7.525959863369725e+17
19575.0	7.52633405121058e+17
19576.0	7.526289991445162e+17
19577.0	7.526134017862314e+17
19578.0	7.525943769825279e+17
19579.0	7.52580263289378e+17
19580.0	7.525629718517075e+17
19581.0	7.525502705205247e+17
19582.0	7.526996295461545e+17
19583.0	7.526740472277672e+17
19584.0	7.526429972146857e+17
19585.0	7.525698149984938e+17
19586.0	7.525285342390956e+17
19587.0	7.525367223593641e+17
19588.0	7.523637144496812e+17
19589.0	7.5246350630912e+17
19590.0	7.524078631343444e+17
19591.0	7.523932310252202e+17
19592.0	7.52352548233762e+17
19593.0	7.522978522726399e+17
19594.0	7.521589149739689e+17
19595.0	7.523075612475391e+17
19596.0	7.520036485507757e+17
19597.0	7.522112832361811e+17
19598.0	7.520664418953896e+17
19599.0	7.521060077436927e+17
19600.0	7.520510507570518e+17
19601.0	7.519662026435242e+17
19602.0	7.519013700283049e+17
19603.0	7.516935821109929e+17
19604.0	7.517659402862592e+17
19605.0	7.516221683531777e+17
19606.0	7.516732050636799e+17
19607.0	7.516073346378408e+17
19608.0	7.515357882002088e+17
19609.0	7.51450631246097e+17
19610.0	7.514003050506921e+17
19611.0	7.51325492089105e+17
19612.0	7.51258245651934e+17
19613.0	7.51187791131443e+17
19614.0	7.511637542742697e+17
19615.0	7.511024774501715e+17
19616.0	7.509961240215552e+17
19617.0	7.509431428317183e+17
19618.0	7.506632929968124e+17
19619.0	7.505341438055761e+17
19620.0	7.504805951264082e+17
19621.0	7.506157871912276e+17
19622.0	7.505409961798313e+17
19623.0	7.504585593716735e+17
19624.0	7.504250738660691e+17
19625.0	7.503930469995859e+17
19626.0	7.502973018046463e+17
19627.0	7.501988261178025e+17
19628.0	7.500185273892864e+17
19629.0	7.499080889881939e+17
19630.0	7.491078373157542e+17
19631.0	7.464148514373636e+17
19632.0	7.495912441337172e+17
19633.0	7.496154772843178e+17
19634.0	7.495948050978131e+17
19635.0	7.49651919774242e+17
19636.0	7.495767473608019e+17
19637.0	7.49311342149632e+17
19638.0	7.493942633999017e+17
19639.0	7.492977363866964e+17
19640.0	7.491704006726996e+17
19641.0	7.489103708815364e+17
19642.0	7.490113221864105e+17
19643.0	7.489118802717353e+17
19644.0	7.488167749877757e+17
19645.0	7.486709039453523e+17
19646.0	7.48661657182754e+17
19647.0	7.486474143050412e+17
19648.0	7.486064469999615e+17
19649.0	7.485045346402303e+17
19650.0	7.484056694423552e+17
19651.0	7.483004838477824e+17
19652.0	7.481966126082729e+17
19653.0	7.48095115624448e+17
19654.0	7.479880909673812e+17
19655.0	7.478822857342975e+17
19656.0	7.477812825598634e+17
19657.0	7.476751145194835e+17
19658.0	7.475720815815336e+17
19659.0	7.474653633882794e+17
19660.0	7.473602700683944e+17
19661.0	7.472507019853824e+17
19662.0	7.471783888289791e+17
19663.0	7.471281322590207e+17
19664.0	7.470235748313769e+17
19665.0	7.469889597997055e+17
19666.0	7.468777110590803e+17
