# Flux units: erg / (cm m2 s)
# Wavelength units: Angstrom
wave	flux
19000.0	6.033613850148863e+17
19001.0	6.032368730461524e+17
19002.0	6.031378081994068e+17
19003.0	6.030249212335444e+17
19004.0	6.029127628182868e+17
19005.0	6.028010815051092e+17
19006.0	6.02690118885922e+17
19007.0	6.025751488888831e+17
19008.0	6.02459472990481e+17
19009.0	6.023430060463444e+17
19010.0	6.021837065901395e+17
19011.0	6.021254663722324e+17
19012.0	6.019478409532755e+17
19013.0	6.019074167406591e+17
19014.0	6.017897248500393e+17
19015.0	6.01679592563234e+17
19016.0	6.015665594258772e+17
19017.0	6.014610670179668e+17
19018.0	6.013459753162067e+17
19019.0	6.012370973360127e+17
19020.0	6.011245410211156e+17
19021.0	6.010151690218153e+17
19022.0	6.009030629654527e+17
19023.0	6.007868216049663e+17
19024.0	6.006756360585213e+17
19025.0	6.005629664275114e+17
19026.0	6.004465755400873e+17
19027.0	6.002874635692713e+17
19028.0	6.002336295376212e+17
19029.0	6.001200637935615e+17
19030.0	6.000124673829546e+17
19031.0	5.99901107982609e+17
19032.0	5.997884768692906e+17
19033.0	5.996655395121833e+17
19034.0	5.995596018789033e+17
19035.0	5.994124793260713e+17
19036.0	5.954036055059099e+17
19037.0	5.99202203836962e+17
19038.0	5.991136828413267e+17
19039.0	5.99008273900066e+17
19040.0	5.988987020421802e+17
19041.0	5.987869480277332e+17
19042.0	5.986182338969599e+17
19043.0	5.985665658738004e+17
19044.0	5.984539124607657e+17
19045.0	5.983415293706239e+17
19046.0	5.982259584696319e+17
19047.0	5.981192748793855e+17
19048.0	5.979762342232063e+17
19049.0	5.977918145910099e+17
19050.0	5.977769035606697e+17
19051.0	5.970734862041078e+17
19052.0	5.97450932809455e+17
19053.0	5.974517514676905e+17
19054.0	5.973441769373696e+17
19055.0	5.971896303266474e+17
19056.0	5.971148605663913e+17
19057.0	5.970115242404521e+17
19058.0	5.968488050982911e+17
19059.0	5.967711212055209e+17
19060.0	5.966766741476691e+17
19061.0	5.965692219512148e+17
19062.0	5.964578137571327e+17
19063.0	5.963471932533418e+17
19064.0	5.962218709450751e+17
19065.0	5.96105071043106e+17
19066.0	5.959903034911401e+17
19067.0	5.959030440023379e+17
19068.0	5.957938601874772e+17
19069.0	5.956833446810964e+17
19070.0	5.955690532525398e+17
19071.0	5.954587966745258e+17
19072.0	5.953322582278141e+17
19073.0	5.952402877666644e+17
19074.0	5.951303041679359e+17
19075.0	5.950197266557609e+17
19076.0	5.949067934127444e+17
19077.0	5.947966666484393e+17
19078.0	5.946834222579712e+17
19079.0	5.945772730220544e+17
19080.0	5.944654402245972e+17
19081.0	5.943511313197738e+17
19082.0	5.942411173123412e+17
19083.0	5.941236770799615e+17
19084.0	5.939986902461097e+17
19085.0	5.939118540324863e+17
19086.0	5.937270781640704e+17
19087.0	5.935604084768767e+17
19088.0	5.935309987162793e+17
19089.0	5.934018742015316e+17
19090.0	5.933529628147712e+17
19091.0	5.932430326235135e+17
19092.0	5.93075446550801e+17
19093.0	5.930310840964438e+17
19094.0	5.929223228577108e+17
19095.0	5.928124300656637e+17
19096.0	5.927004176820905e+17
19097.0	5.92591993315874e+17
19098.0	5.924609168419497e+17
19099.0	5.923463237730303e+17
19100.0	5.922544801895763e+17
19101.0	5.921491494021801e+17
19102.0	5.920277852585983e+17
19103.0	5.919314883728724e+17
19104.0	5.918217528672255e+17
19105.0	5.916645061733034e+17
19106.0	5.915831524043433e+17
19107.0	5.914751900407124e+17
19108.0	5.913584972333055e+17
19109.0	5.91016026649395e+17
19110.0	5.911370412676438e+17
19111.0	5.910354794818217e+17
19112.0	5.909259411783679e+17
19113.0	5.908322500739071e+17
19114.0	5.907134290067455e+17
19115.0	5.905971470314154e+17
19116.0	5.905007180950186e+17
19117.0	5.903899299588777e+17
19118.0	5.902563589925546e+17
19119.0	5.893641001588041e+17
19120.0	5.900275682377727e+17
19121.0	5.899300008274601e+17
19122.0	5.898455219524948e+17
19123.0	5.897362241224701e+17
19124.0	5.896062325052756e+17
19125.0	5.8951554053789e+17
19126.0	5.89404589662754e+17
19127.0	5.890845626597373e+17
19128.0	5.891608805375999e+17
19129.0	5.890689076297727e+17
19130.0	5.889678785205588e+17
19131.0	5.888600682703529e+17
19132.0	5.887504647454719e+17
19133.0	5.886314670981119e+17
19134.0	5.885200135356415e+17
19135.0	5.884212989132797e+17
19136.0	5.883133459868329e+17
19137.0	5.881850822131712e+17
19138.0	5.880926300362067e+17
19139.0	5.879855958720511e+17
19140.0	5.878766075117567e+17
19141.0	5.877673895133183e+17
19142.0	5.876540018174634e+17
19143.0	5.875419102314495e+17
19144.0	5.874350286001492e+17
19145.0	5.87330436010257e+17
19146.0	5.871464688036524e+17
19147.0	5.87101188985105e+17
19148.0	5.869850368933887e+17
19149.0	5.868729476841471e+17
19150.0	5.867840406028287e+17
19151.0	5.866750639865855e+17
19152.0	5.865622179151871e+17
19153.0	5.864212886716415e+17
19154.0	5.863296799692116e+17
19155.0	5.862371566288895e+17
19156.0	5.861276526488233e+17
19157.0	5.859923761386838e+17
19158.0	5.857292155792041e+17
19159.0	5.857913520259071e+17
19160.0	5.856862512960852e+17
19161.0	5.855739922874368e+17
19162.0	5.850795443137197e+17
19163.0	5.853302977025363e+17
19164.0	5.852545385059668e+17
19165.0	5.851027158160723e+17
19166.0	5.850150073969321e+17
19167.0	5.848937105020244e+17
19168.0	5.848192870514685e+17
19169.0	5.847072241964371e+17
19170.0	5.846048118057642e+17
19171.0	5.844745840492543e+17
19172.0	5.843836523773951e+17
19173.0	5.842790265126912e+17
19174.0	5.841657693995007e+17
19175.0	5.840636850733053e+17
19176.0	5.839547916440916e+17
19177.0	5.83827561976081e+17
19178.0	5.837230180401151e+17
19179.0	5.835966621854378e+17
19180.0	5.83517676380706e+17
19181.0	5.83395959635968e+17
19182.0	5.833010837105321e+17
19183.0	5.831958543553876e+17
19184.0	5.830869345020586e+17
19185.0	5.829776882619731e+17
19186.0	5.828703208603647e+17
19187.0	5.82752966541312e+17
19188.0	5.826524789866496e+17
19189.0	5.825440899923967e+17
19190.0	5.824331112950441e+17
19191.0	5.823192093076138e+17
19192.0	5.822184587700905e+17
19193.0	5.821033450482346e+17
19194.0	5.819900010430464e+17
19195.0	5.818881848726868e+17
19196.0	5.817721629442048e+17
19197.0	5.816507535720447e+17
19198.0	5.814812680388608e+17
19199.0	5.789645014390094e+17
19200.0	5.794851980662107e+17
19201.0	5.811663602537812e+17
19202.0	5.811126376508074e+17
19203.0	5.810097752812201e+17
19204.0	5.80910496944401e+17
19205.0	5.808081799042388e+17
19206.0	5.80701579710737e+17
19207.0	5.805823492095999e+17
19208.0	5.804600017114452e+17
19209.0	5.803793825748308e+17
19210.0	5.802714996233556e+17
19211.0	5.801652169386665e+17
19212.0	5.800565585302867e+17
19213.0	5.799182593949695e+17
19214.0	5.797992115557716e+17
19215.0	5.797218055356413e+17
19216.0	5.796250595797674e+17
19217.0	5.795157968420863e+17
19218.0	5.793126321662632e+17
19219.0	5.792825011950931e+17
19220.0	5.791896499301033e+17
19221.0	5.790488931423574e+17
19222.0	5.789762283634687e+17
19223.0	5.788681628898644e+17
19224.0	5.787573784586922e+17
19225.0	5.786379430658048e+17
19226.0	5.785446206406655e+17
19227.0	5.784368417778346e+17
19228.0	5.783321172071764e+17
19229.0	5.782241677759827e+17
19230.0	5.781145619442346e+17
19231.0	5.780063809175551e+17
19232.0	5.778994565742591e+17
19233.0	5.777839903910569e+17
19234.0	5.776824853681492e+17
19235.0	5.775732779253759e+17
19236.0	5.774695139202388e+17
19237.0	5.773598757923498e+17
19238.0	5.772393535154857e+17
19239.0	5.771463474806783e+17
19240.0	5.770378801927508e+17
19241.0	5.769282311596714e+17
19242.0	5.768213742048596e+17
19243.0	5.766965484322813e+17
19244.0	5.766079559936682e+17
19245.0	5.764994865386836e+17
19246.0	5.76390440366899e+17
19247.0	5.762836127722154e+17
19248.0	5.7617618245604685e+17
19249.0	5.760659853672447e+17
19250.0	5.759514374569983e+17
19251.0	5.758335717823827e+17
19252.0	5.7571162442082976e+17
19253.0	5.756352402729641e+17
19254.0	5.755302280429567e+17
19255.0	5.754000386643284e+17
19256.0	5.753122484562602e+17
19257.0	5.75207505081139e+17
19258.0	5.750996197528917e+17
19259.0	5.7498250269163514e+17
19260.0	5.747967174639614e+17
19261.0	5.747742395596798e+17
19262.0	5.746606555004926e+17
19263.0	5.745453041713151e+17
19264.0	5.743773795483647e+17
19265.0	5.743110166413311e+17
19266.0	5.7419642168497485e+17
19267.0	5.741207748258474e+17
19268.0	5.7401216094699494e+17
19269.0	5.739046892470271e+17
19270.0	5.7379626376232954e+17
19271.0	5.7364789067776e+17
19272.0	5.73576984081203e+17
19273.0	5.73422217409331e+17
19274.0	5.733074583857832e+17
19275.0	5.732577471452501e+17
19276.0	5.7314751859916794e+17
19277.0	5.730402260658857e+17
19278.0	5.729313236189183e+17
19279.0	5.728205507220819e+17
19280.0	5.7270645069359776e+17
19281.0	5.7260684736812365e+17
19282.0	5.724989238018047e+17
19283.0	5.7236122403252896e+17
19284.0	5.722700325934419e+17
19285.0	5.721554170150911e+17
19286.0	5.720607738735274e+17
19287.0	5.7195044249709216e+17
19288.0	5.707809669425825e+17
19289.0	5.6909725063358694e+17
19290.0	5.716236186943487e+17
19291.0	5.714940058228053e+17
19292.0	5.714179783305898e+17
19293.0	5.7130959115386874e+17
19294.0	5.7120048045970765e+17
19295.0	5.710940404886186e+17
19296.0	5.709623919815338e+17
19297.0	5.708682950781611e+17
19298.0	5.707646053122047e+17
19299.0	5.706338219502249e+17
19300.0	5.705494913439062e+17
19301.0	5.704413004606122e+17
19302.0	5.7033138872429216e+17
19303.0	5.7021341301910176e+17
19304.0	5.701109028312404e+17
19305.0	5.7000300247340365e+17
19306.0	5.69892815381026e+17
19307.0	5.697767881397588e+17
19308.0	5.696684031999999e+17
19309.0	5.694751018494634e+17
19310.0	5.693337931612158e+17
19311.0	5.693277583966206e+17
19312.0	5.692330738712574e+17
19313.0	5.6911755952346445e+17
19314.0	5.6344153843302214e+17
19315.0	5.638208650652418e+17
19316.0	5.6874523619054925e+17
19317.0	5.6868359502124365e+17
19318.0	5.685758905374035e+17
19319.0	5.6846879275963725e+17
19320.0	5.6834543219725645e+17
19321.0	5.6821342486746445e+17
19322.0	5.681066249551871e+17
19323.0	5.679762777309183e+17
19324.0	5.678912440893439e+17
19325.0	5.6770984302783136e+17
19326.0	5.676719847505919e+17
19327.0	5.6756490347042125e+17
19328.0	5.67415518859537e+17
19329.0	5.673451722724692e+17
19330.0	5.672288353517567e+17
19331.0	5.671154515006804e+17
19332.0	5.670078508258643e+17
19333.0	5.668930982335828e+17
19334.0	5.6678229723490976e+17
19335.0	5.665883564627285e+17
19336.0	5.665546127278079e+17
19337.0	5.664434401837055e+17
19338.0	5.6630490497897805e+17
19339.0	5.6621500608457363e+17
19340.0	5.6608316953285965e+17
19341.0	5.6595193472395936e+17
19342.0	5.658100721778687e+17
19343.0	5.657360391471103e+17
19344.0	5.655900102590464e+17
19345.0	5.652428189859835e+17
19346.0	5.652830329241598e+17
19347.0	5.6522618514527565e+17
19348.0	5.651573158619817e+17
19349.0	5.650347150977705e+17
19350.0	5.649035991973887e+17
19351.0	5.6479982911051085e+17
19352.0	5.6463618659232403e+17
19353.0	5.6456280934099616e+17
19354.0	5.6443961424390816e+17
19355.0	5.642917589461674e+17
19356.0	5.6417044303708154e+17
19357.0	5.6404997395797325e+17
19358.0	5.6392692768877216e+17
19359.0	5.6379177337268896e+17
19360.0	5.6364716341766803e+17
19361.0	5.6355588949060256e+17
19362.0	5.6343742444994554e+17
19363.0	5.633088830133588e+17
19364.0	5.6314853505105914e+17
19365.0	5.630225920557055e+17
19366.0	5.62895838720819e+17
19367.0	5.627683476777641e+17
19368.0	5.6264003329283405e+17
19369.0	5.625034187997183e+17
19370.0	5.6232420478812154e+17
19371.0	5.621911434996394e+17
19372.0	5.620654323094869e+17
19373.0	5.6192923808563194e+17
19374.0	5.61790644789794e+17
19375.0	5.615954135001771e+17
19376.0	5.614593667760126e+17
19377.0	5.6131977502610765e+17
19378.0	5.6117260542716576e+17
19379.0	5.609858538318505e+17
19380.0	5.6083646488685216e+17
19381.0	5.606916420709034e+17
19382.0	5.6053712642812576e+17
19383.0	5.6038601998554445e+17
19384.0	5.6024800941834234e+17
19385.0	5.6009721083767456e+17
19386.0	5.5994392077052576e+17
19387.0	5.597871846632105e+17
19388.0	5.5962848813820576e+17
19389.0	5.594651578160468e+17
19390.0	5.592586853023743e+17
19391.0	5.555351486551329e+17
19392.0	5.588385804582908e+17
19393.0	5.587561796512426e+17
19394.0	5.585833336416937e+17
19395.0	5.583906708739413e+17
19396.0	5.581925548818432e+17
19397.0	5.5798728816066554e+17
19398.0	5.577818954006528e+17
19399.0	5.575005421174783e+17
19400.0	5.573816053574313e+17
19401.0	5.5711806101913594e+17
19402.0	5.569094423500117e+17
19403.0	5.5669228911110816e+17
19404.0	5.563729931752787e+17
19405.0	5.561143055613951e+17
19406.0	5.5583542202422605e+17
19407.0	5.55470758678801e+17
19408.0	5.55070456542003e+17
19409.0	5.5477143566199456e+17
19410.0	5.543488671536468e+17
19411.0	5.53936241242931e+17
19412.0	5.5338432382457165e+17
19413.0	5.527974268895227e+17
19414.0	5.52302724321553e+17
19415.0	5.518401735404202e+17
19416.0	5.514319877199189e+17
19417.0	5.5105514803036154e+17
19418.0	5.5071837044517536e+17
19419.0	5.503230224105471e+17
19420.0	5.49860165165602e+17
19421.0	5.494128084604245e+17
19422.0	5.489627785155924e+17
19423.0	5.483877388080466e+17
19424.0	5.478909222409558e+17
19425.0	5.471992406168918e+17
19426.0	5.465496106653014e+17
19427.0	5.457983999836161e+17
19428.0	5.44867021505604e+17
19429.0	5.436916010145105e+17
19430.0	5.4216711467608794e+17
19431.0	5.398139825553406e+17
19432.0	5.379472479311198e+17
19433.0	5.357865854304252e+17
19434.0	5.345342603482453e+17
19435.0	5.330790089665191e+17
19436.0	5.314978017968124e+17
19437.0	5.3026173069120845e+17
19438.0	5.2268486430993114e+17
19439.0	5.2659616841291136e+17
19440.0	5.2449532255928314e+17
19441.0	5.212943948622494e+17
19442.0	5.1642745522312525e+17
19443.0	5.1007624227498656e+17
19444.0	5.058210673197053e+17
19445.0	5.0130994712630637e+17
19446.0	4.9584031382459744e+17
19447.0	4.884501949142355e+17
19448.0	4.7718856039683514e+17
19449.0	4.5928481334231034e+17
19450.0	4.226402577197764e+17
19451.0	4.013768708543886e+17
19452.0	4.446357683175425e+17
19453.0	4.6934368805628646e+17
19454.0	4.8310482283178586e+17
19455.0	4.9188874482264755e+17
19456.0	4.9794507191528115e+17
19457.0	5.026243411268948e+17
19458.0	4.935882756849893e+17
19459.0	5.114478568581819e+17
19460.0	5.1756348057408755e+17
19461.0	5.212683355815939e+17
19462.0	5.237397997136554e+17
19463.0	5.255701941190652e+17
19464.0	5.2711068759927443e+17
19465.0	5.2843356129416525e+17
19466.0	5.2965409019658214e+17
19467.0	5.308428954107904e+17
19468.0	5.3194139432386566e+17
19469.0	5.331961209946106e+17
19470.0	5.356715397961044e+17
19471.0	5.3756302361012915e+17
19472.0	5.389832301838336e+17
19473.0	5.400265343631356e+17
19474.0	5.40798959904358e+17
19475.0	5.4132413388117306e+17
19476.0	5.4200200925457043e+17
19477.0	5.4242389954396154e+17
19478.0	5.4280576233198925e+17
19479.0	5.431212713006421e+17
19480.0	5.4344711797036365e+17
19481.0	5.436797337905834e+17
19482.0	5.439521469147818e+17
19483.0	5.4417117619595936e+17
19484.0	5.443539020283903e+17
19485.0	5.445193116767572e+17
19486.0	5.4464933272398496e+17
19487.0	5.448673666968234e+17
19488.0	5.4518406978382496e+17
19489.0	5.4554194457832083e+17
19490.0	5.4566976571310054e+17
19491.0	5.461011217776639e+17
19492.0	5.46381001601843e+17
19493.0	5.465050078773248e+17
19494.0	5.467170461625002e+17
19495.0	5.467831067301207e+17
19496.0	5.468851813395113e+17
19497.0	5.4695094117553485e+17
19498.0	5.466483251478532e+17
19499.0	5.4143080859347226e+17
19500.0	5.471065519510868e+17
19501.0	5.471550341906432e+17
19502.0	5.4720523784246605e+17
19503.0	5.472015927825749e+17
19504.0	5.471889058518355e+17
19505.0	5.4717052760009376e+17
19506.0	5.471963980671658e+17
19507.0	5.4717598019529376e+17
19508.0	5.471491199423828e+17
19509.0	5.4711301048019616e+17
19510.0	5.470273423802367e+17
19511.0	5.371918451124826e+17
19512.0	5.461211551716673e+17
19513.0	5.453697328873446e+17
19514.0	5.457751109708444e+17
19515.0	5.4680534080552966e+17
19516.0	5.4684728042018125e+17
19517.0	5.467953863240361e+17
19518.0	5.467426284808874e+17
19519.0	5.466838526503593e+17
19520.0	5.4660473542410234e+17
19521.0	5.465801043738623e+17
19522.0	5.465103447097343e+17
19523.0	5.464481408745471e+17
19524.0	5.4642365935124474e+17
19525.0	5.4638251176099834e+17
19526.0	5.463180433511764e+17
19527.0	5.462493150664021e+17
19528.0	5.462330136941909e+17
19529.0	5.4616595879690234e+17
19530.0	5.461002507605332e+17
19531.0	5.460277387242153e+17
19532.0	5.459542561958571e+17
19533.0	5.4592141612373325e+17
19534.0	5.4585169763368954e+17
19535.0	5.457736605805226e+17
19536.0	5.4569357768567456e+17
19537.0	5.456198256732841e+17
19538.0	5.454999467327488e+17
19539.0	5.454079296449195e+17
19540.0	5.4541457747694925e+17
19541.0	5.453298307956734e+17
19542.0	5.45251940962577e+17
19543.0	5.4514250870510925e+17
19544.0	5.450882515380905e+17
19545.0	5.4494828425816723e+17
19546.0	5.448129315515049e+17
19547.0	5.448402202525696e+17
19548.0	5.447634535841791e+17
19549.0	5.446853373984767e+17
19550.0	5.4461183571613005e+17
19551.0	5.4452618593129805e+17
19552.0	5.4443967505585485e+17
19553.0	5.4435142592102394e+17
19554.0	5.4426953821716474e+17
19555.0	5.441814219718655e+17
19556.0	5.440967664467967e+17
19557.0	5.44010002375202e+17
19558.0	5.439218525055657e+17
19559.0	5.4383345915658234e+17
19560.0	5.437302508967253e+17
19561.0	5.4365184376613536e+17
19562.0	5.435572229242879e+17
19563.0	5.4349403377718605e+17
19564.0	5.4340388343425683e+17
19565.0	5.43313487794449e+17
19566.0	5.432192014483456e+17
19567.0	5.4313190553900365e+17
19568.0	5.43038023803426e+17
19569.0	5.4294704200963405e+17
19570.0	5.42857930875426e+17
19571.0	5.427699096311126e+17
19572.0	5.426744923608404e+17
19573.0	5.4258074190697805e+17
19574.0	5.424820004410708e+17
19575.0	5.424023949978281e+17
19576.0	5.4230721673297914e+17
19577.0	5.4220853783210656e+17
19578.0	5.4211953246426445e+17
19579.0	5.420280711217151e+17
19580.0	5.4193528368005114e+17
19581.0	5.418432970708309e+17
19582.0	5.417521166068394e+17
19583.0	5.4165869673403725e+17
19584.0	5.415634047336447e+17
19585.0	5.4145753239169696e+17
19586.0	5.413584835532117e+17
19587.0	5.4126873516441594e+17
19588.0	5.411329704372905e+17
19589.0	5.410963128494761e+17
19590.0	5.409982667292671e+17
19591.0	5.4091821606065485e+17
19592.0	5.408248472884564e+17
19593.0	5.407252889818453e+17
19594.0	5.406026513077588e+17
19595.0	5.40538446230323e+17
19596.0	5.4039396329280845e+17
19597.0	5.4035028793535136e+17
19598.0	5.402025262404947e+17
19599.0	5.4016195774382074e+17
19600.0	5.4006835667708576e+17
19601.0	5.3996515149305165e+17
19602.0	5.398708032809641e+17
19603.0	5.396957902143487e+17
19604.0	5.396759935888041e+17
19605.0	5.395567886030164e+17
19606.0	5.39497105404723e+17
19607.0	5.3940303513518074e+17
19608.0	5.393057052622847e+17
19609.0	5.3920609662402554e+17
19610.0	5.391022386664789e+17
19611.0	5.3899943208113485e+17
19612.0	5.3892642141197645e+17
19613.0	5.388296658791081e+17
19614.0	5.387305887290709e+17
19615.0	5.3863871110184954e+17
19616.0	5.384975055934805e+17
19617.0	5.38425548743202e+17
19618.0	5.382797178262868e+17
19619.0	5.381623284148904e+17
19620.0	5.380704001064958e+17
19621.0	5.38035052749346e+17
19622.0	5.379698246811647e+17
19623.0	5.378722462957567e+17
19624.0	5.3777180215214074e+17
19625.0	5.3768165838028794e+17
19626.0	5.375843368260947e+17
19627.0	5.37485065130257e+17
19628.0	5.373267000950784e+17
19629.0	5.371944107682473e+17
19630.0	5.369034960098645e+17
19631.0	5.344467352201897e+17
19632.0	5.3697013783811405e+17
19633.0	5.3689539897589754e+17
19634.0	5.368155745200809e+17
19635.0	5.3671354863452154e+17
19636.0	5.365927282824532e+17
19637.0	5.364587649389909e+17
19638.0	5.364320623220053e+17
19639.0	5.363387201836373e+17
19640.0	5.362330902025558e+17
19641.0	5.360129371275266e+17
19642.0	5.360491558513322e+17
19643.0	5.359523151740926e+17
19644.0	5.358529067439444e+17
19645.0	5.3573174707268256e+17
19646.0	5.356333832339455e+17
19647.0	5.355727270969343e+17
19648.0	5.354771955318783e+17
19649.0	5.3538089619947514e+17
19650.0	5.3528581978630816e+17
19651.0	5.3518909920597325e+17
19652.0	5.350929312251903e+17
19653.0	5.3499624902273696e+17
19654.0	5.3490098533389645e+17
19655.0	5.3480457450291194e+17
19656.0	5.3470918218874874e+17
19657.0	5.3461374457610234e+17
19658.0	5.34517375897873e+17
19659.0	5.344219148670292e+17
