# Flux units: erg / (cm m2 s)
# Wavelength units: Angstrom
wave	flux
19000.0	8.753780679333204e+17
19001.0	8.751965131505664e+17
19002.0	8.750901478380884e+17
19003.0	8.749428624763561e+17
19004.0	8.747969556425386e+17
19005.0	8.746512104292352e+17
19006.0	8.745223992989012e+17
19007.0	8.743534692313769e+17
19008.0	8.742129323649705e+17
19009.0	8.740611480529577e+17
19010.0	8.738431196026195e+17
19011.0	8.738027669028863e+17
19012.0	8.735676571495081e+17
19013.0	8.735235572585812e+17
19014.0	8.733508338625192e+17
19015.0	8.732129819099136e+17
19016.0	8.730679087639209e+17
19017.0	8.729199962139305e+17
19018.0	8.727723785235114e+17
19019.0	8.72623546442274e+17
19020.0	8.724691345386154e+17
19021.0	8.723269335121919e+17
19022.0	8.721753301144915e+17
19023.0	8.720072677086547e+17
19024.0	8.718652628358483e+17
19025.0	8.717052722282492e+17
19026.0	8.715441617414825e+17
19027.0	8.71332035515733e+17
19028.0	8.712556017352701e+17
19029.0	8.711002607932755e+17
19030.0	8.70958412088388e+17
19031.0	8.708060071591936e+17
19032.0	8.706483617267711e+17
19033.0	8.704511417778173e+17
19034.0	8.702996548419583e+17
19035.0	8.699330565941928e+17
19036.0	8.644527859782993e+17
19037.0	8.696901778713258e+17
19038.0	8.696829273178111e+17
19039.0	8.695579233572179e+17
19040.0	8.694124395888637e+17
19041.0	8.692570835473748e+17
19042.0	8.690682515073705e+17
19043.0	8.689508678980947e+17
19044.0	8.687905694285821e+17
19045.0	8.686340269583017e+17
19046.0	8.684606331726505e+17
19047.0	8.683071138168831e+17
19048.0	8.681056787322195e+17
19049.0	8.67965867480405e+17
19050.0	8.677918644021932e+17
19051.0	8.66837490932121e+17
19052.0	8.671889238349138e+17
19053.0	8.673465431228413e+17
19054.0	8.672139211877034e+17
19055.0	8.669628774132397e+17
19056.0	8.668951820457298e+17
19057.0	8.66744846725939e+17
19058.0	8.665759460185428e+17
19059.0	8.664288313649834e+17
19060.0	8.66270050254848e+17
19061.0	8.66197672366353e+17
19062.0	8.660355015595348e+17
19063.0	8.658756455890943e+17
19064.0	8.656747198327466e+17
19065.0	8.654838615244799e+17
19066.0	8.65369488446805e+17
19067.0	8.652308337044137e+17
19068.0	8.650746839607977e+17
19069.0	8.649143709510314e+17
19070.0	8.647432938192895e+17
19071.0	8.645855206004051e+17
19072.0	8.644296620812969e+17
19073.0	8.642670642943315e+17
19074.0	8.641082150966611e+17
19075.0	8.639459303445843e+17
19076.0	8.637785200132095e+17
19077.0	8.636155904567977e+17
19078.0	8.634446636209492e+17
19079.0	8.63293982970129e+17
19080.0	8.63125578448896e+17
19081.0	8.629493511312722e+17
19082.0	8.627929491701757e+17
19083.0	8.625850598905172e+17
19084.0	8.623687031499434e+17
19085.0	8.62296225157393e+17
19086.0	8.619536409777491e+17
19087.0	8.619007477284864e+17
19088.0	8.61734627844642e+17
19089.0	8.615240360351064e+17
19090.0	8.614516167628115e+17
19091.0	8.61300364148736e+17
19092.0	8.611158699977386e+17
19093.0	8.609900063446356e+17
19094.0	8.608323979618985e+17
19095.0	8.606708178528937e+17
19096.0	8.605034475072169e+17
19097.0	8.60341710111812e+17
19098.0	8.60175630073856e+17
19099.0	8.600099589805395e+17
19100.0	8.598350270038013e+17
19101.0	8.596742013102761e+17
19102.0	8.594872664937811e+17
19103.0	8.59344320139537e+17
19104.0	8.591792744169471e+17
19105.0	8.590041195828564e+17
19106.0	8.58825116614656e+17
19107.0	8.586517454782463e+17
19108.0	8.584511159795711e+17
19109.0	8.579651943967398e+17
19110.0	8.580402205687807e+17
19111.0	8.579806511060307e+17
19112.0	8.57835081634065e+17
19113.0	8.576743707246591e+17
19114.0	8.575063881504084e+17
19115.0	8.57314743689762e+17
19116.0	8.571635860067667e+17
19117.0	8.569920322622803e+17
19118.0	8.567885867078996e+17
19119.0	8.559266625486838e+17
19120.0	8.564365941451433e+17
19121.0	8.562899691066706e+17
19122.0	8.561648137317033e+17
19123.0	8.559966415749117e+17
19124.0	8.557815966728191e+17
19125.0	8.55650430300979e+17
19126.0	8.554580304461821e+17
19127.0	8.548114366813524e+17
19128.0	8.549531996826277e+17
19129.0	8.549397126184957e+17
19130.0	8.548033595703295e+17
19131.0	8.546352152357545e+17
19132.0	8.544678615274836e+17
19133.0	8.54247528726528e+17
19134.0	8.540519659470848e+17
19135.0	8.539569708335101e+17
19136.0	8.537859067041107e+17
19137.0	8.535740427621715e+17
19138.0	8.534370983171412e+17
19139.0	8.532742676064937e+17
19140.0	8.531045641093117e+17
19141.0	8.52932922843682e+17
19142.0	8.52748323136034e+17
19143.0	8.525715509783208e+17
19144.0	8.523970605219837e+17
19145.0	8.522396945700179e+17
19146.0	8.518344800643757e+17
19147.0	8.518720473268221e+17
19148.0	8.517177962048168e+17
19149.0	8.515431730686634e+17
19150.0	8.513725101943466e+17
19151.0	8.511968373637119e+17
19152.0	8.51015061541137e+17
19153.0	8.508355032470868e+17
19154.0	8.506342002829992e+17
19155.0	8.504811922128895e+17
19156.0	8.50296403481941e+17
19157.0	8.500722137388374e+17
19158.0	8.497946430887251e+17
19159.0	8.497250952369492e+17
19160.0	8.495627264589821e+17
19161.0	8.493250749573801e+17
19162.0	8.486338640041298e+17
19163.0	8.488440057648468e+17
19164.0	8.488246139595434e+17
19165.0	8.486584441634815e+17
19166.0	8.48458803262259e+17
19167.0	8.482715204583424e+17
19168.0	8.481308837675007e+17
19169.0	8.4796847961757e+17
19170.0	8.477989587124221e+17
19171.0	8.476119060359849e+17
19172.0	8.47439177466948e+17
19173.0	8.472705337305769e+17
19174.0	8.470799936301736e+17
19175.0	8.469175033572009e+17
19176.0	8.467367495467007e+17
19177.0	8.464994430965076e+17
19178.0	8.463633410075306e+17
19179.0	8.461767576737107e+17
19180.0	8.460085588131839e+17
19181.0	8.458103656458921e+17
19182.0	8.456492023108948e+17
19183.0	8.454784742850557e+17
19184.0	8.452912970377897e+17
19185.0	8.451097291128831e+17
19186.0	8.449319675188562e+17
19187.0	8.447110237476179e+17
19188.0	8.445588557965992e+17
19189.0	8.443683078668285e+17
19190.0	8.441755607236608e+17
19191.0	8.439771237274964e+17
19192.0	8.437982300908201e+17
19193.0	8.435924464915794e+17
19194.0	8.433777062357673e+17
19195.0	8.431552253919231e+17
19196.0	8.428817524370089e+17
19197.0	8.425171580878845e+17
19198.0	8.417895467275604e+17
19199.0	8.386344905954642e+17
19200.0	8.388980686280026e+17
19201.0	8.413053025867092e+17
19202.0	8.416130439839744e+17
19203.0	8.415486472967508e+17
19204.0	8.414380822276777e+17
19205.0	8.412975084513961e+17
19206.0	8.411365072961535e+17
19207.0	8.409255280727379e+17
19208.0	8.407412866984616e+17
19209.0	8.406062397565609e+17
19210.0	8.404258507106985e+17
19211.0	8.402452350326098e+17
19212.0	8.400520972599293e+17
19213.0	8.398110072679081e+17
19214.0	8.396070473520467e+17
19215.0	8.394719065975466e+17
19216.0	8.392970294263807e+17
19217.0	8.390933162754045e+17
19218.0	8.386982582768977e+17
19219.0	8.386426478176936e+17
19220.0	8.385253731205119e+17
19221.0	8.382664166517417e+17
19222.0	8.3814202226333e+17
19223.0	8.379572690441556e+17
19224.0	8.377513489902249e+17
19225.0	8.37541624283136e+17
19226.0	8.373745015412051e+17
19227.0	8.371809462954666e+17
19228.0	8.369982228398079e+17
19229.0	8.3676663672122e+17
19230.0	8.365348996076884e+17
19231.0	8.363369560014847e+17
19232.0	8.361448696010067e+17
19233.0	8.359225788989437e+17
19234.0	8.357456118459049e+17
19235.0	8.355370204397564e+17
19236.0	8.353523796279295e+17
19237.0	8.35145686004531e+17
19238.0	8.3491301635741e+17
19239.0	8.347469171654655e+17
19240.0	8.345378070637226e+17
19241.0	8.343300296321705e+17
19242.0	8.341323857788927e+17
19243.0	8.338353004303698e+17
19244.0	8.336893382317395e+17
19245.0	8.334806618210303e+17
19246.0	8.332719778605737e+17
19247.0	8.330646625015123e+17
19248.0	8.328601399896745e+17
19249.0	8.325742404304896e+17
19250.0	8.323556257562624e+17
19251.0	8.321089458754898e+17
19252.0	8.318218844940969e+17
19253.0	8.317234051721898e+17
19254.0	8.315182549128532e+17
19255.0	8.312277807661052e+17
19256.0	8.310774938206207e+17
19257.0	8.308760804065279e+17
19258.0	8.306613165228031e+17
19259.0	8.304117663399935e+17
19260.0	8.301235740344317e+17
19261.0	8.299959925342208e+17
19262.0	8.29759362765073e+17
19263.0	8.2952943842973e+17
19264.0	8.291871293964284e+17
19265.0	8.28997847447415e+17
19266.0	8.287534241021952e+17
19267.0	8.285700064892243e+17
19268.0	8.283411605094399e+17
19269.0	8.281128537773396e+17
19270.0	8.278768471419561e+17
19271.0	8.275611065079123e+17
19272.0	8.274012343194964e+17
19273.0	8.268665268294994e+17
19274.0	8.266674518796968e+17
19275.0	8.267228224247124e+17
19276.0	8.26489663861555e+17
19277.0	8.262135908575913e+17
19278.0	8.259362912993279e+17
19279.0	8.255813149087058e+17
19280.0	8.253364259957418e+17
19281.0	8.251139858366463e+17
19282.0	8.248752231241042e+17
19283.0	8.246148120707071e+17
19284.0	8.243192533090303e+17
19285.0	8.241154126512127e+17
19286.0	8.238797671454036e+17
19287.0	8.236150580488873e+17
19288.0	8.216279928274929e+17
19289.0	8.19808536607672e+17
19290.0	8.228540092776447e+17
19291.0	8.225017861679788e+17
19292.0	8.223643575604564e+17
19293.0	8.221181700909736e+17
19294.0	8.218647994564607e+17
19295.0	8.216177738252288e+17
19296.0	8.213605633054034e+17
19297.0	8.210958768581288e+17
19298.0	8.208307988026711e+17
19299.0	8.204811270881279e+17
19300.0	8.202226701609641e+17
19301.0	8.199599480460627e+17
19302.0	8.19686322418483e+17
19303.0	8.193948290558634e+17
19304.0	8.191382597053097e+17
19305.0	8.188620550002004e+17
19306.0	8.18582543086387e+17
19307.0	8.182841246482431e+17
19308.0	8.179941615075325e+17
19309.0	8.176051217760255e+17
19310.0	8.172519107679572e+17
19311.0	8.171030718360232e+17
19312.0	8.168610040119297e+17
19313.0	8.165672760639488e+17
19314.0	8.139005806422698e+17
19315.0	8.136745351992691e+17
19316.0	8.155124704040274e+17
19317.0	8.152356496954708e+17
19318.0	8.149378125878612e+17
19319.0	8.146204600827903e+17
19320.0	8.143120737413802e+17
19321.0	8.139939876525394e+17
19322.0	8.136449397708115e+17
19323.0	8.133184109674493e+17
19324.0	8.130194777483944e+17
19325.0	8.126744763913555e+17
19326.0	8.123814346315091e+17
19327.0	8.120656375141714e+17
19328.0	8.115663363812008e+17
19329.0	8.112097678327804e+17
19330.0	8.108647101322579e+17
19331.0	8.105162666497366e+17
19332.0	8.101863043891199e+17
19333.0	8.098308126583464e+17
19334.0	8.094844366880767e+17
19335.0	8.09123538359637e+17
19336.0	8.087613322472105e+17
19337.0	8.083977032870569e+17
19338.0	8.079579268775935e+17
19339.0	8.075439643120979e+17
19340.0	8.070105886534314e+17
19341.0	8.06620308666231e+17
19342.0	8.061438336346792e+17
19343.0	8.057983181957802e+17
19344.0	8.053857191985152e+17
19345.0	8.045240423634255e+17
19346.0	8.043033173950461e+17
19347.0	8.041582717916498e+17
19348.0	8.037674739477161e+17
19349.0	8.032775786812756e+17
19350.0	8.02632860189764e+17
19351.0	8.022022818889727e+17
19352.0	8.01759253495808e+17
19353.0	8.013497656934399e+17
19354.0	8.009093503516671e+17
19355.0	8.004313448185856e+17
19356.0	8.000123619508221e+17
19357.0	7.995567112192e+17
19358.0	7.990209315252905e+17
19359.0	7.983799254122496e+17
19360.0	7.977403902416211e+17
19361.0	7.972753829964458e+17
19362.0	7.968059862723241e+17
19363.0	7.963088937200298e+17
19364.0	7.958009057640447e+17
19365.0	7.952831696863233e+17
19366.0	7.947594743414783e+17
19367.0	7.942252108884649e+17
19368.0	7.936848835903488e+17
19369.0	7.929436386448723e+17
19370.0	7.920990542976339e+17
19371.0	7.9154878887581e+17
19372.0	7.909970030187859e+17
19373.0	7.904092742134441e+17
19374.0	7.898247190981289e+17
19375.0	7.892245943069352e+17
19376.0	7.886134819771735e+17
19377.0	7.879836306156204e+17
19378.0	7.873435346665471e+17
19379.0	7.865593768181761e+17
19380.0	7.858474947969021e+17
19381.0	7.850422261776387e+17
19382.0	7.841512722617683e+17
19383.0	7.834489176020306e+17
19384.0	7.827583061546323e+17
19385.0	7.820333325920938e+17
19386.0	7.812934447835817e+17
19387.0	7.805383484287658e+17
19388.0	7.796571071228586e+17
19389.0	7.787859623455402e+17
19390.0	7.779458851973798e+17
19391.0	7.73780030881788e+17
19392.0	7.760911838216188e+17
19393.0	7.75527096070963e+17
19394.0	7.746636299457876e+17
19395.0	7.737578782457855e+17
19396.0	7.728378688481961e+17
19397.0	7.718971479774548e+17
19398.0	7.707996515729405e+17
19399.0	7.695996409260713e+17
19400.0	7.686816505266175e+17
19401.0	7.676642156959059e+17
19402.0	7.665970691353257e+17
19403.0	7.654974241286826e+17
19404.0	7.643808658707795e+17
19405.0	7.632266364715005e+17
19406.0	7.62046857749026e+17
19407.0	7.608322161115135e+17
19408.0	7.594546622540458e+17
19409.0	7.582721375207424e+17
19410.0	7.569809125059241e+17
19411.0	7.556190008857939e+17
19412.0	7.542126369133908e+17
19413.0	7.527645435308714e+17
19414.0	7.512754114002944e+17
19415.0	7.497723498463232e+17
19416.0	7.481164675678205e+17
19417.0	7.464692133920765e+17
19418.0	7.447952236041556e+17
19419.0	7.430418581509459e+17
19420.0	7.412437990331731e+17
19421.0	7.393644428394496e+17
19422.0	7.373804425357993e+17
19423.0	7.353433641538899e+17
19424.0	7.332565522317311e+17
19425.0	7.310988973965311e+17
19426.0	7.288325941493757e+17
19427.0	7.26480188412177e+17
19428.0	7.240139099777705e+17
19429.0	7.214215511845544e+17
19430.0	7.186223796497068e+17
19431.0	7.155361558211246e+17
19432.0	7.130377418877608e+17
19433.0	7.099770595530068e+17
19434.0	7.067658170837672e+17
19435.0	7.033246260920316e+17
19436.0	6.996813227753472e+17
19437.0	6.960653635944445e+17
19438.0	6.896106585718787e+17
19439.0	6.877848211379543e+17
19440.0	6.835833030049791e+17
19441.0	6.789387613022888e+17
19442.0	6.739576847248042e+17
19443.0	6.686590093666986e+17
19444.0	6.629900627389094e+17
19445.0	6.569266990022657e+17
19446.0	6.504032035493204e+17
19447.0	6.433641291492008e+17
19448.0	6.357249658890925e+17
19449.0	6.273793206342996e+17
19450.0	6.177591153131512e+17
19451.0	6.119797968338944e+17
19452.0	6.227346747730601e+17
19453.0	6.313125237577047e+17
19454.0	6.39048636397431e+17
19455.0	6.461353812994729e+17
19456.0	6.526608696060589e+17
19457.0	6.586985124724732e+17
19458.0	6.626830805106712e+17
19459.0	6.694680548868101e+17
19460.0	6.74423972770611e+17
19461.0	6.789841573729622e+17
19462.0	6.832705298410156e+17
19463.0	6.872959818574504e+17
19464.0	6.910679460085759e+17
19465.0	6.946380689266006e+17
19466.0	6.97995386630963e+17
19467.0	7.011917971324927e+17
19468.0	7.041957255708672e+17
19469.0	7.070359141832019e+17
19470.0	7.097741747770708e+17
19471.0	7.12353442308642e+17
19472.0	7.14802325845879e+17
19473.0	7.171451434041343e+17
19474.0	7.193951053632854e+17
19475.0	7.214018017449299e+17
19476.0	7.235220805779453e+17
19477.0	7.254717326076585e+17
19478.0	7.272890646921215e+17
19479.0	7.290743219552255e+17
19480.0	7.307900523380736e+17
19481.0	7.32440758006579e+17
19482.0	7.339834003685373e+17
19483.0	7.354760936030208e+17
19484.0	7.369105499051347e+17
19485.0	7.382980821516287e+17
19486.0	7.396421316291241e+17
19487.0	7.409268370178045e+17
19488.0	7.42098288648738e+17
19489.0	7.432323522538156e+17
19490.0	7.441874724498088e+17
19491.0	7.454849002810024e+17
19492.0	7.465365892934313e+17
19493.0	7.475389472789844e+17
19494.0	7.485138728386557e+17
19495.0	7.49442489507294e+17
19496.0	7.502641203860818e+17
19497.0	7.511565362965161e+17
19498.0	7.512230769721341e+17
19499.0	7.478824040136691e+17
19500.0	7.535489551346344e+17
19501.0	7.543772574733651e+17
19502.0	7.551225546757459e+17
19503.0	7.558682577469436e+17
19504.0	7.56711933887556e+17
19505.0	7.573726463787007e+17
19506.0	7.580105453513386e+17
19507.0	7.586156536747348e+17
19508.0	7.592083748203178e+17
19509.0	7.597546276913152e+17
19510.0	7.601924246689106e+17
19511.0	7.56113222436998e+17
19512.0	7.601380635530574e+17
19513.0	7.601284288173379e+17
19514.0	7.611001829239453e+17
19515.0	7.627228632317953e+17
19516.0	7.633093206037844e+17
19517.0	7.637451574433108e+17
19518.0	7.641786365247487e+17
19519.0	7.645811981331113e+17
19520.0	7.651626461080233e+17
19521.0	7.656459085021181e+17
19522.0	7.660053739165011e+17
19523.0	7.665302333205161e+17
19524.0	7.668816144935593e+17
19525.0	7.672073634359977e+17
19526.0	7.67524905383799e+17
19527.0	7.678240975312211e+17
19528.0	7.681137073717247e+17
19529.0	7.683924875193002e+17
19530.0	7.686657204202153e+17
19531.0	7.689275548805802e+17
19532.0	7.693877614652076e+17
19533.0	7.698560026585769e+17
19534.0	7.700935655205545e+17
19535.0	7.703167103227219e+17
19536.0	7.705341598192978e+17
19537.0	7.707572221334868e+17
19538.0	7.709184475441834e+17
19539.0	7.710419049250816e+17
19540.0	7.713324080125268e+17
19541.0	7.715120128633513e+17
19542.0	7.7181825829219e+17
19543.0	7.721309314919081e+17
19544.0	7.723571923823273e+17
19545.0	7.723789037775528e+17
19546.0	7.72458023869918e+17
19547.0	7.728081253608105e+17
19548.0	7.729506980025683e+17
19549.0	7.730469537841151e+17
19550.0	7.732106548128425e+17
19551.0	7.733333284181331e+17
19552.0	7.736465182162944e+17
19553.0	7.738258936386899e+17
19554.0	7.739330569874088e+17
19555.0	7.740450186199039e+17
19556.0	7.741509892483753e+17
19557.0	7.742480929783807e+17
19558.0	7.74340119503394e+17
19559.0	7.744485540058454e+17
19560.0	7.745472923959293e+17
19561.0	7.74627050721553e+17
19562.0	7.74824535191279e+17
19563.0	7.750086967339689e+17
19564.0	7.750720338001917e+17
19565.0	7.751316291278163e+17
19566.0	7.75178861604591e+17
19567.0	7.752397322802518e+17
19568.0	7.7527643076253e+17
19569.0	7.753251559920979e+17
19570.0	7.753718121715027e+17
19571.0	7.754070939577002e+17
19572.0	7.754255217721343e+17
19573.0	7.754713048372563e+17
19574.0	7.756423710638079e+17
19575.0	7.756999501894996e+17
19576.0	7.757192290282153e+17
19577.0	7.757293698766164e+17
19578.0	7.757385906345302e+17
19579.0	7.757489132361044e+17
19580.0	7.757571326738432e+17
19581.0	7.757687841707347e+17
19582.0	7.757745741277864e+17
19583.0	7.757750609466708e+17
19584.0	7.75783861854754e+17
19585.0	7.757384476087636e+17
19586.0	7.757446521028609e+17
19587.0	7.758806441612628e+17
19588.0	7.75761928720657e+17
19589.0	7.75854676246528e+17
19590.0	7.758270106173437e+17
19591.0	7.758318604910591e+17
19592.0	7.75814438330914e+17
19593.0	7.757833409221972e+17
19594.0	7.756762687296847e+17
19595.0	7.757265847189503e+17
19596.0	7.75356055150046e+17
19597.0	7.756665886954836e+17
19598.0	7.755596491827881e+17
19599.0	7.756035162898432e+17
19600.0	7.7556768323229e+17
19601.0	7.755022855045117e+17
19602.0	7.754438374588416e+17
19603.0	7.753484308840447e+17
19604.0	7.754288984664744e+17
19605.0	7.753223318274048e+17
19606.0	7.753727193994579e+17
19607.0	7.753223189648726e+17
19608.0	7.752648835639977e+17
19609.0	7.752011130863615e+17
19610.0	7.752159684722688e+17
19611.0	7.751568750630228e+17
19612.0	7.751027049278118e+17
19613.0	7.75038364164642e+17
19614.0	7.74964701700642e+17
19615.0	7.749134867322196e+17
19616.0	7.748135890365097e+17
19617.0	7.747808113896105e+17
19618.0	7.74543332833143e+17
19619.0	7.744339593658365e+17
19620.0	7.7440113194653e+17
19621.0	7.745407428504234e+17
19622.0	7.745472454197245e+17
19623.0	7.744774057842003e+17
19624.0	7.744093701188268e+17
19625.0	7.743870754357247e+17
19626.0	7.742976532938752e+17
19627.0	7.741928372174845e+17
19628.0	7.739937765283156e+17
19629.0	7.738283007497555e+17
19630.0	7.72567451863176e+17
19631.0	7.697803108504922e+17
19632.0	7.734504772861951e+17
19633.0	7.736477788842664e+17
19634.0	7.73684186980898e+17
19635.0	7.73668983747379e+17
19636.0	7.73610865234193e+17
19637.0	7.733756988577111e+17
19638.0	7.734598077950632e+17
19639.0	7.733725882220544e+17
19640.0	7.732552875201876e+17
19641.0	7.730455786116439e+17
19642.0	7.731156402656596e+17
19643.0	7.730247815746899e+17
19644.0	7.729133633841833e+17
19645.0	7.727782368903165e+17
19646.0	7.727590956247718e+17
19647.0	7.726732594730323e+17
19648.0	7.725786601619455e+17
19649.0	7.724843020233386e+17
19650.0	7.724329957588991e+17
19651.0	7.723616776312148e+17
19652.0	7.722645526500691e+17
19653.0	7.721687122444288e+17
19654.0	7.720689812023977e+17
19655.0	7.719696883253247e+17
19656.0	7.71874548228642e+17
19657.0	7.717740222261928e+17
19658.0	7.716764497128106e+17
19659.0	7.716061126328319e+17
19660.0	7.715093526959444e+17
19661.0	7.714050245569193e+17
19662.0	7.713027162548905e+17
19663.0	7.711811338676904e+17
19664.0	7.710780320033452e+17
19665.0	7.709915211279017e+17
19666.0	7.709644070496936e+17
