# Flux units: erg / (cm m2 s)
# Wavelength units: Angstrom
wave	flux
19000.0	6.437763830251519e+17
19001.0	6.436457783405225e+17
19002.0	6.435366166855679e+17
19003.0	6.434156830872916e+17
19004.0	6.43295213588753e+17
19005.0	6.431755730943999e+17
19006.0	6.430563969094995e+17
19007.0	6.429308447533738e+17
19008.0	6.428095377222313e+17
19009.0	6.426877548473001e+17
19010.0	6.425240803824979e+17
19011.0	6.424511747107497e+17
19012.0	6.422750977589247e+17
19013.0	6.422152545479338e+17
19014.0	6.420895667060736e+17
19015.0	6.419713719883091e+17
19016.0	6.418500664251731e+17
19017.0	6.41735335223842e+17
19018.0	6.41612302656034e+17
19019.0	6.414949724542291e+17
19020.0	6.413734255088979e+17
19021.0	6.412554906981716e+17
19022.0	6.411350560123561e+17
19023.0	6.410113386545151e+17
19024.0	6.408931275789652e+17
19025.0	6.407702471944873e+17
19026.0	6.406464686697129e+17
19027.0	6.404839182084776e+17
19028.0	6.404148930368852e+17
19029.0	6.402928294232063e+17
19030.0	6.401765180877482e+17
19031.0	6.400564542483113e+17
19032.0	6.399356930359295e+17
19033.0	6.398057293108563e+17
19034.0	6.396917915320319e+17
19035.0	6.395504296460287e+17
19036.0	6.360282934804465e+17
19037.0	6.393186300373673e+17
19038.0	6.392113200977236e+17
19039.0	6.390960460136447e+17
19040.0	6.389768318003882e+17
19041.0	6.388563537734314e+17
19042.0	6.387130123856552e+17
19043.0	6.386178752948906e+17
19044.0	6.384966084591615e+17
19045.0	6.383760745780563e+17
19046.0	6.382527949657428e+17
19047.0	6.381366446915583e+17
19048.0	6.379923860794025e+17
19049.0	6.37860925477137e+17
19050.0	6.377703550746623e+17
19051.0	6.371184691467596e+17
19052.0	6.374500049005225e+17
19053.0	6.374163290434217e+17
19054.0	6.372994251926185e+17
19055.0	6.37148589911791e+17
19056.0	6.370557825471828e+17
19057.0	6.369399392261459e+17
19058.0	6.368035720571564e+17
19059.0	6.36695172157713e+17
19060.0	6.365792204139178e+17
19061.0	6.364621328525993e+17
19062.0	6.363419315798015e+17
19063.0	6.362224544535891e+17
19064.0	6.360895261245439e+17
19065.0	6.359645241911977e+17
19066.0	6.358520539993427e+17
19067.0	6.357427821740031e+17
19068.0	6.356245527833258e+17
19069.0	6.355051152233812e+17
19070.0	6.353822755935572e+17
19071.0	6.352635254800383e+17
19072.0	6.351404072086186e+17
19073.0	6.35026377155106e+17
19074.0	6.349074018074623e+17
19075.0	6.34787872182545e+17
19076.0	6.346661759898963e+17
19077.0	6.345473221372585e+17
19078.0	6.344256746684415e+17
19079.0	6.343097873072127e+17
19080.0	6.341888809719124e+17
19081.0	6.340661320788649e+17
19082.0	6.339468242627241e+17
19083.0	6.338208483420841e+17
19084.0	6.336881573407401e+17
19085.0	6.335916013169321e+17
19086.0	6.334199899007658e+17
19087.0	6.332552202332842e+17
19088.0	6.332055254204413e+17
19089.0	6.330491224806739e+17
19090.0	6.329881240185513e+17
19091.0	6.328710219169792e+17
19092.0	6.327197064582484e+17
19093.0	6.326375292775082e+17
19094.0	6.325193076462931e+17
19095.0	6.324002664480767e+17
19096.0	6.322793673829033e+17
19097.0	6.321617711224148e+17
19098.0	6.32036360593954e+17
19099.0	6.319160268510548e+17
19100.0	6.317982262580564e+17
19101.0	6.316831424555689e+17
19102.0	6.31554332373811e+17
19103.0	6.314466831848788e+17
19104.0	6.313278335964499e+17
19105.0	6.31193781543458e+17
19106.0	6.310725589576361e+17
19107.0	6.309635422158847e+17
19108.0	6.308419966686548e+17
19109.0	6.304820582765905e+17
19110.0	6.30594817036561e+17
19111.0	6.304876715835391e+17
19112.0	6.303701682967891e+17
19113.0	6.302562303082495e+17
19114.0	6.301345519413929e+17
19115.0	6.300056854462464e+17
19116.0	6.298973059590825e+17
19117.0	6.297777639609683e+17
19118.0	6.29637729362466e+17
19119.0	6.289711182118902e+17
19120.0	6.293921022519977e+17
19121.0	6.292837895241727e+17
19122.0	6.291866168677716e+17
19123.0	6.290679395953321e+17
19124.0	6.289307281828521e+17
19125.0	6.288289535361023e+17
19126.0	6.287096464889172e+17
19127.0	6.284052635407699e+17
19128.0	6.284366189690877e+17
19129.0	6.283461177027241e+17
19130.0	6.282349419429887e+17
19131.0	6.281170232104276e+17
19132.0	6.279988366715561e+17
19133.0	6.278684630930772e+17
19134.0	6.277446203255466e+17
19135.0	6.276418134605823e+17
19136.0	6.275245628806484e+17
19137.0	6.273889021023572e+17
19138.0	6.272851964679507e+17
19139.0	6.271687466505556e+17
19140.0	6.270504014970879e+17
19141.0	6.269318543878825e+17
19142.0	6.268095592486228e+17
19143.0	6.266884613035348e+17
19144.0	6.2657203811997e+17
19145.0	6.264574480569684e+17
19146.0	6.262729425114454e+17
19147.0	6.262107588089172e+17
19148.0	6.260955270873087e+17
19149.0	6.259759537018196e+17
19150.0	6.258642612038314e+17
19151.0	6.257459355538771e+17
19152.0	6.256241942724607e+17
19153.0	6.254971197237929e+17
19154.0	6.253764220551167e+17
19155.0	6.252707974567252e+17
19156.0	6.251519572355753e+17
19157.0	6.2501816383133e+17
19158.0	6.247519937189203e+17
19159.0	6.247891852416339e+17
19160.0	6.246733265414825e+17
19161.0	6.245522253807615e+17
19162.0	6.240562257941848e+17
19163.0	6.242977740139178e+17
19164.0	6.242040527803734e+17
19165.0	6.240683790696447e+17
19166.0	6.23947341173009e+17
19167.0	6.238144942134612e+17
19168.0	6.237300495220733e+17
19169.0	6.23607890907409e+17
19170.0	6.234960392355839e+17
19171.0	6.233567347955027e+17
19172.0	6.232564270366719e+17
19173.0	6.231413275055444e+17
19174.0	6.230189797976746e+17
19175.0	6.229066215937363e+17
19176.0	6.227880345687379e+17
19177.0	6.226534441768275e+17
19178.0	6.225390929794388e+17
19179.0	6.224021906871636e+17
19180.0	6.22304203776546e+17
19181.0	6.221556829126655e+17
19182.0	6.220489870890324e+17
19183.0	6.219333550910122e+17
19184.0	6.218144540524543e+17
19185.0	6.2169591330461e+17
19186.0	6.215787996687018e+17
19187.0	6.214523421021524e+17
19188.0	6.213413410351785e+17
19189.0	6.212228069982207e+17
19190.0	6.211025535762431e+17
19191.0	6.20979767423795e+17
19192.0	6.208688941432831e+17
19193.0	6.20747344122129e+17
19194.0	6.206268779790335e+17
19195.0	6.205107541988692e+17
19196.0	6.203866356558506e+17
19197.0	6.202591406981117e+17
19198.0	6.2009660421789e+17
19199.0	6.176729391431674e+17
19200.0	6.182004184492722e+17
19201.0	6.197497036100948e+17
19202.0	6.196710472679423e+17
19203.0	6.195557170500948e+17
19204.0	6.194444978793129e+17
19205.0	6.193311170341545e+17
19206.0	6.192141145473021e+17
19207.0	6.190865889711443e+17
19208.0	6.189560874663933e+17
19209.0	6.188613050040319e+17
19210.0	6.187432793866237e+17
19211.0	6.186267463122944e+17
19212.0	6.18508161524258e+17
19213.0	6.183616542059178e+17
19214.0	6.182327895982079e+17
19215.0	6.181438350513492e+17
19216.0	6.180359962798762e+17
19217.0	6.179170103765673e+17
19218.0	6.177134023628114e+17
19219.0	6.176649078898687e+17
19220.0	6.17560346198016e+17
19221.0	6.174120604947798e+17
19222.0	6.173266021100202e+17
19223.0	6.17207345254673e+17
19224.0	6.170865718089044e+17
19225.0	6.169578021322751e+17
19226.0	6.168526556845398e+17
19227.0	6.167343193391103e+17
19228.0	6.166189739518633e+17
19229.0	6.165005882534569e+17
19230.0	6.163676491590314e+17
19231.0	6.162462414645929e+17
19232.0	6.161290792446633e+17
19233.0	6.160037968521897e+17
19234.0	6.158910153730729e+17
19235.0	6.157718558255785e+17
19236.0	6.156565897805823e+17
19237.0	6.155364610692436e+17
19238.0	6.154064252720467e+17
19239.0	6.153012833681408e+17
19240.0	6.151813515094698e+17
19241.0	6.150615208034303e+17
19242.0	6.149343906103295e+17
19243.0	6.147921112203263e+17
19244.0	6.146910391194964e+17
19245.0	6.145717124289876e+17
19246.0	6.144517951804756e+17
19247.0	6.143348485477716e+17
19248.0	6.142154475481769e+17
19249.0	6.140952473239551e+17
19250.0	6.139738822716074e+17
19251.0	6.138456962323795e+17
19252.0	6.137095108165631e+17
19253.0	6.13619025907985e+17
19254.0	6.135025299532458e+17
19255.0	6.133630775241385e+17
19256.0	6.132608946317993e+17
19257.0	6.13145380983057e+17
19258.0	6.130261350329001e+17
19259.0	6.12898658320384e+17
19260.0	6.12717325136691e+17
19261.0	6.126199325589503e+17
19262.0	6.124836155817983e+17
19263.0	6.123635737624575e+17
19264.0	6.12193372681011e+17
19265.0	6.121100677917353e+17
19266.0	6.11987645005824e+17
19267.0	6.118923780314452e+17
19268.0	6.117718327558144e+17
19269.0	6.11652306276625e+17
19270.0	6.115321265345876e+17
19271.0	6.113769110721876e+17
19272.0	6.112885485513386e+17
19273.0	6.111073088307199e+17
19274.0	6.109911391229268e+17
19275.0	6.109316605367635e+17
19276.0	6.108092273349972e+17
19277.0	6.106892399717033e+17
19278.0	6.105684807166633e+17
19279.0	6.104443150576298e+17
19280.0	6.103183482246484e+17
19281.0	6.102051061410474e+17
19282.0	6.100843726110719e+17
19283.0	6.09933429117201e+17
19284.0	6.098262613644627e+17
19285.0	6.097027561684991e+17
19286.0	6.095949422832298e+17
19287.0	6.094736165874346e+17
19288.0	6.084544357378723e+17
19289.0	6.069383524777943e+17
19290.0	6.091068853103274e+17
19291.0	6.08962522050287e+17
19292.0	6.088686900172115e+17
19293.0	6.087459379085311e+17
19294.0	6.086230889114282e+17
19295.0	6.085016423497727e+17
19296.0	6.083711577620479e+17
19297.0	6.082505369190399e+17
19298.0	6.081294011553108e+17
19299.0	6.080009305325567e+17
19300.0	6.078844526832297e+17
19301.0	6.077605978920276e+17
19302.0	6.076357274501119e+17
19303.0	6.075034727262889e+17
19304.0	6.073845644875092e+17
19305.0	6.072610729230335e+17
19306.0	6.071351780223657e+17
19307.0	6.070043691450368e+17
19308.0	6.068800424247295e+17
19309.0	6.066754121891839e+17
19310.0	6.065181764703571e+17
19311.0	6.064790878639444e+17
19312.0	6.062927517144404e+17
19313.0	6.061643285572265e+17
19314.0	6.02226467379608e+17
19315.0	6.024260274705809e+17
19316.0	6.05762353172753e+17
19317.0	6.056563545123498e+17
19318.0	6.055292742314665e+17
19319.0	6.054032139354111e+17
19320.0	6.05271319781922e+17
19321.0	6.051385400011433e+17
19322.0	6.050004782634324e+17
19323.0	6.048494279546195e+17
19324.0	6.047470988907859e+17
19325.0	6.045478011535359e+17
19326.0	6.04486822334737e+17
19327.0	6.043582541944147e+17
19328.0	6.04216126148881e+17
19329.0	6.040961773032788e+17
19330.0	6.039589649121279e+17
19331.0	6.038243585818623e+17
19332.0	6.036940738527231e+17
19333.0	6.03497345056768e+17
19334.0	6.033020830089215e+17
19335.0	6.031418540250452e+17
19336.0	6.030281090443946e+17
19337.0	6.028923490708138e+17
19338.0	6.027326531130707e+17
19339.0	6.026153957523456e+17
19340.0	6.024641774616575e+17
19341.0	6.023245013363369e+17
19342.0	6.021500502365524e+17
19343.0	6.020541280419839e+17
19344.0	6.019023547749716e+17
19345.0	6.015482635922085e+17
19346.0	6.014241910467242e+17
19347.0	6.012955611103231e+17
19348.0	6.011691652699476e+17
19349.0	6.010172193374207e+17
19350.0	6.008510434596179e+17
19351.0	6.006856624024233e+17
19352.0	6.005192294836905e+17
19353.0	6.003883923647146e+17
19354.0	6.002359828916905e+17
19355.0	5.998724750770177e+17
19356.0	5.997110067462143e+17
19357.0	5.995546099580927e+17
19358.0	5.993951886573567e+17
19359.0	5.99229551537903e+17
19360.0	5.990628450806441e+17
19361.0	5.98789023858688e+17
19362.0	5.984786152336041e+17
19363.0	5.983128954164563e+17
19364.0	5.981454056030207e+17
19365.0	5.979761997600084e+17
19366.0	5.976993856924328e+17
19367.0	5.972962729525247e+17
19368.0	5.971209990002004e+17
19369.0	5.969369631468201e+17
19370.0	5.966971703132159e+17
19371.0	5.96142870040849e+17
19372.0	5.95925166858786e+17
19373.0	5.957348652045652e+17
19374.0	5.953864859647996e+17
19375.0	5.951130285288105e+17
19376.0	5.949174677766144e+17
19377.0	5.947181712277503e+17
19378.0	5.945178667876351e+17
19379.0	5.94314577121553e+17
19380.0	5.941082314156713e+17
19381.0	5.938735500405416e+17
19382.0	5.935674046458537e+17
19383.0	5.933459050594303e+17
19384.0	5.931347473683798e+17
19385.0	5.929101725182634e+17
19386.0	5.92682284028177e+17
19387.0	5.924504455522986e+17
19388.0	5.920692093932884e+17
19389.0	5.91808638886434e+17
19390.0	5.915551408149844e+17
19391.0	5.883524431915645e+17
19392.0	5.909075269255167e+17
19393.0	5.90571319206434e+17
19394.0	5.903051336450048e+17
19395.0	5.900244812300285e+17
19396.0	5.894497737113596e+17
19397.0	5.891643203562153e+17
19398.0	5.88742537720627e+17
19399.0	5.880936423314771e+17
19400.0	5.877828307735894e+17
19401.0	5.870325295568212e+17
19402.0	5.865133923718486e+17
19403.0	5.857198188003327e+17
19404.0	5.848191872969384e+17
19405.0	5.838331402605912e+17
19406.0	5.827709313744899e+17
19407.0	5.819046426924372e+17
19408.0	5.812920137722538e+17
19409.0	5.808081499848703e+17
19410.0	5.802448964113748e+17
19411.0	5.796693117938345e+17
19412.0	5.790842583252991e+17
19413.0	5.784870928252927e+17
19414.0	5.778532651237373e+17
19415.0	5.771857558328662e+17
19416.0	5.764735097460052e+17
19417.0	5.757636313437524e+17
19418.0	5.750832620371968e+17
19419.0	5.743469654616745e+17
19420.0	5.735954175579475e+17
19421.0	5.7282414531051514e+17
19422.0	5.7203072762729805e+17
19423.0	5.7122361428322976e+17
19424.0	5.7039819636736e+17
19425.0	5.695420929933311e+17
19426.0	5.6866744806932474e+17
19427.0	5.677862805132628e+17
19428.0	5.668835834549589e+17
19429.0	5.6588173451810125e+17
19430.0	5.648576173921623e+17
19431.0	5.6328606005766906e+17
19432.0	5.6264520263270406e+17
19433.0	5.613595973561003e+17
19434.0	5.598630580846593e+17
19435.0	5.578795211117902e+17
19436.0	5.551613603916452e+17
19437.0	5.518462050194772e+17
19438.0	5.43181539324723e+17
19439.0	5.444071538906456e+17
19440.0	5.417644540122452e+17
19441.0	5.388778522105171e+17
19442.0	5.356879584690177e+17
19443.0	5.320252408375977e+17
19444.0	5.274022266099028e+17
19445.0	5.2114208898853574e+17
19446.0	5.1250296639542426e+17
19447.0	5.0212742543441856e+17
19448.0	4.902782291148805e+17
19449.0	4.7134806016436883e+17
19450.0	4.3314622133261946e+17
19451.0	4.1299601896680525e+17
19452.0	4.555650088566787e+17
19453.0	4.820686211470687e+17
19454.0	4.964280854118393e+17
19455.0	5.0674068070509235e+17
19456.0	5.164191184147784e+17
19457.0	5.234786878619641e+17
19458.0	5.2040522702084883e+17
19459.0	5.323325321161405e+17
19460.0	5.356632883418451e+17
19461.0	5.384953761453396e+17
19462.0	5.41109940842223e+17
19463.0	5.4355771260927974e+17
19464.0	5.471349232719182e+17
19465.0	5.510796275264177e+17
19466.0	5.538444249224531e+17
19467.0	5.5576974614418784e+17
19468.0	5.5727496000525696e+17
19469.0	5.58400549368627e+17
19470.0	5.5945814633786016e+17
19471.0	5.603443606902101e+17
19472.0	5.611680698466303e+17
19473.0	5.6194163707740154e+17
19474.0	5.626745155747839e+17
19475.0	5.6328256739082214e+17
19476.0	5.640097849060011e+17
19477.0	5.6468113911534925e+17
19478.0	5.6530011059213645e+17
19479.0	5.65894857097216e+17
19480.0	5.664834618829481e+17
19481.0	5.6704760632661325e+17
19482.0	5.675938126408362e+17
19483.0	5.681224441921536e+17
19484.0	5.68629832852002e+17
19485.0	5.6911529522845e+17
19486.0	5.695805691614549e+17
19487.0	5.700495901458431e+17
19488.0	5.70485477806353e+17
19489.0	5.7086547951179085e+17
19490.0	5.711065122515623e+17
19491.0	5.715979210326015e+17
19492.0	5.7195162808702285e+17
19493.0	5.72290171614003e+17
19494.0	5.726166337978367e+17
19495.0	5.730571632246783e+17
19496.0	5.737106129988263e+17
19497.0	5.74672655753762e+17
19498.0	5.751296734789636e+17
19499.0	5.7134473606594285e+17
19500.0	5.764105532429652e+17
19501.0	5.767212038793897e+17
19502.0	5.771160509044052e+17
19503.0	5.772762525554e+17
19504.0	5.776710200284502e+17
19505.0	5.777454687846399e+17
19506.0	5.779445518434301e+17
19507.0	5.781533765926912e+17
19508.0	5.782035603914751e+17
19509.0	5.782446863810559e+17
19510.0	5.784591690366976e+17
19511.0	5.716447210067232e+17
19512.0	5.778489849064088e+17
19513.0	5.772451067723753e+17
19514.0	5.777133465676445e+17
19515.0	5.786802461168982e+17
19516.0	5.7877146894336e+17
19517.0	5.787744517226495e+17
19518.0	5.78781888782882e+17
19519.0	5.787787337575081e+17
19520.0	5.787676090651988e+17
19521.0	5.788643332805971e+17
19522.0	5.78856551588386e+17
19523.0	5.788426192988842e+17
19524.0	5.788194902289065e+17
19525.0	5.788040667245225e+17
19526.0	5.787813686891862e+17
19527.0	5.78754556530961e+17
19528.0	5.788636068970493e+17
19529.0	5.78918226591744e+17
19530.0	5.788866955618986e+17
19531.0	5.788791171536212e+17
19532.0	5.792521472966655e+17
19533.0	5.792094841645738e+17
19534.0	5.79164497388066e+17
19535.0	5.791167061600938e+17
19536.0	5.793017104782679e+17
19537.0	5.793316268408832e+17
19538.0	5.792600722243584e+17
19539.0	5.791647579242497e+17
19540.0	5.791646792810495e+17
19541.0	5.792197493041833e+17
19542.0	5.793011099238399e+17
19543.0	5.792314491753812e+17
19544.0	5.791772998019754e+17
19545.0	5.790656234520575e+17
19546.0	5.78952716493346e+17
19547.0	5.789829279252479e+17
19548.0	5.790415761790292e+17
19549.0	5.790345915443882e+17
19550.0	5.789745386881023e+17
19551.0	5.78903386235426e+17
19552.0	5.788307875867305e+17
19553.0	5.787549677824682e+17
19554.0	5.786786587825492e+17
19555.0	5.786335524683776e+17
19556.0	5.785617995311786e+17
19557.0	5.785217171543379e+17
19558.0	5.785574501777405e+17
19559.0	5.78478440255761e+17
19560.0	5.783920971524778e+17
19561.0	5.783147361512106e+17
19562.0	5.782329061889364e+17
19563.0	5.781542443242836e+17
19564.0	5.78071420871202e+17
19565.0	5.77987933250082e+17
19566.0	5.779005597461161e+17
19567.0	5.77819020099584e+17
19568.0	5.777310134654292e+17
19569.0	5.776455736055124e+17
19570.0	5.775616111891795e+17
19571.0	5.774838358605823e+17
19572.0	5.774933406427818e+17
19573.0	5.774061115626836e+17
19574.0	5.773103567907497e+17
19575.0	5.772320692677289e+17
19576.0	5.771416031636137e+17
19577.0	5.7704861677213e+17
19578.0	5.769585961730047e+17
19579.0	5.768692380641962e+17
19580.0	5.767785900670975e+17
19581.0	5.766883740134057e+17
19582.0	5.765985924896084e+17
19583.0	5.765065995190272e+17
19584.0	5.764127482620585e+17
19585.0	5.763093702726996e+17
19586.0	5.762119493834069e+17
19587.0	5.761213282298538e+17
19588.0	5.759924699136e+17
19589.0	5.759450536564053e+17
19590.0	5.7584159059258016e+17
19591.0	5.757584279601151e+17
19592.0	5.7566460795071136e+17
19593.0	5.755667307910484e+17
19594.0	5.754487104864255e+17
19595.0	5.753849524518911e+17
19596.0	5.7521377130141005e+17
19597.0	5.752566709922475e+17
19598.0	5.751334307364862e+17
19599.0	5.7507903837306874e+17
19600.0	5.749835734974463e+17
19601.0	5.7487955783406925e+17
19602.0	5.747839172171092e+17
19603.0	5.746126692373842e+17
19604.0	5.745853635493887e+17
19605.0	5.7446591354634234e+17
19606.0	5.7439987045498874e+17
19607.0	5.7430310289844896e+17
19608.0	5.7420334340505594e+17
19609.0	5.741014630618451e+17
19610.0	5.7400435751430816e+17
19611.0	5.739030269045417e+17
19612.0	5.7381227391003296e+17
19613.0	5.7371251406711456e+17
19614.0	5.7361056899181216e+17
19615.0	5.7351528384211616e+17
19616.0	5.733851062774441e+17
19617.0	5.733102184475306e+17
19618.0	5.731571747957417e+17
19619.0	5.7304015553167334e+17
19620.0	5.7294585730170874e+17
19621.0	5.72910819554099e+17
19622.0	5.728205454092971e+17
19623.0	5.7272018445271034e+17
19624.0	5.726180669216084e+17
19625.0	5.7252049405870074e+17
19626.0	5.7241985145460045e+17
19627.0	5.7231711085963936e+17
19628.0	5.721589029011456e+17
19629.0	5.720747455894868e+17
19630.0	5.717978736405162e+17
19631.0	5.6937194762622266e+17
19632.0	5.7179206557805216e+17
19633.0	5.7170440077967354e+17
19634.0	5.716154157542058e+17
19635.0	5.715109728310611e+17
19636.0	5.7140504973803514e+17
19637.0	5.7126829193953274e+17
19638.0	5.71213321810739e+17
19639.0	5.7111319538565114e+17
19640.0	5.7100440828204365e+17
19641.0	5.708098487102125e+17
19642.0	5.708096842235903e+17
19643.0	5.7070769510809594e+17
19644.0	5.706023266418687e+17
19645.0	5.70478870868787e+17
19646.0	5.703959728969045e+17
19647.0	5.7030548763880096e+17
19648.0	5.702044696444926e+17
19649.0	5.7010230352936954e+17
19650.0	5.7000166826530125e+17
19651.0	5.6989951256603296e+17
19652.0	5.6979779677934925e+17
19653.0	5.696956719082153e+17
19654.0	5.6959465664020474e+17
19655.0	5.6949267961828685e+17
19656.0	5.6939154523204256e+17
19657.0	5.6929060755865594e+17
19658.0	5.6918859866002765e+17
19659.0	5.690869722819242e+17
19660.0	5.689853758930943e+17
19661.0	5.688835563672916e+17
19662.0	5.687816262516735e+17
19663.0	5.6867375888902816e+17
19664.0	5.685672654405631e+17
