# Flux units: erg / (cm m2 s)
# Wavelength units: Angstrom
wave	flux
19000.0	5.561927299585364e+17
19001.0	5.560783814874452e+17
19002.0	5.55987358659379e+17
19003.0	5.558843688528554e+17
19004.0	5.557814337819988e+17
19005.0	5.5567790654532256e+17
19006.0	5.5557623444930554e+17
19007.0	5.554728013747541e+17
19008.0	5.5536264937472e+17
19009.0	5.55258104320273e+17
19010.0	5.551042027236009e+17
19011.0	5.550580764246015e+17
19012.0	5.549452990698836e+17
19013.0	5.5485533271709e+17
19014.0	5.547465730162688e+17
19015.0	5.5464508120541856e+17
19016.0	5.545402277997226e+17
19017.0	5.544443697081002e+17
19018.0	5.5434040171997856e+17
19019.0	5.542382427351722e+17
19020.0	5.54133699568162e+17
19021.0	5.5403305668444154e+17
19022.0	5.5392987806433274e+17
19023.0	5.5382338377700685e+17
19024.0	5.5372232614652576e+17
19025.0	5.536221484111189e+17
19026.0	5.5351600232093005e+17
19027.0	5.534119061968211e+17
19028.0	5.533137606716073e+17
19029.0	5.532090871316479e+17
19030.0	5.531096417916245e+17
19031.0	5.530069121717589e+17
19032.0	5.5290343659492685e+17
19033.0	5.527907845100884e+17
19034.0	5.526971780606634e+17
19035.0	5.525916042133504e+17
19036.0	5.520588719609172e+17
19037.0	5.52389068333602e+17
19038.0	5.522851143963988e+17
19039.0	5.5218472352044365e+17
19040.0	5.5208258823345485e+17
19041.0	5.5197894858943136e+17
19042.0	5.518642634555391e+17
19043.0	5.5177463110915405e+17
19044.0	5.516706189410304e+17
19045.0	5.5156932971506336e+17
19046.0	5.514594623684606e+17
19047.0	5.5136232438497274e+17
19048.0	5.5123414750330874e+17
19049.0	5.511468293641556e+17
19050.0	5.5105036764228256e+17
19051.0	5.508858868924414e+17
19052.0	5.508416366357162e+17
19053.0	5.507485421709994e+17
19054.0	5.506459669015211e+17
19055.0	5.5051297384038394e+17
19056.0	5.5043716459178656e+17
19057.0	5.50337475912226e+17
19058.0	5.50232389512943e+17
19059.0	5.501319063622996e+17
19060.0	5.500278913979732e+17
19061.0	5.499284327060821e+17
19062.0	5.4982532727657805e+17
19063.0	5.4972313368876365e+17
19064.0	5.496056148131839e+17
19065.0	5.494986356643156e+17
19066.0	5.494087009086121e+17
19067.0	5.4931209091809274e+17
19068.0	5.4921112640116045e+17
19069.0	5.49108917014801e+17
19070.0	5.4900294694557e+17
19071.0	5.4890352439459834e+17
19072.0	5.488009598905002e+17
19073.0	5.486988550122154e+17
19074.0	5.485971515288234e+17
19075.0	5.4849482435242656e+17
19076.0	5.483899606007807e+17
19077.0	5.482883758161919e+17
19078.0	5.4818314639114234e+17
19079.0	5.480852249815721e+17
19080.0	5.479815931669162e+17
19081.0	5.4787599506254496e+17
19082.0	5.477734743190185e+17
19083.0	5.4766563205229216e+17
19084.0	5.4754943515142816e+17
19085.0	5.474705240752126e+17
19086.0	5.4732801602573645e+17
19087.0	5.47254925594897e+17
19088.0	5.4715609297278285e+17
19089.0	5.4703783778713594e+17
19090.0	5.46958161809681e+17
19091.0	5.4685607328918176e+17
19092.0	5.4674802130725536e+17
19093.0	5.4665498682108576e+17
19094.0	5.465527244466857e+17
19095.0	5.464505975483049e+17
19096.0	5.463466761169577e+17
19097.0	5.462464279172437e+17
19098.0	5.4614362370867194e+17
19099.0	5.4604082327497376e+17
19100.0	5.4593846701806925e+17
19101.0	5.458383538050389e+17
19102.0	5.4572211642914125e+17
19103.0	5.456342284238847e+17
19104.0	5.455326808986964e+17
19105.0	5.454286025304745e+17
19106.0	5.4532675238625274e+17
19107.0	5.4522399480436045e+17
19108.0	5.4512405474618016e+17
19109.0	5.449939112951807e+17
19110.0	5.4492048154514765e+17
19111.0	5.448186259483306e+17
19112.0	5.447166767486292e+17
19113.0	5.446151192969215e+17
19114.0	5.445130912443051e+17
19115.0	5.4440583548108794e+17
19116.0	5.44307564126754e+17
19117.0	5.442060296039081e+17
19118.0	5.4409596554444794e+17
19119.0	5.4314639790789824e+17
19120.0	5.438979904809641e+17
19121.0	5.4379852395970554e+17
19122.0	5.4369944079783245e+17
19123.0	5.435976846060203e+17
19124.0	5.4349413709687456e+17
19125.0	5.4339406806384634e+17
19126.0	5.432918731478356e+17
19127.0	5.4297423920496634e+17
19128.0	5.430840691523583e+17
19129.0	5.429783626252287e+17
19130.0	5.428838931977557e+17
19131.0	5.4278393042042874e+17
19132.0	5.4268216828668576e+17
19133.0	5.425707598129834e+17
19134.0	5.424770423543124e+17
19135.0	5.423772576251903e+17
19136.0	5.4227639705709216e+17
19137.0	5.4215505772980896e+17
19138.0	5.420715493468841e+17
19139.0	5.4197167716652365e+17
19140.0	5.418702885355519e+17
19141.0	5.4176877407546016e+17
19142.0	5.416642975279785e+17
19143.0	5.4155859030179834e+17
19144.0	5.4145995152643405e+17
19145.0	5.413628252170921e+17
19146.0	5.411903829093034e+17
19147.0	5.4114782750091936e+17
19148.0	5.410575773335551e+17
19149.0	5.4095530041890125e+17
19150.0	5.4085462363122336e+17
19151.0	5.407536115089406e+17
19152.0	5.4065238575677434e+17
19153.0	5.405474776154111e+17
19154.0	5.404347024976553e+17
19155.0	5.4034872772416845e+17
19156.0	5.4024706226913274e+17
19157.0	5.4014493669894816e+17
19158.0	5.40023639454515e+17
19159.0	5.39940902543906e+17
19160.0	5.3984057716899834e+17
19161.0	5.397405165944832e+17
19162.0	5.395932669542399e+17
19163.0	5.395372599235924e+17
19164.0	5.3943685394814285e+17
19165.0	5.3933181326677325e+17
19166.0	5.392181332978345e+17
19167.0	5.391288676035241e+17
19168.0	5.3903057534757536e+17
19169.0	5.38928640688128e+17
19170.0	5.388292733621589e+17
19171.0	5.387251958327977e+17
19172.0	5.386269773266943e+17
19173.0	5.385257034798421e+17
19174.0	5.384174784129705e+17
19175.0	5.383230196110676e+17
19176.0	5.382216569847807e+17
19177.0	5.3810318851877536e+17
19178.0	5.3801881254406816e+17
19179.0	5.3791436731405645e+17
19180.0	5.378161086824447e+17
19181.0	5.3769958078109e+17
19182.0	5.376130491438419e+17
19183.0	5.375140197389653e+17
19184.0	5.37411550655283e+17
19185.0	5.373103548224853e+17
19186.0	5.3721031745645216e+17
19187.0	5.371019687275177e+17
19188.0	5.3700786301610656e+17
19189.0	5.3690740335356576e+17
19190.0	5.3680612013943456e+17
19191.0	5.367012993094996e+17
19192.0	5.3660389631590394e+17
19193.0	5.365018075157845e+17
19194.0	5.3639981553418234e+17
19195.0	5.3630039361235616e+17
19196.0	5.361971889176574e+17
19197.0	5.3609700202468685e+17
19198.0	5.359960081476266e+17
19199.0	5.3562578462310374e+17
19200.0	5.356157950492672e+17
19201.0	5.3569294277017594e+17
19202.0	5.3559266576957434e+17
19203.0	5.354909885005823e+17
19204.0	5.3538741687418874e+17
19205.0	5.3528827883683834e+17
19206.0	5.351868533658964e+17
19207.0	5.3507459358829216e+17
19208.0	5.349573650284543e+17
19209.0	5.348838088201557e+17
19210.0	5.347825339247274e+17
19211.0	5.3468297240248314e+17
19212.0	5.3458189072465914e+17
19213.0	5.3446963542097914e+17
19214.0	5.343651632775167e+17
19215.0	5.342774287138815e+17
19216.0	5.3417713137090554e+17
19217.0	5.340752788499115e+17
19218.0	5.3387709931410765e+17
19219.0	5.338570361405439e+17
19220.0	5.3376966039961594e+17
19221.0	5.3363199614211405e+17
19222.0	5.3356953827191456e+17
19223.0	5.3346630316851194e+17
19224.0	5.333623570606762e+17
19225.0	5.332484268315988e+17
19226.0	5.331625487368192e+17
19227.0	5.330611867396778e+17
19228.0	5.329627412518228e+17
19229.0	5.328613496149333e+17
19230.0	5.327590167063209e+17
19231.0	5.326572303155199e+17
19232.0	5.325564254617599e+17
19233.0	5.324480232554494e+17
19234.0	5.3235168302858234e+17
19235.0	5.322492825916757e+17
19236.0	5.3215170280816634e+17
19237.0	5.3204838647507616e+17
19238.0	5.3193778253878605e+17
19239.0	5.318475478204415e+17
19240.0	5.317436184898217e+17
19241.0	5.316413654127957e+17
19242.0	5.315410335367167e+17
19243.0	5.314231994591913e+17
19244.0	5.3133977971589114e+17
19245.0	5.312375295748777e+17
19246.0	5.311343480886613e+17
19247.0	5.3103378272965965e+17
19248.0	5.309331109751466e+17
19249.0	5.308310460825599e+17
19250.0	5.3072681112698874e+17
19251.0	5.3061375471124474e+17
19252.0	5.3049435524956154e+17
19253.0	5.3042082546537805e+17
19254.0	5.3032165100748794e+17
19255.0	5.301991037905577e+17
19256.0	5.301141406831956e+17
19257.0	5.300159829245951e+17
19258.0	5.299137866803883e+17
19259.0	5.2980364593506976e+17
19260.0	5.2969893995915936e+17
19261.0	5.29605572235537e+17
19262.0	5.294982229393407e+17
19263.0	5.293952517974697e+17
19264.0	5.292326185686355e+17
19265.0	5.291727758469802e+17
19266.0	5.290621061999273e+17
19267.0	5.289926460091049e+17
19268.0	5.2888918392395085e+17
19269.0	5.287868512949588e+17
19270.0	5.2868430496617805e+17
19271.0	5.285394611787094e+17
19272.0	5.2847453209449805e+17
19273.0	5.282833437644115e+17
19274.0	5.281996208428371e+17
19275.0	5.281696097588564e+17
19276.0	5.2806408505480525e+17
19277.0	5.27961467982097e+17
19278.0	5.278584478367743e+17
19279.0	5.277532986627413e+17
19280.0	5.2764131927435936e+17
19281.0	5.275471153463294e+17
19282.0	5.2744548246705485e+17
19283.0	5.2733752576573434e+17
19284.0	5.272344176099326e+17
19285.0	5.2711255399464954e+17
19286.0	5.270253275010389e+17
19287.0	5.269252141481983e+17
19288.0	5.2670419033565843e+17
19289.0	5.2642851781782125e+17
19290.0	5.2661193633955834e+17
19291.0	5.264783718045013e+17
19292.0	5.264025415843839e+17
19293.0	5.26296684761361e+17
19294.0	5.2619125806421325e+17
19295.0	5.2608725057972896e+17
19296.0	5.2598018272133114e+17
19297.0	5.25874066760226e+17
19298.0	5.257670293804372e+17
19299.0	5.2566372409234765e+17
19300.0	5.2555795653809485e+17
19301.0	5.2545179625717754e+17
19302.0	5.2534450638028794e+17
19303.0	5.25230615507763e+17
19304.0	5.2512871132692474e+17
19305.0	5.250236656822953e+17
19306.0	5.2491763269850445e+17
19307.0	5.2480542262340256e+17
19308.0	5.247005404168191e+17
19309.0	5.2458495078126925e+17
19310.0	5.244722773753855e+17
19311.0	5.2437530464747514e+17
19312.0	5.242702027292672e+17
19313.0	5.2416291823506765e+17
19314.0	5.234043054456832e+17
19315.0	5.233466162195122e+17
19316.0	5.2383350333112314e+17
19317.0	5.237246606529876e+17
19318.0	5.236143409506985e+17
19319.0	5.235061929891156e+17
19320.0	5.2339511376827725e+17
19321.0	5.2328388187477325e+17
19322.0	5.231645607067647e+17
19323.0	5.230571849165481e+17
19324.0	5.229494333166932e+17
19325.0	5.228285940203519e+17
19326.0	5.227251364790271e+17
19327.0	5.226102624616447e+17
19328.0	5.2249694823601485e+17
19329.0	5.223850998497279e+17
19330.0	5.2226610059455136e+17
19331.0	5.221508840423423e+17
19332.0	5.22040730853922e+17
19333.0	5.219240284695209e+17
19334.0	5.218092365905919e+17
19335.0	5.216892034394794e+17
19336.0	5.2157537345426765e+17
19337.0	5.2145738943037434e+17
19338.0	5.213152727094612e+17
19339.0	5.2122061139258016e+17
19340.0	5.2108244696432634e+17
19341.0	5.2097526544029e+17
19342.0	5.2081488357403296e+17
19343.0	5.207393088569343e+17
19344.0	5.2061583323081376e+17
19345.0	5.2024458412905754e+17
19346.0	5.202709601495721e+17
19347.0	5.202379371358889e+17
19348.0	5.2012334455630496e+17
19349.0	5.1999344416522234e+17
19350.0	5.19867170169378e+17
19351.0	5.1973906997357203e+17
19352.0	5.1960467147106976e+17
19353.0	5.1948623970522445e+17
19354.0	5.1935632498360314e+17
19355.0	5.1921390962824525e+17
19356.0	5.19092665791283e+17
19357.0	5.1895966007732896e+17
19358.0	5.1882465081425914e+17
19359.0	5.1868265300186445e+17
19360.0	5.1854652155275936e+17
19361.0	5.1841021876633594e+17
19362.0	5.182756747913897e+17
19363.0	5.181348882240854e+17
19364.0	5.1799258954028365e+17
19365.0	5.178491883836757e+17
19366.0	5.177040723858773e+17
19367.0	5.1755752382354765e+17
19368.0	5.174094185452885e+17
19369.0	5.1725339253364045e+17
19370.0	5.170980390786389e+17
19371.0	5.1694816848773114e+17
19372.0	5.167988653861546e+17
19373.0	5.166393374102868e+17
19374.0	5.1648217502187514e+17
19375.0	5.1632160266431136e+17
19376.0	5.1615897719493965e+17
19377.0	5.1599243857974605e+17
19378.0	5.15825333314082e+17
19379.0	5.156557183167145e+17
19380.0	5.1548339715440634e+17
19381.0	5.1530789125707085e+17
19382.0	5.1512253482707616e+17
19383.0	5.1493752142124365e+17
19384.0	5.1476658347048954e+17
19385.0	5.1458096832184314e+17
19386.0	5.1439240227061754e+17
19387.0	5.142002135990271e+17
19388.0	5.1400484200994125e+17
19389.0	5.1380646415346336e+17
19390.0	5.1360543298027514e+17
19391.0	5.130135969027407e+17
19392.0	5.1318917983546016e+17
19393.0	5.129821778608127e+17
19394.0	5.127659649149609e+17
19395.0	5.125465015932244e+17
19396.0	5.1232472259624954e+17
19397.0	5.120988728175274e+17
19398.0	5.1186486602629114e+17
19399.0	5.115419169215827e+17
19400.0	5.113865687793664e+17
19401.0	5.1115020339118074e+17
19402.0	5.109054684790782e+17
19403.0	5.1065450600420685e+17
19404.0	5.104034808943957e+17
19405.0	5.101439908402517e+17
19406.0	5.098833370065578e+17
19407.0	5.096160144392191e+17
19408.0	5.09223138946799e+17
19409.0	5.0904003457843194e+17
19410.0	5.087613759258623e+17
19411.0	5.0847596968673274e+17
19412.0	5.081829710583124e+17
19413.0	5.078834295253674e+17
19414.0	5.07577533412147e+17
19415.0	5.0727579909707085e+17
19416.0	5.069530730594302e+17
19417.0	5.06657392103697e+17
19418.0	5.0633670820276896e+17
19419.0	5.059754850254847e+17
19420.0	5.056513411732821e+17
19421.0	5.0531423384589645e+17
19422.0	5.049648742574762e+17
19423.0	5.0452346353745914e+17
19424.0	5.041463371672234e+17
19425.0	5.0372328204970656e+17
19426.0	5.032220358781609e+17
19427.0	5.0269614859004576e+17
19428.0	5.021044273665364e+17
19429.0	5.0135531928944646e+17
19430.0	5.004143543102124e+17
19431.0	4.991865633199442e+17
19432.0	4.9752358057410515e+17
19433.0	4.9501065707519904e+17
19434.0	4.9317590052372474e+17
19435.0	4.919447512940542e+17
19436.0	4.905876664789675e+17
19437.0	4.891385079529472e+17
19438.0	4.8687006847685965e+17
19439.0	4.8586395022786566e+17
19440.0	4.8412232637917856e+17
19441.0	4.821780847220051e+17
19442.0	4.798209406795778e+17
19443.0	4.759071840272393e+17
19444.0	4.6834529389772736e+17
19445.0	4.6282878183888237e+17
19446.0	4.575298735570942e+17
19447.0	4.513784125893286e+17
19448.0	4.3907523689840576e+17
19449.0	4.218503845729615e+17
19450.0	3.7573577772018445e+17
19451.0	3.5447939401427616e+17
19452.0	4.045553830024528e+17
19453.0	4.3061568014909523e+17
19454.0	4.464572731752429e+17
19455.0	4.5408647538278374e+17
19456.0	4.5953330362449926e+17
19457.0	4.643787875112275e+17
19458.0	4.695451134940542e+17
19459.0	4.768820542920029e+17
19460.0	4.79586914035302e+17
19461.0	4.81506013356578e+17
19462.0	4.83123782344158e+17
19463.0	4.846800808706046e+17
19464.0	4.861257970614272e+17
19465.0	4.874774094282751e+17
19466.0	4.8868929575758483e+17
19467.0	4.8978482000035834e+17
19468.0	4.9091024375862624e+17
19469.0	4.9319876066891085e+17
19470.0	4.9509071976748346e+17
19471.0	4.963029105333593e+17
19472.0	4.971638617538561e+17
19473.0	4.9777364344067405e+17
19474.0	4.9823231651785363e+17
19475.0	4.98562994816068e+17
19476.0	4.989162149117951e+17
19477.0	4.9924606161933645e+17
19478.0	4.994344608071679e+17
19479.0	4.9966903040409574e+17
19480.0	4.9987050568417274e+17
19481.0	5.0002501356748794e+17
19482.0	5.0017307739204256e+17
19483.0	5.0031636453348685e+17
19484.0	5.0049307873989965e+17
19485.0	5.006107307147262e+17
19486.0	5.00731927925009e+17
19487.0	5.008556430458878e+17
19488.0	5.009730091089919e+17
19489.0	5.0107663589048314e+17
19490.0	5.010173103964157e+17
19491.0	5.0129100502029645e+17
19492.0	5.013903988402858e+17
19493.0	5.01480347087667e+17
19494.0	5.0156475046516045e+17
19495.0	5.016712188177066e+17
19496.0	5.016953722066259e+17
19497.0	5.0181450854563834e+17
19498.0	5.018486359894698e+17
19499.0	5.0131483810420006e+17
19500.0	5.020026956414975e+17
19501.0	5.020576308177578e+17
19502.0	5.021082966119766e+17
19503.0	5.021561040579241e+17
19504.0	5.0219863087513594e+17
19505.0	5.0223676604634445e+17
19506.0	5.022721326273876e+17
19507.0	5.022996281775445e+17
19508.0	5.023292412919807e+17
19509.0	5.023518114709503e+17
19510.0	5.0234658851389434e+17
19511.0	5.012859979999907e+17
19512.0	5.0230707663230266e+17
19513.0	5.021953284898812e+17
19514.0	5.022858406614355e+17
19515.0	5.0235853018671795e+17
19516.0	5.024151284744191e+17
19517.0	5.0240549527661216e+17
19518.0	5.0240784261884576e+17
19519.0	5.023982498261674e+17
19520.0	5.023828586878292e+17
19521.0	5.0237326638448634e+17
19522.0	5.0235224628046496e+17
19523.0	5.0233665591268685e+17
19524.0	5.0231403700988576e+17
19525.0	5.0228929830584314e+17
19526.0	5.0226425139036154e+17
19527.0	5.022348660266324e+17
19528.0	5.0220363684686496e+17
19529.0	5.021707781799935e+17
19530.0	5.021382421949098e+17
19531.0	5.0210213937370445e+17
19532.0	5.020642211878228e+17
19533.0	5.020245448895145e+17
19534.0	5.019828714733566e+17
19535.0	5.0193837060696736e+17
19536.0	5.018908432007168e+17
19537.0	5.01849509732898e+17
19538.0	5.017894672225621e+17
19539.0	5.0168337202326195e+17
19540.0	5.0169951079628794e+17
19541.0	5.016507055254187e+17
19542.0	5.015974052189524e+17
19543.0	5.0154234854768634e+17
19544.0	5.0148837869049165e+17
19545.0	5.0137558113320934e+17
19546.0	5.012631113607851e+17
19547.0	5.0131684004549965e+17
19548.0	5.012573281146196e+17
19549.0	5.0118566130046285e+17
19550.0	5.011355197243392e+17
19551.0	5.0107368708505594e+17
19552.0	5.010105527435264e+17
19553.0	5.0094399661888845e+17
19554.0	5.008771680043008e+17
19555.0	5.008150604982953e+17
19556.0	5.0075068673993376e+17
19557.0	5.006832825969322e+17
19558.0	5.006156706261674e+17
19559.0	5.0054755568844794e+17
19560.0	5.0047554878614176e+17
19561.0	5.004063073981781e+17
19562.0	5.00338591338769e+17
19563.0	5.002689031176191e+17
19564.0	5.0019768858924365e+17
19565.0	5.001259119542271e+17
19566.0	5.0004993717043194e+17
19567.0	4.9998073262243834e+17
19568.0	4.999047373564587e+17
19569.0	4.9983113081651194e+17
19570.0	4.997595501253972e+17
19571.0	4.9968425153331194e+17
19572.0	4.9960586481500154e+17
19573.0	4.9953191734804474e+17
19574.0	4.994480590902613e+17
19575.0	4.9938212428185594e+17
19576.0	4.9930505045060256e+17
19577.0	4.992252461973504e+17
19578.0	4.9914598867162445e+17
19579.0	4.990701872523945e+17
19580.0	4.989986180956159e+17
19581.0	4.989215606221481e+17
19582.0	4.9884509119010125e+17
19583.0	4.987661620084735e+17
19584.0	4.9868645646117536e+17
19585.0	4.9859452011369805e+17
19586.0	4.985115687343444e+17
19587.0	4.9844579911161165e+17
19588.0	4.983103121872213e+17
19589.0	4.982843030284971e+17
19590.0	4.981925698950483e+17
19591.0	4.9812418645196794e+17
19592.0	4.9804349007025485e+17
19593.0	4.9796016085401594e+17
19594.0	4.9785231320459936e+17
19595.0	4.9779489744704845e+17
19596.0	4.9770502225046176e+17
19597.0	4.9763301898321914e+17
19598.0	4.9749580540368205e+17
19599.0	4.9746907153913165e+17
19600.0	4.9738736188347725e+17
19601.0	4.9729647250418336e+17
19602.0	4.972158233083903e+17
19603.0	4.970845058717012e+17
19604.0	4.9704954676729165e+17
19605.0	4.96936117338112e+17
19606.0	4.9688684880636576e+17
19607.0	4.9680401801325216e+17
19608.0	4.967179724259327e+17
19609.0	4.9662969274258765e+17
19610.0	4.965511670530047e+17
19611.0	4.964652029050879e+17
19612.0	4.9638325270609914e+17
19613.0	4.9629749925205325e+17
19614.0	4.9620957671369376e+17
19615.0	4.961293534494719e+17
19616.0	4.960404901986302e+17
19617.0	4.959572499715412e+17
19618.0	4.958038369413801e+17
19619.0	4.957006075002878e+17
19620.0	4.9562058031977805e+17
19621.0	4.956175085513385e+17
19622.0	4.9553363826988365e+17
19623.0	4.9544819323699194e+17
19624.0	4.953615773641385e+17
19625.0	4.9527701774882125e+17
19626.0	4.951907912471892e+17
19627.0	4.9510548665357645e+17
19628.0	4.9501246635813536e+17
19629.0	4.949201075044351e+17
19630.0	4.948346642191702e+17
19631.0	4.9445646592464205e+17
19632.0	4.946749045779113e+17
19633.0	4.9458503210762234e+17
19634.0	4.945031732745556e+17
19635.0	4.944126894844587e+17
19636.0	4.943283126009856e+17
19637.0	4.9420402761400326e+17
19638.0	4.941564487576234e+17
19639.0	4.940698368693587e+17
19640.0	4.939730267406336e+17
19641.0	4.9375861965236934e+17
19642.0	4.938105177331028e+17
19643.0	4.937233997321555e+17
19644.0	4.936307003708755e+17
19645.0	4.935170871612756e+17
19646.0	4.934630759901866e+17
19647.0	4.9337782662157645e+17
19648.0	4.9329102410219514e+17
19649.0	4.9320325542488736e+17
19650.0	4.931171884466175e+17
19651.0	4.930295221802325e+17
19652.0	4.9294226695563936e+17
19653.0	4.9285595013666125e+17
19654.0	4.927682053668862e+17
