# Flux units: erg / (cm m2 s)
# Wavelength units: Angstrom
wave	flux
19000.0	8.216341148336127e+17
19001.0	8.21486456877875e+17
19002.0	8.213483577409533e+17
19003.0	8.212050530533373e+17
19004.0	8.210652185930409e+17
19005.0	8.20936533431637e+17
19006.0	8.207926590177279e+17
19007.0	8.20643276923426e+17
19008.0	8.205021387336361e+17
19009.0	8.203529328001021e+17
19010.0	8.201998878201172e+17
19011.0	8.200649665675263e+17
19012.0	8.198977034562216e+17
19013.0	8.19780413240115e+17
19014.0	8.196334614653609e+17
19015.0	8.19495008608802e+17
19016.0	8.193501531471871e+17
19017.0	8.192055006898857e+17
19018.0	8.190590404875603e+17
19019.0	8.189135372855978e+17
19020.0	8.187667311930024e+17
19021.0	8.186220633565866e+17
19022.0	8.184756934716076e+17
19023.0	8.183267101158058e+17
19024.0	8.1818063760698e+17
19025.0	8.18029979325781e+17
19026.0	8.178797218802345e+17
19027.0	8.177142156230653e+17
19028.0	8.175909054622378e+17
19029.0	8.174445541720063e+17
19030.0	8.17297787645679e+17
19031.0	8.171493947080703e+17
19032.0	8.169999919218688e+17
19033.0	8.168438811852799e+17
19034.0	8.166883745682774e+17
19035.0	8.164451196163411e+17
19036.0	8.146555149571411e+17
19037.0	8.161756203450365e+17
19038.0	8.160959945594195e+17
19039.0	8.159592821992106e+17
19040.0	8.158459146360146e+17
19041.0	8.157153477700266e+17
19042.0	8.155615218106365e+17
19043.0	8.154185834255702e+17
19044.0	8.15269385461214e+17
19045.0	8.151186326683645e+17
19046.0	8.149687300609364e+17
19047.0	8.148182777200637e+17
19048.0	8.146633169218217e+17
19049.0	8.145103997282988e+17
19050.0	8.143518785252009e+17
19051.0	8.139689918376616e+17
19052.0	8.139523273086292e+17
19053.0	8.139087683431081e+17
19054.0	8.137686233645053e+17
19055.0	8.136081982270122e+17
19056.0	8.134704132434604e+17
19057.0	8.133210310093481e+17
19058.0	8.131677475132756e+17
19059.0	8.130207036036434e+17
19060.0	8.128697170482515e+17
19061.0	8.127196107374591e+17
19062.0	8.125686258597885e+17
19063.0	8.12417512636416e+17
19064.0	8.122627485510313e+17
19065.0	8.12106880245214e+17
19066.0	8.119611265034918e+17
19067.0	8.118133252423679e+17
19068.0	8.116620249530367e+17
19069.0	8.115105849933821e+17
19070.0	8.113581010714624e+17
19071.0	8.112061935867219e+17
19072.0	8.110554634431145e+17
19073.0	8.109038910832637e+17
19074.0	8.107521628351145e+17
19075.0	8.10600173281826e+17
19076.0	8.104475534644566e+17
19077.0	8.102952294853288e+17
19078.0	8.101428958593024e+17
19079.0	8.099913848761e+17
19080.0	8.098387041015124e+17
19081.0	8.096839580516352e+17
19082.0	8.095321501117097e+17
19083.0	8.093738387636224e+17
19084.0	8.092138853455187e+17
19085.0	8.090717092052991e+17
19086.0	8.088910310320809e+17
19087.0	8.087436564714836e+17
19088.0	8.085949191815167e+17
19089.0	8.084369354085715e+17
19090.0	8.083000515013289e+17
19091.0	8.081508532573523e+17
19092.0	8.079939496574975e+17
19093.0	8.078490400893609e+17
19094.0	8.076975967742633e+17
19095.0	8.075450867078483e+17
19096.0	8.073918476713983e+17
19097.0	8.072389487930025e+17
19098.0	8.070850579617108e+17
19099.0	8.069314234023935e+17
19100.0	8.06774863316036e+17
19101.0	8.066228725044564e+17
19102.0	8.064675103113215e+17
19103.0	8.063165122914986e+17
19104.0	8.061618955659948e+17
19105.0	8.060045022112425e+17
19106.0	8.058479078714026e+17
19107.0	8.056915870001833e+17
19108.0	8.055247874992808e+17
19109.0	8.052901477875711e+17
19110.0	8.05194452365039e+17
19111.0	8.050718378994344e+17
19112.0	8.049246632673279e+17
19113.0	8.047730415545002e+17
19114.0	8.0461891122845e+17
19115.0	8.044604444114943e+17
19116.0	8.043086858245459e+17
19117.0	8.041531469114025e+17
19118.0	8.039912720826365e+17
19119.0	8.037318141149181e+17
19120.0	8.036735569100799e+17
19121.0	8.035223381300564e+17
19122.0	8.033806599935314e+17
19123.0	8.032263884592467e+17
19124.0	8.030563866072406e+17
19125.0	8.029143885851305e+17
19126.0	8.027552744472573e+17
19127.0	8.025448622937428e+17
19128.0	8.024127540210345e+17
19129.0	8.022888263188479e+17
19130.0	8.021382368242345e+17
19131.0	8.019818916260521e+17
19132.0	8.018268894440105e+17
19133.0	8.016645131162964e+17
19134.0	8.015009460256765e+17
19135.0	8.013591775718057e+17
19136.0	8.012027354852009e+17
19137.0	8.010419959147178e+17
19138.0	8.00889497312734e+17
19139.0	8.007343658063187e+17
19140.0	8.005781699253586e+17
19141.0	8.004217081255255e+17
19142.0	8.00263796354799e+17
19143.0	8.001066679402493e+17
19144.0	7.999498943638186e+17
19145.0	7.997942909982034e+17
19146.0	7.996074550274728e+17
19147.0	7.994776880152573e+17
19148.0	7.993217598707028e+17
19149.0	7.991644502622207e+17
19150.0	7.9900798119226e+17
19151.0	7.988503990938281e+17
19152.0	7.986897963974655e+17
19153.0	7.985315529971028e+17
19154.0	7.983710123764394e+17
19155.0	7.9821366362112e+17
19156.0	7.980480957076822e+17
19157.0	7.978731505887914e+17
19158.0	7.976884393126568e+17
19159.0	7.975576437172906e+17
19160.0	7.974031823208447e+17
19161.0	7.972247866878633e+17
19162.0	7.969415934334292e+17
19163.0	7.96878251893282e+17
19164.0	7.96769719104307e+17
19165.0	7.966176142076586e+17
19166.0	7.964573741787817e+17
19167.0	7.962925388704426e+17
19168.0	7.961308937497257e+17
19169.0	7.959713975107583e+17
19170.0	7.958134663064234e+17
19171.0	7.956518122378582e+17
19172.0	7.954935935838889e+17
19173.0	7.95336407148134e+17
19174.0	7.951763341923667e+17
19175.0	7.950182058557437e+17
19176.0	7.948580046940841e+17
19177.0	7.946893583013202e+17
19178.0	7.945321994081622e+17
19179.0	7.943700751581181e+17
19180.0	7.942141807078057e+17
19181.0	7.940517560057855e+17
19182.0	7.938940849881085e+17
19183.0	7.937342270603263e+17
19184.0	7.935724140276394e+17
19185.0	7.934114355216383e+17
19186.0	7.932496466761044e+17
19187.0	7.930840344428544e+17
19188.0	7.929241372284244e+17
19189.0	7.927597412035242e+17
19190.0	7.925946777250473e+17
19191.0	7.924292795411113e+17
19192.0	7.922658686184105e+17
19193.0	7.920974095712256e+17
19194.0	7.919253495742464e+17
19195.0	7.917480324366335e+17
19196.0	7.91556249424145e+17
19197.0	7.913312041828351e+17
19198.0	7.909905823782228e+17
19199.0	7.900075379042985e+17
19200.0	7.899577652172115e+17
19201.0	7.905237494923263e+17
19202.0	7.905222949076991e+17
19203.0	7.904121986220032e+17
19204.0	7.902788830887933e+17
19205.0	7.901220779152723e+17
19206.0	7.899519484166143e+17
19207.0	7.897878499076778e+17
19208.0	7.896261670382249e+17
19209.0	7.894706063147008e+17
19210.0	7.893074505454931e+17
19211.0	7.891430556390739e+17
19212.0	7.889770006271318e+17
19213.0	7.888017798026579e+17
19214.0	7.886328707066538e+17
19215.0	7.884770302230527e+17
19216.0	7.883157941867859e+17
19217.0	7.881487195395412e+17
19218.0	7.879590949158911e+17
19219.0	7.878070730664617e+17
19220.0	7.876497136855721e+17
19221.0	7.8747591011642e+17
19222.0	7.873156235307689e+17
19223.0	7.871504535169704e+17
19224.0	7.869798323060735e+17
19225.0	7.86810447995426e+17
19226.0	7.86645073998643e+17
19227.0	7.864763090468864e+17
19228.0	7.863084009914365e+17
19229.0	7.861386951174825e+17
19230.0	7.859459023962111e+17
19231.0	7.857661241808211e+17
19232.0	7.855969565758803e+17
19233.0	7.854233671958528e+17
19234.0	7.852551997926058e+17
19235.0	7.850831501415764e+17
19236.0	7.849122727985151e+17
19237.0	7.847397068286634e+17
19238.0	7.845559764604246e+17
19239.0	7.843818963468288e+17
19240.0	7.842089537284778e+17
19241.0	7.840348543210834e+17
19242.0	7.838617900679165e+17
19243.0	7.836798812859049e+17
19244.0	7.835144333295615e+17
19245.0	7.833396638121983e+17
19246.0	7.831641569361919e+17
19247.0	7.829889205927933e+17
19248.0	7.828129632485375e+17
19249.0	7.826064583688191e+17
19250.0	7.824189117431805e+17
19251.0	7.822374709056851e+17
19252.0	7.820492524923562e+17
19253.0	7.81885435141598e+17
19254.0	7.81707734364979e+17
19255.0	7.815186699605331e+17
19256.0	7.813471025146538e+17
19257.0	7.811690611605503e+17
19258.0	7.809884705084755e+17
19259.0	7.808022229985961e+17
19260.0	7.805945397990739e+17
19261.0	7.804430879555583e+17
19262.0	7.802590023297705e+17
19263.0	7.800739566277972e+17
19264.0	7.798767818375167e+17
19265.0	7.796845136838655e+17
19266.0	7.79497657860096e+17
19267.0	7.793187947020288e+17
19268.0	7.791334924484608e+17
19269.0	7.789473545497258e+17
19270.0	7.78759152214562e+17
19271.0	7.785624119541757e+17
19272.0	7.783829913731071e+17
19273.0	7.781627732164605e+17
19274.0	7.779557893472253e+17
19275.0	7.777952513829545e+17
19276.0	7.776054887667028e+17
19277.0	7.774155929113939e+17
19278.0	7.772254606371497e+17
19279.0	7.770310380093439e+17
19280.0	7.768388312323412e+17
19281.0	7.766461369374036e+17
19282.0	7.764515220706644e+17
19283.0	7.762520921429331e+17
19284.0	7.760469539072684e+17
19285.0	7.758495042502655e+17
19286.0	7.75650749186048e+17
19287.0	7.75436764324386e+17
19288.0	7.746460236556964e+17
19289.0	7.73979400970785e+17
19290.0	7.748336633948842e+17
19291.0	7.746440767995901e+17
19292.0	7.744600563253248e+17
19293.0	7.742584833878696e+17
19294.0	7.740549202531667e+17
19295.0	7.738456316138838e+17
19296.0	7.736065585228458e+17
19297.0	7.733985744519165e+17
19298.0	7.731901066379263e+17
19299.0	7.729800550547455e+17
19300.0	7.727696423419901e+17
19301.0	7.7255710619293e+17
19302.0	7.72342647374916e+17
19303.0	7.72125159011123e+17
19304.0	7.719108552425472e+17
19305.0	7.716926862830249e+17
19306.0	7.714729624950099e+17
19307.0	7.712486086148096e+17
19308.0	7.710220864192511e+17
19309.0	7.707679283740671e+17
19310.0	7.705265899394386e+17
19311.0	7.703368541667327e+17
19312.0	7.701146305735336e+17
19313.0	7.698328020058111e+17
19314.0	7.685707162189821e+17
19315.0	7.68415172971726e+17
19316.0	7.691255675529897e+17
19317.0	7.689018331714899e+17
19318.0	7.686654701600765e+17
19319.0	7.6842716378781e+17
19320.0	7.681847509123071e+17
19321.0	7.679394313841322e+17
19322.0	7.67687380697088e+17
19323.0	7.674362769440767e+17
19324.0	7.671914445144063e+17
19325.0	7.669342442007209e+17
19326.0	7.666221460400809e+17
19327.0	7.663473843153578e+17
19328.0	7.66093267374353e+17
19329.0	7.658388773841577e+17
19330.0	7.655797729962664e+17
19331.0	7.653184629637117e+17
19332.0	7.650586848307881e+17
19333.0	7.647938865354067e+17
19334.0	7.6452901987287e+17
19335.0	7.642587519254527e+17
19336.0	7.639908030087165e+17
19337.0	7.637202615926783e+17
19338.0	7.63374603687253e+17
19339.0	7.630916837616297e+17
19340.0	7.628068715058515e+17
19341.0	7.625159631088298e+17
19342.0	7.622135858069503e+17
19343.0	7.61930895729186e+17
19344.0	7.616297333773651e+17
19345.0	7.61269776949794e+17
19346.0	7.609849428836351e+17
19347.0	7.606768017691987e+17
19348.0	7.603149651749544e+17
19349.0	7.599388117434365e+17
19350.0	7.596216966359721e+17
19351.0	7.593002609759572e+17
19352.0	7.589714907365373e+17
19353.0	7.586464762167296e+17
19354.0	7.583127782293501e+17
19355.0	7.579708023635968e+17
19356.0	7.576317262998186e+17
19357.0	7.572843283174739e+17
19358.0	7.569261537700521e+17
19359.0	7.56474772979712e+17
19360.0	7.561006940509522e+17
19361.0	7.557367591862271e+17
19362.0	7.552912326655997e+17
19363.0	7.548968934309888e+17
19364.0	7.54512145031714e+17
19365.0	7.541213130741076e+17
19366.0	7.537242697717076e+17
19367.0	7.533211040437587e+17
19368.0	7.52911225332258e+17
19369.0	7.524637534934355e+17
19370.0	7.51957542244625e+17
19371.0	7.515252674876756e+17
19372.0	7.5108798431232e+17
19373.0	7.506402922725373e+17
19374.0	7.500993710609748e+17
19375.0	7.496007858956969e+17
19376.0	7.491337765694121e+17
19377.0	7.486592146997247e+17
19378.0	7.481773673239892e+17
19379.0	7.476878796040872e+17
19380.0	7.471906870875476e+17
19381.0	7.466610465964032e+17
19382.0	7.461358284395859e+17
19383.0	7.455747966588242e+17
19384.0	7.450363369444691e+17
19385.0	7.443725087845034e+17
19386.0	7.437803853272403e+17
19387.0	7.432021932507135e+17
19388.0	7.426104145652394e+17
19389.0	7.42002067120674e+17
19390.0	7.413560485347327e+17
19391.0	7.395255378072904e+17
19392.0	7.399632493608957e+17
19393.0	7.394455857048233e+17
19394.0	7.387427187807574e+17
19395.0	7.380296255842985e+17
19396.0	7.372559397945341e+17
19397.0	7.364278213061288e+17
19398.0	7.356737433283241e+17
19399.0	7.348827726719657e+17
19400.0	7.340976439820287e+17
19401.0	7.332856209954131e+17
19402.0	7.32448380175428e+17
19403.0	7.315894184531283e+17
19404.0	7.307112173185705e+17
19405.0	7.29729559900979e+17
19406.0	7.288033866940415e+17
19407.0	7.278611149094911e+17
19408.0	7.268739913351165e+17
19409.0	7.258760115038889e+17
19410.0	7.248311420103338e+17
19411.0	7.237365704338089e+17
19412.0	7.226144801685504e+17
19413.0	7.214496495261012e+17
19414.0	7.202394394503849e+17
19415.0	7.189861607232851e+17
19416.0	7.176820836619603e+17
19417.0	7.162986293974355e+17
19418.0	7.14890982387439e+17
19419.0	7.134557225964883e+17
19420.0	7.119759968916819e+17
19421.0	7.104491481814356e+17
19422.0	7.088460959580159e+17
19423.0	7.071667988376233e+17
19424.0	7.054312071670442e+17
19425.0	7.036138590743209e+17
19426.0	7.017004786166441e+17
19427.0	6.997123083359572e+17
19428.0	6.976466271076352e+17
19429.0	6.955236193905321e+17
19430.0	6.931930588468566e+17
19431.0	6.906683397767168e+17
19432.0	6.883020370520745e+17
19433.0	6.85663508688623e+17
19434.0	6.828646936696147e+17
19435.0	6.798336222123346e+17
19436.0	6.766396755847852e+17
19437.0	6.733344054880938e+17
19438.0	6.685173794646698e+17
19439.0	6.657941470620332e+17
19440.0	6.61847307976704e+17
19441.0	6.574257634366802e+17
19442.0	6.526398739688109e+17
19443.0	6.474021719769087e+17
19444.0	6.416810489763154e+17
19445.0	6.353602631172099e+17
19446.0	6.283309432700927e+17
19447.0	6.204439387963387e+17
19448.0	6.11489058442445e+17
19449.0	6.011633024718163e+17
19450.0	5.88654385683933e+17
19451.0	5.81336491500066e+17
19452.0	5.952616481685504e+17
19453.0	6.06238744947371e+17
19454.0	6.155890040941221e+17
19455.0	6.237370473687721e+17
19456.0	6.309292949547692e+17
19457.0	6.37331637097813e+17
19458.0	6.419137394551483e+17
19459.0	6.482570491461636e+17
19460.0	6.530719860566696e+17
19461.0	6.574279342686205e+17
19462.0	6.614437688857943e+17
19463.0	6.65144232457011e+17
19464.0	6.685931835402922e+17
19465.0	6.717850346935636e+17
19466.0	6.747685546273449e+17
19467.0	6.775806376979114e+17
19468.0	6.802128541231786e+17
19469.0	6.826589126568617e+17
19470.0	6.849760621232128e+17
19471.0	6.871836609828182e+17
19472.0	6.892733539024893e+17
19473.0	6.911740726651561e+17
19474.0	6.92998412313122e+17
19475.0	6.947339381331283e+17
19476.0	6.964278203864403e+17
19477.0	6.980265716307284e+17
19478.0	6.995208220704767e+17
19479.0	7.009550289513129e+17
19480.0	7.023205197108564e+17
19481.0	7.036073035169791e+17
19482.0	7.048330077011968e+17
19483.0	7.060161709473791e+17
19484.0	7.0715076261533e+17
19485.0	7.083080765057706e+17
19486.0	7.093427174899711e+17
19487.0	7.103367047632212e+17
19488.0	7.112874268120403e+17
19489.0	7.121849239819604e+17
19490.0	7.130230233759743e+17
19491.0	7.1387986278045e+17
19492.0	7.146720230812329e+17
19493.0	7.154216734119251e+17
19494.0	7.161284620102313e+17
19495.0	7.167986964103165e+17
19496.0	7.174297369968637e+17
19497.0	7.181026747656874e+17
19498.0	7.18371442270754e+17
19499.0	7.174867324152486e+17
19500.0	7.198632430971561e+17
19501.0	7.204490950912681e+17
19502.0	7.209811794635434e+17
19503.0	7.214875397499561e+17
19504.0	7.219685546961577e+17
19505.0	7.224670447905448e+17
19506.0	7.230201315808598e+17
19507.0	7.234372834951168e+17
19508.0	7.238888712044543e+17
19509.0	7.24266980020497e+17
19510.0	7.245973106808148e+17
19511.0	7.23013024612351e+17
19512.0	7.248648699467091e+17
19513.0	7.250458979248804e+17
19514.0	7.254751920695972e+17
19515.0	7.262223518225748e+17
19516.0	7.265433757417471e+17
19517.0	7.269317720670208e+17
19518.0	7.272208490911062e+17
19519.0	7.275008118925994e+17
19520.0	7.277384352923647e+17
19521.0	7.279817932843689e+17
19522.0	7.282063175931219e+17
19523.0	7.284152613208061e+17
19524.0	7.286145891871402e+17
19525.0	7.288073982661972e+17
19526.0	7.289924576695638e+17
19527.0	7.291698220630015e+17
19528.0	7.294422792972969e+17
19529.0	7.296239698356905e+17
19530.0	7.297810623190356e+17
19531.0	7.299308776849407e+17
19532.0	7.301296421164372e+17
19533.0	7.303099173568511e+17
19534.0	7.30437111582993e+17
19535.0	7.305563216718505e+17
19536.0	7.30668608782336e+17
19537.0	7.307771776423251e+17
19538.0	7.30870771159313e+17
19539.0	7.309577709507923e+17
19540.0	7.311171170336768e+17
19541.0	7.312288039392595e+17
19542.0	7.313050898006016e+17
19543.0	7.314638767827626e+17
19544.0	7.315442660715177e+17
19545.0	7.315920473030656e+17
19546.0	7.31642733928994e+17
19547.0	7.317232916889599e+17
19548.0	7.317738852013396e+17
19549.0	7.318145352772264e+17
19550.0	7.318602573851305e+17
19551.0	7.318972384236883e+17
19552.0	7.319300591321084e+17
19553.0	7.31994230165777e+17
19554.0	7.320710103957503e+17
19555.0	7.321343508174164e+17
19556.0	7.321695501156351e+17
19557.0	7.321861476756138e+17
19558.0	7.321995735029075e+17
19559.0	7.322098178108074e+17
19560.0	7.322153829531645e+17
19561.0	7.322198319912275e+17
19562.0	7.32220301054225e+17
19563.0	7.32212164104465e+17
19564.0	7.322695958702761e+17
19565.0	7.322597395354963e+17
19566.0	7.322434130673663e+17
19567.0	7.322262284446377e+17
19568.0	7.32205418684962e+17
19569.0	7.321852920375978e+17
19570.0	7.321623698866175e+17
19571.0	7.321372335625556e+17
19572.0	7.32108888875554e+17
19573.0	7.32081249670485e+17
19574.0	7.32046712513058e+17
19575.0	7.320213245307561e+17
19576.0	7.320448593297407e+17
19577.0	7.320351504946516e+17
19578.0	7.319984285242708e+17
19579.0	7.319596337288531e+17
19580.0	7.319190739703126e+17
19581.0	7.318773855245651e+17
19582.0	7.318340596225364e+17
19583.0	7.317886671869267e+17
19584.0	7.317406182189736e+17
19585.0	7.316872382906368e+17
19586.0	7.316344592662527e+17
19587.0	7.315864207840595e+17
19588.0	7.315223361530538e+17
19589.0	7.315039256750761e+17
19590.0	7.314688289974953e+17
19591.0	7.314142443252394e+17
19592.0	7.313535351302825e+17
19593.0	7.312901403224748e+17
19594.0	7.312154326379177e+17
19595.0	7.311607528947711e+17
19596.0	7.310243142828032e+17
19597.0	7.310259165069311e+17
19598.0	7.309466027775318e+17
19599.0	7.308873048260607e+17
19600.0	7.308155321756329e+17
19601.0	7.307392777715711e+17
19602.0	7.306621246679722e+17
19603.0	7.305647474693458e+17
19604.0	7.305053034162857e+17
19605.0	7.304254975552169e+17
19606.0	7.303702803819177e+17
19607.0	7.303128493151572e+17
19608.0	7.302321994203135e+17
19609.0	7.30149090824465e+17
19610.0	7.300681034279594e+17
19611.0	7.299845162620246e+17
19612.0	7.299011350364157e+17
19613.0	7.298154322635433e+17
19614.0	7.297259576928938e+17
19615.0	7.296379934911145e+17
19616.0	7.295377416563369e+17
19617.0	7.294587978645501e+17
19618.0	7.293474505577811e+17
19619.0	7.292503440315731e+17
19620.0	7.291671365899603e+17
19621.0	7.29101870703138e+17
19622.0	7.290107185506986e+17
19623.0	7.289164714213373e+17
19624.0	7.288208791786836e+17
19625.0	7.287235808329727e+17
19626.0	7.286234423842131e+17
19627.0	7.285147106454185e+17
19628.0	7.283823487571283e+17
19629.0	7.282596852181674e+17
19630.0	7.27787106415411e+17
19631.0	7.2700911419392e+17
19632.0	7.279137401427284e+17
19633.0	7.279213953067689e+17
19634.0	7.278514055151615e+17
19635.0	7.277698997026815e+17
19636.0	7.276854859792383e+17
19637.0	7.2756723988125e+17
19638.0	7.274884831554217e+17
19639.0	7.273872952918016e+17
19640.0	7.272804256841727e+17
19641.0	7.271610578894847e+17
19642.0	7.270810494435327e+17
19643.0	7.26977609797905e+17
19644.0	7.268805789089791e+17
19645.0	7.268106704868692e+17
19646.0	7.267129803931647e+17
19647.0	7.266092822386003e+17
19648.0	7.265059863177897e+17
19649.0	7.264297689634132e+17
19650.0	7.263232968359935e+17
19651.0	7.262163452996264e+17
19652.0	7.261089729347583e+17
19653.0	7.260003695416659e+17
19654.0	7.258929824967338e+17
19655.0	7.257839289150122e+17
19656.0	7.256745874642259e+17
19657.0	7.255651474472957e+17
19658.0	7.254551411993258e+17
19659.0	7.253447255872851e+17
19660.0	7.252340138573824e+17
19661.0	7.251228462066345e+17
19662.0	7.250110399031977e+17
19663.0	7.249024212708008e+17
19664.0	7.247947121033215e+17
19665.0	7.246855613535572e+17
19666.0	7.245756048779945e+17
