# Flux units: erg / (cm m2 s)
# Wavelength units: Angstrom
wave	flux
19000.0	5.759459025835349e+17
19001.0	5.7583072203243514e+17
19002.0	5.7573191814130336e+17
19003.0	5.7562331950175565e+17
19004.0	5.7551527059565216e+17
19005.0	5.75410124427537e+17
19006.0	5.7530377323588256e+17
19007.0	5.751675811790848e+17
19008.0	5.7508479694274534e+17
19009.0	5.749724869033982e+17
19010.0	5.748384655387305e+17
19011.0	5.747560815788031e+17
19012.0	5.745499918652755e+17
19013.0	5.7455409130810016e+17
19014.0	5.744427955912702e+17
19015.0	5.743372464903508e+17
19016.0	5.742289320848042e+17
19017.0	5.7412597100926285e+17
19018.0	5.740127651364863e+17
19019.0	5.7391208457393485e+17
19020.0	5.738038319644671e+17
19021.0	5.736986143533737e+17
19022.0	5.7359218647586125e+17
19023.0	5.7348536132785485e+17
19024.0	5.7337946375017805e+17
19025.0	5.7326435904607565e+17
19026.0	5.731552339514708e+17
19027.0	5.729600067163476e+17
19028.0	5.729544357019647e+17
19029.0	5.7284638847358285e+17
19030.0	5.7274129906838176e+17
19031.0	5.7263510712046925e+17
19032.0	5.725279116154196e+17
19033.0	5.724140045948243e+17
19034.0	5.723134525177855e+17
19035.0	5.721923639399764e+17
19036.0	5.651319292078769e+17
19037.0	5.719900676248917e+17
19038.0	5.718858325295103e+17
19039.0	5.7178137345829536e+17
19040.0	5.7167481136305485e+17
19041.0	5.715672183078911e+17
19042.0	5.714459532896937e+17
19043.0	5.713552957156011e+17
19044.0	5.7124640948660896e+17
19045.0	5.7113870772906656e+17
19046.0	5.71031194645299e+17
19047.0	5.7092655396072096e+17
19048.0	5.708033199265108e+17
19049.0	5.7069503879577594e+17
19050.0	5.7060520589175456e+17
19051.0	5.6955470708298995e+17
19052.0	5.70153708639573e+17
19053.0	5.702828980961279e+17
19054.0	5.7018328617233043e+17
19055.0	5.700543994746196e+17
19056.0	5.699676124741631e+17
19057.0	5.698630395275945e+17
19058.0	5.6974236024395085e+17
19059.0	5.6964834820532896e+17
19060.0	5.695426715975679e+17
19061.0	5.694391632352596e+17
19062.0	5.693324245598207e+17
19063.0	5.6922627728124576e+17
19064.0	5.691092398418602e+17
19065.0	5.6899991551781536e+17
19066.0	5.689003672775338e+17
19067.0	5.6880113095365965e+17
19068.0	5.686952658119337e+17
19069.0	5.6858907078819834e+17
19070.0	5.684809725990228e+17
19071.0	5.683730630836224e+17
19072.0	5.682663080503977e+17
19073.0	5.681641330573311e+17
19074.0	5.6805847133934925e+17
19075.0	5.6795237886634656e+17
19076.0	5.6784467207563936e+17
19077.0	5.677387578605567e+17
19078.0	5.676313613784404e+17
19079.0	5.6752790041176723e+17
19080.0	5.674206295490558e+17
19081.0	5.67312956662306e+17
19082.0	5.6720661917204474e+17
19083.0	5.6709579510469965e+17
19084.0	5.6698007271942816e+17
19085.0	5.6689175493782176e+17
19086.0	5.667476595539967e+17
19087.0	5.664836666348887e+17
19088.0	5.66555070116659e+17
19089.0	5.6635350053464723e+17
19090.0	5.6635878941218125e+17
19091.0	5.6625292154415776e+17
19092.0	5.660954952641192e+17
19093.0	5.660453431323305e+17
19094.0	5.659394957464917e+17
19095.0	5.6583367184875514e+17
19096.0	5.6572609578052256e+17
19097.0	5.656221303788884e+17
19098.0	5.655133388013566e+17
19099.0	5.654069681760937e+17
19100.0	5.652947880902656e+17
19101.0	5.6519571114994336e+17
19102.0	5.650851602715989e+17
19103.0	5.649887940400468e+17
19104.0	5.6488317887883936e+17
19105.0	5.6476990932254714e+17
19106.0	5.6463526356582394e+17
19107.0	5.6456279130548896e+17
19108.0	5.644575365748052e+17
19109.0	5.638285112814243e+17
19110.0	5.6422466860701e+17
19111.0	5.64139981484851e+17
19112.0	5.640359354826751e+17
19113.0	5.639333607724373e+17
19114.0	5.638264810285737e+17
19115.0	5.6370352423785805e+17
19116.0	5.636156660121599e+17
19117.0	5.6350985448762016e+17
19118.0	5.63365911007505e+17
19119.0	5.628242542548303e+17
19120.0	5.631398268370942e+17
19121.0	5.6304752530554854e+17
19122.0	5.629856118560084e+17
19123.0	5.6288030329842336e+17
19124.0	5.6274509907012256e+17
19125.0	5.6266315096828576e+17
19126.0	5.6256260322536096e+17
19127.0	5.6230931235252896e+17
19128.0	5.621746913421992e+17
19129.0	5.6224300229372576e+17
19130.0	5.621420106536277e+17
19131.0	5.620330528418474e+17
19132.0	5.619334168707071e+17
19133.0	5.617866936156158e+17
19134.0	5.616459575896747e+17
19135.0	5.6161591386002765e+17
19136.0	5.615135974490111e+17
19137.0	5.613951035375615e+17
19138.0	5.612951882956799e+17
19139.0	5.6119833489571834e+17
19140.0	5.6109367086284794e+17
19141.0	5.6098867589939194e+17
19142.0	5.6088001819006285e+17
19143.0	5.607742382626132e+17
19144.0	5.606707517805909e+17
19145.0	5.605674327212031e+17
19146.0	5.6041270638455456e+17
19147.0	5.6034907508790605e+17
19148.0	5.6024841724450125e+17
19149.0	5.601435207772842e+17
19150.0	5.6004407816355834e+17
19151.0	5.5993955282234016e+17
19152.0	5.5982835168706554e+17
19153.0	5.5972408310715725e+17
19154.0	5.5961400387829754e+17
19155.0	5.595189002021545e+17
19156.0	5.5941579043853645e+17
19157.0	5.593015377373866e+17
19158.0	5.588401253602641e+17
19159.0	5.59099258549043e+17
19160.0	5.5898895052090016e+17
19161.0	5.58878007824657e+17
19162.0	5.5797549342829286e+17
19163.0	5.586458291907243e+17
19164.0	5.5857843036050765e+17
19165.0	5.584518983450623e+17
19166.0	5.5833782222411085e+17
19167.0	5.581872295138645e+17
19168.0	5.5815563172468045e+17
19169.0	5.5803903671446176e+17
19170.0	5.5795098023799456e+17
19171.0	5.577950676822698e+17
19172.0	5.577377100857342e+17
19173.0	5.576347917221887e+17
19174.0	5.575294171742207e+17
19175.0	5.5742964775430816e+17
19176.0	5.573254817950377e+17
19177.0	5.572084584065706e+17
19178.0	5.570934149393067e+17
19179.0	5.569420325115222e+17
19180.0	5.56894474416947e+17
19181.0	5.5679338211355296e+17
19182.0	5.5669470733707936e+17
19183.0	5.5659296274950816e+17
19184.0	5.564865257144319e+17
19185.0	5.56385777553681e+17
19186.0	5.562818601768277e+17
19187.0	5.561704809234431e+17
19188.0	5.560702812378453e+17
19189.0	5.55960876732689e+17
19190.0	5.558531900047358e+17
19191.0	5.557488961191934e+17
19192.0	5.556556078776319e+17
19193.0	5.5554651738603514e+17
19194.0	5.5544273576482125e+17
19195.0	5.55342288195857e+17
19196.0	5.552376011642197e+17
19197.0	5.5513195685259936e+17
19198.0	5.5502109231022074e+17
19199.0	5.5037825838830784e+17
19200.0	5.515484002779154e+17
19201.0	5.5471021392308896e+17
19202.0	5.5461236227877536e+17
19203.0	5.544962106763945e+17
19204.0	5.544020481321642e+17
19205.0	5.543014327910399e+17
19206.0	5.541970878048938e+17
19207.0	5.5408493491213645e+17
19208.0	5.5397321228506445e+17
19209.0	5.538848547274751e+17
19210.0	5.537819890723498e+17
19211.0	5.536786730887849e+17
19212.0	5.535745801104043e+17
19213.0	5.53422683181329e+17
19214.0	5.5329588741406714e+17
19215.0	5.532423474031274e+17
19216.0	5.531582042821972e+17
19217.0	5.5305420980005536e+17
19218.0	5.528790481152681e+17
19219.0	5.5283407469062816e+17
19220.0	5.527376765823657e+17
19221.0	5.52610929119505e+17
19222.0	5.5253285970029216e+17
19223.0	5.524290798966101e+17
19224.0	5.5232281566685856e+17
19225.0	5.5221022013521914e+17
19226.0	5.521172280814249e+17
19227.0	5.5201311322275834e+17
19228.0	5.5191107894859085e+17
19229.0	5.518071160635392e+17
19230.0	5.5169683341093536e+17
19231.0	5.5159361270797645e+17
19232.0	5.514933712191487e+17
19233.0	5.5138458243781965e+17
19234.0	5.512854581717674e+17
19235.0	5.5118168053514234e+17
19236.0	5.510793911074815e+17
19237.0	5.509740912181247e+17
19238.0	5.5085629586800634e+17
19239.0	5.507674190555817e+17
19240.0	5.506598325015892e+17
19241.0	5.505565792927743e+17
19242.0	5.5045385393711776e+17
19243.0	5.503390066234709e+17
19244.0	5.502477257058986e+17
19245.0	5.501433578607956e+17
19246.0	5.500382572707838e+17
19247.0	5.4993565417908896e+17
19248.0	5.498303502352383e+17
19249.0	5.497246864201044e+17
19250.0	5.496206447520426e+17
19251.0	5.4950689669556896e+17
19252.0	5.493948559305385e+17
19253.0	5.493094189367294e+17
19254.0	5.492062818402303e+17
19255.0	5.490897414258687e+17
19256.0	5.4899077752203936e+17
19257.0	5.4889424575528954e+17
19258.0	5.4879081289045325e+17
19259.0	5.4868132107386874e+17
19260.0	5.4844695399191866e+17
19261.0	5.484770755259051e+17
19262.0	5.483693690148181e+17
19263.0	5.4826346151062176e+17
19264.0	5.481200787390462e+17
19265.0	5.4804384719394125e+17
19266.0	5.479380590176938e+17
19267.0	5.478526253793279e+17
19268.0	5.477482610294783e+17
19269.0	5.4764386508253856e+17
19270.0	5.475390448817492e+17
19271.0	5.474065856856064e+17
19272.0	5.473275262009343e+17
19273.0	5.470971301462014e+17
19274.0	5.470328768342697e+17
19275.0	5.470167916784298e+17
19276.0	5.469105484901034e+17
19277.0	5.468059896643583e+17
19278.0	5.467013480710143e+17
19279.0	5.465897462398975e+17
19280.0	5.4648611813021005e+17
19281.0	5.4638680386218656e+17
19282.0	5.462831029813247e+17
19283.0	5.4610109032038406e+17
19284.0	5.460148643779924e+17
19285.0	5.459531463830185e+17
19286.0	5.4586047002050554e+17
19287.0	5.457577739550719e+17
19288.0	5.43430695242954e+17
19289.0	5.412502617718735e+17
19290.0	5.454420922509994e+17
19291.0	5.4531679524836685e+17
19292.0	5.4523189792167245e+17
19293.0	5.451259935632041e+17
19294.0	5.4502026515578874e+17
19295.0	5.449155627450367e+17
19296.0	5.448063084658688e+17
19297.0	5.44698560361267e+17
19298.0	5.4459608463660365e+17
19299.0	5.4448827837098656e+17
19300.0	5.443854239006719e+17
19301.0	5.4427965900281165e+17
19302.0	5.441721549367977e+17
19303.0	5.4405977100779514e+17
19304.0	5.4395782872869536e+17
19305.0	5.4385264460212896e+17
19306.0	5.437435274767017e+17
19307.0	5.4363093348297376e+17
19308.0	5.435266582620842e+17
19309.0	5.4324462466280083e+17
19310.0	5.4309370864162106e+17
19311.0	5.431843347584341e+17
19312.0	5.431047168021844e+17
19313.0	5.4299737302848845e+17
19314.0	5.353285698104053e+17
19315.0	5.355818337697828e+17
19316.0	5.426540909166591e+17
19317.0	5.425667123096234e+17
19318.0	5.4245853331019085e+17
19319.0	5.4235164853316256e+17
19320.0	5.422413372893866e+17
19321.0	5.4213165435234976e+17
19322.0	5.420054710233771e+17
19323.0	5.4184292356805965e+17
19324.0	5.418029942833151e+17
19325.0	5.415266091532288e+17
19326.0	5.4158718161387514e+17
19327.0	5.4147771174748154e+17
19328.0	5.413629412595028e+17
19329.0	5.412594972098558e+17
19330.0	5.411460623280811e+17
19331.0	5.410348523847679e+17
19332.0	5.409253693063166e+17
19333.0	5.408128556335102e+17
19334.0	5.4070435297361914e+17
19335.0	5.4058098073709216e+17
19336.0	5.404781794645332e+17
19337.0	5.403690755511636e+17
19338.0	5.402396967916883e+17
19339.0	5.4014263619310925e+17
19340.0	5.400221564185257e+17
19341.0	5.399088932934996e+17
19342.0	5.397622686744575e+17
19343.0	5.396894378011306e+17
19344.0	5.395706934897322e+17
19345.0	5.393014271421095e+17
19346.0	5.3926064515536186e+17
19347.0	5.392178691964926e+17
19348.0	5.3911407618075296e+17
19349.0	5.3899280899549856e+17
19350.0	5.3887405300995405e+17
19351.0	5.3876094507417594e+17
19352.0	5.386327934282409e+17
19353.0	5.3852682161138336e+17
19354.0	5.3840841640946336e+17
19355.0	5.3828112795129165e+17
19356.0	5.381689364709374e+17
19357.0	5.3804855540230816e+17
19358.0	5.379239055108778e+17
19359.0	5.3779627311977805e+17
19360.0	5.376748090818558e+17
19361.0	5.3755640185268896e+17
19362.0	5.3743690480353274e+17
19363.0	5.372938229732694e+17
19364.0	5.3709194713716045e+17
19365.0	5.3696627802985805e+17
19366.0	5.3683958551237965e+17
19367.0	5.367111072699732e+17
19368.0	5.365837987490474e+17
19369.0	5.3644543152619514e+17
19370.0	5.363079647505066e+17
19371.0	5.3618922435379194e+17
19372.0	5.3606117260219725e+17
19373.0	5.3592518229142176e+17
19374.0	5.3579392951691936e+17
19375.0	5.356575861156521e+17
19376.0	5.3552222271351456e+17
19377.0	5.3538426191872e+17
19378.0	5.3524505667392845e+17
19379.0	5.351054219324075e+17
19380.0	5.349638445290836e+17
19381.0	5.348208593076223e+17
19382.0	5.346706535219199e+17
19383.0	5.345211875415379e+17
19384.0	5.343826330430121e+17
19385.0	5.342340868734974e+17
19386.0	5.340837151331668e+17
19387.0	5.3385222471461555e+17
19388.0	5.336427476112725e+17
19389.0	5.334855709622272e+17
19390.0	5.3332477987170976e+17
19391.0	5.27025050886683e+17
19392.0	5.327221103263732e+17
19393.0	5.328352043510443e+17
19394.0	5.326624944466602e+17
19395.0	5.3248037497077754e+17
19396.0	5.3230644445402445e+17
19397.0	5.320072186822656e+17
19398.0	5.317796642684928e+17
19399.0	5.315403303616511e+17
19400.0	5.3140351097678496e+17
19401.0	5.3121160346337274e+17
19402.0	5.3099134161605965e+17
19403.0	5.305728589190483e+17
19404.0	5.3036643345148576e+17
19405.0	5.301522623627262e+17
19406.0	5.2990246108091725e+17
19407.0	5.294267020869632e+17
19408.0	5.291283646687915e+17
19409.0	5.288687521409704e+17
19410.0	5.283596719882239e+17
19411.0	5.2809784479798605e+17
19412.0	5.274291600534184e+17
19413.0	5.270595901412698e+17
19414.0	5.263609099714559e+17
19415.0	5.257206830901924e+17
19416.0	5.249435878206124e+17
19417.0	5.240271510612646e+17
19418.0	5.234235407335424e+17
19419.0	5.2298816093334176e+17
19420.0	5.2254321476457805e+17
19421.0	5.220676789075968e+17
19422.0	5.2156471705599994e+17
19423.0	5.2098475407441914e+17
19424.0	5.2041949967810554e+17
19425.0	5.1983337813005645e+17
19426.0	5.192148589390506e+17
19427.0	5.185381139305813e+17
19428.0	5.1776197412345165e+17
19429.0	5.17032191861282e+17
19430.0	5.159554355909979e+17
19431.0	5.141727699883363e+17
19432.0	5.142167866922323e+17
19433.0	5.129573301048663e+17
19434.0	5.114473336187559e+17
19435.0	5.0923887143157715e+17
19436.0	5.0594707553648544e+17
19437.0	5.024532663020212e+17
19438.0	4.908785723594111e+17
19439.0	4.9700601212873376e+17
19440.0	4.951414232405332e+17
19441.0	4.924338014781438e+17
19442.0	4.894594822395222e+17
19443.0	4.862418308038655e+17
19444.0	4.8259335618996896e+17
19445.0	4.771342692559538e+17
19446.0	4.670872532374886e+17
19447.0	4.587743816450044e+17
19448.0	4.484614645088269e+17
19449.0	4.274213517699758e+17
19450.0	3.7753614115361965e+17
19451.0	3.6011836545433363e+17
19452.0	4.068049623711763e+17
19453.0	4.3950904998625274e+17
19454.0	4.538848771396941e+17
19455.0	4.623918620300628e+17
19456.0	4.7161587241669946e+17
19457.0	4.7937857212033715e+17
19458.0	4.668225256161416e+17
19459.0	4.8488914085042106e+17
19460.0	4.894440209164969e+17
19461.0	4.9213327589157536e+17
19462.0	4.945944836221611e+17
19463.0	4.968431984749225e+17
19464.0	4.988707127951359e+17
19465.0	5.019216236598616e+17
19466.0	5.053322483116719e+17
19467.0	5.075944703612245e+17
19468.0	5.091939550494724e+17
19469.0	5.102902296532309e+17
19470.0	5.112423640640168e+17
19471.0	5.120279936237567e+17
19472.0	5.127374923715922e+17
19473.0	5.133237068234751e+17
19474.0	5.138693847952043e+17
19475.0	5.143551289589759e+17
19476.0	5.1485722161097376e+17
19477.0	5.152700018021717e+17
19478.0	5.156466417729535e+17
19479.0	5.160230970545494e+17
19480.0	5.163690993822377e+17
19481.0	5.1666171898538656e+17
19482.0	5.1693248011304954e+17
19483.0	5.1717947841140045e+17
19484.0	5.175098117281111e+17
19485.0	5.1803857630876986e+17
19486.0	5.1868463397164365e+17
19487.0	5.192842004310697e+17
19488.0	5.195988124478121e+17
19489.0	5.2001255432301216e+17
19490.0	5.201646583808002e+17
19491.0	5.2057436973957114e+17
19492.0	5.2068498024693766e+17
19493.0	5.210201185583103e+17
19494.0	5.2106312059016525e+17
19495.0	5.2114209548970675e+17
19496.0	5.213597138070185e+17
19497.0	5.2141252547706874e+17
19498.0	5.2015039893558515e+17
19499.0	5.1225943280189446e+17
19500.0	5.2165894607994874e+17
19501.0	5.2165725808230394e+17
19502.0	5.216608365925717e+17
19503.0	5.2166565689644365e+17
19504.0	5.2165129287325005e+17
19505.0	5.2165184784957414e+17
19506.0	5.2178707311930016e+17
19507.0	5.217621762200917e+17
19508.0	5.217381086046889e+17
19509.0	5.217093112823807e+17
19510.0	5.216582132651347e+17
19511.0	5.076825529122794e+17
19512.0	5.197714005076649e+17
19513.0	5.1888052810109946e+17
19514.0	5.193838151510671e+17
19515.0	5.213739103376725e+17
19516.0	5.214895368830974e+17
19517.0	5.2151987652089165e+17
19518.0	5.214758165457578e+17
19519.0	5.2142150694993914e+17
19520.0	5.21369300308241e+17
19521.0	5.2132413883897165e+17
19522.0	5.212671320260607e+17
19523.0	5.212133713248255e+17
19524.0	5.211546369480021e+17
19525.0	5.2109948576508576e+17
19526.0	5.2104161527507616e+17
19527.0	5.209810642053802e+17
19528.0	5.209188840680106e+17
19529.0	5.208565067284479e+17
19530.0	5.207942250190164e+17
19531.0	5.2072971005242016e+17
19532.0	5.2066422102862496e+17
19533.0	5.2059781855532365e+17
19534.0	5.2053017687490554e+17
19535.0	5.2046148675829754e+17
19536.0	5.203899646476287e+17
19537.0	5.203235134504959e+17
19538.0	5.2023563523194874e+17
19539.0	5.2013857603147085e+17
19540.0	5.201074357709483e+17
19541.0	5.2003559747966285e+17
19542.0	5.1996265454851405e+17
19543.0	5.1988449809749325e+17
19544.0	5.198143666782207e+17
19545.0	5.1969568087736314e+17
19546.0	5.196357126062078e+17
19547.0	5.1967587299710285e+17
19548.0	5.195984199308628e+17
19549.0	5.195141855139157e+17
19550.0	5.194435525257898e+17
19551.0	5.193653496578047e+17
19552.0	5.192863962191188e+17
19553.0	5.192048439896746e+17
19554.0	5.191243475364522e+17
19555.0	5.1904536271039136e+17
19556.0	5.189659376222207e+17
19557.0	5.188854703893162e+17
19558.0	5.188043008202068e+17
19559.0	5.1872246225960954e+17
19560.0	5.186367704618324e+17
19561.0	5.1855612713806496e+17
19562.0	5.1847396624520525e+17
19563.0	5.183928930751828e+17
19564.0	5.1830967661581645e+17
19565.0	5.182261492187135e+17
19566.0	5.181398510643881e+17
19567.0	5.1805805297882445e+17
19568.0	5.1797195293545805e+17
19569.0	5.1788849872895994e+17
19570.0	5.178044531255977e+17
19571.0	5.177188203976021e+17
19572.0	5.1763182340232525e+17
19573.0	5.1754566400955725e+17
19574.0	5.174557061152768e+17
19575.0	5.1737669164946765e+17
19576.0	5.1729030254865056e+17
19577.0	5.1720098806060365e+17
19578.0	5.171140250391892e+17
19579.0	5.170288307557715e+17
19580.0	5.1694180761599994e+17
19581.0	5.168558928210602e+17
19582.0	5.167700243731796e+17
19583.0	5.166826545741823e+17
19584.0	5.1659166578988365e+17
19585.0	5.1649878789106336e+17
19586.0	5.164055864016896e+17
19587.0	5.163013981427028e+17
19588.0	5.162033360841385e+17
19589.0	5.1615185533665274e+17
19590.0	5.160560012995242e+17
19591.0	5.159771365004628e+17
19592.0	5.1588988917514234e+17
19593.0	5.1579916190569805e+17
19594.0	5.156909502605993e+17
19595.0	5.1561847464482125e+17
19596.0	5.151771214566743e+17
19597.0	5.154204544226645e+17
19598.0	5.153217997788501e+17
19599.0	5.15266750447616e+17
19600.0	5.151781443775147e+17
19601.0	5.1508307921906336e+17
19602.0	5.149936415582889e+17
19603.0	5.148006677129897e+17
19604.0	5.1480195214868474e+17
19605.0	5.147065342492672e+17
19606.0	5.146399406555135e+17
19607.0	5.1455041002100045e+17
19608.0	5.144587805567657e+17
19609.0	5.1436540500377594e+17
19610.0	5.1427762723880954e+17
19611.0	5.141862079791104e+17
19612.0	5.1409987850731514e+17
19613.0	5.140087673891497e+17
19614.0	5.1391608557404154e+17
19615.0	5.138250816902485e+17
19616.0	5.136809945552213e+17
19617.0	5.136439985569791e+17
19618.0	5.1350714834397843e+17
19619.0	5.1340675327371936e+17
19620.0	5.133180376623785e+17
19621.0	5.1328071485794976e+17
19622.0	5.1319495581149856e+17
19623.0	5.131039204704255e+17
19624.0	5.1301180236977485e+17
19625.0	5.129221227675647e+17
19626.0	5.1283170832329363e+17
19627.0	5.1274303325689165e+17
19628.0	5.1253292449136646e+17
19629.0	5.1254210778016403e+17
19630.0	5.1196821318751546e+17
19631.0	5.0735816467196717e+17
19632.0	5.122857229090815e+17
19633.0	5.121870910543189e+17
19634.0	5.121072717015722e+17
19635.0	5.1201219668650656e+17
19636.0	5.1191974562802336e+17
19637.0	5.118013288218624e+17
19638.0	5.1174126247389856e+17
19639.0	5.116488276333908e+17
19640.0	5.115465731582634e+17
19641.0	5.1139271406387206e+17
19642.0	5.1137707888694605e+17
19643.0	5.1128411067077965e+17
19644.0	5.111901283418111e+17
19645.0	5.1108129691839136e+17
19646.0	5.1100760754094074e+17
19647.0	5.109213671981055e+17
19648.0	5.1083053660897274e+17
19649.0	5.1073895607828474e+17
19650.0	5.106478147611306e+17
19651.0	5.105559805449556e+17
19652.0	5.104647996615338e+17
19653.0	5.103709277825706e+17
19654.0	5.1028220587977376e+17
