# Flux units: erg / (cm m2 s)
# Wavelength units: Angstrom
wave	flux
19000.0	6.872085655016787e+17
19001.0	6.870763129449129e+17
19002.0	6.869512154513405e+17
19003.0	6.868220108952916e+17
19004.0	6.866927811734185e+17
19005.0	6.865650790170623e+17
19006.0	6.864363601614163e+17
19007.0	6.862814174685866e+17
19008.0	6.861766487179263e+17
19009.0	6.860482643580244e+17
19010.0	6.859043219264852e+17
19011.0	6.857906516044458e+17
19012.0	6.856191544131583e+17
19013.0	6.855348576408915e+17
19014.0	6.854040402351443e+17
19015.0	6.852761693279572e+17
19016.0	6.851470199270057e+17
19017.0	6.850188069743274e+17
19018.0	6.848882181581481e+17
19019.0	6.847624112679593e+17
19020.0	6.846324084659539e+17
19021.0	6.84504945734451e+17
19022.0	6.843769192884906e+17
19023.0	6.842466212773887e+17
19024.0	6.8411824027293e+17
19025.0	6.839860361603753e+17
19026.0	6.83856439017472e+17
19027.0	6.836927044343123e+17
19028.0	6.836043318471338e+17
19029.0	6.834751059700393e+17
19030.0	6.833474357602985e+17
19031.0	6.832188193155754e+17
19032.0	6.830901705048063e+17
19033.0	6.829582677529939e+17
19034.0	6.828322819058346e+17
19035.0	6.827022329664852e+17
19036.0	6.798348057051124e+17
19037.0	6.824465206520489e+17
19038.0	6.823174859653119e+17
19039.0	6.821898756642131e+17
19040.0	6.820613239515818e+17
19041.0	6.819327648290131e+17
19042.0	6.818009796575231e+17
19043.0	6.81675814146321e+17
19044.0	6.815470586604202e+17
19045.0	6.814171214293673e+17
19046.0	6.812883309210281e+17
19047.0	6.811614987332265e+17
19048.0	6.810257167395497e+17
19049.0	6.809018726438228e+17
19050.0	6.807746618501801e+17
19051.0	6.802203817803767e+17
19052.0	6.804697873296042e+17
19053.0	6.803845476078931e+17
19054.0	6.802625477476351e+17
19055.0	6.801249531854848e+17
19056.0	6.800049709951657e+17
19057.0	6.798765693687124e+17
19058.0	6.797420381863935e+17
19059.0	6.796206655842986e+17
19060.0	6.794910723560787e+17
19061.0	6.793640190585514e+17
19062.0	6.792355180969983e+17
19063.0	6.791073008801108e+17
19064.0	6.789749278769151e+17
19065.0	6.788443405986474e+17
19066.0	6.787203037746516e+17
19067.0	6.785942879382185e+17
19068.0	6.784660676455081e+17
19069.0	6.783378899249834e+17
19070.0	6.78208766808337e+17
19071.0	6.780800956279466e+17
19072.0	6.779529499159209e+17
19073.0	6.778249997363881e+17
19074.0	6.776970570366975e+17
19075.0	6.775689337722195e+17
19076.0	6.774400234465962e+17
19077.0	6.773123403743231e+17
19078.0	6.771835235816788e+17
19079.0	6.770565870955178e+17
19080.0	6.769283514236927e+17
19081.0	6.767989958726995e+17
19082.0	6.766707347554303e+17
19083.0	6.76540394311953e+17
19084.0	6.764077748933972e+17
19085.0	6.762883891331072e+17
19086.0	6.761439459016703e+17
19087.0	6.759479246848e+17
19088.0	6.758997043795284e+17
19089.0	6.757253434572799e+17
19090.0	6.75646956179729e+17
19091.0	6.755197376965289e+17
19092.0	6.75370873528866e+17
19093.0	6.752651475681277e+17
19094.0	6.751367165815466e+17
19095.0	6.750086753157119e+17
19096.0	6.748799545726292e+17
19097.0	6.747537838265684e+17
19098.0	6.746262394459475e+17
19099.0	6.744984794781012e+17
19100.0	6.743664958461268e+17
19101.0	6.742416572809215e+17
19102.0	6.741121403890345e+17
19103.0	6.739879102076244e+17
19104.0	6.738602358035795e+17
19105.0	6.737321790887252e+17
19106.0	6.7358892228608e+17
19107.0	6.734766039280298e+17
19108.0	6.733494010336595e+17
19109.0	6.729619914883067e+17
19110.0	6.730911847896404e+17
19111.0	6.729660109597353e+17
19112.0	6.728394825094484e+17
19113.0	6.72712101147443e+17
19114.0	6.725846184929961e+17
19115.0	6.724499804258303e+17
19116.0	6.72328842355234e+17
19117.0	6.722013979388585e+17
19118.0	6.720573497409535e+17
19119.0	6.718286374196561e+17
19120.0	6.717967050648232e+17
19121.0	6.716766891103572e+17
19122.0	6.715652792385533e+17
19123.0	6.714377890343594e+17
19124.0	6.71295688811042e+17
19125.0	6.711812732310868e+17
19126.0	6.710534243439955e+17
19127.0	6.708673303456426e+17
19128.0	6.706436553135442e+17
19129.0	6.706710592880639e+17
19130.0	6.705463772403028e+17
19131.0	6.704142252769277e+17
19132.0	6.702924592491177e+17
19133.0	6.701345444724736e+17
19134.0	6.699638064502102e+17
19135.0	6.699099085253289e+17
19136.0	6.697839554636457e+17
19137.0	6.696508071433555e+17
19138.0	6.695194778927101e+17
19139.0	6.694023487378772e+17
19140.0	6.692755795345408e+17
19141.0	6.691485605604009e+17
19142.0	6.690196959526911e+17
19143.0	6.688924370643625e+17
19144.0	6.687666558293331e+17
19145.0	6.68639508299776e+17
19146.0	6.684876617722538e+17
19147.0	6.683833809589588e+17
19148.0	6.682578908086272e+17
19149.0	6.681314536543572e+17
19150.0	6.680051123399338e+17
19151.0	6.67878740267281e+17
19152.0	6.677412876823209e+17
19153.0	6.675647882242729e+17
19154.0	6.674341022400511e+17
19155.0	6.673109125256532e+17
19156.0	6.671846307703466e+17
19157.0	6.670544404829524e+17
19158.0	6.667544138088445e+17
19159.0	6.668027224042153e+17
19160.0	6.666736766025727e+17
19161.0	6.665359241947817e+17
19162.0	6.660260841739607e+17
19163.0	6.662924700833108e+17
19164.0	6.661705699076777e+17
19165.0	6.660366754906111e+17
19166.0	6.659039216446121e+17
19167.0	6.657526108695209e+17
19168.0	6.656610441800362e+17
19169.0	6.655289164038143e+17
19170.0	6.654103762152105e+17
19171.0	6.652604263519572e+17
19172.0	6.651553266707114e+17
19173.0	6.650295489309353e+17
19174.0	6.649023352711849e+17
19175.0	6.647777668191572e+17
19176.0	6.646511396629161e+17
19177.0	6.645190456508415e+17
19178.0	6.643904495484927e+17
19179.0	6.642374126075903e+17
19180.0	6.641270965403648e+17
19181.0	6.640137644889428e+17
19182.0	6.638896128109225e+17
19183.0	6.637629443407872e+17
19184.0	6.63633997524719e+17
19185.0	6.635118870047402e+17
19186.0	6.633855880527871e+17
19187.0	6.632555387639124e+17
19188.0	6.631305111754067e+17
19189.0	6.629988979004755e+17
19190.0	6.628707506585599e+17
19191.0	6.627469666112851e+17
19192.0	6.626253747169961e+17
19193.0	6.624903117668351e+17
19194.0	6.623681548298921e+17
19195.0	6.622452754240852e+17
19196.0	6.621193756300628e+17
19197.0	6.619917678455466e+17
19198.0	6.618604522962943e+17
19199.0	6.59431475694796e+17
19200.0	6.60083659977524e+17
19201.0	6.614819656433661e+17
19202.0	6.613600368066559e+17
19203.0	6.612290943407444e+17
19204.0	6.611067160144553e+17
19205.0	6.609824330547197e+17
19206.0	6.608556312756223e+17
19207.0	6.607265010286591e+17
19208.0	6.605957788336127e+17
19209.0	6.604750931187028e+17
19210.0	6.603504439962282e+17
19211.0	6.602239151265108e+17
19212.0	6.600974353301501e+17
19213.0	6.599473279707817e+17
19214.0	6.59809505308399e+17
19215.0	6.597089337977514e+17
19216.0	6.595911530577919e+17
19217.0	6.594651010105343e+17
19218.0	6.593086290045609e+17
19219.0	6.592062381446484e+17
19220.0	6.590830649977514e+17
19221.0	6.589455429970602e+17
19222.0	6.588324542851754e+17
19223.0	6.58705831043618e+17
19224.0	6.585771662245887e+17
19225.0	6.584474765273769e+17
19226.0	6.58325537694242e+17
19227.0	6.581987879944191e+17
19228.0	6.580730059205289e+17
19229.0	6.579463408058365e+17
19230.0	6.578137716490237e+17
19231.0	6.576883225329663e+17
19232.0	6.575652236951551e+17
19233.0	6.574365172826112e+17
19234.0	6.573119430983679e+17
19235.0	6.571852628841812e+17
19236.0	6.570592920666111e+17
19237.0	6.569319125920425e+17
19238.0	6.567987014970026e+17
19239.0	6.566788777814697e+17
19240.0	6.565470818445993e+17
19241.0	6.56422840967714e+17
19242.0	6.562975383027711e+17
19243.0	6.561649281116841e+17
19244.0	6.560407820260691e+17
19245.0	6.558978039349247e+17
19246.0	6.557701763672746e+17
19247.0	6.556435994727766e+17
19248.0	6.555159706468351e+17
19249.0	6.553883040721578e+17
19250.0	6.552614377706835e+17
19251.0	6.551309923297961e+17
19252.0	6.549968221372415e+17
19253.0	6.548795042387284e+17
19254.0	6.547522466785962e+17
19255.0	6.54618563444736e+17
19256.0	6.544928600839508e+17
19257.0	6.543703011229695e+17
19258.0	6.542430241991338e+17
19259.0	6.54112722133538e+17
19260.0	6.539432438005759e+17
19261.0	6.538600584489641e+17
19262.0	6.53730494161442e+17
19263.0	6.536025257366868e+17
19264.0	6.534579392697683e+17
19265.0	6.53341802766882e+17
19266.0	6.532145870099796e+17
19267.0	6.530924562175315e+17
19268.0	6.529642805242537e+17
19269.0	6.528360381415423e+17
19270.0	6.527074547619156e+17
19271.0	6.525674536479401e+17
19272.0	6.524495454011391e+17
19273.0	6.52183465186645e+17
19274.0	6.521164492963837e+17
19275.0	6.520648495704745e+17
19276.0	6.519353318397267e+17
19277.0	6.518062666743808e+17
19278.0	6.516777941641897e+17
19279.0	6.515433514816852e+17
19280.0	6.514169571093162e+17
19281.0	6.512897074484563e+17
19282.0	6.511620584898559e+17
19283.0	6.509966501696852e+17
19284.0	6.50849842049843e+17
19285.0	6.507670897601193e+17
19286.0	6.506434962740564e+17
19287.0	6.505146232078333e+17
19288.0	6.496886429756068e+17
19289.0	6.484238734633608e+17
19290.0	6.501236861130068e+17
19291.0	6.499838061445119e+17
19292.0	6.498625432933716e+17
19293.0	6.497313587462143e+17
19294.0	6.49600598872337e+17
19295.0	6.494693929342294e+17
19296.0	6.493380147500371e+17
19297.0	6.492051123557716e+17
19298.0	6.490740419635881e+17
19299.0	6.489427835267754e+17
19300.0	6.488106094733993e+17
19301.0	6.486780556257961e+17
19302.0	6.485453279941971e+17
19303.0	6.484091899740159e+17
19304.0	6.482782842082644e+17
19305.0	6.481460422071636e+17
19306.0	6.480111340967252e+17
19307.0	6.478746795464019e+17
19308.0	6.477423117161812e+17
19309.0	6.475300998567252e+17
19310.0	6.473658669902504e+17
19311.0	6.473334318781779e+17
19312.0	6.47207032193024e+17
19313.0	6.470711905004201e+17
19314.0	6.452424208285691e+17
19315.0	6.452225454200174e+17
19316.0	6.466583969573545e+17
19317.0	6.465282524577792e+17
19318.0	6.463912892781908e+17
19319.0	6.462548889042943e+17
19320.0	6.461170812715007e+17
19321.0	6.459794862899197e+17
19322.0	6.458339561745066e+17
19323.0	6.456638792444586e+17
19324.0	6.455613673089706e+17
19325.0	6.453491360159062e+17
19326.0	6.452830973984768e+17
19327.0	6.451431845046954e+17
19328.0	6.450030721018538e+17
19329.0	6.448618294039892e+17
19330.0	6.446911894585343e+17
19331.0	6.444967311791443e+17
19332.0	6.443545015615487e+17
19333.0	6.442108236507818e+17
19334.0	6.440676826109268e+17
19335.0	6.439232387503444e+17
19336.0	6.437770121008468e+17
19337.0	6.436321718086313e+17
19338.0	6.434783605992106e+17
19339.0	6.433382551169706e+17
19340.0	6.431885306975571e+17
19341.0	6.430416176502099e+17
19342.0	6.428756523963731e+17
19343.0	6.427423696486399e+17
19344.0	6.42591191273745e+17
19345.0	6.423687751619922e+17
19346.0	6.422612689289215e+17
19347.0	6.421309426062676e+17
19348.0	6.41978932990225e+17
19349.0	6.418215272622761e+17
19350.0	6.416648464498687e+17
19351.0	6.415082600093012e+17
19352.0	6.413476386482858e+17
19353.0	6.411908167674538e+17
19354.0	6.410298718857897e+17
19355.0	6.408646862831615e+17
19356.0	6.407041228035412e+17
19357.0	6.405393102842537e+17
19358.0	6.403711258940756e+17
19359.0	6.401203662138025e+17
19360.0	6.399273002336255e+17
19361.0	6.397562323992575e+17
19362.0	6.395858220919466e+17
19363.0	6.394116580922708e+17
19364.0	6.392356700596905e+17
19365.0	6.390580562449748e+17
19366.0	6.388784312614911e+17
19367.0	6.386968550877866e+17
19368.0	6.385132035025577e+17
19369.0	6.383226235562665e+17
19370.0	6.381224154453332e+17
19371.0	6.37946845934387e+17
19372.0	6.376993650813612e+17
19373.0	6.37419442545186e+17
19374.0	6.372221174590121e+17
19375.0	6.370207046041597e+17
19376.0	6.368165318972756e+17
19377.0	6.366090298217812e+17
19378.0	6.36398536368674e+17
19379.0	6.361845241741311e+17
19380.0	6.359185588136617e+17
19381.0	6.355692559881555e+17
19382.0	6.35340364849698e+17
19383.0	6.35109159014673e+17
19384.0	6.348787922501631e+17
19385.0	6.346396890300415e+17
19386.0	6.342588435704489e+17
19387.0	6.339299175126356e+17
19388.0	6.336751228420095e+17
19389.0	6.334137091402409e+17
19390.0	6.330409358284119e+17
19391.0	6.302373094533765e+17
19392.0	6.323162396491773e+17
19393.0	6.320214538278226e+17
19394.0	6.314409893472938e+17
19395.0	6.311083592297129e+17
19396.0	6.306472133307045e+17
19397.0	6.300953266705747e+17
19398.0	6.297196080485713e+17
19399.0	6.289802101347667e+17
19400.0	6.286021222203393e+17
19401.0	6.280403080620712e+17
19402.0	6.276549658891604e+17
19403.0	6.27257654710545e+17
19404.0	6.268486404450985e+17
19405.0	6.264246529338025e+17
19406.0	6.259871127175167e+17
19407.0	6.254876146619731e+17
19408.0	6.249580197489321e+17
19409.0	6.244932321454762e+17
19410.0	6.239878459861674e+17
19411.0	6.234616135068329e+17
19412.0	6.229079502094336e+17
19413.0	6.222242074940756e+17
19414.0	6.216293575994025e+17
19415.0	6.210145126886057e+17
19416.0	6.202523799693994e+17
19417.0	6.194799045159594e+17
19418.0	6.187678408114176e+17
19419.0	6.178452150069929e+17
19420.0	6.169661982201171e+17
19421.0	6.159695919535444e+17
19422.0	6.147864550615724e+17
19423.0	6.135478669541372e+17
19424.0	6.121096493400068e+17
19425.0	6.104238943895539e+17
19426.0	6.083539038633987e+17
19427.0	6.059921751670784e+17
19428.0	6.041281927053312e+17
19429.0	6.025990981550077e+17
19430.0	6.009346687937196e+17
19431.0	5.988349774921734e+17
19432.0	5.974064316634452e+17
19433.0	5.954725218353151e+17
19434.0	5.93369669566464e+17
19435.0	5.911043737911295e+17
19436.0	5.884918817095677e+17
19437.0	5.859196266348544e+17
19438.0	5.798467274276869e+17
19439.0	5.789651079353691e+17
19440.0	5.7395245971319405e+17
19441.0	5.679197724868609e+17
19442.0	5.631109444403201e+17
19443.0	5.5781372939905696e+17
19444.0	5.517222404773201e+17
19445.0	5.4417590946802426e+17
19446.0	5.3371160424174886e+17
19447.0	5.22789059139993e+17
19448.0	5.087968876298247e+17
19449.0	4.891989823367851e+17
19450.0	4.571773481080136e+17
19451.0	4.480934493552627e+17
19452.0	4.739618325572271e+17
19453.0	4.999473662350686e+17
19454.0	5.160932813220515e+17
19455.0	5.276987953599828e+17
19456.0	5.385167099133955e+17
19457.0	5.471838762521938e+17
19458.0	5.5109299260621235e+17
19459.0	5.590165221976754e+17
19460.0	5.638116294175399e+17
19461.0	5.689120737198082e+17
19462.0	5.74533046038255e+17
19463.0	5.786133852760742e+17
19464.0	5.817905142824957e+17
19465.0	5.844726132856148e+17
19466.0	5.867637210174803e+17
19467.0	5.88919200616721e+17
19468.0	5.90890070441984e+17
19469.0	5.926357866031785e+17
19470.0	5.943032128645801e+17
19471.0	5.958825534991018e+17
19472.0	5.97311581463074e+17
19473.0	5.986475104185001e+17
19474.0	5.999979868979204e+17
19475.0	6.019862727316818e+17
19476.0	6.04024016959351e+17
19477.0	6.055742008197121e+17
19478.0	6.069003674626728e+17
19479.0	6.080150194094083e+17
19480.0	6.089550022923604e+17
19481.0	6.097444546106708e+17
19482.0	6.105476917187924e+17
19483.0	6.111378355344724e+17
19484.0	6.117774839513087e+17
19485.0	6.122344053473279e+17
19486.0	6.128076589105152e+17
19487.0	6.132179993449812e+17
19488.0	6.135864720971092e+17
19489.0	6.139733651838292e+17
19490.0	6.143230945700521e+17
19491.0	6.146667313102847e+17
19492.0	6.149468300072276e+17
19493.0	6.152064872043859e+17
19494.0	6.154482160588116e+17
19495.0	6.157287174788436e+17
19496.0	6.159445109243903e+17
19497.0	6.161492182652244e+17
19498.0	6.161499171760813e+17
19499.0	6.127457307110029e+17
19500.0	6.166461428356436e+17
19501.0	6.16837667618816e+17
19502.0	6.171369000315562e+17
19503.0	6.173626262880253e+17
19504.0	6.17749304975906e+17
19505.0	6.178442480801108e+17
19506.0	6.182556678488064e+17
19507.0	6.183515950066346e+17
19508.0	6.184978655565138e+17
19509.0	6.187936008284842e+17
19510.0	6.188330634969087e+17
19511.0	6.151906927837161e+17
19512.0	6.185770985455604e+17
19513.0	6.181367211622381e+17
19514.0	6.184505812101791e+17
19515.0	6.191650929901568e+17
19516.0	6.192923810288983e+17
19517.0	6.194347644376403e+17
19518.0	6.194360834064383e+17
19519.0	6.19428803842321e+17
19520.0	6.194192515945812e+17
19521.0	6.194063067141459e+17
19522.0	6.194444241294679e+17
19523.0	6.195322285981695e+17
19524.0	6.195066043367423e+17
19525.0	6.194766226128896e+17
19526.0	6.194454389413206e+17
19527.0	6.194104760620372e+17
19528.0	6.193722959418708e+17
19529.0	6.193318670456148e+17
19530.0	6.192888027982505e+17
19531.0	6.193153967128576e+17
19532.0	6.193250106867712e+17
19533.0	6.192742816983721e+17
19534.0	6.192212693308756e+17
19535.0	6.191658859932329e+17
19536.0	6.191078947771734e+17
19537.0	6.190504272199679e+17
19538.0	6.189871952210602e+17
19539.0	6.189074734557866e+17
19540.0	6.188618285230761e+17
19541.0	6.187968982504787e+17
19542.0	6.18729319694336e+17
19543.0	6.186604853635753e+17
19544.0	6.185901631733759e+17
19545.0	6.185039530295295e+17
19546.0	6.184417504526336e+17
19547.0	6.184696875930963e+17
19548.0	6.183939992802644e+17
19549.0	6.183135032464724e+17
19550.0	6.182390728753151e+17
19551.0	6.181600167460863e+17
19552.0	6.180798231216127e+17
19553.0	6.179979366061396e+17
19554.0	6.179152276575572e+17
19555.0	6.178330121688404e+17
19556.0	6.177495948023124e+17
19557.0	6.176646086961834e+17
19558.0	6.175790190297087e+17
19559.0	6.174922020399785e+17
19560.0	6.174043526223188e+17
19561.0	6.173163417239551e+17
19562.0	6.172286991553875e+17
19563.0	6.171392387055615e+17
19564.0	6.170492088789673e+17
19565.0	6.16958489858321e+17
19566.0	6.168664189435901e+17
19567.0	6.167751061493076e+17
19568.0	6.166816307019775e+17
19569.0	6.165892389229907e+17
19570.0	6.16495879098641e+17
19571.0	6.164015960380756e+17
19572.0	6.163058940444671e+17
19573.0	6.162111439481513e+17
19574.0	6.161127334128297e+17
19575.0	6.160200827753812e+17
19576.0	6.159235693936637e+17
19577.0	6.15825411215633e+17
19578.0	6.157276950473385e+17
19579.0	6.156305021184682e+17
19580.0	6.155324592837972e+17
19581.0	6.154341133407572e+17
19582.0	6.153358242305364e+17
19583.0	6.152365713391615e+17
19584.0	6.151358595290452e+17
19585.0	6.150328930708137e+17
19586.0	6.149300045567315e+17
19587.0	6.148843991203839e+17
19588.0	6.14788665250065e+17
19589.0	6.147007634036052e+17
19590.0	6.145990934746452e+17
19591.0	6.14501259026978e+17
19592.0	6.143994192287059e+17
19593.0	6.142964894007295e+17
19594.0	6.141829477739178e+17
19595.0	6.140908056259241e+17
19596.0	6.136364527517697e+17
19597.0	6.138812089849174e+17
19598.0	6.137716505488042e+17
19599.0	6.136791469916159e+17
19600.0	6.135754100397396e+17
19601.0	6.134689931373225e+17
19602.0	6.133656842141695e+17
19603.0	6.1321041163933e+17
19604.0	6.131538634735615e+17
19605.0	6.13042908963362e+17
19606.0	6.129486301670057e+17
19607.0	6.128438234578943e+17
19608.0	6.127383037870079e+17
19609.0	6.126306934652927e+17
19610.0	6.125278344511487e+17
19611.0	6.124219980404052e+17
19612.0	6.123164537629353e+17
19613.0	6.12210108932642e+17
19614.0	6.121030355517439e+17
19615.0	6.119980666628778e+17
19616.0	6.118707534583124e+17
19617.0	6.117856020267007e+17
19618.0	6.116603897490089e+17
19619.0	6.11548385124898e+17
19620.0	6.114429378756607e+17
19621.0	6.113591433013929e+17
19622.0	6.112522221038249e+17
19623.0	6.111452219834365e+17
19624.0	6.110381048419668e+17
19625.0	6.109305270960127e+17
19626.0	6.108234702826153e+17
19627.0	6.107159671952724e+17
19628.0	6.105528974092972e+17
19629.0	6.104972104739498e+17
19630.0	6.10317452041694e+17
19631.0	6.07778286110856e+17
19632.0	6.101758983361876e+17
19633.0	6.100667059230038e+17
19634.0	6.099622232238761e+17
19635.0	6.098528968026793e+17
19636.0	6.097460653632169e+17
19637.0	6.096244771039914e+17
19638.0	6.095298842940756e+17
19639.0	6.094205275340799e+17
19640.0	6.093110004154367e+17
19641.0	6.091805878299306e+17
19642.0	6.090969784341844e+17
19643.0	6.089873542873087e+17
19644.0	6.088778868675923e+17
19645.0	6.087620187302569e+17
19646.0	6.086630115551914e+17
19647.0	6.085543988647252e+17
19648.0	6.084457385689087e+17
19649.0	6.083369423077375e+17
19650.0	6.082283020746752e+17
19651.0	6.081195246878719e+17
19652.0	6.080107096222378e+17
19653.0	6.079007417521492e+17
19654.0	6.077929748430847e+17
19655.0	6.076839049035776e+17
19656.0	6.075748538384383e+17
19657.0	6.074661292998655e+17
19658.0	6.073569951875071e+17
19659.0	6.072480366067712e+17
19660.0	6.07139016998912e+17
19661.0	6.070299340570623e+17
19662.0	6.069208131567615e+17
19663.0	6.068093983916032e+17
19664.0	6.066920455405567e+17
19665.0	6.065933279821823e+17
