# Flux units: erg / (cm m2 s)
# Wavelength units: Angstrom
wave	flux
19000.0	8.241676809491794e+17
19001.0	8.239787160895485e+17
19002.0	8.238836667296425e+17
19003.0	8.237369070540114e+17
19004.0	8.235914195107837e+17
19005.0	8.234494729388033e+17
19006.0	8.233052538929152e+17
19007.0	8.231291661058047e+17
19008.0	8.229944389096787e+17
19009.0	8.228025181842088e+17
19010.0	8.225733440700412e+17
19011.0	8.225427171224233e+17
19012.0	8.22247419106645e+17
19013.0	8.222845263937535e+17
19014.0	8.221134242359977e+17
19015.0	8.219807796516182e+17
19016.0	8.218416425642664e+17
19017.0	8.216985182317225e+17
19018.0	8.215519365343913e+17
19019.0	8.214092088431955e+17
19020.0	8.212592587003222e+17
19021.0	8.211225365534038e+17
19022.0	8.209770230054911e+17
19023.0	8.208248926633981e+17
19024.0	8.20687903339315e+17
19025.0	8.205194163301033e+17
19026.0	8.203519682499924e+17
19027.0	8.200936950333437e+17
19028.0	8.200880344006655e+17
19029.0	8.199415544851114e+17
19030.0	8.198083008877906e+17
19031.0	8.196586552513876e+17
19032.0	8.194982565380096e+17
19033.0	8.192832190458537e+17
19034.0	8.19099339919633e+17
19035.0	8.183833470610088e+17
19036.0	8.085264327682725e+17
19037.0	8.182467205442217e+17
19038.0	8.185133962100735e+17
19039.0	8.184371497751891e+17
19040.0	8.183369142981975e+17
19041.0	8.182238873124863e+17
19042.0	8.180300289583785e+17
19043.0	8.179371073688915e+17
19044.0	8.177829009861289e+17
19045.0	8.176302313963517e+17
19046.0	8.1746351620096e+17
19047.0	8.173128544245075e+17
19048.0	8.171092030696104e+17
19049.0	8.169528492031997e+17
19050.0	8.167548108057258e+17
19051.0	8.151548250379597e+17
19052.0	8.158514790793211e+17
19053.0	8.163571530377897e+17
19054.0	8.162630088086868e+17
19055.0	8.160045165095597e+17
19056.0	8.159727744363178e+17
19057.0	8.158344492264105e+17
19058.0	8.156652145126057e+17
19059.0	8.155329174962175e+17
19060.0	8.153811320657236e+17
19061.0	8.152388253428392e+17
19062.0	8.150857968604498e+17
19063.0	8.149334512107519e+17
19064.0	8.147351656289622e+17
19065.0	8.145449663856639e+17
19066.0	8.144450608605864e+17
19067.0	8.143238990222678e+17
19068.0	8.141785477939199e+17
19069.0	8.140274386250409e+17
19070.0	8.138634495874387e+17
19071.0	8.137115307780778e+17
19072.0	8.13566217158656e+17
19073.0	8.1341687281309e+17
19074.0	8.132677854385492e+17
19075.0	8.131147654845779e+17
19076.0	8.1295615997597e+17
19077.0	8.127998361687379e+17
19078.0	8.126382157944148e+17
19079.0	8.125002556287658e+17
19080.0	8.123402776040791e+17
19081.0	8.121682623463421e+17
19082.0	8.120248845380266e+17
19083.0	8.118163630369449e+17
19084.0	8.115956856040106e+17
19085.0	8.115461738026322e+17
19086.0	8.111544135057408e+17
19087.0	8.111048593418921e+17
19088.0	8.109634830554454e+17
19089.0	8.107577693612714e+17
19090.0	8.107337621438463e+17
19091.0	8.106060155278678e+17
19092.0	8.104189285979476e+17
19093.0	8.103289586799955e+17
19094.0	8.10187912065843e+17
19095.0	8.1004120272186e+17
19096.0	8.098855825790291e+17
19097.0	8.097359447719936e+17
19098.0	8.095778708215124e+17
19099.0	8.094230566841002e+17
19100.0	8.092512989566289e+17
19101.0	8.091082569722537e+17
19102.0	8.089313623408639e+17
19103.0	8.088045458817021e+17
19104.0	8.086501125870932e+17
19105.0	8.084726081039017e+17
19106.0	8.082999796389204e+17
19107.0	8.081318653635241e+17
19108.0	8.079030918053885e+17
19109.0	8.07237392985839e+17
19110.0	8.074563548086271e+17
19111.0	8.074997850090153e+17
19112.0	8.073897354199037e+17
19113.0	8.072510267108009e+17
19114.0	8.070944179705172e+17
19115.0	8.069048383657302e+17
19116.0	8.067781137618259e+17
19117.0	8.066164233426259e+17
19118.0	8.064027071960404e+17
19119.0	8.052327108487836e+17
19120.0	8.060498876563453e+17
19121.0	8.059260126625791e+17
19122.0	8.058529474674685e+17
19123.0	8.057013485436927e+17
19124.0	8.054526590320639e+17
19125.0	8.053774024529234e+17
19126.0	8.05183847207185e+17
19127.0	8.044810863990098e+17
19128.0	8.0466013103063e+17
19129.0	8.047148942404262e+17
19130.0	8.046032615811753e+17
19131.0	8.044492685486761e+17
19132.0	8.042979510626986e+17
19133.0	8.040895991513085e+17
19134.0	8.038874387316737e+17
19135.0	8.03827934560256e+17
19136.0	8.036702723506175e+17
19137.0	8.034680302818644e+17
19138.0	8.033484726250152e+17
19139.0	8.03203160543505e+17
19140.0	8.030479566154412e+17
19141.0	8.028916030286506e+17
19142.0	8.027158801459881e+17
19143.0	8.025564064164521e+17
19144.0	8.023939358567081e+17
19145.0	8.022559775085906e+17
19146.0	8.018057844053336e+17
19147.0	8.019149780768084e+17
19148.0	8.017738744201215e+17
19149.0	8.016023345168383e+17
19150.0	8.014452423131135e+17
19151.0	8.01283834590003e+17
19152.0	8.011088178883241e+17
19153.0	8.009409210176851e+17
19154.0	8.00754988220416e+17
19155.0	8.006116835327999e+17
19156.0	8.004311774658557e+17
19157.0	8.001810978220714e+17
19158.0	7.998506624439636e+17
19159.0	7.998678258155519e+17
19160.0	7.997289592608083e+17
19161.0	7.994497473795411e+17
19162.0	7.98504862543599e+17
19163.0	7.989472548006569e+17
19164.0	7.991008256065535e+17
19165.0	7.989783864628563e+17
19166.0	7.987986152379732e+17
19167.0	7.986135029863764e+17
19168.0	7.985156653929811e+17
19169.0	7.983835409022973e+17
19170.0	7.9823295755933e+17
19171.0	7.980571375086249e+17
19172.0	7.979048803587414e+17
19173.0	7.977621174353919e+17
19174.0	7.975906352736936e+17
19175.0	7.974460250390527e+17
19176.0	7.972842170395305e+17
19177.0	7.970469107291475e+17
19178.0	7.969311229127336e+17
19179.0	7.967575296180224e+17
19180.0	7.966209854494038e+17
19181.0	7.964386263389523e+17
19182.0	7.963013987784019e+17
19183.0	7.961545285129555e+17
19184.0	7.95985426059537e+17
19185.0	7.958210798070441e+17
19186.0	7.956611581258409e+17
19187.0	7.954481587858089e+17
19188.0	7.953184620980905e+17
19189.0	7.951409155320488e+17
19190.0	7.949581582423378e+17
19191.0	7.947694121855657e+17
19192.0	7.946037008269311e+17
19193.0	7.943934765782355e+17
19194.0	7.941496875515903e+17
19195.0	7.939013586102953e+17
19196.0	7.935560710619135e+17
19197.0	7.930158217778515e+17
19198.0	7.917661034556072e+17
19199.0	7.865867668815866e+17
19200.0	7.871233576140804e+17
19201.0	7.914148201496575e+17
19202.0	7.922412846841856e+17
19203.0	7.924053629206525e+17
19204.0	7.924242985254911e+17
19205.0	7.923561785546068e+17
19206.0	7.922463954436096e+17
19207.0	7.920625191135913e+17
19208.0	7.919150448683689e+17
19209.0	7.918213587970728e+17
19210.0	7.916706096392872e+17
19211.0	7.915172801456812e+17
19212.0	7.913450546135039e+17
19213.0	7.911012562195794e+17
19214.0	7.909160181388628e+17
19215.0	7.908287398455977e+17
19216.0	7.90692125632102e+17
19217.0	7.905072202995028e+17
19218.0	7.90115349972036e+17
19219.0	7.900925016408063e+17
19220.0	7.900201638778194e+17
19221.0	7.897580408493395e+17
19222.0	7.896550044161364e+17
19223.0	7.895031425094996e+17
19224.0	7.893202486252883e+17
19225.0	7.891369994835283e+17
19226.0	7.889973755772928e+17
19227.0	7.888309988622333e+17
19228.0	7.886661698453501e+17
19229.0	7.884925607520936e+17
19230.0	7.883131041000106e+17
19231.0	7.881408239020713e+17
19232.0	7.879764474505897e+17
19233.0	7.877735547054761e+17
19234.0	7.876304790268586e+17
19235.0	7.874463693537279e+17
19236.0	7.87292802602325e+17
19237.0	7.871123520400041e+17
19238.0	7.868986593815209e+17
19239.0	7.867710659974484e+17
19240.0	7.865946517536765e+17
19241.0	7.863849647953238e+17
19242.0	7.862037793909417e+17
19243.0	7.859492322541563e+17
19244.0	7.858631563280381e+17
19245.0	7.856844457028266e+17
19246.0	7.855062350386518e+17
19247.0	7.853277158135123e+17
19248.0	7.851535005035177e+17
19249.0	7.849737793306621e+17
19250.0	7.847894375727101e+17
19251.0	7.845707722872143e+17
19252.0	7.842889818876585e+17
19253.0	7.842529335225002e+17
19254.0	7.840812978492755e+17
19255.0	7.838029699874812e+17
19256.0	7.837058468238678e+17
19257.0	7.835373949069994e+17
19258.0	7.833329273405439e+17
19259.0	7.831024820726441e+17
19260.0	7.827652598912338e+17
19261.0	7.827701012365311e+17
19262.0	7.825672537899007e+17
19263.0	7.823668222623743e+17
19264.0	7.820424452767739e+17
19265.0	7.819654589666642e+17
19266.0	7.817868627061417e+17
19267.0	7.816496419962879e+17
19268.0	7.814597892025002e+17
19269.0	7.812706052603903e+17
19270.0	7.810686635038038e+17
19271.0	7.8078148608e+17
19272.0	7.806763587862527e+17
19273.0	7.802467760734205e+17
19274.0	7.800314361719461e+17
19275.0	7.80126736491042e+17
19276.0	7.799340223430655e+17
19277.0	7.797334050078719e+17
19278.0	7.795423079038973e+17
19279.0	7.793233924980735e+17
19280.0	7.79121699184094e+17
19281.0	7.789431974352211e+17
19282.0	7.787430413336575e+17
19283.0	7.785128094160212e+17
19284.0	7.782495407833087e+17
19285.0	7.780980826483368e+17
19286.0	7.778953273365844e+17
19287.0	7.776039860873897e+17
19288.0	7.738906380337126e+17
19289.0	7.709025054141039e+17
19290.0	7.76930500961894e+17
19291.0	7.767513032381784e+17
19292.0	7.767074947115689e+17
19293.0	7.765156833176233e+17
19294.0	7.763109836663464e+17
19295.0	7.7611304760989e+17
19296.0	7.758983052569257e+17
19297.0	7.756766729207807e+17
19298.0	7.754717155994281e+17
19299.0	7.752685235208191e+17
19300.0	7.75059604958959e+17
19301.0	7.748438942810113e+17
19302.0	7.746194324673875e+17
19303.0	7.74373196763409e+17
19304.0	7.741770135065939e+17
19305.0	7.739531914641407e+17
19306.0	7.737237951916713e+17
19307.0	7.734547064029181e+17
19308.0	7.731696575883944e+17
19309.0	7.727497971324244e+17
19310.0	7.72414192554257e+17
19311.0	7.724174042726399e+17
19312.0	7.72266513067759e+17
19313.0	7.720046007331498e+17
19314.0	7.659910924511914e+17
19315.0	7.661874592787183e+17
19316.0	7.712656418231636e+17
19317.0	7.711005547167743e+17
19318.0	7.708773056162473e+17
19319.0	7.706489313558527e+17
19320.0	7.704032649587368e+17
19321.0	7.701047570421075e+17
19322.0	7.69750642021717e+17
19323.0	7.694760434554195e+17
19324.0	7.692531388470612e+17
19325.0	7.68958189797376e+17
19326.0	7.687671753211903e+17
19327.0	7.685387128406015e+17
19328.0	7.682903373425321e+17
19329.0	7.680451226719572e+17
19330.0	7.677758729617407e+17
19331.0	7.675039633637373e+17
19332.0	7.672581873554774e+17
19333.0	7.669516291713705e+17
19334.0	7.666434359077548e+17
19335.0	7.663582997118975e+17
19336.0	7.660959713023314e+17
19337.0	7.658276320357033e+17
19338.0	7.654611590578173e+17
19339.0	7.65266093023778e+17
19340.0	7.649556011417599e+17
19341.0	7.646511420669948e+17
19342.0	7.642565566267391e+17
19343.0	7.64060231742259e+17
19344.0	7.636126353326079e+17
19345.0	7.627137980825595e+17
19346.0	7.626166223503357e+17
19347.0	7.626608621912063e+17
19348.0	7.623895754473471e+17
19349.0	7.62058100580898e+17
19350.0	7.617421851841875e+17
19351.0	7.614142463956308e+17
19352.0	7.610643953046868e+17
19353.0	7.607704569424553e+17
19354.0	7.60371788906496e+17
19355.0	7.599381858134698e+17
19356.0	7.596308688797693e+17
19357.0	7.592751404504404e+17
19358.0	7.589088412565503e+17
19359.0	7.584511607614122e+17
19360.0	7.580789463405908e+17
19361.0	7.577207181060778e+17
19362.0	7.573574565669548e+17
19363.0	7.569740665629352e+17
19364.0	7.565693200018089e+17
19365.0	7.560704057234772e+17
19366.0	7.556722436603901e+17
19367.0	7.55262074982673e+17
19368.0	7.548462047079084e+17
19369.0	7.543938418911913e+17
19370.0	7.539606747261612e+17
19371.0	7.53439642484736e+17
19372.0	7.529821501740372e+17
19373.0	7.525195649996118e+17
19374.0	7.520692551548928e+17
19375.0	7.5160387349818e+17
19376.0	7.511105786085375e+17
19377.0	7.505964311773183e+17
19378.0	7.501110155673599e+17
19379.0	7.496161780127059e+17
19380.0	7.49087777497634e+17
19381.0	7.485749982483795e+17
19382.0	7.478686819287037e+17
19383.0	7.473416925173075e+17
19384.0	7.468328812194474e+17
19385.0	7.462778400232787e+17
19386.0	7.457014028435456e+17
19387.0	7.451065895791274e+17
19388.0	7.444955552634194e+17
19389.0	7.438506065046182e+17
19390.0	7.430465283686397e+17
19391.0	7.353203862186596e+17
19392.0	7.410453886009336e+17
19393.0	7.410222235997523e+17
19394.0	7.4037048915613e+17
19395.0	7.39681111253538e+17
19396.0	7.389687326266708e+17
19397.0	7.38241220112111e+17
19398.0	7.374609302508884e+17
19399.0	7.365089562023251e+17
19400.0	7.358280177986217e+17
19401.0	7.350515542611283e+17
19402.0	7.342118800457727e+17
19403.0	7.33339805810688e+17
19404.0	7.323878173616808e+17
19405.0	7.314631833245011e+17
19406.0	7.305399560568832e+17
19407.0	7.295849566568447e+17
19408.0	7.284122401636353e+17
19409.0	7.27539434861363e+17
19410.0	7.264967023656957e+17
19411.0	7.25391825384243e+17
19412.0	7.242468639987028e+17
19413.0	7.230628683229866e+17
19414.0	7.218289616879615e+17
19415.0	7.205587186789033e+17
19416.0	7.190976792974674e+17
19417.0	7.177660585213951e+17
19418.0	7.164381220219562e+17
19419.0	7.1500031866525e+17
19420.0	7.135239570718719e+17
19421.0	7.119717588271104e+17
19422.0	7.10330748571921e+17
19423.0	7.086554364597587e+17
19424.0	7.069065183668906e+17
19425.0	7.05057438896401e+17
19426.0	7.03130593674308e+17
19427.0	7.01124807945967e+17
19428.0	6.990462866948095e+17
19429.0	6.968367496473257e+17
19430.0	6.941824451084289e+17
19431.0	6.911232865643183e+17
19432.0	6.895734764164435e+17
19433.0	6.869606753544876e+17
19434.0	6.841189310747987e+17
19435.0	6.808718115078141e+17
19436.0	6.774710025759401e+17
19437.0	6.743632667213823e+17
19438.0	6.638060373890403e+17
19439.0	6.661807376695295e+17
19440.0	6.629717745248938e+17
19441.0	6.586227112629586e+17
19442.0	6.538489132744705e+17
19443.0	6.486173246204585e+17
19444.0	6.429141212943698e+17
19445.0	6.366307533105837e+17
19446.0	6.296535170722474e+17
19447.0	6.218587348576933e+17
19448.0	6.130603269991086e+17
19449.0	6.030148248447658e+17
19450.0	5.910026057853603e+17
19451.0	5.839212741918719e+17
19452.0	5.973191823807828e+17
19453.0	6.079271175629486e+17
19454.0	6.170674544508923e+17
19455.0	6.250945628689748e+17
19456.0	6.322077764856492e+17
19457.0	6.385455864654504e+17
19458.0	6.38030373681025e+17
19459.0	6.491653850966712e+17
19460.0	6.542739917242365e+17
19461.0	6.58647329940002e+17
19462.0	6.626761362811564e+17
19463.0	6.663914362940072e+17
19464.0	6.698427505879721e+17
19465.0	6.730629832682156e+17
19466.0	6.760266035363837e+17
19467.0	6.788660606621012e+17
19468.0	6.815282147011242e+17
19469.0	6.839515487054504e+17
19470.0	6.863158963251881e+17
19471.0	6.885279118568106e+17
19472.0	6.90603722748723e+17
19473.0	6.925637170233343e+17
19474.0	6.944053891432447e+17
19475.0	6.959936368716456e+17
19476.0	6.978328471448233e+17
19477.0	6.994731937213098e+17
19478.0	7.009992381038591e+17
19479.0	7.024324809239209e+17
19480.0	7.038047228351828e+17
19481.0	7.051325739805353e+17
19482.0	7.06369661575714e+17
19483.0	7.075626330619901e+17
19484.0	7.08699703283985e+17
19485.0	7.097756111863807e+17
19486.0	7.108772435940691e+17
19487.0	7.119092312615593e+17
19488.0	7.1287028332189e+17
19489.0	7.137110888808447e+17
19490.0	7.14354556351283e+17
19491.0	7.154925662371839e+17
19492.0	7.163254744809471e+17
19493.0	7.170854889368233e+17
19494.0	7.178099386307923e+17
19495.0	7.184792646844415e+17
19496.0	7.1899975558103e+17
19497.0	7.195945129213952e+17
19498.0	7.18155359558041e+17
19499.0	7.10410753802238e+17
19500.0	7.213120490919251e+17
19501.0	7.221110901484202e+17
19502.0	7.226929588120233e+17
19503.0	7.232294139286867e+17
19504.0	7.237281198899199e+17
19505.0	7.242039476005545e+17
19506.0	7.246531904143357e+17
19507.0	7.250686191686996e+17
19508.0	7.254657862030676e+17
19509.0	7.259546099646464e+17
19510.0	7.26166025815108e+17
19511.0	7.154588683599813e+17
19512.0	7.243988240520522e+17
19513.0	7.238118338636424e+17
19514.0	7.248639249700155e+17
19515.0	7.278151029751808e+17
19516.0	7.28365136731614e+17
19517.0	7.286773563872595e+17
19518.0	7.28967238857523e+17
19519.0	7.292114138999466e+17
19520.0	7.29537433514803e+17
19521.0	7.298413140552361e+17
19522.0	7.300568403236182e+17
19523.0	7.302995544899583e+17
19524.0	7.304999380626089e+17
19525.0	7.307234658047316e+17
19526.0	7.309431367445161e+17
19527.0	7.311214489108476e+17
19528.0	7.312964266054996e+17
19529.0	7.314624788212394e+17
19530.0	7.316282350589267e+17
19531.0	7.318853780504573e+17
19532.0	7.320495326232573e+17
19533.0	7.321915426690387e+17
19534.0	7.323259195009705e+17
19535.0	7.324402109295272e+17
19536.0	7.325499280501417e+17
19537.0	7.327495542713002e+17
19538.0	7.328159275941887e+17
19539.0	7.328347816897196e+17
19540.0	7.330627730101587e+17
19541.0	7.331644565007017e+17
19542.0	7.332440158765055e+17
19543.0	7.333495614821718e+17
19544.0	7.334626130744659e+17
19545.0	7.333424169047382e+17
19546.0	7.33332983915042e+17
19547.0	7.336827034446506e+17
19548.0	7.338219277735254e+17
19549.0	7.338258224644093e+17
19550.0	7.339202513469439e+17
19551.0	7.339619588068692e+17
19552.0	7.339979884374697e+17
19553.0	7.34022425710865e+17
19554.0	7.340465651886761e+17
19555.0	7.340774042282664e+17
19556.0	7.341043868849492e+17
19557.0	7.341277056772778e+17
19558.0	7.342336770048e+17
19559.0	7.342953787118932e+17
19560.0	7.342914016728402e+17
19561.0	7.343006463382867e+17
19562.0	7.343117560709117e+17
19563.0	7.343160050406739e+17
19564.0	7.343049968102057e+17
19565.0	7.342926599640404e+17
19566.0	7.342680900108288e+17
19567.0	7.342627454888617e+17
19568.0	7.342594728132607e+17
19569.0	7.342927909661353e+17
19570.0	7.342812464239955e+17
19571.0	7.342583702705492e+17
19572.0	7.34215278830114e+17
19573.0	7.342016586667347e+17
19574.0	7.341320484596393e+17
19575.0	7.341484347665066e+17
19576.0	7.341153014426281e+17
19577.0	7.340727653280429e+17
19578.0	7.340342188354217e+17
19579.0	7.339959395199658e+17
19580.0	7.339739261348522e+17
19581.0	7.339990284850518e+17
19582.0	7.339751891795965e+17
19583.0	7.33930877755938e+17
19584.0	7.33878500266257e+17
19585.0	7.337806988836861e+17
19586.0	7.337119961841664e+17
19587.0	7.337024133180074e+17
19588.0	7.335311568098644e+17
19589.0	7.336074657398783e+17
19590.0	7.335406664155133e+17
19591.0	7.33520092934963e+17
19592.0	7.334663538343935e+17
19593.0	7.333948557710675e+17
19594.0	7.332382376635048e+17
19595.0	7.333116160333139e+17
19596.0	7.328063627635374e+17
19597.0	7.33181025399603e+17
19598.0	7.330102284473683e+17
19599.0	7.330487226509994e+17
19600.0	7.32981522071552e+17
19601.0	7.328800029977258e+17
19602.0	7.327823791740244e+17
19603.0	7.325398916399101e+17
19604.0	7.326046449827839e+17
19605.0	7.324769382126936e+17
19606.0	7.325281461906089e+17
19607.0	7.324542141726719e+17
19608.0	7.323723335292244e+17
19609.0	7.322761872190121e+17
19610.0	7.322130651807744e+17
19611.0	7.321265749972308e+17
19612.0	7.320654867770025e+17
19613.0	7.319936835081556e+17
19614.0	7.318915800279721e+17
19615.0	7.318123740921855e+17
19616.0	7.316524065532586e+17
19617.0	7.316244432683007e+17
19618.0	7.313217547490642e+17
19619.0	7.31173320148036e+17
19620.0	7.31137552941056e+17
19621.0	7.312460702111059e+17
19622.0	7.311737567750825e+17
19623.0	7.310783941006675e+17
19624.0	7.309720662573055e+17
19625.0	7.308678053669545e+17
19626.0	7.307380577883476e+17
19627.0	7.305684961984511e+17
19628.0	7.302403455975424e+17
19629.0	7.299037877938857e+17
19630.0	7.275142150706511e+17
19631.0	7.232487126204422e+17
19632.0	7.292757153764692e+17
19633.0	7.298156658862761e+17
19634.0	7.299075690987519e+17
19635.0	7.298494545002496e+17
19636.0	7.297952619954175e+17
19637.0	7.29531443489451e+17
19638.0	7.296419027222527e+17
19639.0	7.295428766029139e+17
19640.0	7.293974430263977e+17
19641.0	7.291290225300826e+17
19642.0	7.292592735649791e+17
19643.0	7.291621751477587e+17
19644.0	7.290359268769791e+17
19645.0	7.289324952005288e+17
19646.0	7.289055729418239e+17
19647.0	7.288135761963689e+17
19648.0	7.287074178028883e+17
19649.0	7.286016995317075e+17
19650.0	7.284986549895168e+17
19651.0	7.283893756144297e+17
19652.0	7.282814908454228e+17
19653.0	7.281733300912127e+17
19654.0	7.280648283400874e+17
19655.0	7.279543854650706e+17
19656.0	7.278744677558953e+17
19657.0	7.277727480545279e+17
19658.0	7.276655584215039e+17
19659.0	7.275555530123945e+17
19660.0	7.274471020123476e+17
19661.0	7.273332553198249e+17
19662.0	7.272214156017663e+17
19663.0	7.270853953017174e+17
19664.0	7.269690159486294e+17
19665.0	7.268857380427091e+17
19666.0	7.267687110890836e+17
