# Flux units: erg / (cm m2 s)
# Wavelength units: Angstrom
wave	flux
19000.0	4.5172099488153594e+17
19001.0	4.516215913447422e+17
19002.0	4.5156296685868365e+17
19003.0	4.514834530609834e+17
19004.0	4.5139316269820576e+17
19005.0	4.5131261780077216e+17
19006.0	4.512189600410281e+17
19007.0	4.511664016370345e+17
19008.0	4.510760793276415e+17
19009.0	4.5099167476176205e+17
19010.0	4.5083377494480186e+17
19011.0	4.508410129154047e+17
19012.0	4.5069607755229843e+17
19013.0	4.506932281518762e+17
19014.0	4.506014529355775e+17
19015.0	4.505167593821523e+17
19016.0	4.504392934533802e+17
19017.0	4.503752457322495e+17
19018.0	4.502918203266389e+17
19019.0	4.502133983062698e+17
19020.0	4.501357028791638e+17
19021.0	4.500580472979455e+17
19022.0	4.4998083323712845e+17
19023.0	4.498819350440617e+17
19024.0	4.497920749469695e+17
19025.0	4.4973923279831034e+17
19026.0	4.496543863625044e+17
19027.0	4.4954878902708896e+17
19028.0	4.495018253352959e+17
19029.0	4.494186694836224e+17
19030.0	4.4934079782584314e+17
19031.0	4.4926634788126714e+17
19032.0	4.4918876954514765e+17
19033.0	4.4909005653060256e+17
19034.0	4.4902122206003194e+17
19035.0	4.488980926038015e+17
19036.0	4.466565852430326e+17
19037.0	4.487518396699989e+17
19038.0	4.487027497456981e+17
19039.0	4.486304294589781e+17
19040.0	4.485510940590079e+17
19041.0	4.484736493813759e+17
19042.0	4.4727912712109926e+17
19043.0	4.4832424722431994e+17
19044.0	4.4824619549108896e+17
19045.0	4.4816091340690765e+17
19046.0	4.4807632946462714e+17
19047.0	4.480074520723455e+17
19048.0	4.4774443418910694e+17
19049.0	4.4554042041084294e+17
19050.0	4.477572988884308e+17
19051.0	4.4727163735244704e+17
19052.0	4.475916757499905e+17
19053.0	4.4753907798944416e+17
19054.0	4.474576487929172e+17
19055.0	4.4700454875736755e+17
19056.0	4.4719537253253075e+17
19057.0	4.4722618507810125e+17
19058.0	4.459661731648833e+17
19059.0	4.4659553162581286e+17
19060.0	4.4698699713303885e+17
19061.0	4.4690821027812685e+17
19062.0	4.4682779309725005e+17
19063.0	4.467562791654741e+17
19064.0	4.466584914842964e+17
19065.0	4.465753941431636e+17
19066.0	4.460706354517338e+17
19067.0	4.464311271423999e+17
19068.0	4.463654667812863e+17
19069.0	4.4628688691527674e+17
19070.0	4.461979549477546e+17
19071.0	4.46124669272064e+17
19072.0	4.4559147312960794e+17
19073.0	4.459745342302891e+17
19074.0	4.458902967375189e+17
19075.0	4.458180302077951e+17
19076.0	4.4571320308640416e+17
19077.0	4.4565764722305696e+17
19078.0	4.4557149894519443e+17
19079.0	4.4550113662948685e+17
19080.0	4.454246078480383e+17
19081.0	4.453393786120874e+17
19082.0	4.452653234214228e+17
19083.0	4.4518182035128314e+17
19084.0	4.450872864713385e+17
19085.0	4.4503171718621856e+17
19086.0	4.4433670346724666e+17
19087.0	4.438606798127091e+17
19088.0	4.4422915123664115e+17
19089.0	4.446697109323776e+17
19090.0	4.446447878187689e+17
19091.0	4.444929919025157e+17
19092.0	4.435811645434562e+17
19093.0	4.44413056786978e+17
19094.0	4.443357418531498e+17
19095.0	4.442549374681087e+17
19096.0	4.441774524552532e+17
19097.0	4.441015866534571e+17
19098.0	4.4355560732098515e+17
19099.0	4.433794674546011e+17
19100.0	4.4386058781764256e+17
19101.0	4.437856660138666e+17
19102.0	4.4368725170367123e+17
19103.0	4.436314181074942e+17
19104.0	4.43560221474816e+17
19105.0	4.424555682594846e+17
19106.0	4.433843067726506e+17
19107.0	4.430774661720741e+17
19108.0	4.428631770835629e+17
19109.0	4.4304863382732774e+17
19110.0	4.430908852884821e+17
19111.0	4.427258073361062e+17
19112.0	4.425811169902585e+17
19113.0	4.4285761229073056e+17
19114.0	4.4258988888773926e+17
19115.0	4.426490689792683e+17
19116.0	4.4261512300898976e+17
19117.0	4.425424900369066e+17
19118.0	4.424239046896298e+17
19119.0	4.39844018638025e+17
19120.0	4.4227915031074125e+17
19121.0	4.422203001012223e+17
19122.0	4.421642489604778e+17
19123.0	4.420887192622419e+17
19124.0	4.4199999547200845e+17
19125.0	4.4193215700882765e+17
19126.0	4.4185506339444045e+17
19127.0	4.414616522893989e+17
19128.0	4.4169562531648845e+17
19129.0	4.4161251546234874e+17
19130.0	4.4154614248898554e+17
19131.0	4.414694086759764e+17
19132.0	4.413880860846762e+17
19133.0	4.4130799962466976e+17
19134.0	4.4123641054494714e+17
19135.0	4.4115941458793805e+17
19136.0	4.410810010260821e+17
19137.0	4.409725943458474e+17
19138.0	4.4092734360780794e+17
19139.0	4.408538623377407e+17
19140.0	4.4077735054322336e+17
19141.0	4.406986000389461e+17
19142.0	4.406157307281408e+17
19143.0	4.405315022531242e+17
19144.0	4.4046023900091725e+17
19145.0	4.403884591502676e+17
19146.0	4.4021856900655795e+17
19147.0	4.402049603076095e+17
19148.0	4.3977283081338944e+17
19149.0	4.396252895991126e+17
19150.0	4.4000587228555936e+17
19151.0	4.399271904280575e+17
19152.0	4.3985076272933536e+17
19153.0	4.3895844936963283e+17
19154.0	4.396083880219989e+17
19155.0	4.396222324408319e+17
19156.0	4.3954434868947616e+17
19157.0	4.392074113712135e+17
19158.0	4.3873953550172243e+17
19159.0	4.392995338059775e+17
19160.0	4.3923321144388256e+17
19161.0	4.391598429306879e+17
19162.0	4.38901160210159e+17
19163.0	4.3900731070436685e+17
19164.0	4.389275416832682e+17
19165.0	4.379664703291378e+17
19166.0	4.387427946856446e+17
19167.0	4.3867629518411085e+17
19168.0	4.386230865930923e+17
19169.0	4.3854081965424634e+17
19170.0	4.3847187501329056e+17
19171.0	4.383758611731796e+17
19172.0	4.383156531975508e+17
19173.0	4.3824187727762765e+17
19174.0	4.381538086376789e+17
19175.0	4.380865256401578e+17
19176.0	4.380122905837568e+17
19177.0	4.3791106266453325e+17
19178.0	4.378428028835157e+17
19179.0	4.3774453236804275e+17
19180.0	4.377048344690687e+17
19181.0	4.375954747031551e+17
19182.0	4.37540837532194e+17
19183.0	4.3747525784152736e+17
19184.0	4.3739724965915296e+17
19185.0	4.3731922812491085e+17
19186.0	4.372474957398015e+17
19187.0	4.371628671980885e+17
19188.0	4.370934714597376e+17
19189.0	4.370193936198314e+17
19190.0	4.369436820985172e+17
19191.0	4.368575822648661e+17
19192.0	4.367895579940181e+17
19193.0	4.3661652023487155e+17
19194.0	4.3648191495318195e+17
19195.0	4.365610667125418e+17
19196.0	4.3648215850243405e+17
19197.0	4.3640587019441485e+17
19198.0	4.3633037859444045e+17
19199.0	4.3485800256853286e+17
19200.0	4.3530613752681875e+17
19201.0	4.3609851096814925e+17
19202.0	4.360312065796778e+17
19203.0	4.3594908721042765e+17
19204.0	4.358751500894208e+17
19205.0	4.3580167720796154e+17
19206.0	4.357243485727402e+17
19207.0	4.356295131223379e+17
19208.0	4.3552314627194854e+17
19209.0	4.3549648217265485e+17
19210.0	4.35415197749521e+17
19211.0	4.353455746099881e+17
19212.0	4.352700429544106e+17
19213.0	4.351709785270955e+17
19214.0	4.350859751544149e+17
19215.0	4.3503857189956256e+17
19216.0	4.349675622629374e+17
19217.0	4.3489307904354976e+17
19218.0	4.346788237890899e+17
19219.0	4.3471810372567034e+17
19220.0	4.346606376364714e+17
19221.0	4.3453447059537914e+17
19222.0	4.3450835909563725e+17
19223.0	4.344330839217493e+17
19224.0	4.343530793205759e+17
19225.0	4.3426082147969696e+17
19226.0	4.342088003660459e+17
19227.0	4.3413253016343885e+17
19228.0	4.3405997464616954e+17
19229.0	4.3397613631133005e+17
19230.0	4.3390542915392845e+17
19231.0	4.338333569602899e+17
19232.0	4.337583820286634e+17
19233.0	4.3367165647476045e+17
19234.0	4.3359931465728e+17
19235.0	4.3352562653812045e+17
19236.0	4.334550919763284e+17
19237.0	4.333729649874261e+17
19238.0	4.332848402137087e+17
19239.0	4.332287894224895e+17
19240.0	4.3315017306603514e+17
19241.0	4.330755447936341e+17
19242.0	4.3299474201640954e+17
19243.0	4.329060736608938e+17
19244.0	4.3284965335149216e+17
19245.0	4.3277393875435514e+17
19246.0	4.3269899045655885e+17
19247.0	4.326261558782634e+17
19248.0	4.32549942858001e+17
19249.0	4.324548162529962e+17
19250.0	4.322421363092139e+17
19251.0	4.321582652588029e+17
19252.0	4.3221064952927565e+17
19253.0	4.321686826516479e+17
19254.0	4.32099371778048e+17
19255.0	4.319955264733183e+17
19256.0	4.3193978661983565e+17
19257.0	4.3187249600266234e+17
19258.0	4.317961180064426e+17
19259.0	4.3171404687168845e+17
19260.0	4.315620938088447e+17
19261.0	4.315722350766762e+17
19262.0	4.314815799492607e+17
19263.0	4.314033660362751e+17
19264.0	4.3124805599231974e+17
19265.0	4.3123084165993805e+17
19266.0	4.311170555751083e+17
19267.0	4.3112261442600954e+17
19268.0	4.310433661976576e+17
19269.0	4.3097103549508256e+17
19270.0	4.3089726572680525e+17
19271.0	4.307570309900973e+17
19272.0	4.307418295741098e+17
19273.0	4.306393610496681e+17
19274.0	4.3053884476402323e+17
19275.0	4.3052424033730554e+17
19276.0	4.3044620482205e+17
19277.0	4.303735171142997e+17
19278.0	4.3028417060973216e+17
19279.0	4.302193335205888e+17
19280.0	4.3013493629474125e+17
19281.0	4.30071898701824e+17
19282.0	4.3000044691565216e+17
19283.0	4.299084392650068e+17
19284.0	4.298428363658581e+17
19285.0	4.29745317749282e+17
19286.0	4.296885616159402e+17
19287.0	4.2960799924223994e+17
19288.0	4.2889893488448806e+17
19289.0	4.2797650858912186e+17
19290.0	4.2938540494247245e+17
19291.0	4.292845269680128e+17
19292.0	4.2925003468963834e+17
19293.0	4.291745192520362e+17
19294.0	4.290981970400597e+17
19295.0	4.2902701082323616e+17
19296.0	4.284657688379405e+17
19297.0	4.2879641938384256e+17
19298.0	4.287986727736661e+17
19299.0	4.281820650668038e+17
19300.0	4.286479086561962e+17
19301.0	4.2858016743096314e+17
19302.0	4.285067101383337e+17
19303.0	4.2841681557804365e+17
19304.0	4.2835198338225485e+17
19305.0	4.2827841438132896e+17
19306.0	4.282061695221759e+17
19307.0	4.281189712702123e+17
19308.0	4.280533961932799e+17
19309.0	4.279293181252948e+17
19310.0	4.278486652245332e+17
19311.0	4.2782043986548045e+17
19312.0	4.2774416623752525e+17
19313.0	4.276414046011391e+17
19314.0	4.188939389413994e+17
19315.0	4.1928400949303994e+17
19316.0	4.267932831973387e+17
19317.0	4.2737520960252576e+17
19318.0	4.273090912933204e+17
19319.0	4.272355914984106e+17
19320.0	4.269771553330511e+17
19321.0	4.2665996221153286e+17
19322.0	4.2701048872523085e+17
19323.0	4.26929260925201e+17
19324.0	4.268720002170879e+17
19325.0	4.267479278114133e+17
19326.0	4.2672498238204576e+17
19327.0	4.266467751100415e+17
19328.0	4.256471327266143e+17
19329.0	4.265045453526357e+17
19330.0	4.264251723437396e+17
19331.0	4.2635184738140154e+17
19332.0	4.262823133009238e+17
19333.0	4.262083515034281e+17
19334.0	4.2610966882768224e+17
19335.0	4.241686825096558e+17
19336.0	4.2597179345687904e+17
19337.0	4.2591258861895674e+17
19338.0	4.258062238657193e+17
19339.0	4.257611854992726e+17
19340.0	4.256163554831017e+17
19341.0	4.2493181696846656e+17
19342.0	4.252875673479856e+17
19343.0	4.2547019286664525e+17
19344.0	4.2470763757131206e+17
19345.0	4.246076181009747e+17
19346.0	4.251303983185922e+17
19347.0	4.24311227748625e+17
19348.0	4.251027338777941e+17
19349.0	4.250229011032746e+17
19350.0	4.2464057344655366e+17
19351.0	4.248666597840213e+17
19352.0	4.238759906246641e+17
19353.0	4.247315574773076e+17
19354.0	4.246609643350698e+17
19355.0	4.24572516040704e+17
19356.0	4.2451128759091194e+17
19357.0	4.24439602741248e+17
19358.0	4.2436485933520205e+17
19359.0	4.240875090258595e+17
19360.0	4.234924462702588e+17
19361.0	4.2413745724456954e+17
19362.0	4.2407157968841376e+17
19363.0	4.2399793637840205e+17
19364.0	4.23925757719347e+17
19365.0	4.238495873411753e+17
19366.0	4.23772174819874e+17
19367.0	4.237026110996479e+17
19368.0	4.2363129360110925e+17
19369.0	4.2355052465793696e+17
19370.0	4.234822595641343e+17
19371.0	4.2340186573154976e+17
19372.0	4.2333563627328845e+17
19373.0	4.2325771798882976e+17
19374.0	4.231867731542015e+17
19375.0	4.231172382348628e+17
19376.0	4.230455634515285e+17
19377.0	4.2297103793957536e+17
19378.0	4.2289864061747194e+17
19379.0	4.2282557800884896e+17
19380.0	4.22743766990848e+17
19381.0	4.226721204491604e+17
19382.0	4.225938031465812e+17
19383.0	4.225133311601321e+17
19384.0	4.224465611259904e+17
19385.0	4.223841731608576e+17
19386.0	4.223103348856149e+17
19387.0	4.22235745620241e+17
19388.0	4.221558633529344e+17
19389.0	4.2206979092206925e+17
19390.0	4.2197625074264736e+17
19391.0	4.198927553964687e+17
19392.0	4.217420854766249e+17
19393.0	4.2176931783420576e+17
19394.0	4.217030841117354e+17
19395.0	4.213531071217671e+17
19396.0	4.2149336164160877e+17
19397.0	4.2148544209660576e+17
19398.0	4.211832613677739e+17
19399.0	4.208696324958887e+17
19400.0	4.210691693783724e+17
19401.0	4.2119044229584205e+17
19402.0	4.2111981657784314e+17
19403.0	4.210442248738132e+17
19404.0	4.2096858004193274e+17
19405.0	4.20890757107985e+17
19406.0	4.208221733868885e+17
19407.0	4.204135738682022e+17
19408.0	4.205250372173829e+17
19409.0	4.205968090988544e+17
19410.0	4.205271440861866e+17
19411.0	4.20451312607778e+17
19412.0	4.203740904379734e+17
19413.0	4.199539964291755e+17
19414.0	4.202219264016383e+17
19415.0	4.2015017010899616e+17
19416.0	4.200419274260479e+17
19417.0	4.199728647853396e+17
19418.0	4.199259162629462e+17
19419.0	4.198487835017215e+17
19420.0	4.197731506236074e+17
19421.0	4.196967125789354e+17
19422.0	4.1961068279016096e+17
19423.0	4.1954145978722976e+17
19424.0	4.1946438805312845e+17
19425.0	4.1938121486499834e+17
19426.0	4.193048930724521e+17
19427.0	4.1922486575213216e+17
19428.0	4.191402351831723e+17
19429.0	4.190620739087017e+17
19430.0	4.1895901615445344e+17
19431.0	4.183965265734326e+17
19432.0	4.1879971488071654e+17
19433.0	4.18705745973521e+17
19434.0	4.1861191540845216e+17
19435.0	4.1846705840892576e+17
19436.0	4.181372086954662e+17
19437.0	4.182501883554474e+17
19438.0	4.136062287522485e+17
19439.0	4.177291194837675e+17
19440.0	4.178643484584618e+17
19441.0	4.177197986917034e+17
19442.0	4.175196277003606e+17
19443.0	4.172592001493674e+17
19444.0	4.1691615424675834e+17
19445.0	4.164314018261674e+17
19446.0	4.156838441735508e+17
19447.0	4.144122757644287e+17
19448.0	4.1189793717725875e+17
19449.0	4.055926493413376e+17
19450.0	3.873367074886988e+17
19451.0	3.732794238828545e+17
19452.0	3.932925482150572e+17
19453.0	4.076203396126041e+17
19454.0	4.1229502053526163e+17
19455.0	4.1421157209647763e+17
19456.0	4.151359306377898e+17
19457.0	4.155515573633024e+17
19458.0	3.883547501440152e+17
19459.0	4.1497920844158854e+17
19460.0	4.161894833192958e+17
19461.0	4.1629388590721696e+17
19462.0	4.1632537471440205e+17
19463.0	4.16334042103808e+17
19464.0	4.16315198284322e+17
19465.0	4.1629181538904736e+17
19466.0	4.162534072385534e+17
19467.0	4.162172078784512e+17
19468.0	4.16172580483891e+17
19469.0	4.15404599297091e+17
19470.0	4.1606729282792096e+17
19471.0	4.1601218638424736e+17
19472.0	4.1594389780234234e+17
19473.0	4.1587959961135776e+17
19474.0	4.1513705142572256e+17
19475.0	4.1558473647499923e+17
19476.0	4.1569255714106016e+17
19477.0	4.1562986404031136e+17
19478.0	4.155730594627583e+17
19479.0	4.1484548983575776e+17
19480.0	4.1543555829377696e+17
19481.0	4.15349562478865e+17
19482.0	4.15296071471377e+17
19483.0	4.152368443337386e+17
19484.0	4.1516347232529056e+17
19485.0	4.1508867767883085e+17
19486.0	4.1432455420313805e+17
19487.0	4.149563914278229e+17
19488.0	4.148933937506986e+17
19489.0	4.1482027479859206e+17
19490.0	4.1445426046784806e+17
19491.0	4.146752538017791e+17
19492.0	4.1461263647812256e+17
19493.0	4.1454037770786125e+17
19494.0	4.144682013556736e+17
19495.0	4.143962628205227e+17
19496.0	4.1422675673524883e+17
19497.0	4.1423680076513274e+17
19498.0	4.1384382922315104e+17
19499.0	4.108414454770328e+17
19500.0	4.140100089457323e+17
19501.0	4.139844390005418e+17
19502.0	4.139235235157332e+17
19503.0	4.138566790326954e+17
19504.0	4.137845463711743e+17
19505.0	4.137009738153982e+17
19506.0	4.1364405200704845e+17
19507.0	4.135657237293738e+17
19508.0	4.134938861371391e+17
19509.0	4.1341136327584416e+17
19510.0	4.1316195996357946e+17
19511.0	3.994554558578547e+17
19512.0	4.125551967775392e+17
19513.0	4.120921733682502e+17
19514.0	4.1230865342136237e+17
19515.0	4.128828841874778e+17
19516.0	4.128452874250921e+17
19517.0	4.128323434534228e+17
19518.0	4.126040306395815e+17
19519.0	4.1252664209571795e+17
19520.0	4.1201580320139846e+17
19521.0	4.1257979259562656e+17
19522.0	4.1241792580594323e+17
19523.0	4.12287303645048e+17
19524.0	4.1188042770568666e+17
19525.0	4.122846452252672e+17
19526.0	4.122233317709141e+17
19527.0	4.121518526518612e+17
19528.0	4.120382253913427e+17
19529.0	4.119432601971372e+17
19530.0	4.119420429402111e+17
19531.0	4.1187039786653e+17
19532.0	4.1179872420167686e+17
19533.0	4.117246315418965e+17
19534.0	4.1165888596650656e+17
19535.0	4.1158635750249805e+17
19536.0	4.1151039753857696e+17
19537.0	4.114410811424767e+17
19538.0	4.107712294027273e+17
19539.0	4.111913936661168e+17
19540.0	4.112299859465557e+17
19541.0	4.110368518788436e+17
19542.0	4.110383316991999e+17
19543.0	4.103866180872879e+17
19544.0	4.109140445451604e+17
19545.0	4.108083298391376e+17
19546.0	4.106239683679574e+17
19547.0	4.107412573257728e+17
19548.0	4.106692033773568e+17
19549.0	4.1058250669424634e+17
19550.0	4.105217347944447e+17
19551.0	4.1045819262675616e+17
19552.0	4.1038298777736525e+17
19553.0	4.1031255534687565e+17
19554.0	4.102320097503914e+17
19555.0	4.101032569208832e+17
19556.0	4.1005243090425146e+17
19557.0	4.1002610262889805e+17
19558.0	4.0996091223954765e+17
19559.0	4.0989178102196896e+17
19560.0	4.0959752088671526e+17
19561.0	4.097462260203519e+17
19562.0	4.0946277062191763e+17
19563.0	4.0961131993716045e+17
19564.0	4.095317374926848e+17
19565.0	4.094667037605887e+17
19566.0	4.0938870333767674e+17
19567.0	4.093290796285951e+17
19568.0	4.092556890953044e+17
19569.0	4.091850314306901e+17
19570.0	4.091136963859796e+17
19571.0	4.090435470710102e+17
19572.0	4.089720138454357e+17
19573.0	4.088348842218835e+17
19574.0	4.0879827172283725e+17
19575.0	4.0876658739118074e+17
19576.0	4.086626230381227e+17
19577.0	4.085274258003286e+17
19578.0	4.0854812133512525e+17
19579.0	4.084820472059221e+17
19580.0	4.0841038297825274e+17
19581.0	4.083361574988459e+17
19582.0	4.0827512310551885e+17
19583.0	4.0820684570842445e+17
19584.0	4.081318456109738e+17
19585.0	4.08049075355648e+17
19586.0	4.079755315205461e+17
19587.0	4.0791661364292256e+17
19588.0	4.0776901496668166e+17
19589.0	4.077830923091968e+17
19590.0	4.0768559983711565e+17
19591.0	4.0764276396960416e+17
19592.0	4.075722842832895e+17
19593.0	4.0744861033649485e+17
19594.0	4.0734633572870803e+17
19595.0	4.073613000966144e+17
19596.0	4.0728509784173216e+17
19597.0	4.072229089662293e+17
19598.0	4.07020044952098e+17
19599.0	4.0708324710154234e+17
19600.0	4.0701182027147936e+17
19601.0	4.0693384102980256e+17
19602.0	4.068677867536383e+17
19603.0	4.067097966892371e+17
19604.0	4.067306054702421e+17
19605.0	4.066159586443264e+17
19606.0	4.065914771909289e+17
19607.0	4.065261184701781e+17
19608.0	4.064467907597652e+17
19609.0	4.063768362702165e+17
19610.0	4.060089306578949e+17
19611.0	4.05788343052971e+17
19612.0	4.0617727086646605e+17
19613.0	4.061009217410389e+17
19614.0	4.0603123624618656e+17
19615.0	4.059685944557568e+17
19616.0	4.055769734796634e+17
19617.0	4.05367847299755e+17
19618.0	4.056369552424958e+17
19619.0	4.054810928786088e+17
19620.0	4.053303261047458e+17
19621.0	4.048896337291943e+17
19622.0	4.054806507989675e+17
19623.0	4.053842624774143e+17
19624.0	4.05261953986287e+17
19625.0	4.052719016869887e+17
19626.0	4.051986007719935e+17
19627.0	4.051333787156479e+17
19628.0	4.0502943533410995e+17
19629.0	4.034043622457335e+17
19630.0	4.049147237061974e+17
19631.0	4.036040318080332e+17
19632.0	4.047833195173204e+17
19633.0	4.047018166408533e+17
19634.0	4.046452851823955e+17
19635.0	4.045016500535291e+17
19636.0	4.037514046909091e+17
19637.0	4.036694227550199e+17
19638.0	4.043146276459858e+17
19639.0	4.042948478675625e+17
19640.0	4.042199137604949e+17
19641.0	4.038109430459063e+17
19642.0	4.0404713388113914e+17
19643.0	4.039770964841812e+17
19644.0	4.0394340986170016e+17
19645.0	4.038342123454463e+17
19646.0	4.030140208818846e+17
19647.0	4.037279963501907e+17
19648.0	4.036770133966847e+17
19649.0	4.0360400433534285e+17
19650.0	4.0353737355209376e+17
19651.0	4.034685738942463e+17
19652.0	4.033998814707712e+17
19653.0	4.033274346558804e+17
19654.0	4.03262166602001e+17
19655.0	4.031879544744619e+17
19656.0	4.031240225161215e+17
