# Flux units: erg / (cm m2 s)
# Wavelength units: Angstrom
wave	flux
19000.0	7.104162856697855e+17
19001.0	7.102799788987731e+17
19002.0	7.101514564763647e+17
19003.0	7.100189050055338e+17
19004.0	7.098863594067283e+17
19005.0	7.097539484450816e+17
19006.0	7.096214091377322e+17
19007.0	7.094868455194624e+17
19008.0	7.093538321159508e+17
19009.0	7.092201614650025e+17
19010.0	7.0907372517021e+17
19011.0	7.089569504340649e+17
19012.0	7.088189059629055e+17
19013.0	7.086930993523369e+17
19014.0	7.085575612574377e+17
19015.0	7.084259104434857e+17
19016.0	7.08292748841233e+17
19017.0	7.081607745066323e+17
19018.0	7.080286084923391e+17
19019.0	7.078965944516607e+17
19020.0	7.077622946551123e+17
19021.0	7.076306783742633e+17
19022.0	7.074985269002239e+17
19023.0	7.073648007446527e+17
19024.0	7.072318660542463e+17
19025.0	7.070997867222356e+17
19026.0	7.069660292491945e+17
19027.0	7.068300261457917e+17
19028.0	7.067016854765568e+17
19029.0	7.065688528475475e+17
19030.0	7.064360462232233e+17
19031.0	7.063032019899731e+17
19032.0	7.06170359714065e+17
19033.0	7.060339682181119e+17
19034.0	7.059046238519296e+17
19035.0	7.057701648116393e+17
19036.0	7.053361246721364e+17
19037.0	7.055059658822995e+17
19038.0	7.053722142812841e+17
19039.0	7.052403568279551e+17
19040.0	7.05107494838818e+17
19041.0	7.049745860132863e+17
19042.0	7.048385918577321e+17
19043.0	7.047089141841919e+17
19044.0	7.045759589416959e+17
19045.0	7.044431697936383e+17
19046.0	7.043083573133311e+17
19047.0	7.04176773608243e+17
19048.0	7.040368222666752e+17
19049.0	7.039091489112063e+17
19050.0	7.037772057542655e+17
19051.0	7.036001037844477e+17
19052.0	7.035047882959529e+17
19053.0	7.033802777952255e+17
19054.0	7.03247399658018e+17
19055.0	7.031045485144745e+17
19056.0	7.029809091706879e+17
19057.0	7.028489305019731e+17
19058.0	7.027161108753065e+17
19059.0	7.025832036575913e+17
19060.0	7.024495135730345e+17
19061.0	7.023176280877738e+17
19062.0	7.021846360752127e+17
19063.0	7.02051898237474e+17
19064.0	7.019146048263508e+17
19065.0	7.017793378932052e+17
19066.0	7.016511748527444e+17
19067.0	7.015207005410644e+17
19068.0	7.013880007316819e+17
19069.0	7.012552665290068e+17
19070.0	7.011221061151402e+17
19071.0	7.009897480716287e+17
19072.0	7.008569936663891e+17
19073.0	7.007240337402537e+17
19074.0	7.005915102314495e+17
19075.0	7.004587765880148e+17
19076.0	7.003252437199529e+17
19077.0	7.001928299621033e+17
19078.0	7.000594892630698e+17
19079.0	6.999279250614953e+17
19080.0	6.997949078132052e+17
19081.0	6.996610112290815e+17
19082.0	6.995281214876329e+17
19083.0	6.993932640583679e+17
19084.0	6.992549677192532e+17
19085.0	6.991318679726761e+17
19086.0	6.989841993913684e+17
19087.0	6.98857171399475e+17
19088.0	6.987306351897258e+17
19089.0	6.985897446036819e+17
19090.0	6.984678254837759e+17
19091.0	6.98334941684258e+17
19092.0	6.981996030984191e+17
19093.0	6.98070957363473e+17
19094.0	6.97937515581713e+17
19095.0	6.978047496421375e+17
19096.0	6.976725744702804e+17
19097.0	6.975406325017257e+17
19098.0	6.974082471952383e+17
19099.0	6.972756957943123e+17
19100.0	6.971432089856681e+17
19101.0	6.970105869806249e+17
19102.0	6.968746837715625e+17
19103.0	6.967457355573929e+17
19104.0	6.966132601432746e+17
19105.0	6.964807706782378e+17
19106.0	6.963466247427412e+17
19107.0	6.962152677397844e+17
19108.0	6.960833774310739e+17
19109.0	6.959230266026665e+17
19110.0	6.958176752631807e+17
19111.0	6.956861810365779e+17
19112.0	6.955538037691732e+17
19113.0	6.954214216783188e+17
19114.0	6.952890410554708e+17
19115.0	6.951552556204031e+17
19116.0	6.950233828578644e+17
19117.0	6.948910428498602e+17
19118.0	6.947550641433257e+17
19119.0	6.945043432603644e+17
19120.0	6.94492461146658e+17
19121.0	6.943607360236201e+17
19122.0	6.942303451785898e+17
19123.0	6.940979389704874e+17
19124.0	6.939641658387113e+17
19125.0	6.938331747188735e+17
19126.0	6.937008510686548e+17
19127.0	6.935025656266751e+17
19128.0	6.934232974753791e+17
19129.0	6.933011712966655e+17
19130.0	6.93171774431778e+17
19131.0	6.930398896455679e+17
19132.0	6.929075506162346e+17
19133.0	6.927634473331369e+17
19134.0	6.926372396072959e+17
19135.0	6.925110740342099e+17
19136.0	6.923789856844458e+17
19137.0	6.922405797341866e+17
19138.0	6.921133031598761e+17
19139.0	6.919823966251689e+17
19140.0	6.918503293168297e+17
19141.0	6.917181756058281e+17
19142.0	6.915850795046227e+17
19143.0	6.914519402020863e+17
19144.0	6.913213527141033e+17
19145.0	6.911896635921748e+17
19146.0	6.910352418319018e+17
19147.0	6.909216293912575e+17
19148.0	6.907931503099903e+17
19149.0	6.906610894329171e+17
19150.0	6.905287286631082e+17
19151.0	6.90397035696401e+17
19152.0	6.902646015262719e+17
19153.0	6.901320937461076e+17
19154.0	6.899958099039571e+17
19155.0	6.898687095603199e+17
19156.0	6.89736503070993e+17
19157.0	6.896039424425983e+17
19158.0	6.894531073015805e+17
19159.0	6.893395723157501e+17
19160.0	6.892077895909375e+17
19161.0	6.890748221849599e+17
19162.0	6.889007300476927e+17
19163.0	6.888109276222803e+17
19164.0	6.886801934734675e+17
19165.0	6.8854732043933e+17
19166.0	6.8841107357696e+17
19167.0	6.882799894833834e+17
19168.0	6.881496985326932e+17
19169.0	6.88017916437026e+17
19170.0	6.878879019608746e+17
19171.0	6.877534222286847e+17
19172.0	6.876238243867305e+17
19173.0	6.874918052429824e+17
19174.0	6.873576866403668e+17
19175.0	6.87227849024034e+17
19176.0	6.870957993317716e+17
19177.0	6.869578641921363e+17
19178.0	6.868305668560212e+17
19179.0	6.866961884861779e+17
19180.0	6.8656597841565e+17
19181.0	6.86431523709474e+17
19182.0	6.863020178625876e+17
19183.0	6.861711715161428e+17
19184.0	6.860372315209727e+17
19185.0	6.859068732517033e+17
19186.0	6.857750255850835e+17
19187.0	6.856404555355476e+17
19188.0	6.855107469639679e+17
19189.0	6.853782324030122e+17
19190.0	6.852458133323775e+17
19191.0	6.851140653503827e+17
19192.0	6.849823049951913e+17
19193.0	6.848494241316863e+17
19194.0	6.847177252230484e+17
19195.0	6.845858119854761e+17
19196.0	6.844531230812841e+17
19197.0	6.843207662960639e+17
19198.0	6.841879231812948e+17
19199.0	6.837987105745576e+17
19200.0	6.83745231171311e+17
19201.0	6.83791405495091e+17
19202.0	6.836600236758356e+17
19203.0	6.835279565772116e+17
19204.0	6.83358911655663e+17
19205.0	6.83202150801954e+17
19206.0	6.830693320141481e+17
19207.0	6.829348023697407e+17
19208.0	6.827977076288169e+17
19209.0	6.826728616536746e+17
19210.0	6.825404430723753e+17
19211.0	6.824079682874026e+17
19212.0	6.822755693494271e+17
19213.0	6.821385147340116e+17
19214.0	6.820040629638484e+17
19215.0	6.818769986213203e+17
19216.0	6.817451498362195e+17
19217.0	6.816128857451178e+17
19218.0	6.814485866086397e+17
19219.0	6.813413937599827e+17
19220.0	6.812140105804457e+17
19221.0	6.810698919182336e+17
19222.0	6.809491944592723e+17
19223.0	6.808166111117311e+17
19224.0	6.806822900640425e+17
19225.0	6.805453666604372e+17
19226.0	6.80418180403473e+17
19227.0	6.80284397904418e+17
19228.0	6.801523143081983e+17
19229.0	6.800192844769961e+17
19230.0	6.798860875726847e+17
19231.0	6.797531781879123e+17
19232.0	6.796192093219497e+17
19233.0	6.794839505676968e+17
19234.0	6.79352608035089e+17
19235.0	6.792193461190655e+17
19236.0	6.790868740603903e+17
19237.0	6.789528524161023e+17
19238.0	6.788162206564351e+17
19239.0	6.786865485053951e+17
19240.0	6.785486490173439e+17
19241.0	6.784170011394047e+17
19242.0	6.782848943347028e+17
19243.0	6.781451637533353e+17
19244.0	6.780181320564735e+17
19245.0	6.778842309984255e+17
19246.0	6.777496586420223e+17
19247.0	6.776161688354815e+17
19248.0	6.774821547409407e+17
19249.0	6.773479147831295e+17
19250.0	6.772134552535039e+17
19251.0	6.770741840882346e+17
19252.0	6.769338985305427e+17
19253.0	6.768100474443091e+17
19254.0	6.7667517519517e+17
19255.0	6.765340463027539e+17
19256.0	6.76404690821666e+17
19257.0	6.762715580902057e+17
19258.0	6.761365559574528e+17
19259.0	6.759987344135508e+17
19260.0	6.758611330706089e+17
19261.0	6.757310737154048e+17
19262.0	6.755937950542505e+17
19263.0	6.754579248403796e+17
19264.0	6.753052245622783e+17
19265.0	6.751816498107731e+17
19266.0	6.750469579866111e+17
19267.0	6.749171332328105e+17
19268.0	6.747810451248468e+17
19269.0	6.746448263643136e+17
19270.0	6.745083874028201e+17
19271.0	6.74359402369297e+17
19272.0	6.742339145957375e+17
19273.0	6.739756292855122e+17
19274.0	6.738903267890516e+17
19275.0	6.738245250798932e+17
19276.0	6.736865675007316e+17
19277.0	6.73549982367744e+17
19278.0	6.73412424086323e+17
19279.0	6.732744902049791e+17
19280.0	6.731235761411411e+17
19281.0	6.729836024998569e+17
19282.0	6.728453946605567e+17
19283.0	6.727030522161833e+17
19284.0	6.725636446661289e+17
19285.0	6.724220204264106e+17
19286.0	6.722891524254378e+17
19287.0	6.721510891498153e+17
19288.0	6.719250333608616e+17
19289.0	6.716801752061265e+17
19290.0	6.717319807325524e+17
19291.0	6.715814998005076e+17
19292.0	6.714513805366612e+17
19293.0	6.713103932020052e+17
19294.0	6.711697804186963e+17
19295.0	6.710285772171945e+17
19296.0	6.708871032034643e+17
19297.0	6.707452789653503e+17
19298.0	6.706032986292223e+17
19299.0	6.704609584218111e+17
19300.0	6.703182180777983e+17
19301.0	6.70175044182562e+17
19302.0	6.700313131439444e+17
19303.0	6.698852513305939e+17
19304.0	6.697425638348116e+17
19305.0	6.69600014541346e+17
19306.0	6.694553760650582e+17
19307.0	6.693080029724672e+17
19308.0	6.691633533812735e+17
19309.0	6.690100077395967e+17
19310.0	6.688601752469503e+17
19311.0	6.687238288397652e+17
19312.0	6.685792295103146e+17
19313.0	6.68430696063522e+17
19314.0	6.681033191019862e+17
19315.0	6.679638373127511e+17
19316.0	6.679858883766953e+17
19317.0	6.678384908173311e+17
19318.0	6.676911744177491e+17
19319.0	6.675408015589375e+17
19320.0	6.673895662813183e+17
19321.0	6.671750119030781e+17
19322.0	6.669957193181866e+17
19323.0	6.668433269719039e+17
19324.0	6.666937821386068e+17
19325.0	6.66531976515857e+17
19326.0	6.66385145537058e+17
19327.0	6.662294123577343e+17
19328.0	6.660739967571284e+17
19329.0	6.659173457941844e+17
19330.0	6.657584131298644e+17
19331.0	6.655999691019604e+17
19332.0	6.654425196833449e+17
19333.0	6.652828913238015e+17
19334.0	6.651219509160617e+17
19335.0	6.649607866023935e+17
19336.0	6.647983086327123e+17
19337.0	6.646348313001983e+17
19338.0	6.644626584065363e+17
19339.0	6.643056802179753e+17
19340.0	6.641373511942143e+17
19341.0	6.63971496600098e+17
19342.0	6.637900847033001e+17
19343.0	6.636347593501353e+17
19344.0	6.634642875962708e+17
19345.0	6.632217675563005e+17
19346.0	6.630865084525225e+17
19347.0	6.6294278272669e+17
19348.0	6.627151298166783e+17
19349.0	6.624738853344595e+17
19350.0	6.622953354209961e+17
19351.0	6.621154087272447e+17
19352.0	6.619320561259859e+17
19353.0	6.617519186684585e+17
19354.0	6.615673203589119e+17
19355.0	6.613777476747261e+17
19356.0	6.611928094168404e+17
19357.0	6.610029193636522e+17
19358.0	6.608099318169599e+17
19359.0	6.606109652899158e+17
19360.0	6.604201036262057e+17
19361.0	6.602224925584042e+17
19362.0	6.599021131639465e+17
19363.0	6.596661850319529e+17
19364.0	6.594612672768681e+17
19365.0	6.59254019166481e+17
19366.0	6.590441699584682e+17
19367.0	6.588317339833684e+17
19368.0	6.586165998824106e+17
19369.0	6.583950438825984e+17
19370.0	6.581350287015933e+17
19371.0	6.577535998143146e+17
19372.0	6.575272544785748e+17
19373.0	6.572955102347263e+17
19374.0	6.570602299129855e+17
19375.0	6.568211067699199e+17
19376.0	6.565649308450813e+17
19377.0	6.560872135305897e+17
19378.0	6.558347383100755e+17
19379.0	6.555777088443732e+17
19380.0	6.553159991645523e+17
19381.0	6.54912363255125e+17
19382.0	6.544785029114536e+17
19383.0	6.541977338948266e+17
19384.0	6.539171785779882e+17
19385.0	6.533456478950739e+17
19386.0	6.529787515721044e+17
19387.0	6.52673058742818e+17
19388.0	6.52032728052531e+17
19389.0	6.516303680503808e+17
19390.0	6.511745797455866e+17
19391.0	6.501971832515238e+17
19392.0	6.500627346969937e+17
19393.0	6.494645318057981e+17
19394.0	6.490908909021865e+17
19395.0	6.487073015289172e+17
19396.0	6.48313230799667e+17
19397.0	6.479091664420863e+17
19398.0	6.474926756899497e+17
19399.0	6.470424203711827e+17
19400.0	6.46625361011234e+17
19401.0	6.461763126733482e+17
19402.0	6.457116229369855e+17
19403.0	6.451678651875328e+17
19404.0	6.446600117288959e+17
19405.0	6.441490081382397e+17
19406.0	6.436215782550185e+17
19407.0	6.430768769968808e+17
19408.0	6.424866297916074e+17
19409.0	6.418110975661396e+17
19410.0	6.412103285298516e+17
19411.0	6.405872432797012e+17
19412.0	6.398720699880787e+17
19413.0	6.391022065374548e+17
19414.0	6.384026459133267e+17
19415.0	6.374993009748649e+17
19416.0	6.366893682895529e+17
19417.0	6.356583542598314e+17
19418.0	6.34694478454238e+17
19419.0	6.335622325906089e+17
19420.0	6.322387822488232e+17
19421.0	6.308341504540672e+17
19422.0	6.291841869676545e+17
19423.0	6.271927817601014e+17
19424.0	6.24943427835222e+17
19425.0	6.229530769358847e+17
19426.0	6.215034842294953e+17
19427.0	6.199859997922644e+17
19428.0	6.183601416699903e+17
19429.0	6.166724643302057e+17
19430.0	6.148975238665558e+17
19431.0	6.129855898845184e+17
19432.0	6.109700607879848e+17
19433.0	6.088592597538134e+17
19434.0	6.066110291334483e+17
19435.0	6.041087056893267e+17
19436.0	6.01288398008047e+17
19437.0	5.980187147632636e+17
19438.0	5.937056822504105e+17
19439.0	5.886294681627308e+17
19440.0	5.834351156308649e+17
19441.0	5.789401324628648e+17
19442.0	5.7407563796316166e+17
19443.0	5.6848273539508883e+17
19444.0	5.616780390520147e+17
19445.0	5.52780647436562e+17
19446.0	5.4274613631604045e+17
19447.0	5.317538084814842e+17
19448.0	5.1715640316832506e+17
19449.0	4.977788907945983e+17
19450.0	4.680846230770982e+17
19451.0	4.5965759364464666e+17
19452.0	4.834067472187395e+17
19453.0	5.08321968685057e+17
19454.0	5.2467129129806445e+17
19455.0	5.3699932928518835e+17
19456.0	5.4691860386065165e+17
19457.0	5.5651078193370394e+17
19458.0	5.6376031154885997e+17
19459.0	5.6985685404767584e+17
19460.0	5.748291436281852e+17
19461.0	5.792517106696191e+17
19462.0	5.836109479149564e+17
19463.0	5.891013776943784e+17
19464.0	5.934599753083566e+17
19465.0	5.968065844652714e+17
19466.0	5.996064008044543e+17
19467.0	6.019906314523986e+17
19468.0	6.040955531209388e+17
19469.0	6.060488038634835e+17
19470.0	6.078986479555924e+17
19471.0	6.096345690887508e+17
19472.0	6.112130744975359e+17
19473.0	6.126967091538602e+17
19474.0	6.141229711840596e+17
19475.0	6.154249424950611e+17
19476.0	6.166889758370473e+17
19477.0	6.180520100626432e+17
19478.0	6.201066376222029e+17
19479.0	6.219725552659114e+17
19480.0	6.234780351856637e+17
19481.0	6.247629026142884e+17
19482.0	6.258526651416576e+17
19483.0	6.267707306890582e+17
19484.0	6.276431940157439e+17
19485.0	6.283946467786753e+17
19486.0	6.290189422952447e+17
19487.0	6.296677498137256e+17
19488.0	6.302031828484096e+17
19489.0	6.306523914786134e+17
19490.0	6.311755875614719e+17
19491.0	6.316092059637075e+17
19492.0	6.319778483055274e+17
19493.0	6.323727578256726e+17
19494.0	6.327673728357716e+17
19495.0	6.330749495366995e+17
19496.0	6.333526174946644e+17
19497.0	6.336373211878739e+17
19498.0	6.33861040120354e+17
19499.0	6.337774403016019e+17
19500.0	6.344359834288127e+17
19501.0	6.346480546392746e+17
19502.0	6.348464222896128e+17
19503.0	6.35032593113634e+17
19504.0	6.352072734321322e+17
19505.0	6.353708422703785e+17
19506.0	6.355232855075498e+17
19507.0	6.356649084889769e+17
19508.0	6.357967880323071e+17
19509.0	6.359963996433066e+17
19510.0	6.36277832688162e+17
19511.0	6.360553848395089e+17
19512.0	6.368857216953001e+17
19513.0	6.369221608996861e+17
19514.0	6.372279769017005e+17
19515.0	6.375479558799359e+17
19516.0	6.37621998068258e+17
19517.0	6.378069926696279e+17
19518.0	6.380439580530004e+17
19519.0	6.380789867828563e+17
19520.0	6.381080110170111e+17
19521.0	6.383095500505088e+17
19522.0	6.384284118024191e+17
19523.0	6.384409508839423e+17
19524.0	6.384488174409044e+17
19525.0	6.384513842850474e+17
19526.0	6.386493701838164e+17
19527.0	6.386744696679082e+17
19528.0	6.386648231182335e+17
19529.0	6.386514908938239e+17
19530.0	6.386346820108287e+17
19531.0	6.386145524973567e+17
19532.0	6.38667716488943e+17
19533.0	6.387485033278121e+17
19534.0	6.387183193686013e+17
19535.0	6.386853167671978e+17
19536.0	6.386481320252756e+17
19537.0	6.386115137241087e+17
19538.0	6.385666724899498e+17
19539.0	6.385083531395072e+17
19540.0	6.384814306710867e+17
19541.0	6.384475234282153e+17
19542.0	6.385294188216319e+17
19543.0	6.384774307730771e+17
19544.0	6.384234815378772e+17
19545.0	6.38349718130961e+17
19546.0	6.382777318506495e+17
19547.0	6.382504639113897e+17
19548.0	6.381893057860948e+17
19549.0	6.381229398032383e+17
19550.0	6.380624720603817e+17
19551.0	6.379967796128425e+17
19552.0	6.379294763428521e+17
19553.0	6.37859907379746e+17
19554.0	6.377894518106793e+17
19555.0	6.37719467261952e+17
19556.0	6.376468409308502e+17
19557.0	6.376346996790614e+17
19558.0	6.376052552455508e+17
19559.0	6.375285183567188e+17
19560.0	6.374502174119252e+17
19561.0	6.37372735824418e+17
19562.0	6.372930927722495e+17
19563.0	6.372124427375956e+17
19564.0	6.371309492284073e+17
19565.0	6.370484957129386e+17
19566.0	6.369643695789396e+17
19567.0	6.368807815741439e+17
19568.0	6.367946520308396e+17
19569.0	6.367095199629311e+17
19570.0	6.366231063254356e+17
19571.0	6.36535395389713e+17
19572.0	6.364461849903103e+17
19573.0	6.363574445626708e+17
19574.0	6.362651191934976e+17
19575.0	6.36178296541457e+17
19576.0	6.360873345307988e+17
19577.0	6.359947949725011e+17
19578.0	6.359017537055401e+17
19579.0	6.358095401844735e+17
19580.0	6.357161138804052e+17
19581.0	6.356224263411027e+17
19582.0	6.355284684789076e+17
19583.0	6.354333612376063e+17
19584.0	6.353374412100948e+17
19585.0	6.352374199921321e+17
19586.0	6.351393788351827e+17
19587.0	6.35046107161122e+17
19588.0	6.349325470094675e+17
19589.0	6.348514403549183e+17
19590.0	6.347509881023146e+17
19591.0	6.346551491646804e+17
19592.0	6.345558755115007e+17
19593.0	6.344900289931945e+17
19594.0	6.344234140783956e+17
19595.0	6.343300437682858e+17
19596.0	6.341961202008064e+17
19597.0	6.341280493032788e+17
19598.0	6.340174009772714e+17
19599.0	6.339265731144361e+17
19600.0	6.338244380371625e+17
19601.0	6.337193373073407e+17
19602.0	6.336172020902569e+17
19603.0	6.334976179393876e+17
19604.0	6.334102596048212e+17
19605.0	6.332978117825876e+17
19606.0	6.332051753358676e+17
19607.0	6.331012536948051e+17
19608.0	6.329966489414314e+17
19609.0	6.328904610480127e+17
19610.0	6.327873196873044e+17
19611.0	6.32681986593041e+17
19612.0	6.325768760066047e+17
19613.0	6.324713071225513e+17
19614.0	6.323638740101801e+17
19615.0	6.322594498914985e+17
19616.0	6.321511060559188e+17
19617.0	6.320469422637055e+17
19618.0	6.319192698170025e+17
19619.0	6.318079224403283e+17
19620.0	6.317018380064084e+17
19621.0	6.316195090617684e+17
19622.0	6.31512221421841e+17
19623.0	6.314047523782656e+17
19624.0	6.312971222734163e+17
19625.0	6.311893088774826e+17
19626.0	6.310813778313215e+17
19627.0	6.309732416836948e+17
19628.0	6.308589641662464e+17
19629.0	6.307531347460095e+17
19630.0	6.306305857814527e+17
19631.0	6.3026428917405e+17
19632.0	6.304303826337791e+17
19633.0	6.303209197578921e+17
19634.0	6.30212812341248e+17
19635.0	6.301020941101738e+17
19636.0	6.299944691782995e+17
19637.0	6.298698283046228e+17
19638.0	6.297753020443306e+17
19639.0	6.296653218709503e+17
19640.0	6.295523527666346e+17
19641.0	6.29421714247953e+17
19642.0	6.293366948670121e+17
19643.0	6.29226440036625e+17
19644.0	6.291141529261395e+17
19645.0	6.289961816948733e+17
19646.0	6.288962227623252e+17
19647.0	6.287858889392127e+17
19648.0	6.286754827643561e+17
19649.0	6.2856486729373e+17
19650.0	6.284543950585855e+17
19651.0	6.28343743516945e+17
19652.0	6.282330156389716e+17
19653.0	6.281221422186495e+17
19654.0	6.280113499581098e+17
19655.0	6.279002304020479e+17
19656.0	6.27789144400418e+17
19657.0	6.27678339207441e+17
19658.0	6.275672128006825e+17
19659.0	6.274559669960703e+17
19660.0	6.27344784106018e+17
19661.0	6.272334816783018e+17
19662.0	6.271221253537792e+17
19663.0	6.270089740768598e+17
19664.0	6.268982294915753e+17
19665.0	6.267877376131072e+17
