# Flux units: erg / (cm m2 s)
# Wavelength units: Angstrom
wave	flux
19000.0	6.833952284562772e+17
19001.0	6.832639417079123e+17
19002.0	6.831390187672916e+17
19003.0	6.830108251084116e+17
19004.0	6.828826442421588e+17
19005.0	6.827546032559444e+17
19006.0	6.826264567829843e+17
19007.0	6.824971106691753e+17
19008.0	6.823681406446249e+17
19009.0	6.82239812768017e+17
19010.0	6.820990869482153e+17
19011.0	6.81984661791266e+17
19012.0	6.818531932897279e+17
19013.0	6.81729402671377e+17
19014.0	6.815989295480831e+17
19015.0	6.81471622914594e+17
19016.0	6.813430816877225e+17
19017.0	6.812151331160063e+17
19018.0	6.810879395190099e+17
19019.0	6.809603836739583e+17
19020.0	6.808307250845012e+17
19021.0	6.807035851745962e+17
19022.0	6.805761204857514e+17
19023.0	6.804465596235775e+17
19024.0	6.803189560333652e+17
19025.0	6.80191503508002e+17
19026.0	6.800625687156051e+17
19027.0	6.799332862154068e+17
19028.0	6.798074465397417e+17
19029.0	6.796793373261823e+17
19030.0	6.79551270265378e+17
19031.0	6.79423191879953e+17
19032.0	6.792951223025663e+17
19033.0	6.791641781589331e+17
19034.0	6.790389848255146e+17
19035.0	6.78909755662882e+17
19036.0	6.786260469284861e+17
19037.0	6.786548620765866e+17
19038.0	6.785260631796394e+17
19039.0	6.783988614736553e+17
19040.0	6.78270859354658e+17
19041.0	6.781428565366099e+17
19042.0	6.780122769478995e+17
19043.0	6.778869212949161e+17
19044.0	6.777588832447146e+17
19045.0	6.776310073043626e+17
19046.0	6.775014706992468e+17
19047.0	6.773748062137001e+17
19048.0	6.772406811099135e+17
19049.0	6.771172520405674e+17
19050.0	6.769900687196159e+17
19051.0	6.76838399681058e+17
19052.0	6.767323780917929e+17
19053.0	6.766077890177705e+17
19054.0	6.764799439055529e+17
19055.0	6.763439364680362e+17
19056.0	6.762235934976681e+17
19057.0	6.76096185012497e+17
19058.0	6.759683128470185e+17
19059.0	6.758408948547583e+17
19060.0	6.757123657913684e+17
19061.0	6.755853928147625e+17
19062.0	6.754574985592831e+17
19063.0	6.753298383459667e+17
19064.0	6.751984769389908e+17
19065.0	6.750686941282301e+17
19066.0	6.749447529343657e+17
19067.0	6.748190410451625e+17
19068.0	6.746914038306132e+17
19069.0	6.745637989122047e+17
19070.0	6.744358504802986e+17
19071.0	6.743085639794687e+17
19072.0	6.741809635349844e+17
19073.0	6.740532085303977e+17
19074.0	6.739258133970943e+17
19075.0	6.737982603482452e+17
19076.0	6.7367002977949e+17
19077.0	6.735428299609427e+17
19078.0	6.734146683884884e+17
19079.0	6.732881990079827e+17
19080.0	6.731605143977983e+17
19081.0	6.730319577918121e+17
19082.0	6.729043216258387e+17
19083.0	6.727752761737215e+17
19084.0	6.726432133393065e+17
19085.0	6.725235677418836e+17
19086.0	6.723839220951721e+17
19087.0	6.722639924035583e+17
19088.0	6.721391429331626e+17
19089.0	6.720060531234132e+17
19090.0	6.718861346865151e+17
19091.0	6.717586112075091e+17
19092.0	6.716296318156799e+17
19093.0	6.715049526340265e+17
19094.0	6.713769225530025e+17
19095.0	6.712494977100457e+17
19096.0	6.711226294512297e+17
19097.0	6.709959705580884e+17
19098.0	6.708688737796095e+17
19099.0	6.707416631257769e+17
19100.0	6.706145432786259e+17
19101.0	6.704873643616938e+17
19102.0	6.703573471592447e+17
19103.0	6.702331927549268e+17
19104.0	6.701061039456255e+17
19105.0	6.699790270900905e+17
19106.0	6.698510985811284e+17
19107.0	6.697244575137791e+17
19108.0	6.695978994936489e+17
19109.0	6.694562635797844e+17
19110.0	6.693436663704233e+17
19111.0	6.692169521823743e+17
19112.0	6.690900016452948e+17
19113.0	6.689630646697984e+17
19114.0	6.688361427937961e+17
19115.0	6.687082752420521e+17
19116.0	6.685816030669481e+17
19117.0	6.684548130319017e+17
19118.0	6.683254039336276e+17
19119.0	6.681003017895933e+17
19120.0	6.680736843868842e+17
19121.0	6.679471926367572e+17
19122.0	6.678213635866623e+17
19123.0	6.67694459326737e+17
19124.0	6.675669933096959e+17
19125.0	6.674409440586409e+17
19126.0	6.673140691588436e+17
19127.0	6.671334687899647e+17
19128.0	6.670538638360575e+17
19129.0	6.669315159883773e+17
19130.0	6.668073561314644e+17
19131.0	6.666808836751359e+17
19132.0	6.66554169626897e+17
19133.0	6.664165343799977e+17
19134.0	6.662976724882772e+17
19135.0	6.661744973840383e+17
19136.0	6.66047982215714e+17
19137.0	6.659163042785961e+17
19138.0	6.657938796052479e+17
19139.0	6.656683291268436e+17
19140.0	6.655418701621929e+17
19141.0	6.654153782722559e+17
19142.0	6.652881077796863e+17
19143.0	6.651607581545812e+17
19144.0	6.650357214784169e+17
19145.0	6.649095666008063e+17
19146.0	6.647647771295743e+17
19147.0	6.646538627448831e+17
19148.0	6.645302614294527e+17
19149.0	6.644039113768959e+17
19150.0	6.642772832419837e+17
19151.0	6.641512693628927e+17
19152.0	6.640246138251946e+17
19153.0	6.638979530446163e+17
19154.0	6.637682365038591e+17
19155.0	6.636460137862484e+17
19156.0	6.635196382882473e+17
19157.0	6.633932284668585e+17
19158.0	6.632569526637907e+17
19159.0	6.631403340955647e+17
19160.0	6.630143046975487e+17
19161.0	6.628876093139626e+17
19162.0	6.627394095240531e+17
19163.0	6.626357593243647e+17
19164.0	6.625099508962644e+17
19165.0	6.623833254177449e+17
19166.0	6.622538025140223e+17
19167.0	6.621293499645951e+17
19168.0	6.620028759703551e+17
19169.0	6.618774564241408e+17
19170.0	6.617530662300329e+17
19171.0	6.616256710268243e+17
19172.0	6.615009108251988e+17
19173.0	6.613748094249642e+17
19174.0	6.612469946515455e+17
19175.0	6.611227381858303e+17
19176.0	6.609966832025599e+17
19177.0	6.608658592956413e+17
19178.0	6.607441227677695e+17
19179.0	6.606167278441812e+17
19180.0	6.604913526876842e+17
19181.0	6.603631811188052e+17
19182.0	6.602391974925652e+17
19183.0	6.601143880078675e+17
19184.0	6.59986352963584e+17
19185.0	6.598622917427199e+17
19186.0	6.597365217624063e+17
19187.0	6.596085429217961e+17
19188.0	6.594845386036563e+17
19189.0	6.593583859630079e+17
19190.0	6.592322749857791e+17
19191.0	6.59106580083507e+17
19192.0	6.589808317038591e+17
19193.0	6.588543479229098e+17
19194.0	6.587287789196627e+17
19195.0	6.586030402568191e+17
19196.0	6.584767581519871e+17
19197.0	6.58350812570146e+17
19198.0	6.582249181588138e+17
19199.0	6.579635218634067e+17
19200.0	6.578825709573462e+17
19201.0	6.578472427541844e+17
19202.0	6.577215972048895e+17
19203.0	6.575957445967871e+17
19204.0	6.574690294300671e+17
19205.0	6.573439234080767e+17
19206.0	6.572176110343508e+17
19207.0	6.570900972022441e+17
19208.0	6.569597859790847e+17
19209.0	6.568402994855935e+17
19210.0	6.567143592165375e+17
19211.0	6.565883738587135e+17
19212.0	6.564625132115284e+17
19213.0	6.563333610842793e+17
19214.0	6.562062472489642e+17
19215.0	6.560841628734804e+17
19216.0	6.559583139004415e+17
19217.0	6.558327416815615e+17
19218.0	6.556808931267923e+17
19219.0	6.555757103983273e+17
19220.0	6.554540276973567e+17
19221.0	6.553185418215424e+17
19222.0	6.552026991296511e+17
19223.0	6.550766809164457e+17
19224.0	6.549492143401642e+17
19225.0	6.548199752510121e+17
19226.0	6.546986473182548e+17
19227.0	6.545718666504874e+17
19228.0	6.544465296621568e+17
19229.0	6.543204075001172e+17
19230.0	6.541941619556351e+17
19231.0	6.54068186943761e+17
19232.0	6.539412108214272e+17
19233.0	6.538135056591529e+17
19234.0	6.536888365438291e+17
19235.0	6.53562668524066e+17
19236.0	6.534371547458217e+17
19237.0	6.533103818375165e+17
19238.0	6.531816141881343e+17
19239.0	6.530583565959167e+17
19240.0	6.529272806113279e+17
19241.0	6.528034560890195e+17
19242.0	6.526787216823636e+17
19243.0	6.525473078465875e+17
19244.0	6.524264318500863e+17
19245.0	6.523000035038548e+17
19246.0	6.521729795664553e+17
19247.0	6.520468655134036e+17
19248.0	6.519203630678015e+17
19249.0	6.517936951569065e+17
19250.0	6.516668663944531e+17
19251.0	6.515365172827476e+17
19252.0	6.514042054464852e+17
19253.0	6.512865101305171e+17
19254.0	6.511592720039935e+17
19255.0	6.510270560774825e+17
19256.0	6.509050750915924e+17
19257.0	6.507792481386495e+17
19258.0	6.506521805105833e+17
19259.0	6.505227744182272e+17
19260.0	6.503953266464084e+17
19261.0	6.502708127902378e+17
19262.0	6.50141990055663e+17
19263.0	6.500144957270698e+17
19264.0	6.498724062691327e+17
19265.0	6.49755517797444e+17
19266.0	6.496288440844287e+17
19267.0	6.49506417733359e+17
19268.0	6.493787804489043e+17
19269.0	6.4925106976413e+17
19270.0	6.491232435262803e+17
19271.0	6.489850992306858e+17
19272.0	6.488663221338111e+17
19273.0	6.486078099117394e+17
19274.0	6.485399480303615e+17
19275.0	6.48483095777553e+17
19276.0	6.483541822362964e+17
19277.0	6.48226450510097e+17
19278.0	6.48097970520064e+17
19279.0	6.479691916858707e+17
19280.0	6.478382260114771e+17
19281.0	6.4771181262493e+17
19282.0	6.4758297409181e+17
19283.0	6.474518825882963e+17
19284.0	6.473220144933546e+17
19285.0	6.471893464907775e+17
19286.0	6.470651799928831e+17
19287.0	6.469366723903487e+17
19288.0	6.467651878518783e+17
19289.0	6.465744357993128e+17
19290.0	6.465491895145812e+17
19291.0	6.464115893600255e+17
19292.0	6.462898058559487e+17
19293.0	6.461591662886911e+17
19294.0	6.460289054670847e+17
19295.0	6.458982080184319e+17
19296.0	6.457673419587583e+17
19297.0	6.456362267574271e+17
19298.0	6.454425291150676e+17
19299.0	6.453087975069012e+17
19300.0	6.451771498386772e+17
19301.0	6.450451645289811e+17
19302.0	6.4491291686557e+17
19303.0	6.44778439090722e+17
19304.0	6.446471117275135e+17
19305.0	6.445154188307113e+17
19306.0	6.443832211494227e+17
19307.0	6.442482204846762e+17
19308.0	6.441155795353599e+17
19309.0	6.439783904925012e+17
19310.0	6.438423155965951e+17
19311.0	6.437134856617983e+17
19312.0	6.435805769760767e+17
19313.0	6.434446023939412e+17
19314.0	6.432175991816191e+17
19315.0	6.43087833567505e+17
19316.0	6.43039631647266e+17
19317.0	6.429040262337875e+17
19318.0	6.427670872413523e+17
19319.0	6.426310323382953e+17
19320.0	6.424936995706195e+17
19321.0	6.423566205583359e+17
19322.0	6.422152529401172e+17
19323.0	6.420785009437353e+17
19324.0	6.419419953627135e+17
19325.0	6.417988645289984e+17
19326.0	6.416634788271444e+17
19327.0	6.415230828194473e+17
19328.0	6.413831778249386e+17
19329.0	6.412422975149398e+17
19330.0	6.410996274954237e+17
19331.0	6.409575467756201e+17
19332.0	6.408163659437396e+17
19333.0	6.406734293762047e+17
19334.0	6.405294138938707e+17
19335.0	6.403855878542676e+17
19336.0	6.402406484366676e+17
19337.0	6.400949831248553e+17
19338.0	6.3994230486685e+17
19339.0	6.398021839355903e+17
19340.0	6.39652685029922e+17
19341.0	6.395056666356393e+17
19342.0	6.393448326234111e+17
19343.0	6.392071338328064e+17
19344.0	6.3902473270941e+17
19345.0	6.387571033287336e+17
19346.0	6.386404770709503e+17
19347.0	6.385095434130772e+17
19348.0	6.383574146788009e+17
19349.0	6.382011536463188e+17
19350.0	6.380446377399636e+17
19351.0	6.378870631912788e+17
19352.0	6.377268259586047e+17
19353.0	6.375693696193876e+17
19354.0	6.374083110021801e+17
19355.0	6.372433068031999e+17
19356.0	6.370822258163711e+17
19357.0	6.369171598213119e+17
19358.0	6.367492219163988e+17
19359.0	6.365749048945321e+17
19360.0	6.36411058533171e+17
19361.0	6.362399848267776e+17
19362.0	6.360273578011306e+17
19363.0	6.357809725003091e+17
19364.0	6.356043641301673e+17
19365.0	6.35426030293265e+17
19366.0	6.352456188078762e+17
19367.0	6.350631602225151e+17
19368.0	6.348785301760682e+17
19369.0	6.346884590687572e+17
19370.0	6.344872680226815e+17
19371.0	6.343090175825236e+17
19372.0	6.340972395539113e+17
19373.0	6.337765088864937e+17
19374.0	6.335770267396778e+17
19375.0	6.333738544442025e+17
19376.0	6.331677364890281e+17
19377.0	6.329581659925162e+17
19378.0	6.32745383498001e+17
19379.0	6.324774419212969e+17
19380.0	6.321338725695487e+17
19381.0	6.318742375322966e+17
19382.0	6.316367434569044e+17
19383.0	6.314022640375124e+17
19384.0	6.31108153778722e+17
19385.0	6.307148520052052e+17
19386.0	6.304665299845119e+17
19387.0	6.302127249599146e+17
19388.0	6.298578820879699e+17
19389.0	6.294393871575722e+17
19390.0	6.291665908137983e+17
19391.0	6.286846290733734e+17
19392.0	6.283102373194409e+17
19393.0	6.280165609613993e+17
19394.0	6.274961646463662e+17
19395.0	6.270690447589375e+17
19396.0	6.266596768437587e+17
19397.0	6.262275386114047e+17
19398.0	6.258852901158912e+17
19399.0	6.254667161927677e+17
19400.0	6.250977105543165e+17
19401.0	6.247256273453055e+17
19402.0	6.243399350878207e+17
19403.0	6.239415266792788e+17
19404.0	6.235300618917204e+17
19405.0	6.231044201469268e+17
19406.0	6.226321257878868e+17
19407.0	6.22098824368401e+17
19408.0	6.216022296100863e+17
19409.0	6.211302749896704e+17
19410.0	6.206186279228756e+17
19411.0	6.1993674370362e+17
19412.0	6.19381725855744e+17
19413.0	6.188034895293097e+17
19414.0	6.18016735896098e+17
19415.0	6.173725275717632e+17
19416.0	6.165312506429439e+17
19417.0	6.157638706397185e+17
19418.0	6.147444337978025e+17
19419.0	6.13768782693444e+17
19420.0	6.126352359664303e+17
19421.0	6.113548962190678e+17
19422.0	6.098634851833169e+17
19423.0	6.08186259979196e+17
19424.0	6.061275996662438e+17
19425.0	6.046804260246868e+17
19426.0	6.033967222358013e+17
19427.0	6.020448180852052e+17
19428.0	6.006002695886163e+17
19429.0	5.990713610556755e+17
19430.0	5.974754094394028e+17
19431.0	5.957672116071082e+17
19432.0	5.939298197744296e+17
19433.0	5.920157730515628e+17
19434.0	5.89876369170978e+17
19435.0	5.87550908900966e+17
19436.0	5.848753124671487e+17
19437.0	5.818394202865665e+17
19438.0	5.779114537517056e+17
19439.0	5.73044064972527e+17
19440.0	5.682220361930068e+17
19441.0	5.640355510048082e+17
19442.0	5.5938000016288435e+17
19443.0	5.540447820709888e+17
19444.0	5.476490535064913e+17
19445.0	5.3904971584416435e+17
19446.0	5.293975850188798e+17
19447.0	5.1892041970701574e+17
19448.0	5.0473090626355264e+17
19449.0	4.858154698058409e+17
19450.0	4.543845038904641e+17
19451.0	4.4550717754572717e+17
19452.0	4.7083223109686656e+17
19453.0	4.962537895013042e+17
19454.0	5.1201641790395616e+17
19455.0	5.239363307481771e+17
19456.0	5.333013170749446e+17
19457.0	5.4273627417914e+17
19458.0	5.496360390361088e+17
19459.0	5.553125208708438e+17
19460.0	5.6006589064151014e+17
19461.0	5.64265396207616e+17
19462.0	5.682627491135484e+17
19463.0	5.733715100215976e+17
19464.0	5.774603722249554e+17
19465.0	5.805768951463939e+17
19466.0	5.83180449236036e+17
19467.0	5.854270022746112e+17
19468.0	5.874086894196052e+17
19469.0	5.891895697167699e+17
19470.0	5.90869762810402e+17
19471.0	5.924055904769364e+17
19472.0	5.938151420504744e+17
19473.0	5.951308508255571e+17
19474.0	5.964069934727167e+17
19475.0	5.975402608590847e+17
19476.0	5.986414231551999e+17
19477.0	5.997139851214849e+17
19478.0	6.012700898011816e+17
19479.0	6.028919847955119e+17
19480.0	6.042749212732074e+17
19481.0	6.053844726666579e+17
19482.0	6.063468093024938e+17
19483.0	6.072206262009859e+17
19484.0	6.079139808630103e+17
19485.0	6.085337466011647e+17
19486.0	6.091514361588396e+17
19487.0	6.096263901959508e+17
19488.0	6.101061026709501e+17
19489.0	6.105488673122986e+17
19490.0	6.10839077916945e+17
19491.0	6.112486527511209e+17
19492.0	6.116189126961834e+17
19493.0	6.118846355559764e+17
19494.0	6.121313234059263e+17
19495.0	6.123648331721386e+17
19496.0	6.126654593520979e+17
19497.0	6.128713926879914e+17
19498.0	6.130405667241983e+17
19499.0	6.130040041373693e+17
19500.0	6.133764235198463e+17
19501.0	6.135191940628479e+17
19502.0	6.136501269517652e+17
19503.0	6.138017880910506e+17
19504.0	6.139488040386559e+17
19505.0	6.140484989397673e+17
19506.0	6.142962766796116e+17
19507.0	6.143987855392767e+17
19508.0	6.146686899803476e+17
19509.0	6.148495478794921e+17
19510.0	6.148983906893823e+17
19511.0	6.150166811770879e+17
19512.0	6.152318283502931e+17
19513.0	6.152275555429033e+17
19514.0	6.154537048648358e+17
19515.0	6.155622315720704e+17
19516.0	6.155910958634324e+17
19517.0	6.155986563760128e+17
19518.0	6.157363762779479e+17
19519.0	6.158014118275753e+17
19520.0	6.157949350532436e+17
19521.0	6.157854376809812e+17
19522.0	6.157706204632404e+17
19523.0	6.158438521722196e+17
19524.0	6.159335249936383e+17
19525.0	6.159067222026922e+17
19526.0	6.158784349776554e+17
19527.0	6.158462861268308e+17
19528.0	6.158111547064319e+17
19529.0	6.157730714746879e+17
19530.0	6.157368724641107e+17
19531.0	6.158213469350569e+17
19532.0	6.157750399314601e+17
19533.0	6.157263683889833e+17
19534.0	6.156754543618729e+17
19535.0	6.156223711106388e+17
19536.0	6.155659050833236e+17
19537.0	6.155100275168595e+17
19538.0	6.154482402459647e+17
19539.0	6.153731829661695e+17
19540.0	6.153263925690367e+17
19541.0	6.152629988797097e+17
19542.0	6.15256884912674e+17
19543.0	6.152334495186943e+17
19544.0	6.151642409861119e+17
19545.0	6.150797672142163e+17
19546.0	6.149940259236521e+17
19547.0	6.149481139535871e+17
19548.0	6.148735636952404e+17
19549.0	6.147946492635818e+17
19550.0	6.147209062689449e+17
19551.0	6.146429059858432e+17
19552.0	6.145637178758484e+17
19553.0	6.144828368748543e+17
19554.0	6.144012025768618e+17
19555.0	6.143202525795668e+17
19556.0	6.142372087857151e+17
19557.0	6.141531337523199e+17
19558.0	6.140684044075008e+17
19559.0	6.139824304029696e+17
19560.0	6.138955172937727e+17
19561.0	6.138092704497663e+17
19562.0	6.13721365807104e+17
19563.0	6.136326837501951e+17
19564.0	6.135775540281343e+17
19565.0	6.135318540102314e+17
19566.0	6.134405240892073e+17
19567.0	6.133497595603625e+17
19568.0	6.132570173472768e+17
19569.0	6.131651829912916e+17
19570.0	6.130724051266218e+17
19571.0	6.12978705633553e+17
19572.0	6.128837642769748e+17
19573.0	6.127894761832447e+17
19574.0	6.126920671778131e+17
19575.0	6.125995470531241e+17
19576.0	6.125036079415296e+17
19577.0	6.12406104494353e+17
19578.0	6.123090055178921e+17
19579.0	6.122123284884137e+17
19580.0	6.121147823991465e+17
19581.0	6.120169976539818e+17
19582.0	6.119191516719786e+17
19583.0	6.118204397759145e+17
19584.0	6.117212442066944e+17
19585.0	6.116184977397076e+17
19586.0	6.115177065174356e+17
19587.0	6.114211581132799e+17
19588.0	6.113071534353066e+17
19589.0	6.1122060760733e+17
19590.0	6.111180089895594e+17
19591.0	6.110193140105215e+17
19592.0	6.109178786829652e+17
19593.0	6.108161392683689e+17
19594.0	6.107077753700351e+17
19595.0	6.106119136433492e+17
19596.0	6.10489242554641e+17
19597.0	6.104071712800765e+17
19598.0	6.102962317994665e+17
19599.0	6.102022470238207e+17
19600.0	6.100990094038356e+17
19601.0	6.099934057769642e+17
19602.0	6.098904886717097e+17
19603.0	6.097738874399401e+17
19604.0	6.096824045666303e+17
19605.0	6.095705009553408e+17
19606.0	6.094754691416063e+17
19607.0	6.093711926624255e+17
19608.0	6.092663850445482e+17
19609.0	6.091602824353108e+17
19610.0	6.090567984698708e+17
19611.0	6.08951521579281e+17
19612.0	6.088464848125952e+17
19613.0	6.087410672031059e+17
19614.0	6.086342784057343e+17
19615.0	6.085299785083561e+17
19616.0	6.084230859019606e+17
19617.0	6.083183960042153e+17
19618.0	6.081954833235967e+17
19619.0	6.080851082564948e+17
19620.0	6.079797761409023e+17
19621.0	6.078938475047594e+17
19622.0	6.077874498262356e+17
19623.0	6.076809553990995e+17
19624.0	6.075743630349652e+17
19625.0	6.074676599412052e+17
19626.0	6.073608993854803e+17
19627.0	6.072540295681363e+17
19628.0	6.07143951737378e+17
19629.0	6.070372657004544e+17
19630.0	6.069271300582057e+17
19631.0	6.066802338911571e+17
19632.0	6.067184156890454e+17
19633.0	6.066104817767764e+17
19634.0	6.065037976971945e+17
19635.0	6.063950475733673e+17
19636.0	6.062888440212138e+17
19637.0	6.061688425370966e+17
19638.0	6.060733548025172e+17
19639.0	6.059653787374931e+17
19640.0	6.058554361730387e+17
19641.0	6.057292373251412e+17
19642.0	6.056424678708564e+17
19643.0	6.055342454603775e+17
19644.0	6.054245916038484e+17
19645.0	6.053101098937001e+17
19646.0	6.052105046108842e+17
19647.0	6.051023955165183e+17
19648.0	6.049942518191444e+17
19649.0	6.048859718068906e+17
19650.0	6.047778312552447e+17
19651.0	6.0466956613277e+17
19652.0	6.045612594866857e+17
19653.0	6.044528584687615e+17
19654.0	6.043445436437844e+17
19655.0	6.042359923299667e+17
19656.0	6.04127476458018e+17
19657.0	6.040192231494996e+17
19658.0	6.039107258023933e+17
19659.0	6.038021489033215e+17
19660.0	6.036936430977023e+17
19661.0	6.035850594877439e+17
19662.0	6.034764570034176e+17
19663.0	6.033664634781695e+17
19664.0	6.032586319069183e+17
19665.0	6.031504998137855e+17
