# Flux units: erg / (cm m2 s)
# Wavelength units: Angstrom
wave	flux
19000.0	5.5873746529594016e+17
19001.0	5.5862097807933434e+17
19002.0	5.58534082306594e+17
19003.0	5.584315336010409e+17
19004.0	5.583299658732884e+17
19005.0	5.582256382235989e+17
19006.0	5.5812511333963085e+17
19007.0	5.5802468828009805e+17
19008.0	5.579173710004223e+17
19009.0	5.578017955556009e+17
19010.0	5.5766741718575776e+17
19011.0	5.576108984500223e+17
19012.0	5.574471814829396e+17
19013.0	5.5741674439748256e+17
19014.0	5.5730999810239136e+17
19015.0	5.572093436144297e+17
19016.0	5.5710787543149216e+17
19017.0	5.57011798397201e+17
19018.0	5.5690833624214176e+17
19019.0	5.5680896716854605e+17
19020.0	5.5670697980067834e+17
19021.0	5.5660778143525536e+17
19022.0	5.5650594149717325e+17
19023.0	5.563978495994538e+17
19024.0	5.562934656761855e+17
19025.0	5.561953864908799e+17
19026.0	5.5608748620294816e+17
19027.0	5.559449153787219e+17
19028.0	5.5589629151150074e+17
19029.0	5.5579402843805005e+17
19030.0	5.55696348270865e+17
19031.0	5.5559541472187725e+17
19032.0	5.5549167469417805e+17
19033.0	5.553759641228628e+17
19034.0	5.552716670216873e+17
19035.0	5.5506554347410765e+17
19036.0	5.5136172606750624e+17
19037.0	5.5489482180962976e+17
19038.0	5.5486855484101965e+17
19039.0	5.5478129178705914e+17
19040.0	5.546840776070485e+17
19041.0	5.545841567028564e+17
19042.0	5.542593151980881e+17
19043.0	5.543867176714239e+17
19044.0	5.5428412408681805e+17
19045.0	5.541811796486826e+17
19046.0	5.540771874035028e+17
19047.0	5.539782780256255e+17
19048.0	5.538254886185641e+17
19049.0	5.5332216598691776e+17
19050.0	5.5365638833220256e+17
19051.0	5.530410913453392e+17
19052.0	5.532976324542462e+17
19053.0	5.5336970870237856e+17
19054.0	5.532772184970579e+17
19055.0	5.530851920751274e+17
19056.0	5.5305498616572576e+17
19057.0	5.5297838496262803e+17
19058.0	5.526484923973627e+17
19059.0	5.526912613657257e+17
19060.0	5.5267577753326925e+17
19061.0	5.525773158973438e+17
19062.0	5.524774086246399e+17
19063.0	5.5237698230681594e+17
19064.0	5.5226350485285536e+17
19065.0	5.521560590876671e+17
19066.0	5.5198729490486605e+17
19067.0	5.51974625030963e+17
19068.0	5.518764109288789e+17
19069.0	5.5177630267910816e+17
19070.0	5.5167264800549536e+17
19071.0	5.515724636990121e+17
19072.0	5.513898780961449e+17
19073.0	5.513752730402816e+17
19074.0	5.512756312670207e+17
19075.0	5.5117547925667834e+17
19076.0	5.5107344952634016e+17
19077.0	5.509727354792617e+17
19078.0	5.5086950841494176e+17
19079.0	5.507748394784083e+17
19080.0	5.506734031721813e+17
19081.0	5.505686055507285e+17
19082.0	5.5047077508765005e+17
19083.0	5.5036281831642445e+17
19084.0	5.5024820350702925e+17
19085.0	5.50169820144162e+17
19086.0	5.499003986072915e+17
19087.0	5.497177893066065e+17
19088.0	5.4972022563799014e+17
19089.0	5.497150663644501e+17
19090.0	5.4965932839840403e+17
19091.0	5.495503521316864e+17
19092.0	5.49276808293035e+17
19093.0	5.493731049690452e+17
19094.0	5.492762745678505e+17
19095.0	5.491772624994303e+17
19096.0	5.490762585560404e+17
19097.0	5.489778584365738e+17
19098.0	5.4878362804770125e+17
19099.0	5.4866516901888e+17
19100.0	5.486710095871999e+17
19101.0	5.4857575659383456e+17
19102.0	5.484657442641235e+17
19103.0	5.4837952020916896e+17
19104.0	5.482805921666388e+17
19105.0	5.479726250459141e+17
19106.0	5.4806616082131616e+17
19107.0	5.4792290968098125e+17
19108.0	5.4778940358656e+17
19109.0	5.476045120951635e+17
19110.0	5.4763833461309434e+17
19111.0	5.4751884567292576e+17
19112.0	5.474125455119699e+17
19113.0	5.4738486597167776e+17
19114.0	5.472445213442046e+17
19115.0	5.4716574259828045e+17
19116.0	5.470844943859711e+17
19117.0	5.4698192946244256e+17
19118.0	5.4685614571083085e+17
19119.0	5.457515125582492e+17
19120.0	5.4664965788794874e+17
19121.0	5.465647036585299e+17
19122.0	5.464923668742143e+17
19123.0	5.463943408167594e+17
19124.0	5.462742047653887e+17
19125.0	5.461944102988458e+17
19126.0	5.4608866210829645e+17
19127.0	5.457960492859392e+17
19128.0	5.458796909079209e+17
19129.0	5.4578952896075085e+17
19130.0	5.456999865821866e+17
19131.0	5.45602819658001e+17
19132.0	5.4550374935866016e+17
19133.0	5.453986140258304e+17
19134.0	5.453009181999104e+17
19135.0	5.4520629700853754e+17
19136.0	5.4510812932341754e+17
19137.0	5.4499280672522234e+17
19138.0	5.449085167337471e+17
19139.0	5.448124629079381e+17
19140.0	5.4471409676233376e+17
19141.0	5.446151906000894e+17
19142.0	5.445125371068414e+17
19143.0	5.444116999569407e+17
19144.0	5.443139512827903e+17
19145.0	5.4421995364461216e+17
19146.0	5.440442179693228e+17
19147.0	5.440134290516649e+17
19148.0	5.4384924903342086e+17
19149.0	5.4373762168695456e+17
19150.0	5.437266819634517e+17
19151.0	5.436278170451968e+17
19152.0	5.4352514971074554e+17
19153.0	5.432734944067581e+17
19154.0	5.433040464161451e+17
19155.0	5.43229698183441e+17
19156.0	5.4312937169005216e+17
19157.0	5.429581478974805e+17
19158.0	5.4272688921422515e+17
19159.0	5.428179592282111e+17
19160.0	5.4272837190068896e+17
19161.0	5.4261797900779514e+17
19162.0	5.422638469305686e+17
19163.0	5.423762084200447e+17
19164.0	5.4233600273066656e+17
19165.0	5.420707187348818e+17
19166.0	5.4212542133698554e+17
19167.0	5.420234315224404e+17
19168.0	5.419465957878442e+17
19169.0	5.41850548113681e+17
19170.0	5.417550981977428e+17
19171.0	5.4164540715171834e+17
19172.0	5.415548988948479e+17
19173.0	5.414624797829802e+17
19174.0	5.413601879086422e+17
19175.0	5.412682462483796e+17
19176.0	5.411700679376896e+17
19177.0	5.4105175696779936e+17
19178.0	5.409581131191636e+17
19179.0	5.40853753942289e+17
19180.0	5.407741250109439e+17
19181.0	5.4066344942196045e+17
19182.0	5.405777843978238e+17
19183.0	5.404850565851817e+17
19184.0	5.40387236188433e+17
19185.0	5.4028769333084154e+17
19186.0	5.401912137831764e+17
19187.0	5.4008453305903763e+17
19188.0	5.3999391931542176e+17
19189.0	5.398953605114538e+17
19190.0	5.397953056691541e+17
19191.0	5.3969193809565e+17
19192.0	5.39598374707746e+17
19193.0	5.394766166491136e+17
19194.0	5.3936169810220365e+17
19195.0	5.39290398429457e+17
19196.0	5.3917527506070176e+17
19197.0	5.3904061707059194e+17
19198.0	5.387865378084179e+17
19199.0	5.368743159573159e+17
19200.0	5.37101130775484e+17
19201.0	5.3851620114432e+17
19202.0	5.385583896909141e+17
19203.0	5.384884867213993e+17
19204.0	5.384100284203007e+17
19205.0	5.38322591162914e+17
19206.0	5.3822927649723725e+17
19207.0	5.381198515098963e+17
19208.0	5.380133907070974e+17
19209.0	5.3794227257780896e+17
19210.0	5.3784562980181325e+17
19211.0	5.3775086474581325e+17
19212.0	5.376517241918804e+17
19213.0	5.375296420533587e+17
19214.0	5.374235156763989e+17
19215.0	5.3735130716788045e+17
19216.0	5.372640119575894e+17
19217.0	5.3716337501579936e+17
19218.0	5.3698397855197843e+17
19219.0	5.3695102809975456e+17
19220.0	5.368717139509248e+17
19221.0	5.3674878540185594e+17
19222.0	5.366783716360191e+17
19223.0	5.3658442404986874e+17
19224.0	5.3648384645748045e+17
19225.0	5.363783460104874e+17
19226.0	5.3629314844153165e+17
19227.0	5.36197108736546e+17
19228.0	5.36103173104162e+17
19229.0	5.360060505696938e+17
19230.0	5.3590831210168314e+17
19231.0	5.3581067240953165e+17
19232.0	5.357138723471359e+17
19233.0	5.356088721407999e+17
19234.0	5.3551848698675194e+17
19235.0	5.3541969602805754e+17
19236.0	5.353266751034708e+17
19237.0	5.352277007837865e+17
19238.0	5.3511959658277536e+17
19239.0	5.350361968323242e+17
19240.0	5.3493963766278803e+17
19241.0	5.348405647769599e+17
19242.0	5.347444388790271e+17
19243.0	5.346305207435262e+17
19244.0	5.345530087473151e+17
19245.0	5.344555046010879e+17
19246.0	5.3435787777146874e+17
19247.0	5.342615348183038e+17
19248.0	5.3416526044200954e+17
19249.0	5.340624297394175e+17
19250.0	5.3393716223672314e+17
19251.0	5.3383156210510496e+17
19252.0	5.337441673499988e+17
19253.0	5.336797804494847e+17
19254.0	5.335860145466026e+17
19255.0	5.334663402181972e+17
19256.0	5.333909940207614e+17
19257.0	5.3329628516843514e+17
19258.0	5.331997178200062e+17
19259.0	5.3309204451382605e+17
19260.0	5.329080030680403e+17
19261.0	5.3290684564985165e+17
19262.0	5.328031782535166e+17
19263.0	5.327023463464959e+17
19264.0	5.325561436045311e+17
19265.0	5.3249766417148576e+17
19266.0	5.323901408116735e+17
19267.0	5.3233121769117e+17
19268.0	5.3223446530402976e+17
19269.0	5.321382937580885e+17
19270.0	5.320394214998015e+17
19271.0	5.3190697285932365e+17
19272.0	5.318448835286357e+17
19273.0	5.31721520030242e+17
19274.0	5.316055324251476e+17
19275.0	5.3156069482605216e+17
19276.0	5.3146205185638394e+17
19277.0	5.313664296943615e+17
19278.0	5.3126557024474445e+17
19279.0	5.3116988446911136e+17
19280.0	5.310683706381653e+17
19281.0	5.3097795067139405e+17
19282.0	5.3088110796690765e+17
19283.0	5.3076917296824314e+17
19284.0	5.306775229519189e+17
19285.0	5.305757571132073e+17
19286.0	5.3048446277386234e+17
19287.0	5.303715646930943e+17
19288.0	5.2913265138728864e+17
19289.0	5.2775052238301523e+17
19290.0	5.3007622997715616e+17
19291.0	5.299781004602028e+17
19292.0	5.299192357104298e+17
19293.0	5.2982521724054176e+17
19294.0	5.2972766905412256e+17
19295.0	5.296354963576147e+17
19296.0	5.294383361075884e+17
19297.0	5.294213749014528e+17
19298.0	5.293439724464809e+17
19299.0	5.291369515275606e+17
19300.0	5.291524665376766e+17
19301.0	5.290587909521406e+17
19302.0	5.289611441995775e+17
19303.0	5.2885598104453114e+17
19304.0	5.2876688410105165e+17
19305.0	5.286709212916394e+17
19306.0	5.2857347663462394e+17
19307.0	5.284686920854186e+17
19308.0	5.2837070643309216e+17
19309.0	5.2821010422606496e+17
19310.0	5.280884852785151e+17
19311.0	5.280627223953407e+17
19312.0	5.2797778836848634e+17
19313.0	5.2784850614790816e+17
19314.0	5.202812906504159e+17
19315.0	5.208559628670404e+17
19316.0	5.2741660580249606e+17
19317.0	5.274974963804841e+17
19318.0	5.274119928370515e+17
19319.0	5.2732167157623456e+17
19320.0	5.271860804233897e+17
19321.0	5.2703981057256083e+17
19322.0	5.270184641516883e+17
19323.0	5.269139764193962e+17
19324.0	5.2682629673123834e+17
19325.0	5.2669300825128954e+17
19326.0	5.2663860246609914e+17
19327.0	5.265508242817024e+17
19328.0	5.262751050672812e+17
19329.0	5.2636402165568845e+17
19330.0	5.262642602049535e+17
19331.0	5.2616542073214285e+17
19332.0	5.260745120590506e+17
19333.0	5.259755715035135e+17
19334.0	5.2587764058685434e+17
19335.0	5.254126294969007e+17
19336.0	5.256840557712724e+17
19337.0	5.255918149173246e+17
19338.0	5.254698808377343e+17
19339.0	5.253969345511423e+17
19340.0	5.252765030809598e+17
19341.0	5.250580957451607e+17
19342.0	5.250218489195179e+17
19343.0	5.250071403342506e+17
19344.0	5.247711809546924e+17
19345.0	5.2452313170356883e+17
19346.0	5.2458854299293005e+17
19347.0	5.244363310017194e+17
19348.0	5.245225089892352e+17
19349.0	5.2442091350917114e+17
19350.0	5.242579251625983e+17
19351.0	5.242242105081855e+17
19352.0	5.2393775730087206e+17
19353.0	5.2403522817228794e+17
19354.0	5.239381301045929e+17
19355.0	5.2382797411997005e+17
19356.0	5.2374152259392845e+17
19357.0	5.236433861563733e+17
19358.0	5.235431006273534e+17
19359.0	5.233997137313791e+17
19360.0	5.231976080474111e+17
19361.0	5.232419841332564e+17
19362.0	5.231474319381844e+17
19363.0	5.2304825132864845e+17
19364.0	5.229486700232703e+17
19365.0	5.228486234996735e+17
19366.0	5.2274901989457914e+17
19367.0	5.22648040977203e+17
19368.0	5.2254855271546874e+17
19369.0	5.224404130725887e+17
19370.0	5.223418771974825e+17
19371.0	5.2223910954926074e+17
19372.0	5.2214360727442765e+17
19373.0	5.2203950038493856e+17
19374.0	5.219398963604138e+17
19375.0	5.2183720805444256e+17
19376.0	5.21735333024017e+17
19377.0	5.2162922929629856e+17
19378.0	5.215243861666474e+17
19379.0	5.214206302005929e+17
19380.0	5.2131531353402016e+17
19381.0	5.2121036282047136e+17
19382.0	5.210956055445502e+17
19383.0	5.209876250755071e+17
19384.0	5.2088932401151994e+17
19385.0	5.2078372863344634e+17
19386.0	5.206734311609685e+17
19387.0	5.2055966793509536e+17
19388.0	5.2044728463523834e+17
19389.0	5.203284625195007e+17
19390.0	5.201722918043647e+17
19391.0	5.1673364249094406e+17
19392.0	5.197468343293265e+17
19393.0	5.1985918009016314e+17
19394.0	5.197563294646271e+17
19395.0	5.195873072622251e+17
19396.0	5.195074278610259e+17
19397.0	5.194001534331562e+17
19398.0	5.1922407997658445e+17
19399.0	5.190103511072767e+17
19400.0	5.189604718848683e+17
19401.0	5.188904689511081e+17
19402.0	5.1876387793578656e+17
19403.0	5.186232634747562e+17
19404.0	5.1849174988445005e+17
19405.0	5.1835329576959994e+17
19406.0	5.1821190780900685e+17
19407.0	5.1800432848841363e+17
19408.0	5.1783177538109446e+17
19409.0	5.177646384152575e+17
19410.0	5.1761987487880525e+17
19411.0	5.1746186740804256e+17
19412.0	5.1729137943620256e+17
19413.0	5.170585901815125e+17
19414.0	5.169459415220223e+17
19415.0	5.167627149595989e+17
19416.0	5.165289869497685e+17
19417.0	5.1633602526795085e+17
19418.0	5.161581212773034e+17
19419.0	5.159330458370047e+17
19420.0	5.156996644164949e+17
19421.0	5.1543762841982285e+17
19422.0	5.151645351892308e+17
19423.0	5.148787409769813e+17
19424.0	5.1455464130478074e+17
19425.0	5.142119557627902e+17
19426.0	5.1383184297820154e+17
19427.0	5.134265831740757e+17
19428.0	5.130263395478187e+17
19429.0	5.1259851648532474e+17
19430.0	5.120018442354688e+17
19431.0	5.110624091286191e+17
19432.0	5.11110252995106e+17
19433.0	5.1051967856421536e+17
19434.0	5.0983346379598496e+17
19435.0	5.0891088447842976e+17
19436.0	5.0784323753738214e+17
19437.0	5.069802257252351e+17
19438.0	4.9933084430172205e+17
19439.0	5.0379511705545376e+17
19440.0	5.02894036132386e+17
19441.0	5.013620771520511e+17
19442.0	4.994642016381609e+17
19443.0	4.970993351830185e+17
19444.0	4.942169534802601e+17
19445.0	4.905709713315159e+17
19446.0	4.859304263112016e+17
19447.0	4.798345991509328e+17
19448.0	4.7138827871627974e+17
19449.0	4.580145130110974e+17
19450.0	4.2910654412444954e+17
19451.0	4.07099496883819e+17
19452.0	4.470209261163863e+17
19453.0	4.6547456823569126e+17
19454.0	4.7565798183185024e+17
19455.0	4.8247742520797875e+17
19456.0	4.875524546144938e+17
19457.0	4.913993263087615e+17
19458.0	4.732334853762058e+17
19459.0	4.9594422225360646e+17
19460.0	4.9883494999217485e+17
19461.0	5.004175052111871e+17
19462.0	5.017380917521066e+17
19463.0	5.030751124149589e+17
19464.0	5.041781761288874e+17
19465.0	5.051502068498432e+17
19466.0	5.059290545695401e+17
19467.0	5.065852148427435e+17
19468.0	5.071306597509803e+17
19469.0	5.074146295108945e+17
19470.0	5.079508138852351e+17
19471.0	5.0828974727277216e+17
19472.0	5.0856765808093856e+17
19473.0	5.088023439998975e+17
19474.0	5.0888793247798586e+17
19475.0	5.091250096395603e+17
19476.0	5.0943320688776525e+17
19477.0	5.096281078060372e+17
19478.0	5.097673925328896e+17
19479.0	5.0975007571967974e+17
19480.0	5.0998005024686074e+17
19481.0	5.1004613192581114e+17
19482.0	5.101178374673749e+17
19483.0	5.1015908124699296e+17
19484.0	5.1019777202367136e+17
19485.0	5.102066780689749e+17
19486.0	5.100815215755268e+17
19487.0	5.1022755325979296e+17
19488.0	5.1021875584696314e+17
19489.0	5.1017278159148365e+17
19490.0	5.1001710461583334e+17
19491.0	5.101583698930346e+17
19492.0	5.1013588220204365e+17
19493.0	5.1010136489765536e+17
19494.0	5.100609220902911e+17
19495.0	5.100130452985172e+17
19496.0	5.0990729277385376e+17
19497.0	5.0987857654142285e+17
19498.0	5.0911851084513274e+17
19499.0	5.04478497662564e+17
19500.0	5.096917609829717e+17
19501.0	5.097000897522346e+17
19502.0	5.096577081278464e+17
19503.0	5.0961147333618336e+17
19504.0	5.0955003503138125e+17
19505.0	5.0948203830312954e+17
19506.0	5.094283849760766e+17
19507.0	5.09356804145152e+17
19508.0	5.092866432259412e+17
19509.0	5.0919841156737696e+17
19510.0	5.089958702350335e+17
19511.0	4.9662053301178694e+17
19512.0	5.078942793509534e+17
19513.0	5.073201807753196e+17
19514.0	5.076310908294472e+17
19515.0	5.0868523357962234e+17
19516.0	5.0868360898587296e+17
19517.0	5.0862922899565216e+17
19518.0	5.085256811369812e+17
19519.0	5.084445505748991e+17
19520.0	5.08273317065523e+17
19521.0	5.083335641180842e+17
19522.0	5.082295404156244e+17
19523.0	5.0813781671936e+17
19524.0	5.079911849000961e+17
19525.0	5.0800801643233274e+17
19526.0	5.0793309854324045e+17
19527.0	5.0785138189707936e+17
19528.0	5.077585398595583e+17
19529.0	5.0766932687366816e+17
19530.0	5.0760461260772685e+17
19531.0	5.075213066698752e+17
19532.0	5.0743770831912954e+17
19533.0	5.0735382384694605e+17
19534.0	5.0726938341976736e+17
19535.0	5.0718420416593914e+17
19536.0	5.0709731524389536e+17
19537.0	5.070145400952149e+17
19538.0	5.067856174295724e+17
19539.0	5.06784579129617e+17
19540.0	5.067566018636458e+17
19541.0	5.0664490433249274e+17
19542.0	5.065760379153066e+17
19543.0	5.063677098415445e+17
19544.0	5.064069022569813e+17
19545.0	5.062629999509502e+17
19546.0	5.061429976279722e+17
19547.0	5.0615881931161594e+17
19548.0	5.0607455483549e+17
19549.0	5.0597620525738656e+17
19550.0	5.059017500699306e+17
19551.0	5.0581523639828474e+17
19552.0	5.0572814139610445e+17
19553.0	5.056382164970153e+17
19554.0	5.05548794634786e+17
19555.0	5.0544948533002234e+17
19556.0	5.0536784250361165e+17
19557.0	5.0529007877925536e+17
19558.0	5.052042410196991e+17
19559.0	5.051175505581396e+17
19560.0	5.049787123149481e+17
19561.0	5.0493921972715514e+17
19562.0	5.048058530933417e+17
19563.0	5.0476747486221645e+17
19564.0	5.0467973848104954e+17
19565.0	5.045915510024874e+17
19566.0	5.045006978340181e+17
19567.0	5.044159029182464e+17
19568.0	5.043255125912234e+17
19569.0	5.0423791385313274e+17
19570.0	5.0415134754297165e+17
19571.0	5.0406356970810016e+17
19572.0	5.039724234975914e+17
19573.0	5.0387017391581856e+17
19574.0	5.037832286502911e+17
19575.0	5.037126575980543e+17
19576.0	5.0361503643074554e+17
19577.0	5.035086338588672e+17
19578.0	5.0344298293493754e+17
19579.0	5.033561889439743e+17
19580.0	5.032681492447232e+17
19581.0	5.0318143893012474e+17
19582.0	5.0309500858531834e+17
19583.0	5.030066737468756e+17
19584.0	5.0291650473929376e+17
19585.0	5.0281511848509434e+17
19586.0	5.027204598246058e+17
19587.0	5.0264065906660685e+17
19588.0	5.0250973792174074e+17
19589.0	5.024709325706581e+17
19590.0	5.0237033149016723e+17
19591.0	5.022982449659902e+17
19592.0	5.022109887627264e+17
19593.0	5.0210764153159674e+17
19594.0	5.019912672116734e+17
19595.0	5.019431862971049e+17
19596.0	5.018360824375978e+17
19597.0	5.01766976246033e+17
19598.0	5.0161712781503123e+17
19599.0	5.0159049335548576e+17
19600.0	5.01503844487441e+17
19601.0	5.01407088185617e+17
19602.0	5.013150669034836e+17
19603.0	5.011660257361918e+17
19604.0	5.011336533988692e+17
19605.0	5.0102562763134285e+17
19606.0	5.0097217101714765e+17
19607.0	5.0088541267776845e+17
19608.0	5.0079517921771514e+17
19609.0	5.0070281421236896e+17
19610.0	5.0055567054820704e+17
19611.0	5.0043734210205005e+17
19612.0	5.004436998280534e+17
19613.0	5.0035395206840314e+17
19614.0	5.0026182746658125e+17
19615.0	5.001756013144745e+17
19616.0	4.999959094318422e+17
19617.0	4.999028007064918e+17
19618.0	4.9983063078557e+17
19619.0	4.997138122888532e+17
19620.0	4.99621167313715e+17
19621.0	4.995101676448425e+17
19622.0	4.9955795796404896e+17
19623.0	4.9946225107708576e+17
19624.0	4.993586312161963e+17
19625.0	4.9929065119525536e+17
19626.0	4.9919868884309325e+17
19627.0	4.9910117889474554e+17
19628.0	4.989600710437547e+17
19629.0	4.985462499661138e+17
19630.0	4.9832536162959334e+17
19631.0	4.967787208376321e+17
19632.0	4.9856273267206816e+17
19633.0	4.985455973324118e+17
19634.0	4.984869116095146e+17
19635.0	4.983852497196371e+17
19636.0	4.981688035704829e+17
19637.0	4.9804883885643085e+17
19638.0	4.981338600549033e+17
19639.0	4.980572120154111e+17
19640.0	4.9795310212000416e+17
19641.0	4.977265633569454e+17
19642.0	4.977830449031849e+17
19643.0	4.97694848127249e+17
19644.0	4.9761010654904294e+17
19645.0	4.975010302481748e+17
19646.0	4.972827093150376e+17
19647.0	4.973540249261396e+17
19648.0	4.972685658423295e+17
19649.0	4.971803889893375e+17
19650.0	4.9709314536898554e+17
19651.0	4.97004710146867e+17
19652.0	4.969166897414143e+17
19653.0	4.968279123339947e+17
19654.0	4.967408749335892e+17
19655.0	4.96652241810227e+17
19656.0	4.965654076238506e+17
