# Flux units: erg / (cm m2 s)
# Wavelength units: Angstrom
wave	flux
19000.0	5.6045117234653856e+17
19001.0	5.603303719174143e+17
19002.0	5.6024624920876365e+17
19003.0	5.601415882517162e+17
19004.0	5.6003983017246714e+17
19005.0	5.599328873043284e+17
19006.0	5.598322870626985e+17
19007.0	5.597314557149183e+17
19008.0	5.596263673582932e+17
19009.0	5.5950583494519456e+17
19010.0	5.5937499118523725e+17
19011.0	5.5931105964632723e+17
19012.0	5.590555398504445e+17
19013.0	5.5912279264897696e+17
19014.0	5.590171351952042e+17
19015.0	5.589157991328426e+17
19016.0	5.588140522384042e+17
19017.0	5.587167004852224e+17
19018.0	5.5861089867748685e+17
19019.0	5.5851360969905485e+17
19020.0	5.584110451949566e+17
19021.0	5.5831177426807456e+17
19022.0	5.582090259835562e+17
19023.0	5.580965547431252e+17
19024.0	5.5798490978058234e+17
19025.0	5.578859561527979e+17
19026.0	5.57769793016081e+17
19027.0	5.5755673306835616e+17
19028.0	5.5759182932650656e+17
19029.0	5.57490464952593e+17
19030.0	5.5739269593606816e+17
19031.0	5.5729059595113805e+17
19032.0	5.5718308132945914e+17
19033.0	5.5706139709057696e+17
19034.0	5.5693785631293434e+17
19035.0	5.565823938723838e+17
19036.0	5.477220845879275e+17
19037.0	5.564506864353279e+17
19038.0	5.56534985724177e+17
19039.0	5.564636392150357e+17
19040.0	5.5637044821142176e+17
19041.0	5.562720414509737e+17
19042.0	5.5566535907519085e+17
19043.0	5.560787443646462e+17
19044.0	5.559749870703956e+17
19045.0	5.5586675927722656e+17
19046.0	5.557680228444842e+17
19047.0	5.556682571994452e+17
19048.0	5.5546945795522554e+17
19049.0	5.544161070197406e+17
19050.0	5.553172934295551e+17
19051.0	5.539021223974217e+17
19052.0	5.547113088461481e+17
19053.0	5.550405380123305e+17
19054.0	5.5496030454196896e+17
19055.0	5.546883532106411e+17
19056.0	5.5471444248057146e+17
19057.0	5.5466520058265594e+17
19058.0	5.540327329540769e+17
19059.0	5.542634823789225e+17
19060.0	5.5436101315898016e+17
19061.0	5.542621265002494e+17
19062.0	5.541631553961983e+17
19063.0	5.5406236039905274e+17
19064.0	5.539476799488e+17
19065.0	5.538403169512105e+17
19066.0	5.535626043938135e+17
19067.0	5.536576826245119e+17
19068.0	5.535596747423743e+17
19069.0	5.534586903724031e+17
19070.0	5.533549715958442e+17
19071.0	5.532500348633087e+17
19072.0	5.529578971157842e+17
19073.0	5.5305626472939514e+17
19074.0	5.529561630507006e+17
19075.0	5.528555247108094e+17
19076.0	5.527529604164266e+17
19077.0	5.526509998221993e+17
19078.0	5.5254720317139616e+17
19079.0	5.52452821684497e+17
19080.0	5.52350614884625e+17
19081.0	5.522446223059625e+17
19082.0	5.521466151927807e+17
19083.0	5.520370247401471e+17
19084.0	5.5192113842749434e+17
19085.0	5.5183916257334605e+17
19086.0	5.5139587427314336e+17
19087.0	5.5103478866902976e+17
19088.0	5.511923445530618e+17
19089.0	5.5132479298382496e+17
19090.0	5.51311298929186e+17
19091.0	5.511896716629335e+17
19092.0	5.506874468903604e+17
19093.0	5.510383886401534e+17
19094.0	5.509454188860756e+17
19095.0	5.5084699255220896e+17
19096.0	5.5074591290163194e+17
19097.0	5.5064733354557434e+17
19098.0	5.503279571490131e+17
19099.0	5.5018404904086214e+17
19100.0	5.503284578091007e+17
19101.0	5.502388222470826e+17
19102.0	5.501318000366932e+17
19103.0	5.500452963614719e+17
19104.0	5.4994550429231776e+17
19105.0	5.4936252630521286e+17
19106.0	5.4970628831532365e+17
19107.0	5.495097277109587e+17
19108.0	5.49327138123503e+17
19109.0	5.489864160051197e+17
19110.0	5.4923132805666125e+17
19111.0	5.490924092828328e+17
19112.0	5.4897752862446886e+17
19113.0	5.4904459876106234e+17
19114.0	5.488500613491368e+17
19115.0	5.488018176256683e+17
19116.0	5.4874379019878394e+17
19117.0	5.4863733114361165e+17
19118.0	5.484978002111147e+17
19119.0	5.4739361997345965e+17
19120.0	5.482572192677887e+17
19121.0	5.481823429722111e+17
19122.0	5.481492632655187e+17
19123.0	5.480520423746218e+17
19124.0	5.478991884451839e+17
19125.0	5.4785041903561376e+17
19126.0	5.4774577688302925e+17
19127.0	5.4744881736362643e+17
19128.0	5.475193155747839e+17
19129.0	5.474448919844179e+17
19130.0	5.4735523971508896e+17
19131.0	5.472571394184532e+17
19132.0	5.4715762878709754e+17
19133.0	5.470500333551615e+17
19134.0	5.469465003163647e+17
19135.0	5.468572966977536e+17
19136.0	5.4676048146595834e+17
19137.0	5.466440921164458e+17
19138.0	5.465598865003862e+17
19139.0	5.464635722082985e+17
19140.0	5.4636471602817696e+17
19141.0	5.462650549611179e+17
19142.0	5.461607115128832e+17
19143.0	5.4606075544644256e+17
19144.0	5.45962646970914e+17
19145.0	5.458679514704554e+17
19146.0	5.456898686626475e+17
19147.0	5.45660265894161e+17
19148.0	5.453964022994263e+17
19149.0	5.452681222378837e+17
19150.0	5.453719568471381e+17
19151.0	5.452724933317973e+17
19152.0	5.4516214783453856e+17
19153.0	5.447135281545211e+17
19154.0	5.449256540307455e+17
19155.0	5.4486660214510925e+17
19156.0	5.44761992778001e+17
19157.0	5.444891551902381e+17
19158.0	5.440622371886423e+17
19159.0	5.44425646437171e+17
19160.0	5.4434801958693536e+17
19161.0	5.442184764806485e+17
19162.0	5.434624750649345e+17
19163.0	5.439064679383039e+17
19164.0	5.439537924101459e+17
19165.0	5.4346970045262445e+17
19166.0	5.437423100100607e+17
19167.0	5.436114943519402e+17
19168.0	5.435674357749076e+17
19169.0	5.434741851422719e+17
19170.0	5.4338151206529696e+17
19171.0	5.4325299635377485e+17
19172.0	5.431744531879253e+17
19173.0	5.430905652903934e+17
19174.0	5.4299165025020576e+17
19175.0	5.428988779080362e+17
19176.0	5.428002236137471e+17
19177.0	5.426778706629972e+17
19178.0	5.4256181755685536e+17
19179.0	5.424461724166826e+17
19180.0	5.423973662370473e+17
19181.0	5.422900569265492e+17
19182.0	5.4220188671453856e+17
19183.0	5.4211180746506234e+17
19184.0	5.420142666186751e+17
19185.0	5.419128942056789e+17
19186.0	5.418166740757162e+17
19187.0	5.417067986900309e+17
19188.0	5.4161598522763936e+17
19189.0	5.415149982711806e+17
19190.0	5.414099099844607e+17
19191.0	5.413033473998848e+17
19192.0	5.412107587682303e+17
19193.0	5.4105769833922554e+17
19194.0	5.409203445301248e+17
19195.0	5.408801635172351e+17
19196.0	5.4074179230979405e+17
19197.0	5.405499612725247e+17
19198.0	5.4006530133633696e+17
19199.0	5.353877105453729e+17
19200.0	5.3611115269761786e+17
19201.0	5.398263241550505e+17
19202.0	5.400728549283158e+17
19203.0	5.400423015208277e+17
19204.0	5.3999591776146765e+17
19205.0	5.3992140371394554e+17
19206.0	5.3983388956098554e+17
19207.0	5.397278508449791e+17
19208.0	5.3962303735507616e+17
19209.0	5.395535098456747e+17
19210.0	5.394567086647978e+17
19211.0	5.3936264720329376e+17
19212.0	5.3926105724573e+17
19213.0	5.391152983310334e+17
19214.0	5.389943882208598e+17
19215.0	5.3894546816587085e+17
19216.0	5.388743791170901e+17
19217.0	5.387751370610005e+17
19218.0	5.385908419297278e+17
19219.0	5.385625478539945e+17
19220.0	5.3848111718946125e+17
19221.0	5.383603988288852e+17
19222.0	5.3828929510004045e+17
19223.0	5.381961625370623e+17
19224.0	5.380951229420885e+17
19225.0	5.3798871883229843e+17
19226.0	5.37903867433233e+17
19227.0	5.3780745052050765e+17
19228.0	5.3771316850851834e+17
19229.0	5.3761565604358816e+17
19230.0	5.375166758518783e+17
19231.0	5.374188142810452e+17
19232.0	5.3732158066742605e+17
19233.0	5.372161449525247e+17
19234.0	5.371264397650602e+17
19235.0	5.370275605861717e+17
19236.0	5.369341215593813e+17
19237.0	5.368343843657044e+17
19238.0	5.3672171816004256e+17
19239.0	5.3664163428652365e+17
19240.0	5.3654506197483514e+17
19241.0	5.364451322626047e+17
19242.0	5.36348901576977e+17
19243.0	5.36234755760674e+17
19244.0	5.361570799768915e+17
19245.0	5.360591267605162e+17
19246.0	5.3596102548520954e+17
19247.0	5.3586426268221434e+17
19248.0	5.3576609317956256e+17
19249.0	5.356545729975636e+17
19250.0	5.354945119955626e+17
19251.0	5.3538790620965523e+17
19252.0	5.3534416444238496e+17
19253.0	5.3527975118766074e+17
19254.0	5.351849480333994e+17
19255.0	5.350650474222931e+17
19256.0	5.349885296858452e+17
19257.0	5.348942084571135e+17
19258.0	5.3479681636870816e+17
19259.0	5.346851605009749e+17
19260.0	5.343549965642407e+17
19261.0	5.345002217537536e+17
19262.0	5.343945864598868e+17
19263.0	5.3429425828877645e+17
19264.0	5.341498102338899e+17
19265.0	5.340917548449791e+17
19266.0	5.339831900394837e+17
19267.0	5.339244695038634e+17
19268.0	5.338270850351104e+17
19269.0	5.337308489667924e+17
19270.0	5.336315397319338e+17
19271.0	5.334977829579434e+17
19272.0	5.33435334734643e+17
19273.0	5.3331132776011085e+17
19274.0	5.331937779864914e+17
19275.0	5.3315007809235616e+17
19276.0	5.3305079549132794e+17
19277.0	5.3295452321218554e+17
19278.0	5.3284649248139936e+17
19279.0	5.327524575139155e+17
19280.0	5.3265242014788256e+17
19281.0	5.325596963897343e+17
19282.0	5.324573863400788e+17
19283.0	5.3232041414273683e+17
19284.0	5.322414474220885e+17
19285.0	5.3214714926202874e+17
19286.0	5.3205021693924685e+17
19287.0	5.319044703977471e+17
19288.0	5.290172388911766e+17
19289.0	5.258153950882394e+17
19290.0	5.3159748768017056e+17
19291.0	5.3153928059726515e+17
19292.0	5.314906364575743e+17
19293.0	5.313996290086228e+17
19294.0	5.3130116324829856e+17
19295.0	5.312120815441236e+17
19296.0	5.308820946070192e+17
19297.0	5.309708315394048e+17
19298.0	5.309202268422143e+17
19299.0	5.30561106758861e+17
19300.0	5.3072520491827194e+17
19301.0	5.306336645829973e+17
19302.0	5.3053535282353485e+17
19303.0	5.3042707749492045e+17
19304.0	5.303392081543166e+17
19305.0	5.3024179166904314e+17
19306.0	5.3014024861777914e+17
19307.0	5.300291333259262e+17
19308.0	5.2992379722574496e+17
19309.0	5.296594399614291e+17
19310.0	5.295004437534035e+17
19311.0	5.295874960435881e+17
19312.0	5.2951745927577594e+17
19313.0	5.2933750720648525e+17
19314.0	5.1381888222931725e+17
19315.0	5.1497919190140883e+17
19316.0	5.287118748254213e+17
19317.0	5.2903553724142925e+17
19318.0	5.289653339597481e+17
19319.0	5.2888033631928314e+17
19320.0	5.286919426539517e+17
19321.0	5.284797100326911e+17
19322.0	5.285627235576489e+17
19323.0	5.2843593240412154e+17
19324.0	5.2836124960576845e+17
19325.0	5.2816574226104314e+17
19326.0	5.281785368455849e+17
19327.0	5.2810556105905485e+17
19328.0	5.275925126752942e+17
19329.0	5.279244143121749e+17
19330.0	5.2782410319790074e+17
19331.0	5.277257788555262e+17
19332.0	5.2763330158264314e+17
19333.0	5.2753217859092474e+17
19334.0	5.2743037024993286e+17
19335.0	5.264798970631519e+17
19336.0	5.272355795020458e+17
19337.0	5.271497734094846e+17
19338.0	5.270269827831124e+17
19339.0	5.2695235912444576e+17
19340.0	5.2683257329745914e+17
19341.0	5.264352475086854e+17
19342.0	5.2651359228395526e+17
19343.0	5.2656190605230074e+17
19344.0	5.2614801024614445e+17
19345.0	5.259911745241088e+17
19346.0	5.261390890314409e+17
19347.0	5.2575936100433914e+17
19348.0	5.2607401342621005e+17
19349.0	5.259696810928809e+17
19350.0	5.257181344912724e+17
19351.0	5.257708907266047e+17
19352.0	5.2523946444062637e+17
19353.0	5.255819521512787e+17
19354.0	5.2548480130525856e+17
19355.0	5.2537378066486605e+17
19356.0	5.2528588063593805e+17
19357.0	5.251879962760531e+17
19358.0	5.2508471832084474e+17
19359.0	5.248868189645479e+17
19360.0	5.2454981404808506e+17
19361.0	5.2478423320930976e+17
19362.0	5.2468981872721914e+17
19363.0	5.2459025154266445e+17
19364.0	5.2448935294621005e+17
19365.0	5.2438806050461005e+17
19366.0	5.242883606402389e+17
19367.0	5.2418552022084256e+17
19368.0	5.2408642790140576e+17
19369.0	5.2397346963237536e+17
19370.0	5.2387464057541965e+17
19371.0	5.2377419391522125e+17
19372.0	5.2367453955904845e+17
19373.0	5.2356775446664525e+17
19374.0	5.234690916439381e+17
19375.0	5.2336455406933325e+17
19376.0	5.2326246918389754e+17
19377.0	5.2315684283787936e+17
19378.0	5.230523688768853e+17
19379.0	5.229473832108032e+17
19380.0	5.2283962427091616e+17
19381.0	5.227345723348309e+17
19382.0	5.2261673776797005e+17
19383.0	5.225038280130559e+17
19384.0	5.2240262791604896e+17
19385.0	5.222964367370922e+17
19386.0	5.221855303914836e+17
19387.0	5.220702856675326e+17
19388.0	5.21952524640802e+17
19389.0	5.218150696790698e+17
19390.0	5.2159045959679994e+17
19391.0	5.133981448142748e+17
19392.0	5.2088112232966746e+17
19393.0	5.213245744174421e+17
19394.0	5.2122999307195725e+17
19395.0	5.209941790949378e+17
19396.0	5.209718719687339e+17
19397.0	5.20889049494323e+17
19398.0	5.2063891357696e+17
19399.0	5.204083132596223e+17
19400.0	5.203941107171328e+17
19401.0	5.2037299875785376e+17
19402.0	5.202434004964692e+17
19403.0	5.2010834243966285e+17
19404.0	5.19971927036177e+17
19405.0	5.1983041031045114e+17
19406.0	5.1968939137870496e+17
19407.0	5.1939607587061734e+17
19408.0	5.1930230018102624e+17
19409.0	5.1923059086458874e+17
19410.0	5.1907603404772685e+17
19411.0	5.189167739480747e+17
19412.0	5.1874780536285856e+17
19413.0	5.184237262427477e+17
19414.0	5.1838046584176634e+17
19415.0	5.1819262855086074e+17
19416.0	5.179305766857386e+17
19417.0	5.1768847418873165e+17
19418.0	5.175633817982292e+17
19419.0	5.173292476399615e+17
19420.0	5.1708868046793363e+17
19421.0	5.168141634109439e+17
19422.0	5.1653042517661005e+17
19423.0	5.162181535115945e+17
19424.0	5.1587544881561594e+17
19425.0	5.155071536223572e+17
19426.0	5.15123033739537e+17
19427.0	5.147409513097897e+17
19428.0	5.143379793586857e+17
19429.0	5.1390137559067296e+17
19430.0	5.130297921590617e+17
19431.0	5.11418849750768e+17
19432.0	5.1231006678930746e+17
19433.0	5.11726335435298e+17
19434.0	5.1099491047396685e+17
19435.0	5.098148740814163e+17
19436.0	5.084200960349519e+17
19437.0	5.077907302339923e+17
19438.0	4.9170889376618016e+17
19439.0	5.037752823316481e+17
19440.0	5.0380693324868243e+17
19441.0	5.0232266392425805e+17
19442.0	5.003874864376492e+17
19443.0	4.9789449035666797e+17
19444.0	4.949481881599997e+17
19445.0	4.9115953186734125e+17
19446.0	4.864000544909994e+17
19447.0	4.802382900057424e+17
19448.0	4.717064122007553e+17
19449.0	4.5829334174269446e+17
19450.0	4.296047815819274e+17
19451.0	4.078633303932956e+17
19452.0	4.473058855922348e+17
19453.0	4.657738291696987e+17
19454.0	4.7599229484400614e+17
19455.0	4.828849616803156e+17
19456.0	4.8806640743000806e+17
19457.0	4.9184574558699546e+17
19458.0	4.570706261399461e+17
19459.0	4.9538597542080115e+17
19460.0	4.996870511613265e+17
19461.0	5.014007733114198e+17
19462.0	5.027163949847892e+17
19463.0	5.0396034460112224e+17
19464.0	5.051595385470974e+17
19465.0	5.0619282994408083e+17
19466.0	5.0704473649752736e+17
19467.0	5.077465229688832e+17
19468.0	5.083306491467093e+17
19469.0	5.084981112777381e+17
19470.0	5.092121690243071e+17
19471.0	5.0956453033629005e+17
19472.0	5.0986932691271674e+17
19473.0	5.101147500402004e+17
19474.0	5.10030463334263e+17
19475.0	5.104155676202323e+17
19476.0	5.1071015777730534e+17
19477.0	5.109167902337706e+17
19478.0	5.1108668555045536e+17
19479.0	5.109216270352378e+17
19480.0	5.113225724384596e+17
19481.0	5.1141491961801376e+17
19482.0	5.114833292754943e+17
19483.0	5.115486636692821e+17
19484.0	5.115813926622547e+17
19485.0	5.116068885779798e+17
19486.0	5.1131599870580134e+17
19487.0	5.116335089866068e+17
19488.0	5.11632805531921e+17
19489.0	5.1159862377185274e+17
19490.0	5.114393575904596e+17
19491.0	5.115808275496959e+17
19492.0	5.1156125196397216e+17
19493.0	5.115338442844843e+17
19494.0	5.114927346526889e+17
19495.0	5.114393262729897e+17
19496.0	5.1131818267989325e+17
19497.0	5.1124475943103136e+17
19498.0	5.094645293907968e+17
19499.0	4.9868270500576755e+17
19500.0	5.109995109264041e+17
19501.0	5.1110404123088205e+17
19502.0	5.110833252838058e+17
19503.0	5.1104123034009594e+17
19504.0	5.1098400759043405e+17
19505.0	5.109219703390206e+17
19506.0	5.108662144073727e+17
19507.0	5.107921503387647e+17
19508.0	5.107128020063572e+17
19509.0	5.1061007049905485e+17
19510.0	5.1024388825634125e+17
19511.0	4.8323396279553376e+17
19512.0	5.077276861399012e+17
19513.0	5.0647907609258176e+17
19514.0	5.0730909124525766e+17
19515.0	5.10053060706304e+17
19516.0	5.100980439875582e+17
19517.0	5.100748716463444e+17
19518.0	5.099262492104019e+17
19519.0	5.098416670856531e+17
19520.0	5.0955481611851046e+17
19521.0	5.097988318472874e+17
19522.0	5.09668741034803e+17
19523.0	5.095566503575554e+17
19524.0	5.093237874928304e+17
19525.0	5.094721545655637e+17
19526.0	5.0940119365277e+17
19527.0	5.09318535385361e+17
19528.0	5.0921237832007674e+17
19529.0	5.091150917184171e+17
19530.0	5.09072565740066e+17
19531.0	5.089894292520959e+17
19532.0	5.089086041751551e+17
19533.0	5.0882423351323296e+17
19534.0	5.0874060880827725e+17
19535.0	5.086539524603904e+17
19536.0	5.0856712994815994e+17
19537.0	5.084832254132223e+17
19538.0	5.080900940682584e+17
19539.0	5.082541759397888e+17
19540.0	5.0822731652573856e+17
19541.0	5.080754627979946e+17
19542.0	5.080296183562239e+17
19543.0	5.076596670420311e+17
19544.0	5.0786590187847654e+17
19545.0	5.077285865171625e+17
19546.0	5.0760942179669325e+17
19547.0	5.076279246192639e+17
19548.0	5.0754301561842336e+17
19549.0	5.074446282216787e+17
19550.0	5.073702068682751e+17
19551.0	5.072837478623915e+17
19552.0	5.071965210891604e+17
19553.0	5.0710638857202336e+17
19554.0	5.0701653364790605e+17
19555.0	5.0689661521100806e+17
19556.0	5.068208900582057e+17
19557.0	5.0675621214289914e+17
19558.0	5.0667189544768845e+17
19559.0	5.0658610578281805e+17
19560.0	5.0638299493389626e+17
19561.0	5.064070480090453e+17
19562.0	5.062097283754664e+17
19563.0	5.0623513334469965e+17
19564.0	5.061468229730302e+17
19565.0	5.060587185416874e+17
19566.0	5.0596755457529165e+17
19567.0	5.0588257594900474e+17
19568.0	5.0579188125532154e+17
19569.0	5.057037870301183e+17
19570.0	5.056143697117182e+17
19571.0	5.055272564643157e+17
19572.0	5.054370795574613e+17
19573.0	5.0531181226448205e+17
19574.0	5.052391976774313e+17
19575.0	5.0517652009560736e+17
19576.0	5.05066787246353e+17
19577.0	5.049387087211178e+17
19578.0	5.049058515222527e+17
19579.0	5.0481875819779405e+17
19580.0	5.047300868363604e+17
19581.0	5.0464340560226976e+17
19582.0	5.045566675353598e+17
19583.0	5.0446792675819514e+17
19584.0	5.043748126501545e+17
19585.0	5.042746594514261e+17
19586.0	5.041744420099413e+17
19587.0	5.0408429963618976e+17
19588.0	5.0396607073484794e+17
19589.0	5.039298775263913e+17
19590.0	5.0382554372505594e+17
19591.0	5.0375657356875085e+17
19592.0	5.03669460181538e+17
19593.0	5.035484751331327e+17
19594.0	5.0343253897816736e+17
19595.0	5.034006615687168e+17
19596.0	5.03260962165009e+17
19597.0	5.0322364215678285e+17
19598.0	5.030724553932798e+17
19599.0	5.0304662763820365e+17
19600.0	5.0295955339782816e+17
19601.0	5.028619352364372e+17
19602.0	5.0276719751331834e+17
19603.0	5.0257498311666336e+17
19604.0	5.0257275524218874e+17
19605.0	5.024776765920598e+17
19606.0	5.0242532846250656e+17
19607.0	5.0233864436230816e+17
19608.0	5.0224809877613216e+17
19609.0	5.021553251756715e+17
19610.0	5.0192291830169626e+17
19611.0	5.017664070090754e+17
19612.0	5.018951320862719e+17
19613.0	5.018048945717247e+17
19614.0	5.0171208287300256e+17
19615.0	5.0162197062833485e+17
19616.0	5.0131564215227744e+17
19617.0	5.012277077300567e+17
19618.0	5.012704470586707e+17
19619.0	5.011398392283134e+17
19620.0	5.010199798611963e+17
19621.0	5.0078034249646054e+17
19622.0	5.0100336000150176e+17
19623.0	5.008959052185598e+17
19624.0	5.007732980929877e+17
19625.0	5.007301147273898e+17
19626.0	5.0063354989554336e+17
19627.0	5.0051981421226656e+17
19628.0	5.0029788254262624e+17
19629.0	4.9947380477678886e+17
19630.0	4.989898445903185e+17
19631.0	4.952338925442395e+17
19632.0	4.998385728400042e+17
19633.0	4.999294415273984e+17
19634.0	4.999086207227219e+17
19635.0	4.997949478841e+17
19636.0	4.994053938610173e+17
19637.0	4.992942264199847e+17
19638.0	4.995571272122366e+17
19639.0	4.99495575101986e+17
19640.0	4.993927571920213e+17
19641.0	4.99163912051098e+17
19642.0	4.992081670613674e+17
19643.0	4.991191245040298e+17
19644.0	4.9904953841418234e+17
19645.0	4.98939732304418e+17
19646.0	4.985094048929102e+17
19647.0	4.987887773461161e+17
19648.0	4.9870713451970554e+17
19649.0	4.986186769978708e+17
19650.0	4.985311449492139e+17
19651.0	4.984424028438527e+17
19652.0	4.9835406821512525e+17
19653.0	4.9826251138225485e+17
19654.0	4.981776419476819e+17
19655.0	4.980889849167872e+17
19656.0	4.9800144664657914e+17
