# Flux units: erg / (cm m2 s)
# Wavelength units: Angstrom
wave	flux
19000.0	8.642558684386643e+17
19001.0	8.641073205914281e+17
19002.0	8.639656026090153e+17
19003.0	8.638198597724841e+17
19004.0	8.636738458441043e+17
19005.0	8.635276366009683e+17
19006.0	8.633810091857236e+17
19007.0	8.632238695863634e+17
19008.0	8.630848207192061e+17
19009.0	8.629362478459561e+17
19010.0	8.627770284310528e+17
19011.0	8.626411961756328e+17
19012.0	8.624706619266387e+17
19013.0	8.623463343674707e+17
19014.0	8.621953606746111e+17
19015.0	8.620472596605608e+17
19016.0	8.618968604475391e+17
19017.0	8.61747632424004e+17
19018.0	8.615979593848148e+17
19019.0	8.614485031911421e+17
19020.0	8.612967092322303e+17
19021.0	8.611470745010175e+17
19022.0	8.609963752554493e+17
19023.0	8.608441650817705e+17
19024.0	8.606924158621012e+17
19025.0	8.605391639631188e+17
19026.0	8.603858712395773e+17
19027.0	8.60213244871748e+17
19028.0	8.600847242668714e+17
19029.0	8.599323530319186e+17
19030.0	8.597794679947263e+17
19031.0	8.596262580387839e+17
19032.0	8.594727350479528e+17
19033.0	8.593154803848531e+17
19034.0	8.591634950258685e+17
19035.0	8.589958183561897e+17
19036.0	8.57358269240661e+17
19037.0	8.586922361705812e+17
19038.0	8.585457039660374e+17
19039.0	8.583931906839894e+17
19040.0	8.582386612000086e+17
19041.0	8.580836851624616e+17
19042.0	8.57925490835456e+17
19043.0	8.577730533305001e+17
19044.0	8.576171699251881e+17
19045.0	8.574604552088232e+17
19046.0	8.573037035825833e+17
19047.0	8.571482587616595e+17
19048.0	8.569859608674301e+17
19049.0	8.568328529728855e+17
19050.0	8.566749934911488e+17
19051.0	8.562811263953572e+17
19052.0	8.563102626873343e+17
19053.0	8.562033480608425e+17
19054.0	8.5604965562013e+17
19055.0	8.55883025429299e+17
19056.0	8.557338006213972e+17
19057.0	8.55576459415825e+17
19058.0	8.554160154039636e+17
19059.0	8.55260089496371e+17
19060.0	8.55100938588433e+17
19061.0	8.549430282158079e+17
19062.0	8.547840519307263e+17
19063.0	8.546250831953919e+17
19064.0	8.544622185108819e+17
19065.0	8.542999443843752e+17
19066.0	8.541448441954301e+17
19067.0	8.539876743970816e+17
19068.0	8.538279473315837e+17
19069.0	8.536680566882301e+17
19070.0	8.535076757307392e+17
19071.0	8.533469074991785e+17
19072.0	8.531871639360851e+17
19073.0	8.530267471871999e+17
19074.0	8.528662571778045e+17
19075.0	8.527054374961152e+17
19076.0	8.525438097118548e+17
19077.0	8.523829293525672e+17
19078.0	8.522212290068479e+17
19079.0	8.520606744051711e+17
19080.0	8.518988868179284e+17
19081.0	8.517357109160617e+17
19082.0	8.515739919755944e+17
19083.0	8.514090121035773e+17
19084.0	8.512411733939539e+17
19085.0	8.510874433443155e+17
19086.0	8.509053986668543e+17
19087.0	8.507315932801705e+17
19088.0	8.505856407284392e+17
19089.0	8.50412377805073e+17
19090.0	8.502691230296745e+17
19091.0	8.501087297688915e+17
19092.0	8.499393783136255e+17
19093.0	8.497848835025577e+17
19094.0	8.496214208501076e+17
19095.0	8.49458006991394e+17
19096.0	8.493115695781204e+17
19097.0	8.492034794280275e+17
19098.0	8.49039501295616e+17
19099.0	8.488751934909097e+17
19100.0	8.487080987110058e+17
19101.0	8.485450752021843e+17
19102.0	8.483785607741439e+17
19103.0	8.482163793417555e+17
19104.0	8.480510913282047e+17
19105.0	8.478849652927145e+17
19106.0	8.477143724632745e+17
19107.0	8.475522582795604e+17
19108.0	8.473831438024703e+17
19109.0	8.470884113186815e+17
19110.0	8.470357884622166e+17
19111.0	8.468898666687145e+17
19112.0	8.467257840981331e+17
19113.0	8.465601713056425e+17
19114.0	8.463939763437567e+17
19115.0	8.462235346490706e+17
19116.0	8.460599359613609e+17
19117.0	8.458924080496639e+17
19118.0	8.457190230720511e+17
19119.0	8.454870169638227e+17
19120.0	8.453793346398888e+17
19121.0	8.452156962461014e+17
19122.0	8.450587270752936e+17
19123.0	8.448913233149952e+17
19124.0	8.447133973042515e+17
19125.0	8.445550083615401e+17
19126.0	8.443871876874239e+17
19127.0	8.441648385447251e+17
19128.0	8.43990847350374e+17
19129.0	8.438801469450921e+17
19130.0	8.43714892206353e+17
19131.0	8.435444526088192e+17
19132.0	8.433774129141075e+17
19133.0	8.43195480923614e+17
19134.0	8.430120440168448e+17
19135.0	8.428702326412627e+17
19136.0	8.427010625197394e+17
19137.0	8.42526392267571e+17
19138.0	8.423605728357032e+17
19139.0	8.421920314403498e+17
19140.0	8.420223649928531e+17
19141.0	8.418523332214784e+17
19142.0	8.416811913576445e+17
19143.0	8.4151003788957e+17
19144.0	8.413407362067114e+17
19145.0	8.411699145080831e+17
19146.0	8.409766567783081e+17
19147.0	8.408256088462675e+17
19148.0	8.406561944764412e+17
19149.0	8.404849086081705e+17
19150.0	8.40313774154274e+17
19151.0	8.401421800046592e+17
19152.0	8.399682645874003e+17
19153.0	8.397970628848297e+17
19154.0	8.396210459814569e+17
19155.0	8.394516416779604e+17
19156.0	8.392764551069695e+17
19157.0	8.3909093097472e+17
19158.0	8.388618354338472e+17
19159.0	8.387490001278292e+17
19160.0	8.385807513550844e+17
19161.0	8.383972603417939e+17
19162.0	8.380293965327018e+17
19163.0	8.380334792682154e+17
19164.0	8.378881213289812e+17
19165.0	8.37714202276659e+17
19166.0	8.375361872068607e+17
19167.0	8.373484978350762e+17
19168.0	8.371900679279956e+17
19169.0	8.368827605013846e+17
19170.0	8.366828412381866e+17
19171.0	8.365014582820863e+17
19172.0	8.363301561958399e+17
19173.0	8.361563354300416e+17
19174.0	8.359795211894783e+17
19175.0	8.35804915249971e+17
19176.0	8.356280712298493e+17
19177.0	8.354449823105024e+17
19178.0	8.352674501449043e+17
19179.0	8.350859343691773e+17
19180.0	8.349160376543914e+17
19181.0	8.34737920942626e+17
19182.0	8.345628966911999e+17
19183.0	8.343853294332585e+17
19184.0	8.342053297586175e+17
19185.0	8.34028325376273e+17
19186.0	8.338495082157395e+17
19187.0	8.336675612655615e+17
19188.0	8.334897522758996e+17
19189.0	8.333075111652009e+17
19190.0	8.331259060507987e+17
19191.0	8.329470586912765e+17
19192.0	8.327673355610792e+17
19193.0	8.325832794352297e+17
19194.0	8.324014268568915e+17
19195.0	8.322171390656512e+17
19196.0	8.320274046910463e+17
19197.0	8.318256093156692e+17
19198.0	8.315682763221673e+17
19199.0	8.302220624439973e+17
19200.0	8.302897667593559e+17
19201.0	8.310322205032445e+17
19202.0	8.309161901162493e+17
19203.0	8.307483730771965e+17
19204.0	8.305753303547901e+17
19205.0	8.303962198725974e+17
19206.0	8.302139611458217e+17
19207.0	8.300289220149248e+17
19208.0	8.298412394938367e+17
19209.0	8.295641216887466e+17
19210.0	8.292605160150353e+17
19211.0	8.290741795859113e+17
19212.0	8.288867592088233e+17
19213.0	8.286891332512426e+17
19214.0	8.284956382636714e+17
19215.0	8.283194270242131e+17
19216.0	8.281369817907199e+17
19217.0	8.279488970358783e+17
19218.0	8.277346413619881e+17
19219.0	8.275644464321876e+17
19220.0	8.273801032761343e+17
19221.0	8.271807243791018e+17
19222.0	8.269998012585298e+17
19223.0	8.268093377740799e+17
19224.0	8.266165081429331e+17
19225.0	8.264213301209769e+17
19226.0	8.262333847568381e+17
19227.0	8.260396116869119e+17
19228.0	8.258471975714815e+17
19229.0	8.256533004899668e+17
19230.0	8.254564208388778e+17
19231.0	8.252626823020543e+17
19232.0	8.250686462492671e+17
19233.0	8.246739907641344e+17
19234.0	8.243926330769404e+17
19235.0	8.241949804156246e+17
19236.0	8.239977313861628e+17
19237.0	8.237985798204072e+17
19238.0	8.235949969724758e+17
19239.0	8.234001739284479e+17
19240.0	8.231981572336297e+17
19241.0	8.229910057320445e+17
19242.0	8.227904840269821e+17
19243.0	8.225825560199169e+17
19244.0	8.223858463779496e+17
19245.0	8.221818292797439e+17
19246.0	8.219767426340179e+17
19247.0	8.2177196846394e+17
19248.0	8.215662806346412e+17
19249.0	8.210955417332392e+17
19250.0	8.207917618561024e+17
19251.0	8.205787172175871e+17
19252.0	8.203621141315583e+17
19253.0	8.201622797331113e+17
19254.0	8.199511970501972e+17
19255.0	8.197326912880637e+17
19256.0	8.19524508966366e+17
19257.0	8.193140615806973e+17
19258.0	8.191003652871508e+17
19259.0	8.188829638852604e+17
19260.0	8.186478506366291e+17
19261.0	8.181544047520429e+17
19262.0	8.177905529345364e+17
19263.0	8.175699592478719e+17
19264.0	8.173366706612905e+17
19265.0	8.171251579224063e+17
19266.0	8.16905199113557e+17
19267.0	8.166866856618666e+17
19268.0	8.164633378553855e+17
19269.0	8.162391485317117e+17
19270.0	8.160138670112764e+17
19271.0	8.155232805235368e+17
19272.0	8.150210250626387e+17
19273.0	8.147336588951551e+17
19274.0	8.145207932136104e+17
19275.0	8.143299146328748e+17
19276.0	8.140978916076202e+17
19277.0	8.138650046955519e+17
19278.0	8.136311835721725e+17
19279.0	8.133947716272127e+17
19280.0	8.129882515745452e+17
19281.0	8.126044471732905e+17
19282.0	8.123639990495914e+17
19283.0	8.121143947602602e+17
19284.0	8.118617919629992e+17
19285.0	8.116384687631017e+17
19286.0	8.113952438703443e+17
19287.0	8.111460837578068e+17
19288.0	8.105092323824977e+17
19289.0	8.097433384910833e+17
19290.0	8.103920604457641e+17
19291.0	8.101319555765586e+17
19292.0	8.098864877098323e+17
19293.0	8.096299484184572e+17
19294.0	8.093722452077225e+17
19295.0	8.091128813322239e+17
19296.0	8.088520198105769e+17
19297.0	8.085896097518932e+17
19298.0	8.083257976771923e+17
19299.0	8.080603874328573e+17
19300.0	8.077933703506602e+17
19301.0	8.075246844947113e+17
19302.0	8.072542057136127e+17
19303.0	8.069803647784275e+17
19304.0	8.067081689890815e+17
19305.0	8.064340062109693e+17
19306.0	8.061566498897919e+17
19307.0	8.058749484094806e+17
19308.0	8.055934092487336e+17
19309.0	8.052760998051837e+17
19310.0	8.049719652297385e+17
19311.0	8.047355103630676e+17
19312.0	8.044577290190847e+17
19313.0	8.04168352521694e+17
19314.0	8.033059302189738e+17
19315.0	8.030530396924594e+17
19316.0	8.032861198221311e+17
19317.0	8.029957958314664e+17
19318.0	8.026901651477844e+17
19319.0	8.023759558541312e+17
19320.0	8.020730883779242e+17
19321.0	8.017669057238356e+17
19322.0	8.014512362531498e+17
19323.0	8.011325205992787e+17
19324.0	8.008309147697151e+17
19325.0	8.004980683658578e+17
19326.0	8.001997408043004e+17
19327.0	7.998838437227178e+17
19328.0	7.995631479379283e+17
19329.0	7.99238938444868e+17
19330.0	7.989107934363647e+17
19331.0	7.985805824535212e+17
19332.0	7.982493921006931e+17
19333.0	7.979141169152e+17
19334.0	7.975757751342419e+17
19335.0	7.97234760323345e+17
19336.0	7.968905687465983e+17
19337.0	7.965432587048275e+17
19338.0	7.961866205309609e+17
19339.0	7.958397118840832e+17
19340.0	7.954817576774314e+17
19341.0	7.951077926939305e+17
19342.0	7.946921409424042e+17
19343.0	7.94334090686191e+17
19344.0	7.939611429612202e+17
19345.0	7.935339356225533e+17
19346.0	7.931837034091859e+17
19347.0	7.928234265367894e+17
19348.0	7.924386389906772e+17
19349.0	7.920471553780394e+17
19350.0	7.916529446289407e+17
19351.0	7.912552559629651e+17
19352.0	7.908520902350163e+17
19353.0	7.90448789730099e+17
19354.0	7.899556572998313e+17
19355.0	7.89530948088627e+17
19356.0	7.891145840044712e+17
19357.0	7.886913739773268e+17
19358.0	7.882629311365119e+17
19359.0	7.878281441312767e+17
19360.0	7.873920862519296e+17
19361.0	7.869496754001236e+17
19362.0	7.865027017048064e+17
19363.0	7.859558209465002e+17
19364.0	7.854385532327254e+17
19365.0	7.849639814365181e+17
19366.0	7.844825305623209e+17
19367.0	7.839964625982804e+17
19368.0	7.83504012860894e+17
19369.0	7.82950352709222e+17
19370.0	7.822876687553875e+17
19371.0	7.817691159068671e+17
19372.0	7.812425578097321e+17
19373.0	7.807052608962557e+17
19374.0	7.801255981569364e+17
19375.0	7.793377620437673e+17
19376.0	7.787686437847039e+17
19377.0	7.781884812241577e+17
19378.0	7.775970359858515e+17
19379.0	7.767047695324502e+17
19380.0	7.760415833806164e+17
19381.0	7.754101774701908e+17
19382.0	7.746915616336554e+17
19383.0	7.736952714078889e+17
19384.0	7.730183950477994e+17
19385.0	7.72317178302737e+17
19386.0	7.711353397575676e+17
19387.0	7.703871033267539e+17
19388.0	7.696109950468092e+17
19389.0	7.68322513805858e+17
19390.0	7.67544702079249e+17
19391.0	7.657080714428402e+17
19392.0	7.652831607652351e+17
19393.0	7.64479587483648e+17
19394.0	7.629446851504808e+17
19395.0	7.620852982655658e+17
19396.0	7.609186924538538e+17
19397.0	7.599493226692607e+17
19398.0	7.590377399080276e+17
19399.0	7.580870616197802e+17
19400.0	7.571410458596694e+17
19401.0	7.561503217549311e+17
19402.0	7.551095138855594e+17
19403.0	7.540803347240275e+17
19404.0	7.530254924338515e+17
19405.0	7.519415831975251e+17
19406.0	7.508265143369727e+17
19407.0	7.496252660908032e+17
19408.0	7.483741844799487e+17
19409.0	7.471445241582931e+17
19410.0	7.458667558688083e+17
19411.0	7.445017900963155e+17
19412.0	7.430854299789993e+17
19413.0	7.417026122700118e+17
19414.0	7.402685263249407e+17
19415.0	7.386747625275391e+17
19416.0	7.371580384477181e+17
19417.0	7.354808080007165e+17
19418.0	7.336708374790144e+17
19419.0	7.319121289019391e+17
19420.0	7.298940865085436e+17
19421.0	7.279226296904361e+17
19422.0	7.257806003153577e+17
19423.0	7.235620886457e+17
19424.0	7.21315522814498e+17
19425.0	7.188579313429162e+17
19426.0	7.1647456437207e+17
19427.0	7.138220732405078e+17
19428.0	7.111916774227964e+17
19429.0	7.081724293589672e+17
19430.0	7.05267550528034e+17
19431.0	7.019831682050729e+17
19432.0	6.98859542439526e+17
19433.0	6.95548810030831e+17
19434.0	6.918135239497044e+17
19435.0	6.879925975209299e+17
19436.0	6.83987311857937e+17
19437.0	6.797866235680084e+17
19438.0	6.746528163037181e+17
19439.0	6.703380688797699e+17
19440.0	6.651594274417322e+17
19441.0	6.595884071867729e+17
19442.0	6.536384475736748e+17
19443.0	6.472377681925459e+17
19444.0	6.403731067240443e+17
19445.0	6.329918703708845e+17
19446.0	6.250499830098602e+17
19447.0	6.164834897537702e+17
19448.0	6.071699394352472e+17
19449.0	5.968060794710698e+17
19450.0	5.841299777257462e+17
19451.0	5.768751932768261e+17
19452.0	5.908624131315028e+17
19453.0	6.01876742187691e+17
19454.0	6.114174480416763e+17
19455.0	6.201022407333204e+17
19456.0	6.281067963787949e+17
19457.0	6.355155028366673e+17
19458.0	6.42132489185963e+17
19459.0	6.487603985514499e+17
19460.0	6.546890769651026e+17
19461.0	6.601741353790121e+17
19462.0	6.653206811639809e+17
19463.0	6.700573496355494e+17
19464.0	6.74506114998818e+17
19465.0	6.786684312092671e+17
19466.0	6.824831337802408e+17
19467.0	6.861078108220074e+17
19468.0	6.896218454796968e+17
19469.0	6.928615787375272e+17
19470.0	6.958258496121513e+17
19471.0	6.988173660564137e+17
19472.0	7.015520984716627e+17
19473.0	7.04227132239599e+17
19474.0	7.06781112312354e+17
19475.0	7.091062159267156e+17
19476.0	7.113847972997802e+17
19477.0	7.134707875577856e+17
19478.0	7.155990248030207e+17
19479.0	7.174614393640276e+17
19480.0	7.194608977750697e+17
19481.0	7.211570466302632e+17
19482.0	7.229092569721513e+17
19483.0	7.244796773706412e+17
19484.0	7.259629144069458e+17
19485.0	7.274654508340564e+17
19486.0	7.287424343692628e+17
19487.0	7.299974475808765e+17
19488.0	7.312299387781117e+17
19489.0	7.323379283525632e+17
19490.0	7.334066881822717e+17
19491.0	7.345728341584553e+17
19492.0	7.355787396863316e+17
19493.0	7.365480521487699e+17
19494.0	7.37481171542562e+17
19495.0	7.384394626323795e+17
19496.0	7.392781871174995e+17
19497.0	7.400891033670995e+17
19498.0	7.407616285562196e+17
19499.0	7.402594330738676e+17
19500.0	7.423484932827817e+17
19501.0	7.430842642421076e+17
19502.0	7.437594637194578e+17
19503.0	7.444136978284543e+17
19504.0	7.450445717613225e+17
19505.0	7.456428647601491e+17
19506.0	7.465418875382446e+17
19507.0	7.471606892855293e+17
19508.0	7.481355531889321e+17
19509.0	7.489220948000768e+17
19510.0	7.495664205649233e+17
19511.0	7.49366045940121e+17
19512.0	7.508114818116262e+17
19513.0	7.513942261060943e+17
19514.0	7.521940210188282e+17
19515.0	7.529217851916288e+17
19516.0	7.536698770587648e+17
19517.0	7.542423198629887e+17
19518.0	7.546352460365824e+17
19519.0	7.55160806168985e+17
19520.0	7.557441933104467e+17
19521.0	7.560825780131155e+17
19522.0	7.564068153283923e+17
19523.0	7.569540033893714e+17
19524.0	7.573317194787498e+17
19525.0	7.576162997895168e+17
19526.0	7.578903796602195e+17
19527.0	7.582666427028819e+17
19528.0	7.586535152375123e+17
19529.0	7.58894489047313e+17
19530.0	7.591260785213437e+17
19531.0	7.593486888293715e+17
19532.0	7.59625929387759e+17
19533.0	7.599573899935744e+17
19534.0	7.601527538231977e+17
19535.0	7.603400510275581e+17
19536.0	7.605213923202387e+17
19537.0	7.606987381189288e+17
19538.0	7.60865256182033e+17
19539.0	7.611296669237245e+17
19540.0	7.613085767783764e+17
19541.0	7.614531502429523e+17
19542.0	7.615913925454505e+17
19543.0	7.617244397830144e+17
19544.0	7.61852449661474e+17
19545.0	7.619631137161215e+17
19546.0	7.620712246979241e+17
19547.0	7.622086211491156e+17
19548.0	7.623593278046208e+17
19549.0	7.625046439406249e+17
19550.0	7.6260882527901e+17
19551.0	7.627058461016064e+17
19552.0	7.627988944988841e+17
19553.0	7.628875699148115e+17
19554.0	7.629728849941846e+17
19555.0	7.630553508828499e+17
19556.0	7.631321655061161e+17
19557.0	7.632054183264255e+17
19558.0	7.632762376115539e+17
19559.0	7.633438054722216e+17
19560.0	7.634072346733225e+17
19561.0	7.635112894835372e+17
19562.0	7.635705136152573e+17
19563.0	7.636219075406505e+17
19564.0	7.636700403946834e+17
19565.0	7.63714963767296e+17
19566.0	7.637562235551743e+17
19567.0	7.637954738520064e+17
19568.0	7.638302281345705e+17
19569.0	7.638638963720191e+17
19570.0	7.638940967589204e+17
19571.0	7.639211905646591e+17
19572.0	7.639446825817428e+17
19573.0	7.639669725113002e+17
19574.0	7.639835415500115e+17
19575.0	7.640033751553366e+17
19576.0	7.640175145735508e+17
19577.0	7.640289265756842e+17
19578.0	7.640373178400768e+17
19579.0	7.640444722042195e+17
19580.0	7.640491499716608e+17
19581.0	7.640517739282432e+17
19582.0	7.640520222310399e+17
19583.0	7.640489085195604e+17
19584.0	7.640434599788544e+17
19585.0	7.640467011971753e+17
19586.0	7.640411877845672e+17
19587.0	7.640305900366506e+17
19588.0	7.640091563043498e+17
19589.0	7.640066145561257e+17
19590.0	7.639887361955155e+17
19591.0	7.639729637949439e+17
19592.0	7.639530909029714e+17
19593.0	7.63930655850496e+17
19594.0	7.638990365305514e+17
19595.0	7.638820542130857e+17
19596.0	7.63722250391825e+17
19597.0	7.638241401023145e+17
19598.0	7.637888757923837e+17
19599.0	7.637638899040253e+17
19600.0	7.637300544536573e+17
19601.0	7.636923382934186e+17
19602.0	7.63655232684032e+17
19603.0	7.63588718292719e+17
19604.0	7.635726321582079e+17
19605.0	7.635272499287382e+17
19606.0	7.634939632331433e+17
19607.0	7.634496150394196e+17
19608.0	7.634035169820671e+17
19609.0	7.633555100969641e+17
19610.0	7.633074481266688e+17
19611.0	7.632571842865833e+17
19612.0	7.632058752259412e+17
19613.0	7.631530611092136e+17
19614.0	7.630974710622889e+17
19615.0	7.630431409842858e+17
19616.0	7.62976002061107e+17
19617.0	7.629262455919955e+17
19618.0	7.628468697868969e+17
19619.0	7.627785849798655e+17
19620.0	7.627150946817364e+17
19621.0	7.628652177697449e+17
19622.0	7.628797388696234e+17
19623.0	7.62810601780019e+17
19624.0	7.627404781901139e+17
19625.0	7.626692798797139e+17
19626.0	7.625969586143232e+17
19627.0	7.625218024188588e+17
19628.0	7.624176143695872e+17
19629.0	7.62359401624371e+17
19630.0	7.624146829705211e+17
19631.0	7.613458916835328e+17
19632.0	7.625827527862953e+17
19633.0	7.625268144723283e+17
19634.0	7.624521870387881e+17
19635.0	7.62371374125329e+17
19636.0	7.622919331687081e+17
19637.0	7.621949400285183e+17
19638.0	7.621263774187517e+17
19639.0	7.620421251760127e+17
19640.0	7.621255546361172e+17
19641.0	7.622365698938195e+17
19642.0	7.621647462126931e+17
19643.0	7.62075604250351e+17
19644.0	7.619837178150911e+17
19645.0	7.618874651093672e+17
19646.0	7.618045421813757e+17
19647.0	7.617128865726463e+17
19648.0	7.616205313540093e+17
19649.0	7.615274508004009e+17
19650.0	7.614338920961363e+17
19651.0	7.613396446871551e+17
19652.0	7.61334722811221e+17
19653.0	7.614531324870655e+17
19654.0	7.613556181346985e+17
19655.0	7.612573306322943e+17
19656.0	7.611585644199933e+17
19657.0	7.610595201253373e+17
19658.0	7.609597240715945e+17
19659.0	7.608588916053331e+17
19660.0	7.607573201027072e+17
19661.0	7.6065512910138e+17
19662.0	7.605523220966058e+17
19663.0	7.604465207782057e+17
19664.0	7.603406083107498e+17
19665.0	7.602410053348012e+17
19666.0	7.601359216618154e+17
