# Flux units: erg / (cm m2 s)
# Wavelength units: Angstrom
wave	flux
19000.0	7.256710497086121e+17
19001.0	7.255328689225727e+17
19002.0	7.254074522424659e+17
19003.0	7.252784351718058e+17
19004.0	7.251566651594067e+17
19005.0	7.250246256732842e+17
19006.0	7.248923714387965e+17
19007.0	7.24758831510323e+17
19008.0	7.246251029779795e+17
19009.0	7.244853229038249e+17
19010.0	7.243485058258259e+17
19011.0	7.24228008784691e+17
19012.0	7.240854501239466e+17
19013.0	7.239678832235859e+17
19014.0	7.238324551592617e+17
19015.0	7.237014793486336e+17
19016.0	7.23570607137314e+17
19017.0	7.234394444005375e+17
19018.0	7.233062621063849e+17
19019.0	7.231741661369684e+17
19020.0	7.230408122957824e+17
19021.0	7.229095824501417e+17
19022.0	7.227770678891862e+17
19023.0	7.226414384982697e+17
19024.0	7.225102802354175e+17
19025.0	7.223764644615508e+17
19026.0	7.222407240613887e+17
19027.0	7.221027237702313e+17
19028.0	7.219779904820564e+17
19029.0	7.218464821346301e+17
19030.0	7.217146717973161e+17
19031.0	7.215811047456768e+17
19032.0	7.214465727244969e+17
19033.0	7.213038987203923e+17
19034.0	7.211634851665238e+17
19035.0	7.209431344698706e+17
19036.0	7.201273196926292e+17
19037.0	7.207000798658557e+17
19038.0	7.206336426497364e+17
19039.0	7.205135464442538e+17
19040.0	7.203845093807444e+17
19041.0	7.202528136877395e+17
19042.0	7.20110325211682e+17
19043.0	7.199890035703807e+17
19044.0	7.198555120162132e+17
19045.0	7.197222314355369e+17
19046.0	7.195880894846292e+17
19047.0	7.194532170257747e+17
19048.0	7.193149530527059e+17
19049.0	7.191711331647488e+17
19050.0	7.190391834367314e+17
19051.0	7.188150131272361e+17
19052.0	7.187262136997203e+17
19053.0	7.186485810473641e+17
19054.0	7.185238283255807e+17
19055.0	7.18375560797662e+17
19056.0	7.182591042693802e+17
19057.0	7.181285653654185e+17
19058.0	7.179903062857044e+17
19059.0	7.178615052217002e+17
19060.0	7.177302911746047e+17
19061.0	7.175978740613119e+17
19062.0	7.174647678238719e+17
19063.0	7.173313960869887e+17
19064.0	7.171941426615638e+17
19065.0	7.170554754760701e+17
19066.0	7.169269274684074e+17
19067.0	7.168002998927357e+17
19068.0	7.166674549604351e+17
19069.0	7.165345043316735e+17
19070.0	7.164003978925398e+17
19071.0	7.162678679524692e+17
19072.0	7.161335785018706e+17
19073.0	7.160025558548479e+17
19074.0	7.158696481477972e+17
19075.0	7.157365714102953e+17
19076.0	7.156030141453651e+17
19077.0	7.154694893163859e+17
19078.0	7.153364925502803e+17
19079.0	7.152042988535807e+17
19080.0	7.150703625633791e+17
19081.0	7.149351264583679e+17
19082.0	7.148037045136041e+17
19083.0	7.146641217115475e+17
19084.0	7.145222282674175e+17
19085.0	7.144036404734633e+17
19086.0	7.142396282273791e+17
19087.0	7.141258054423892e+17
19088.0	7.139918221759827e+17
19089.0	7.138545631581526e+17
19090.0	7.137343472751956e+17
19091.0	7.136033144220329e+17
19092.0	7.134647333595817e+17
19093.0	7.133408067758761e+17
19094.0	7.132087689674752e+17
19095.0	7.130762587406335e+17
19096.0	7.12943175991296e+17
19097.0	7.128105920845139e+17
19098.0	7.126756765641385e+17
19099.0	7.125423632678911e+17
19100.0	7.124096757618002e+17
19101.0	7.122772189424297e+17
19102.0	7.121420773490687e+17
19103.0	7.120126416868691e+17
19104.0	7.118794303122089e+17
19105.0	7.117405419470847e+17
19106.0	7.116108016386047e+17
19107.0	7.114745698058239e+17
19108.0	7.113349217124351e+17
19109.0	7.11183016464657e+17
19110.0	7.110638042786474e+17
19111.0	7.109417412242089e+17
19112.0	7.108122545313108e+17
19113.0	7.106825157607424e+17
19114.0	7.105485604563625e+17
19115.0	7.10413393137937e+17
19116.0	7.102822639555923e+17
19117.0	7.10148626579456e+17
19118.0	7.100024437604351e+17
19119.0	7.09683791021124e+17
19120.0	7.097389644338516e+17
19121.0	7.096127579663017e+17
19122.0	7.094865165462186e+17
19123.0	7.093545176050345e+17
19124.0	7.092136222654463e+17
19125.0	7.090865169585492e+17
19126.0	7.089445155809961e+17
19127.0	7.087602410717183e+17
19128.0	7.086713676846419e+17
19129.0	7.085498298968745e+17
19130.0	7.084236467776169e+17
19131.0	7.082924077045075e+17
19132.0	7.081596532293632e+17
19133.0	7.080235195432959e+17
19134.0	7.078909426270207e+17
19135.0	7.077611679252479e+17
19136.0	7.076278978303316e+17
19137.0	7.074910543282175e+17
19138.0	7.07361405735185e+17
19139.0	7.07230206927394e+17
19140.0	7.070977459137193e+17
19141.0	7.069649732632575e+17
19142.0	7.068304170549247e+17
19143.0	7.066974742555305e+17
19144.0	7.065634233210195e+17
19145.0	7.064332395347968e+17
19146.0	7.062618033706326e+17
19147.0	7.061650249788074e+17
19148.0	7.060325533395625e+17
19149.0	7.058995610473812e+17
19150.0	7.057686570991615e+17
19151.0	7.056356511055872e+17
19152.0	7.055009089497769e+17
19153.0	7.053634467878228e+17
19154.0	7.052304841353897e+17
19155.0	7.050978993897471e+17
19156.0	7.049635404535123e+17
19157.0	7.048246221690195e+17
19158.0	7.046834539200511e+17
19159.0	7.04558337691921e+17
19160.0	7.044252223668223e+17
19161.0	7.042834797778259e+17
19162.0	7.041181765249705e+17
19163.0	7.040077511262207e+17
19164.0	7.038937704955901e+17
19165.0	7.037616956375039e+17
19166.0	7.036296274903039e+17
19167.0	7.03498751643921e+17
19168.0	7.033692238468436e+17
19169.0	7.032381442970964e+17
19170.0	7.031059725505876e+17
19171.0	7.029726641476948e+17
19172.0	7.028397679749802e+17
19173.0	7.027078198547795e+17
19174.0	7.025737819226111e+17
19175.0	7.024423132113578e+17
19176.0	7.023095333606739e+17
19177.0	7.021664829177855e+17
19178.0	7.020415401241258e+17
19179.0	7.019078546533033e+17
19180.0	7.017755675634346e+17
19181.0	7.01639355933218e+17
19182.0	7.015092098957311e+17
19183.0	7.013778709981865e+17
19184.0	7.012446078238719e+17
19185.0	7.011111805823657e+17
19186.0	7.009776694547795e+17
19187.0	7.008392168079359e+17
19188.0	7.007098026065919e+17
19189.0	7.005753804062719e+17
19190.0	7.004403436006057e+17
19191.0	7.003033454684841e+17
19192.0	7.001696300083881e+17
19193.0	7.00031658238498e+17
19194.0	6.998907672330239e+17
19195.0	6.997486009494185e+17
19196.0	6.995961028367699e+17
19197.0	6.994248004009983e+17
19198.0	6.992020760079017e+17
19199.0	6.988218047485268e+17
19200.0	6.987175444174164e+17
19201.0	6.988122792744275e+17
19202.0	6.987622780676777e+17
19203.0	6.986621173891071e+17
19204.0	6.985486144197972e+17
19205.0	6.984248604317011e+17
19206.0	6.982979893766826e+17
19207.0	6.981604452859904e+17
19208.0	6.980303402827775e+17
19209.0	6.979051412870484e+17
19210.0	6.977734723676842e+17
19211.0	6.976411346665471e+17
19212.0	6.975072975716351e+17
19213.0	6.973665707032575e+17
19214.0	6.972344266391551e+17
19215.0	6.971050976520873e+17
19216.0	6.96972456632866e+17
19217.0	6.968349625942015e+17
19218.0	6.966813566959615e+17
19219.0	6.965557358231551e+17
19220.0	6.964349106476372e+17
19221.0	6.962964264037034e+17
19222.0	6.961677710917631e+17
19223.0	6.96035848486912e+17
19224.0	6.958997484251817e+17
19225.0	6.957659898336595e+17
19226.0	6.956336357048319e+17
19227.0	6.954998035032746e+17
19228.0	6.953675452142932e+17
19229.0	6.952330682783059e+17
19230.0	6.950958206550015e+17
19231.0	6.949589215783593e+17
19232.0	6.948247741049513e+17
19233.0	6.946863081062399e+17
19234.0	6.945549294327124e+17
19235.0	6.944184725755219e+17
19236.0	6.942854395985919e+17
19237.0	6.941497660975785e+17
19238.0	6.940098699810132e+17
19239.0	6.938799409987583e+17
19240.0	6.937447687170729e+17
19241.0	6.936080625784147e+17
19242.0	6.934729516034729e+17
19243.0	6.933274777616383e+17
19244.0	6.932029425145172e+17
19245.0	6.930666942540457e+17
19246.0	6.929308062842877e+17
19247.0	6.927952186266964e+17
19248.0	6.926593364590592e+17
19249.0	6.925216675179178e+17
19250.0	6.923831785204393e+17
19251.0	6.922423818868052e+17
19252.0	6.920923527512063e+17
19253.0	6.919748968600916e+17
19254.0	6.918396079767551e+17
19255.0	6.916896851667625e+17
19256.0	6.915649178348202e+17
19257.0	6.914290848104447e+17
19258.0	6.912917644858707e+17
19259.0	6.911478048576852e+17
19260.0	6.909993984983039e+17
19261.0	6.908772954581674e+17
19262.0	6.907371443978239e+17
19263.0	6.905961414044329e+17
19264.0	6.904443741492563e+17
19265.0	6.903109206933501e+17
19266.0	6.901746072114515e+17
19267.0	6.900455983196842e+17
19268.0	6.899075517513727e+17
19269.0	6.897686233306452e+17
19270.0	6.896269224749736e+17
19271.0	6.894792549422419e+17
19272.0	6.893486225053012e+17
19273.0	6.891947949380947e+17
19274.0	6.890452840786601e+17
19275.0	6.889335146850986e+17
19276.0	6.887932296866473e+17
19277.0	6.886536175244627e+17
19278.0	6.885134428362068e+17
19279.0	6.883713771459924e+17
19280.0	6.882294398713855e+17
19281.0	6.880891387947689e+17
19282.0	6.879483272713556e+17
19283.0	6.878047449907199e+17
19284.0	6.876589553876991e+17
19285.0	6.875156521680895e+17
19286.0	6.873693159773524e+17
19287.0	6.872037895875241e+17
19288.0	6.867429181358077e+17
19289.0	6.864338700031313e+17
19290.0	6.867653143909716e+17
19291.0	6.866317109187924e+17
19292.0	6.865109248901119e+17
19293.0	6.86369094640162e+17
19294.0	6.862250185501353e+17
19295.0	6.860815595820372e+17
19296.0	6.859341683141289e+17
19297.0	6.857895847133183e+17
19298.0	6.856438246801407e+17
19299.0	6.85496532607522e+17
19300.0	6.853526941248168e+17
19301.0	6.852056266571775e+17
19302.0	6.850571856947881e+17
19303.0	6.849063367824724e+17
19304.0	6.847582380053844e+17
19305.0	6.845994748608511e+17
19306.0	6.844502413847209e+17
19307.0	6.84293665989154e+17
19308.0	6.841415546612394e+17
19309.0	6.839817423814655e+17
19310.0	6.838252365414399e+17
19311.0	6.83683874935057e+17
19312.0	6.835361826559316e+17
19313.0	6.833721931289939e+17
19314.0	6.823410982890156e+17
19315.0	6.82249225135719e+17
19316.0	6.829106188517375e+17
19317.0	6.827758339140266e+17
19318.0	6.826133342737747e+17
19319.0	6.824579151080104e+17
19320.0	6.823021826976425e+17
19321.0	6.821445972437674e+17
19322.0	6.819874273056084e+17
19323.0	6.818301311188991e+17
19324.0	6.816725631412906e+17
19325.0	6.815122049728511e+17
19326.0	6.813554030149631e+17
19327.0	6.811963833188351e+17
19328.0	6.810319473781417e+17
19329.0	6.808738899252563e+17
19330.0	6.807013409423359e+17
19331.0	6.805357385657001e+17
19332.0	6.803742731709097e+17
19333.0	6.802012457577129e+17
19334.0	6.8003303522304e+17
19335.0	6.798568671150079e+17
19336.0	6.796963018178559e+17
19337.0	6.795269927949652e+17
19338.0	6.793429173054121e+17
19339.0	6.791823433400319e+17
19340.0	6.790038694832809e+17
19341.0	6.788250085621759e+17
19342.0	6.786431793321299e+17
19343.0	6.784761145414996e+17
19344.0	6.782895045738495e+17
19345.0	6.780472410155689e+17
19346.0	6.778832095455913e+17
19347.0	6.777462528671743e+17
19348.0	6.775740759889235e+17
19349.0	6.773889383617876e+17
19350.0	6.772008003392852e+17
19351.0	6.770033530590547e+17
19352.0	6.768078582972415e+17
19353.0	6.766260317235881e+17
19354.0	6.764345985160532e+17
19355.0	6.762353197929812e+17
19356.0	6.760466123937107e+17
19357.0	6.758502893966676e+17
19358.0	6.756520780540585e+17
19359.0	6.754499446876842e+17
19360.0	6.752453253573289e+17
19361.0	6.75043687338257e+17
19362.0	6.748357775764138e+17
19363.0	6.74624543199505e+17
19364.0	6.74401995596322e+17
19365.0	6.741770927516329e+17
19366.0	6.739580640296959e+17
19367.0	6.737348338035369e+17
19368.0	6.735054441720489e+17
19369.0	6.732759077399208e+17
19370.0	6.730449634896553e+17
19371.0	6.728101130840746e+17
19372.0	6.725760287681193e+17
19373.0	6.723326122655743e+17
19374.0	6.720866305966079e+17
19375.0	6.718355950010368e+17
19376.0	6.715598909560148e+17
19377.0	6.713023046265514e+17
19378.0	6.710410640097279e+17
19379.0	6.707758046205268e+17
19380.0	6.705057386987519e+17
19381.0	6.702308780583593e+17
19382.0	6.699473317833385e+17
19383.0	6.696657315255636e+17
19384.0	6.693820351643647e+17
19385.0	6.690897121684138e+17
19386.0	6.687828167622655e+17
19387.0	6.684650887271764e+17
19388.0	6.681456211045034e+17
19389.0	6.678241297301504e+17
19390.0	6.674635086452052e+17
19391.0	6.665473371056805e+17
19392.0	6.666912853393407e+17
19393.0	6.664773094954323e+17
19394.0	6.661388541886463e+17
19395.0	6.657792820292265e+17
19396.0	6.654091601466708e+17
19397.0	6.650291315976872e+17
19398.0	6.646339017725267e+17
19399.0	6.642043258404861e+17
19400.0	6.637961411384659e+17
19401.0	6.633737706012672e+17
19402.0	6.629291169852073e+17
19403.0	6.624768235143168e+17
19404.0	6.620132403751593e+17
19405.0	6.615345556444499e+17
19406.0	6.610423660238164e+17
19407.0	6.605298454233087e+17
19408.0	6.599835258628778e+17
19409.0	6.594547127681023e+17
19410.0	6.589126537117696e+17
19411.0	6.583506060705791e+17
19412.0	6.577770770814291e+17
19413.0	6.571612033078611e+17
19414.0	6.565053909521748e+17
19415.0	6.558377175941119e+17
19416.0	6.551381494901417e+17
19417.0	6.544285532247379e+17
19418.0	6.536887025358164e+17
19419.0	6.529163983497897e+17
19420.0	6.521068076400637e+17
19421.0	6.512475619633834e+17
19422.0	6.503504402535764e+17
19423.0	6.494220753829887e+17
19424.0	6.484315252719615e+17
19425.0	6.474180855857151e+17
19426.0	6.463681718124543e+17
19427.0	6.452557406098772e+17
19428.0	6.440423804021417e+17
19429.0	6.427728366534655e+17
19430.0	6.413973295464447e+17
19431.0	6.399455852320086e+17
19432.0	6.385164085799593e+17
19433.0	6.36922603049233e+17
19434.0	6.35225218552081e+17
19435.0	6.333819274308265e+17
19436.0	6.314043809726463e+17
19437.0	6.292583294697471e+17
19438.0	6.260863799394304e+17
19439.0	6.243170064356692e+17
19440.0	6.218175733563391e+17
19441.0	6.18876987786308e+17
19442.0	6.155639839522817e+17
19443.0	6.118680842731519e+17
19444.0	6.076844753289213e+17
19445.0	6.028830825250816e+17
19446.0	5.972839540020564e+17
19447.0	5.906014772308645e+17
19448.0	5.824016770837166e+17
19449.0	5.7184109838991354e+17
19450.0	5.565997808702796e+17
19451.0	5.464149449157291e+17
19452.0	5.6511488034078714e+17
19453.0	5.772363787752792e+17
19454.0	5.862182545784827e+17
19455.0	5.933438719404714e+17
19456.0	5.991999940678998e+17
19457.0	6.041110544995667e+17
19458.0	6.065042501926934e+17
19459.0	6.118552455785135e+17
19460.0	6.15325836404326e+17
19461.0	6.182364891141462e+17
19462.0	6.208348014422698e+17
19463.0	6.232131411203412e+17
19464.0	6.25343003169041e+17
19465.0	6.273086359863296e+17
19466.0	6.291142347150675e+17
19467.0	6.307472700604415e+17
19468.0	6.322583140739753e+17
19469.0	6.336550194031274e+17
19470.0	6.349794902190761e+17
19471.0	6.361907592866474e+17
19472.0	6.373179557675005e+17
19473.0	6.383686961681747e+17
19474.0	6.393551771052714e+17
19475.0	6.402522784027988e+17
19476.0	6.411042462629887e+17
19477.0	6.418943936473769e+17
19478.0	6.426550029254655e+17
19479.0	6.433658462972585e+17
19480.0	6.440328317195604e+17
19481.0	6.446661836472319e+17
19482.0	6.4525610006173e+17
19483.0	6.457997946170025e+17
19484.0	6.463111410221053e+17
19485.0	6.467921786874538e+17
19486.0	6.472452028061012e+17
19487.0	6.476781135593472e+17
19488.0	6.480911369502719e+17
19489.0	6.484632539234303e+17
19490.0	6.48782977119027e+17
19491.0	6.491404784107519e+17
19492.0	6.494544874962943e+17
19493.0	6.497511506881193e+17
19494.0	6.500418832738986e+17
19495.0	6.503053918907049e+17
19496.0	6.505366340763647e+17
19497.0	6.507572852948991e+17
19498.0	6.506821462261759e+17
19499.0	6.502489648005119e+17
19500.0	6.513563959033855e+17
19501.0	6.516069319573503e+17
19502.0	6.517904396779519e+17
19503.0	6.519684060239188e+17
19504.0	6.521202913487529e+17
19505.0	6.522591237199188e+17
19506.0	6.523872758551891e+17
19507.0	6.525044911330644e+17
19508.0	6.526089186071891e+17
19509.0	6.526985687793663e+17
19510.0	6.527365742766761e+17
19511.0	6.513711580359332e+17
19512.0	6.526305298983593e+17
19513.0	6.526843516267176e+17
19514.0	6.528076009002323e+17
19515.0	6.531338603593727e+17
19516.0	6.532250118826665e+17
19517.0	6.532864920606036e+17
19518.0	6.533313659404287e+17
19519.0	6.533685202037417e+17
19520.0	6.533994046816255e+17
19521.0	6.534317731042644e+17
19522.0	6.534540200422057e+17
19523.0	6.53474836652578e+17
19524.0	6.534876018769919e+17
19525.0	6.535009056500393e+17
19526.0	6.535132370436095e+17
19527.0	6.535329883007657e+17
19528.0	6.535326419211604e+17
19529.0	6.535295343613268e+17
19530.0	6.535212876606121e+17
19531.0	6.535082397401087e+17
19532.0	6.53492092019234e+17
19533.0	6.534728677064703e+17
19534.0	6.53450449850641e+17
19535.0	6.534280371677865e+17
19536.0	6.534002473872042e+17
19537.0	6.53370767511825e+17
19538.0	6.533341778717353e+17
19539.0	6.533008128824659e+17
19540.0	6.532773621792767e+17
19541.0	6.532399029201578e+17
19542.0	6.531954576982015e+17
19543.0	6.531442554525012e+17
19544.0	6.530955597927764e+17
19545.0	6.53020929003793e+17
19546.0	6.529623777083391e+17
19547.0	6.529383047801514e+17
19548.0	6.528860535390205e+17
19549.0	6.528236019602772e+17
19550.0	6.527724128567295e+17
19551.0	6.527132398955178e+17
19552.0	6.526606004016467e+17
19553.0	6.525997748846591e+17
19554.0	6.525358494274899e+17
19555.0	6.524711861922474e+17
19556.0	6.524058894073855e+17
19557.0	6.523381601359188e+17
19558.0	6.522693256653481e+17
19559.0	6.521993742516223e+17
19560.0	6.521248602740052e+17
19561.0	6.520536929315498e+17
19562.0	6.519806465409023e+17
19563.0	6.519073041022976e+17
19564.0	6.51831559585792e+17
19565.0	6.517542602407933e+17
19566.0	6.516743829367465e+17
19567.0	6.515958153041236e+17
19568.0	6.515136244918953e+17
19569.0	6.514330866548735e+17
19570.0	6.513548609279316e+17
19571.0	6.512745198037674e+17
19572.0	6.511896369474218e+17
19573.0	6.511134637730474e+17
19574.0	6.510237439754237e+17
19575.0	6.509436850580137e+17
19576.0	6.508564712871251e+17
19577.0	6.50767601115682e+17
19578.0	6.506784540502697e+17
19579.0	6.505877729181695e+17
19580.0	6.504971641378131e+17
19581.0	6.504071289285289e+17
19582.0	6.503156364083197e+17
19583.0	6.502230899294208e+17
19584.0	6.501293428310015e+17
19585.0	6.500410749616127e+17
19586.0	6.499464573353983e+17
19587.0	6.498576300157609e+17
19588.0	6.497500942128468e+17
19589.0	6.496665334710271e+17
19590.0	6.495698080672425e+17
19591.0	6.49478535258658e+17
19592.0	6.493826535391231e+17
19593.0	6.49284217348642e+17
19594.0	6.491725472901801e+17
19595.0	6.490886113678676e+17
19596.0	6.489763147502932e+17
19597.0	6.488915384292692e+17
19598.0	6.487779860370772e+17
19599.0	6.487058598767274e+17
19600.0	6.486081493008384e+17
19601.0	6.485041503447722e+17
19602.0	6.484000665239551e+17
19603.0	6.482884499428691e+17
19604.0	6.481970894733311e+17
19605.0	6.480880695159466e+17
19606.0	6.480018854466902e+17
19607.0	6.479195304973652e+17
19608.0	6.478173050328404e+17
19609.0	6.47713278534178e+17
19610.0	6.476110081206953e+17
19611.0	6.475069779869695e+17
19612.0	6.474058431812947e+17
19613.0	6.473009957175295e+17
19614.0	6.471944094351359e+17
19615.0	6.470913941831679e+17
19616.0	6.469868587756201e+17
19617.0	6.468831340571306e+17
19618.0	6.467541709531817e+17
19619.0	6.466403692096169e+17
19620.0	6.465450910504276e+17
19621.0	6.464588646187007e+17
19622.0	6.463587968439636e+17
19623.0	6.462524708181332e+17
19624.0	6.461443085260116e+17
19625.0	6.460362042550953e+17
19626.0	6.459253834033833e+17
19627.0	6.458095159650985e+17
19628.0	6.456838072915284e+17
19629.0	6.455313296610644e+17
19630.0	6.452765827355988e+17
19631.0	6.449984999609684e+17
19632.0	6.451836818380116e+17
19633.0	6.451391112762707e+17
19634.0	6.450539787190272e+17
19635.0	6.449507640978089e+17
19636.0	6.448452371567955e+17
19637.0	6.447145780161193e+17
19638.0	6.446347727142911e+17
19639.0	6.445283186922836e+17
19640.0	6.444119781365076e+17
19641.0	6.442800421797887e+17
19642.0	6.442042731965097e+17
19643.0	6.440953995504298e+17
19644.0	6.439814606531241e+17
19645.0	6.438684551981737e+17
19646.0	6.437632274508457e+17
19647.0	6.436584029858473e+17
19648.0	6.435488087583401e+17
19649.0	6.434388155127123e+17
19650.0	6.433287570456575e+17
19651.0	6.432180738370217e+17
19652.0	6.431080367609172e+17
19653.0	6.429977111166975e+17
19654.0	6.428866248354473e+17
19655.0	6.427764466210131e+17
19656.0	6.426657210499071e+17
19657.0	6.42555152765201e+17
19658.0	6.424442914384553e+17
19659.0	6.423332990397097e+17
19660.0	6.422222711990953e+17
19661.0	6.421110563624276e+17
19662.0	6.419994496379562e+17
19663.0	6.418865259020287e+17
19664.0	6.417753979573588e+17
