# Flux units: erg / (cm m2 s)
# Wavelength units: Angstrom
wave	flux
19000.0	5.759067690980692e+17
19001.0	5.7579635271707296e+17
19002.0	5.756913625071614e+17
19003.0	5.7558361978525e+17
19004.0	5.7547587832162976e+17
19005.0	5.7536809051095034e+17
19006.0	5.752606355182933e+17
19007.0	5.751522972052137e+17
19008.0	5.7504359342844576e+17
19009.0	5.749371770153641e+17
19010.0	5.748158090969087e+17
19011.0	5.747216973037567e+17
19012.0	5.746118241550335e+17
19013.0	5.7450698927418016e+17
19014.0	5.743978991321087e+17
19015.0	5.7429094179362125e+17
19016.0	5.741830667414186e+17
19017.0	5.7407573044756474e+17
19018.0	5.739691195585875e+17
19019.0	5.738618303108436e+17
19020.0	5.7375321118911136e+17
19021.0	5.736464383999999e+17
19022.0	5.735396936428202e+17
19023.0	5.734310590021631e+17
19024.0	5.7332420924757325e+17
19025.0	5.732175857756841e+17
19026.0	5.731094181707775e+17
19027.0	5.7300177401501005e+17
19028.0	5.7289531244325536e+17
19029.0	5.727878704529407e+17
19030.0	5.726810217469268e+17
19031.0	5.7257373564491085e+17
19032.0	5.724663832728916e+17
19033.0	5.7235675297437e+17
19034.0	5.7225157786555725e+17
19035.0	5.721437778214911e+17
19036.0	5.719489663117993e+17
19037.0	5.7193006034670925e+17
19038.0	5.7182252027958605e+17
19039.0	5.7171604619482445e+17
19040.0	5.716089143732906e+17
19041.0	5.7150156780339194e+17
19042.0	5.713921664439637e+17
19043.0	5.712876235565737e+17
19044.0	5.711802205732863e+17
19045.0	5.7107351531246925e+17
19046.0	5.709651065350825e+17
19047.0	5.708594550931455e+17
19048.0	5.707464539723092e+17
19049.0	5.706436344545279e+17
19050.0	5.7053739574012576e+17
19051.0	5.704164524250452e+17
19052.0	5.703240695240021e+17
19053.0	5.7021780627292154e+17
19054.0	5.701109409295018e+17
19055.0	5.699971124122965e+17
19056.0	5.698964026294271e+17
19057.0	5.697901834185385e+17
19058.0	5.696832801166677e+17
19059.0	5.69576827003426e+17
19060.0	5.6946937061266765e+17
19061.0	5.693633119737172e+17
19062.0	5.692564512440319e+17
19063.0	5.691498258148009e+17
19064.0	5.6903971792486394e+17
19065.0	5.689316373517652e+17
19066.0	5.688281579301545e+17
19067.0	5.687232119002451e+17
19068.0	5.686165787814569e+17
19069.0	5.685100259835903e+17
19070.0	5.6840276309005645e+17
19071.0	5.6829689843766605e+17
19072.0	5.681903608091988e+17
19073.0	5.680836960933204e+17
19074.0	5.679773512630271e+17
19075.0	5.678708749413034e+17
19076.0	5.6776377779268256e+17
19077.0	5.6765771104474445e+17
19078.0	5.6755042333491194e+17
19079.0	5.6744515217653754e+17
19080.0	5.673384239868586e+17
19081.0	5.672311255815508e+17
19082.0	5.671244755457365e+17
19083.0	5.670169475022847e+17
19084.0	5.6690706456685216e+17
19085.0	5.6680718357845325e+17
19086.0	5.6669068419836576e+17
19087.0	5.6659218698076154e+17
19088.0	5.6648674637250554e+17
19089.0	5.6637595229443405e+17
19090.0	5.662752348220073e+17
19091.0	5.661693575867049e+17
19092.0	5.6606182045559456e+17
19093.0	5.659576823884457e+17
19094.0	5.6585123605599565e+17
19095.0	5.6574507095162874e+17
19096.0	5.6563885991963296e+17
19097.0	5.655333823315968e+17
19098.0	5.654273897529343e+17
19099.0	5.653213531340799e+17
19100.0	5.652152457712979e+17
19101.0	5.6510945221236045e+17
19102.0	5.650008006546772e+17
19103.0	5.648975987561813e+17
19104.0	5.647916997804031e+17
19105.0	5.6468582156642976e+17
19106.0	5.645794965192703e+17
19107.0	5.6447371966764365e+17
19108.0	5.6436830415530643e+17
19109.0	5.6425471002978976e+17
19110.0	5.641567085090132e+17
19111.0	5.640509756276734e+17
19112.0	5.63945239740416e+17
19113.0	5.638395241955326e+17
19114.0	5.6373380802150394e+17
19115.0	5.636268055942485e+17
19116.0	5.635218768308905e+17
19117.0	5.63416482919219e+17
19118.0	5.633087501238271e+17
19119.0	5.63101555700531e+17
19120.0	5.6309898270474234e+17
19121.0	5.629940238123007e+17
19122.0	5.6288897411317754e+17
19123.0	5.6278333805035514e+17
19124.0	5.626774994026496e+17
19125.0	5.6257244159453856e+17
19126.0	5.624667884049749e+17
19127.0	5.623143863418879e+17
19128.0	5.622514686361599e+17
19129.0	5.621483076321279e+17
19130.0	5.6204502827881805e+17
19131.0	5.6193996970175136e+17
19132.0	5.61834590679859e+17
19133.0	5.6170498717559456e+17
19134.0	5.6159169322243405e+17
19135.0	5.614888716075007e+17
19136.0	5.613837971619839e+17
19137.0	5.612741066751999e+17
19138.0	5.6117262087618554e+17
19139.0	5.6106817683456e+17
19140.0	5.609630245847039e+17
19141.0	5.6085788240117754e+17
19142.0	5.607520687095806e+17
19143.0	5.6064601789999776e+17
19144.0	5.605417064682836e+17
19145.0	5.604375003135999e+17
19146.0	5.603165809060521e+17
19147.0	5.6022485930693965e+17
19148.0	5.6012237078964896e+17
19149.0	5.6001739938420045e+17
19150.0	5.599121853382655e+17
19151.0	5.598075162722303e+17
19152.0	5.597023232677205e+17
19153.0	5.595970392468137e+17
19154.0	5.5948928373227514e+17
19155.0	5.593879071948799e+17
19156.0	5.592829791305726e+17
19157.0	5.5917812299857914e+17
19158.0	5.590679684120574e+17
19159.0	5.5896801667973114e+17
19160.0	5.588632231127722e+17
19161.0	5.587585384579071e+17
19162.0	5.58642010137122e+17
19163.0	5.585495660691455e+17
19164.0	5.5844490056826874e+17
19165.0	5.5833994440212474e+17
19166.0	5.5823230786600954e+17
19167.0	5.581297634945706e+17
19168.0	5.5802376804980045e+17
19169.0	5.579202015264767e+17
19170.0	5.5781702849877325e+17
19171.0	5.577117442681513e+17
19172.0	5.5760793391595514e+17
19173.0	5.5750336865894394e+17
19174.0	5.5739730981027834e+17
19175.0	5.572943763472383e+17
19176.0	5.571898884751358e+17
19177.0	5.570813306601471e+17
19178.0	5.5698081835909114e+17
19179.0	5.568753979533994e+17
19180.0	5.567710217196883e+17
19181.0	5.566644460628649e+17
19182.0	5.5656214321343136e+17
19183.0	5.564588737866409e+17
19184.0	5.563524148013738e+17
19185.0	5.5625006022219085e+17
19186.0	5.561458920259582e+17
19187.0	5.560396182192126e+17
19188.0	5.559372751044607e+17
19189.0	5.558329539559424e+17
19190.0	5.5572862064394234e+17
19191.0	5.5562369020286285e+17
19192.0	5.555204316113577e+17
19193.0	5.5541586677377696e+17
19194.0	5.553115338113023e+17
19195.0	5.552077997954389e+17
19196.0	5.551034299230889e+17
19197.0	5.5499931939853645e+17
19198.0	5.548954299138047e+17
19199.0	5.547176625875626e+17
19200.0	5.5464165166284794e+17
19201.0	5.5458318823806285e+17
19202.0	5.544791742524074e+17
19203.0	5.5437514174190925e+17
19204.0	5.542703796322303e+17
19205.0	5.5416677452130976e+17
19206.0	5.540627693436926e+17
19207.0	5.5395695663076685e+17
19208.0	5.5384873764563616e+17
19209.0	5.537508208498004e+17
19210.0	5.5364697708298234e+17
19211.0	5.535432415292074e+17
19212.0	5.534393965740032e+17
19213.0	5.533326097339732e+17
19214.0	5.5322853493090976e+17
19215.0	5.531274768809983e+17
19216.0	5.5302340711109965e+17
19217.0	5.529199817261055e+17
19218.0	5.527938641078953e+17
19219.0	5.527080977913172e+17
19220.0	5.52607833862963e+17
19221.0	5.524957320009044e+17
19222.0	5.524008985078442e+17
19223.0	5.52296437129762e+17
19224.0	5.5219142573861536e+17
19225.0	5.520852539932671e+17
19226.0	5.519851056179883e+17
19227.0	5.5188129533569696e+17
19228.0	5.517783568394922e+17
19229.0	5.5167462023714125e+17
19230.0	5.515707547298474e+17
19231.0	5.514667996741632e+17
19232.0	5.513627628295508e+17
19233.0	5.5125781973565434e+17
19234.0	5.511553730914986e+17
19235.0	5.510518072672255e+17
19236.0	5.5094874175351456e+17
19237.0	5.508446467478869e+17
19238.0	5.5071507372223136e+17
19239.0	5.5057589427240966e+17
19240.0	5.5046737182938445e+17
19241.0	5.5036681541823136e+17
19242.0	5.50264395407906e+17
19243.0	5.501567643942911e+17
19244.0	5.5005776588745376e+17
19245.0	5.4995406696393376e+17
19246.0	5.4985016272923296e+17
19247.0	5.497470117915306e+17
19248.0	5.496434994446335e+17
19249.0	5.495398763681108e+17
19250.0	5.4943575500827296e+17
19251.0	5.493306256872788e+17
19252.0	5.492201796665343e+17
19253.0	5.4912492520516256e+17
19254.0	5.490212883573417e+17
19255.0	5.4891275151387296e+17
19256.0	5.4881449763580576e+17
19257.0	5.4871127972904954e+17
19258.0	5.486076535067989e+17
19259.0	5.485019546692266e+17
19260.0	5.4839885783804576e+17
19261.0	5.4829656862010016e+17
19262.0	5.481916686576298e+17
19263.0	5.4808829821801805e+17
19264.0	5.4797187573350394e+17
19265.0	5.478769856872447e+17
19266.0	5.477738224462505e+17
19267.0	5.4767522722174285e+17
19268.0	5.475715783502505e+17
19269.0	5.474679278010367e+17
19270.0	5.473642357282132e+17
19271.0	5.472515663069183e+17
19272.0	5.4715592575986336e+17
19273.0	5.469184416109906e+17
19274.0	5.468835957527891e+17
19275.0	5.4684573167342925e+17
19276.0	5.4674143631988045e+17
19277.0	5.466377884270591e+17
19278.0	5.465341178849962e+17
19279.0	5.464298450408788e+17
19280.0	5.463243413782526e+17
19281.0	5.4622248822811296e+17
19282.0	5.4611909975299405e+17
19283.0	5.460140706059604e+17
19284.0	5.4590941062758394e+17
19285.0	5.4580173767092896e+17
19286.0	5.45703344541969e+17
19287.0	5.456002679832575e+17
19288.0	5.454771663492437e+17
19289.0	5.453289328650921e+17
19290.0	5.452880919483732e+17
19291.0	5.4517686431907834e+17
19292.0	5.4507978862100474e+17
19293.0	5.449753506611199e+17
19294.0	5.448710158811136e+17
19295.0	5.447670422306815e+17
19296.0	5.446627097575423e+17
19297.0	5.445579872141311e+17
19298.0	5.4445312150514336e+17
19299.0	5.443494283138389e+17
19300.0	5.442448199254015e+17
19301.0	5.441400693500585e+17
19302.0	5.4403545054576634e+17
19303.0	5.439283359208787e+17
19304.0	5.4382469970220365e+17
19305.0	5.4372077659313485e+17
19306.0	5.4361609683162445e+17
19307.0	5.4350989327947085e+17
19308.0	5.434056402184874e+17
19309.0	5.432985935413246e+17
19310.0	5.431919978217471e+17
19311.0	5.430897553702911e+17
19312.0	5.42984993190707e+17
19313.0	5.428787092477268e+17
19314.0	5.427109767938046e+17
19315.0	5.4261161107565235e+17
19316.0	5.425631751831551e+17
19317.0	5.4245712451338234e+17
19318.0	5.4235109649285114e+17
19319.0	5.422456126133587e+17
19320.0	5.4213911762698234e+17
19321.0	5.420331970505385e+17
19322.0	5.4192372858224634e+17
19323.0	5.418190885967189e+17
19324.0	5.417136378522283e+17
19325.0	5.41604644458769e+17
19326.0	5.414999072352938e+17
19327.0	5.413923606669994e+17
19328.0	5.4126936836450976e+17
19329.0	5.411555038461951e+17
19330.0	5.410467649770837e+17
19331.0	5.4093895507640314e+17
19332.0	5.4083222227298976e+17
19333.0	5.40723880534562e+17
19334.0	5.4061534879416314e+17
19335.0	5.4050726032179194e+17
19336.0	5.403984319741951e+17
19337.0	5.402893240762367e+17
19338.0	5.4017453373521914e+17
19339.0	5.400706943025151e+17
19340.0	5.3995876720312314e+17
19341.0	5.398508890051924e+17
19342.0	5.397301959502506e+17
19343.0	5.3963023422149965e+17
19344.0	5.395193450026324e+17
19345.0	5.393470457206099e+17
19346.0	5.392826757371221e+17
19347.0	5.391831504956073e+17
19348.0	5.390729377480704e+17
19349.0	5.3895949853218125e+17
19350.0	5.3884671698315936e+17
19351.0	5.387330305130494e+17
19352.0	5.3861832189105485e+17
19353.0	5.3850614152560634e+17
19354.0	5.383914665978538e+17
19355.0	5.382736840403626e+17
19356.0	5.381372011085824e+17
19357.0	5.3796762197251405e+17
19358.0	5.378499549680979e+17
19359.0	5.3772639580542285e+17
19360.0	5.376145100199252e+17
19361.0	5.374956299528874e+17
19362.0	5.373776887807999e+17
19363.0	5.372576468915541e+17
19364.0	5.371367630656852e+17
19365.0	5.3701549783777274e+17
19366.0	5.3689319703620256e+17
19367.0	5.3677007331218765e+17
19368.0	5.3664606976300365e+17
19369.0	5.365182902916436e+17
19370.0	5.363794605069652e+17
19371.0	5.362666354070869e+17
19372.0	5.361401039508821e+17
19373.0	5.3601018713210874e+17
19374.0	5.3588049582708045e+17
19375.0	5.357487581211305e+17
19376.0	5.3561582587740154e+17
19377.0	5.354813158064126e+17
19378.0	5.353182230216703e+17
19379.0	5.351121203757055e+17
19380.0	5.349727876939775e+17
19381.0	5.348314669121534e+17
19382.0	5.3468630981017594e+17
19383.0	5.34540858897203e+17
19384.0	5.3439684621107194e+17
19385.0	5.3424764013772794e+17
19386.0	5.340962885380778e+17
19387.0	5.3394236792722765e+17
19388.0	5.3378584034672634e+17
19389.0	5.335206440118954e+17
19390.0	5.333468403029332e+17
19391.0	5.331008301826047e+17
19392.0	5.330117282059605e+17
19393.0	5.328391425927849e+17
19394.0	5.3266242517073914e+17
19395.0	5.324059788531028e+17
19396.0	5.321571202411177e+17
19397.0	5.319671835612501e+17
19398.0	5.3177151319790925e+17
19399.0	5.3153469314717005e+17
19400.0	5.312001515454462e+17
19401.0	5.309882044863828e+17
19402.0	5.307689312365227e+17
19403.0	5.303889047846911e+17
19404.0	5.301169465327615e+17
19405.0	5.2983057958830074e+17
19406.0	5.294028807471103e+17
19407.0	5.2912344684735123e+17
19408.0	5.2859876171666765e+17
19409.0	5.282488567988223e+17
19410.0	5.277537955479551e+17
19411.0	5.273143910334462e+17
19412.0	5.26951626449442e+17
19413.0	5.265656794578943e+17
19414.0	5.261820923914921e+17
19415.0	5.258028213338111e+17
19416.0	5.254009812156415e+17
19417.0	5.2498623417548794e+17
19418.0	5.2455192329366176e+17
19419.0	5.240930126790655e+17
19420.0	5.236078119572819e+17
19421.0	5.23015565676817e+17
19422.0	5.224594558418943e+17
19423.0	5.2188656795211085e+17
19424.0	5.21249940972066e+17
19425.0	5.2050829533074765e+17
19426.0	5.198210722518356e+17
19427.0	5.189286853520042e+17
19428.0	5.1806183847799475e+17
19429.0	5.170516248406696e+17
19430.0	5.158780514511532e+17
19431.0	5.1451997552203066e+17
19432.0	5.1289629214637997e+17
19433.0	5.109279415599104e+17
19434.0	5.083410231984124e+17
19435.0	5.0607376931225574e+17
19436.0	5.0432461053624314e+17
19437.0	5.024050642419711e+17
19438.0	5.0020096294256614e+17
19439.0	4.9803054204409165e+17
19440.0	4.954605787370837e+17
19441.0	4.924920525313364e+17
19442.0	4.8877564389403334e+17
19443.0	4.8346943137163923e+17
19444.0	4.7668008841816666e+17
19445.0	4.7116172974708064e+17
19446.0	4.645865015388842e+17
19447.0	4.5526483678003085e+17
19448.0	4.4260524696098195e+17
19449.0	4.249178964929192e+17
19450.0	3.871469700382708e+17
19451.0	3.766537511676577e+17
19452.0	4.0745597161963635e+17
19453.0	4.3544090638636454e+17
19454.0	4.4872393049156186e+17
19455.0	4.599977368092665e+17
19456.0	4.673467139315031e+17
19457.0	4.730552770887678e+17
19458.0	4.7872284728579437e+17
19459.0	4.851192916781742e+17
19460.0	4.89251853635857e+17
19461.0	4.923270365184002e+17
19462.0	4.948789954958678e+17
19463.0	4.9713514188636154e+17
19464.0	4.990838759227392e+17
19465.0	5.009220690771968e+17
19466.0	5.025450184496468e+17
19467.0	5.0418455839156934e+17
19468.0	5.066551579377658e+17
19469.0	5.086802969537189e+17
19470.0	5.102599459394899e+17
19471.0	5.115652863950848e+17
19472.0	5.1259730377222816e+17
19473.0	5.134571691573248e+17
19474.0	5.142550297269589e+17
19475.0	5.148738672656385e+17
19476.0	5.154840469220009e+17
19477.0	5.159813343696213e+17
19478.0	5.165055581268649e+17
19479.0	5.168979464508757e+17
19480.0	5.172573979541503e+17
19481.0	5.1763874022905165e+17
19482.0	5.1797836197178016e+17
19483.0	5.1825429320826874e+17
19484.0	5.18500508569873e+17
19485.0	5.187289542033407e+17
19486.0	5.189391288194388e+17
19487.0	5.191305330862762e+17
19488.0	5.193040060743679e+17
19489.0	5.1949040108393805e+17
19490.0	5.196201649504255e+17
19491.0	5.1987363652785485e+17
19492.0	5.200565565565611e+17
19493.0	5.204091749793791e+17
19494.0	5.2055223723622355e+17
19495.0	5.208019667255294e+17
19496.0	5.2086452623769594e+17
19497.0	5.2112257631737165e+17
19498.0	5.211626660342441e+17
19499.0	5.21128763614822e+17
19500.0	5.214069351688874e+17
19501.0	5.2142543484573e+17
19502.0	5.214376584456874e+17
19503.0	5.215814040245589e+17
19504.0	5.2160083064258554e+17
19505.0	5.215962515111935e+17
19506.0	5.2158665382516045e+17
19507.0	5.2159780745816723e+17
19508.0	5.2168689321683616e+17
19509.0	5.2166418378697376e+17
19510.0	5.2163244150401696e+17
19511.0	5.214719512150014e+17
19512.0	5.215604713018708e+17
19513.0	5.2149378578295443e+17
19514.0	5.2150581246033914e+17
19515.0	5.215553210460842e+17
19516.0	5.2152477630682445e+17
19517.0	5.214763303479978e+17
19518.0	5.21429352255761e+17
19519.0	5.2137828450740896e+17
19520.0	5.2132449185955834e+17
19521.0	5.2127049501900794e+17
19522.0	5.2121291204853754e+17
19523.0	5.211556340039679e+17
19524.0	5.2109577464490656e+17
19525.0	5.210333991228756e+17
19526.0	5.2099519635346765e+17
19527.0	5.2099668421290656e+17
19528.0	5.209309445095423e+17
19529.0	5.208643305734143e+17
19530.0	5.207964633093459e+17
19531.0	5.2072740654066336e+17
19532.0	5.2065730329313274e+17
19533.0	5.2058623095166285e+17
19534.0	5.205141861608106e+17
19535.0	5.204409418689194e+17
19536.0	5.2036647360921594e+17
19537.0	5.2029305224779085e+17
19538.0	5.2021698728645965e+17
19539.0	5.201251098689536e+17
19540.0	5.2006416879889056e+17
19541.0	5.199874909099347e+17
19542.0	5.199092858049876e+17
19543.0	5.198307329922387e+17
19544.0	5.1975155613695994e+17
19545.0	5.196629168619519e+17
19546.0	5.195642144030719e+17
19547.0	5.195107239548244e+17
19548.0	5.194296028299264e+17
19549.0	5.193451264715434e+17
19550.0	5.192657190693547e+17
19551.0	5.191832088608767e+17
19552.0	5.191001997399381e+17
19553.0	5.1901635280677536e+17
19554.0	5.189319827739988e+17
19555.0	5.18848651670323e+17
19556.0	5.187646462623743e+17
19557.0	5.186802418363051e+17
19558.0	5.186644448990549e+17
19559.0	5.185787578548223e+17
19560.0	5.184927042983251e+17
19561.0	5.184067031706281e+17
19562.0	5.1832127107017376e+17
19563.0	5.1823472587134285e+17
19564.0	5.1814805568225274e+17
19565.0	5.180611062923262e+17
19566.0	5.179730708572841e+17
19567.0	5.178864765850966e+17
19568.0	5.1779822542301856e+17
19569.0	5.1771093804209485e+17
19570.0	5.176232041775102e+17
19571.0	5.1753502061363194e+17
19572.0	5.174458289487872e+17
19573.0	5.17357833289728e+17
19574.0	5.1726680493916154e+17
19575.0	5.171807590023167e+17
19576.0	5.170918347243519e+17
19577.0	5.170008102185642e+17
19578.0	5.169123846433449e+17
19579.0	5.168233202756266e+17
19580.0	5.167340080245419e+17
19581.0	5.166445734395904e+17
19582.0	5.16555372896802e+17
19583.0	5.16465546633762e+17
19584.0	5.163756055866025e+17
19585.0	5.162824726740991e+17
19586.0	5.161915478529364e+17
19587.0	5.161044765485738e+17
19588.0	5.160017808326655e+17
19589.0	5.1592378593225376e+17
19590.0	5.1583150537222816e+17
19591.0	5.1574339961268896e+17
19592.0	5.1565268709321376e+17
19593.0	5.1556143239004154e+17
19594.0	5.1546441848804685e+17
19595.0	5.153797714913961e+17
19596.0	5.1527713889976314e+17
19597.0	5.15197938836002e+17
19598.0	5.1509831195252045e+17
19599.0	5.150160288656042e+17
19600.0	5.14925099220992e+17
19601.0	5.1483202831428256e+17
19602.0	5.147414783939924e+17
19603.0	5.146393140264959e+17
19604.0	5.145587239004843e+17
19605.0	5.1446017117825696e+17
19606.0	5.143768070793898e+17
19607.0	5.1428549917846176e+17
19608.0	5.1419347761670816e+17
19609.0	5.141008317328041e+17
19610.0	5.140107424869034e+17
19611.0	5.13918906802722e+17
19612.0	5.1382739345080314e+17
19613.0	5.1373528443781114e+17
19614.0	5.136427826282496e+17
19615.0	5.135521323941887e+17
19616.0	5.134596354080766e+17
19617.0	5.1336834931752954e+17
19618.0	5.132628237746175e+17
19619.0	5.131650000224255e+17
19620.0	5.130749852254207e+17
19621.0	5.130008834080768e+17
19622.0	5.129089337786367e+17
19623.0	5.1281696010185376e+17
19624.0	5.127246980666709e+17
19625.0	5.12632945639424e+17
19626.0	5.125409339342847e+17
19627.0	5.1244889265930234e+17
19628.0	5.1235517135585274e+17
19629.0	5.122624076120064e+17
19630.0	5.121719729651711e+17
19631.0	5.1200076049722016e+17
19632.0	5.119884473488725e+17
19633.0	5.118953357574142e+17
19634.0	5.118042245693439e+17
19635.0	5.117110319579135e+17
19636.0	5.1161996397117434e+17
19637.0	5.1151767076864e+17
19638.0	5.1143541837004794e+17
19639.0	5.1134323364986874e+17
19640.0	5.112496568401919e+17
19641.0	5.1113780544798726e+17
19642.0	5.110666843127807e+17
19643.0	5.1097421815480314e+17
19644.0	5.108810005872639e+17
19645.0	5.1078310091816954e+17
19646.0	5.106983170473983e+17
19647.0	5.1060612582604794e+17
19648.0	5.105139333464062e+17
19649.0	5.1042166914416634e+17
19650.0	5.1032954838712314e+17
19651.0	5.102371633889279e+17
19652.0	5.1014511561277434e+17
19653.0	5.10052919148544e+17
19654.0	5.099607824531456e+17
19655.0	5.098684913374549e+17
19656.0	5.097762050452138e+17
