# Flux units: erg / (cm m2 s)
# Wavelength units: Angstrom
wave	flux
19000.0	8.910253931014825e+17
19001.0	8.908814308868093e+17
19002.0	8.907436358369277e+17
19003.0	8.906019488923647e+17
19004.0	8.904598303539199e+17
19005.0	8.903173573967872e+17
19006.0	8.901743194669056e+17
19007.0	8.901621747198634e+17
19008.0	8.901636519537322e+17
19009.0	8.900170350242476e+17
19010.0	8.898626129144489e+17
19011.0	8.897281801584639e+17
19012.0	8.895778010781012e+17
19013.0	8.894365889287506e+17
19014.0	8.892876051535187e+17
19015.0	8.891421592737106e+17
19016.0	8.889928205205501e+17
19017.0	8.888452126168403e+17
19018.0	8.886974935640744e+17
19019.0	8.885486338004305e+17
19020.0	8.883980833128448e+17
19021.0	8.882494177454761e+17
19022.0	8.880996074127359e+17
19023.0	8.879491669557245e+17
19024.0	8.877980910616573e+17
19025.0	8.876470548736681e+17
19026.0	8.8749470936378e+17
19027.0	8.87340493194308e+17
19028.0	8.871916429377535e+17
19029.0	8.870438388804262e+17
19030.0	8.868913418163539e+17
19031.0	8.867381663935145e+17
19032.0	8.865845946089471e+17
19033.0	8.864276266964307e+17
19034.0	8.862761083032914e+17
19035.0	8.861171591413757e+17
19036.0	8.857536533539496e+17
19037.0	8.858094958979754e+17
19038.0	8.856555087375021e+17
19039.0	8.855010451040937e+17
19040.0	8.853451477177683e+17
19041.0	8.851888763393364e+17
19042.0	8.850295632516436e+17
19043.0	8.848754480250877e+17
19044.0	8.847181990942038e+17
19045.0	8.845607471590056e+17
19046.0	8.844015629762556e+17
19047.0	8.842439969559892e+17
19048.0	8.840810676791977e+17
19049.0	8.83925552813397e+17
19050.0	8.837671329726463e+17
19051.0	8.835757660351144e+17
19052.0	8.834410440119636e+17
19053.0	8.8329059069242e+17
19054.0	8.831309359087613e+17
19055.0	8.829621655044093e+17
19056.0	8.828104401922732e+17
19057.0	8.826497537496404e+17
19058.0	8.824888050231977e+17
19059.0	8.823274747549011e+17
19060.0	8.821655098884093e+17
19061.0	8.820044035959464e+17
19062.0	8.818423098245117e+17
19063.0	8.816800801576276e+17
19064.0	8.815143441924093e+17
19065.0	8.813486753360553e+17
19066.0	8.811897412736339e+17
19067.0	8.81028871819537e+17
19068.0	8.80865468166963e+17
19069.0	8.807018027898198e+17
19070.0	8.80537662198033e+17
19071.0	8.803738721102505e+17
19072.0	8.80209600516369e+17
19073.0	8.80044969750255e+17
19074.0	8.798803834437628e+17
19075.0	8.797154108418728e+17
19076.0	8.795496580994387e+17
19077.0	8.793843570835455e+17
19078.0	8.792183853984425e+17
19079.0	8.7905326333952e+17
19080.0	8.788869547119955e+17
19081.0	8.787192665778858e+17
19082.0	8.785530804240381e+17
19083.0	8.783833616875519e+17
19084.0	8.78211344053043e+17
19085.0	8.780530023661567e+17
19086.0	8.778710573733204e+17
19087.0	8.777144526875305e+17
19088.0	8.776341717516288e+17
19089.0	8.774830825755988e+17
19090.0	8.77321924133956e+17
19091.0	8.771526242686292e+17
19092.0	8.769822589102761e+17
19093.0	8.768153253314559e+17
19094.0	8.766446270851754e+17
19095.0	8.764747579129855e+17
19096.0	8.763060161697107e+17
19097.0	8.761363525184169e+17
19098.0	8.759661725483007e+17
19099.0	8.75795606282786e+17
19100.0	8.756248210746025e+17
19101.0	8.75453679210769e+17
19102.0	8.752801809869482e+17
19103.0	8.751111421471401e+17
19104.0	8.749394600569513e+17
19105.0	8.747674411641514e+17
19106.0	8.745947369220774e+17
19107.0	8.744223170538153e+17
19108.0	8.742492495850154e+17
19109.0	8.740606240445782e+17
19110.0	8.739008813203453e+17
19111.0	8.737314031970986e+17
19112.0	8.735585285264724e+17
19113.0	8.73385099788288e+17
19114.0	8.732113363446438e+17
19115.0	8.730363783632211e+17
19116.0	8.728631064920064e+17
19117.0	8.726878339377833e+17
19118.0	8.725107325272064e+17
19119.0	8.722776463856979e+17
19120.0	8.721620527655594e+17
19121.0	8.719873300845906e+17
19122.0	8.71813399567838e+17
19123.0	8.716376373985279e+17
19124.0	8.714601319366656e+17
19125.0	8.712852126826495e+17
19126.0	8.711077390974975e+17
19127.0	8.708835313188863e+17
19128.0	8.707477021392895e+17
19129.0	8.705752428445693e+17
19130.0	8.704010222217897e+17
19131.0	8.702236959965183e+17
19132.0	8.700456311543123e+17
19133.0	8.698627523695955e+17
19134.0	8.696869686695252e+17
19135.0	8.695113745519958e+17
19136.0	8.693326309315923e+17
19137.0	8.691495245359785e+17
19138.0	8.689742791049216e+17
19139.0	8.687946159532713e+17
19140.0	8.686114779605672e+17
19141.0	8.684317277072041e+17
19142.0	8.68251669172497e+17
19143.0	8.680700204373331e+17
19144.0	8.678904889868285e+17
19145.0	8.677100656874836e+17
19146.0	8.675097538374314e+17
19147.0	8.673453162889213e+17
19148.0	8.671659478570324e+17
19149.0	8.669838254451369e+17
19150.0	8.668012794085375e+17
19151.0	8.666186574550355e+17
19152.0	8.66435598455057e+17
19153.0	8.662522831831037e+17
19154.0	8.66065249800465e+17
19155.0	8.658846899066195e+17
19156.0	8.657003484282879e+17
19157.0	8.655142428256937e+17
19158.0	8.65162540089344e+17
19159.0	8.648781760648531e+17
19160.0	8.646938000534186e+17
19161.0	8.645061561199273e+17
19162.0	8.642960017762985e+17
19163.0	8.641308492387667e+17
19164.0	8.639495856805203e+17
19165.0	8.637630670787923e+17
19166.0	8.635732242115241e+17
19167.0	8.633865002287101e+17
19168.0	8.632001637995858e+17
19169.0	8.630127375504724e+17
19170.0	8.628252184674301e+17
19171.0	8.626361881766572e+17
19172.0	8.624479451567443e+17
19173.0	8.622590127330643e+17
19174.0	8.620682289435987e+17
19175.0	8.618800582055252e+17
19176.0	8.616901058669226e+17
19177.0	8.614947621699581e+17
19178.0	8.613083903688703e+17
19179.0	8.611171443671039e+17
19180.0	8.609266306908157e+17
19181.0	8.607328966279165e+17
19182.0	8.605430287346345e+17
19183.0	8.603516072711507e+17
19184.0	8.601585023538514e+17
19185.0	8.599661894609578e+17
19186.0	8.597732579082239e+17
19187.0	8.595381320766802e+17
19188.0	8.590445561686697e+17
19189.0	8.58849457419059e+17
19190.0	8.586539360234154e+17
19191.0	8.58458552480563e+17
19192.0	8.582626341639507e+17
19193.0	8.580658514012841e+17
19194.0	8.578689003072169e+17
19195.0	8.576711015443114e+17
19196.0	8.574716600123391e+17
19197.0	8.572697835470845e+17
19198.0	8.570566768328701e+17
19199.0	8.567139099213824e+17
19200.0	8.565423873545556e+17
19201.0	8.564632078428841e+17
19202.0	8.56277807023172e+17
19203.0	8.560825894349481e+17
19204.0	8.558839522306728e+17
19205.0	8.556853576684883e+17
19206.0	8.554850978278058e+17
19207.0	8.552825470582781e+17
19208.0	8.550786292252672e+17
19209.0	8.548819514600105e+17
19210.0	8.54291329563579e+17
19211.0	8.540499637261651e+17
19212.0	8.538435774054397e+17
19213.0	8.536336376703656e+17
19214.0	8.53425486106897e+17
19215.0	8.5322100651677e+17
19216.0	8.530132071350271e+17
19217.0	8.528038706806783e+17
19218.0	8.525729145465514e+17
19219.0	8.523784417269074e+17
19220.0	8.521737229216426e+17
19221.0	8.519554015690752e+17
19222.0	8.517511000970579e+17
19223.0	8.515398606869843e+17
19224.0	8.513258782020948e+17
19225.0	8.507622035903832e+17
19226.0	8.503830326367572e+17
19227.0	8.501658602438655e+17
19228.0	8.499497385241256e+17
19229.0	8.497320390470314e+17
19230.0	8.495136396804097e+17
19231.0	8.492947999118676e+17
19232.0	8.490747258994688e+17
19233.0	8.488524621807615e+17
19234.0	8.486333039247357e+17
19235.0	8.484122765470378e+17
19236.0	8.481898941295273e+17
19237.0	8.478696988650152e+17
19238.0	8.47432215900979e+17
19239.0	8.472095382044671e+17
19240.0	8.469818147602431e+17
19241.0	8.467554687254527e+17
19242.0	8.465282776782164e+17
19243.0	8.462938950773416e+17
19244.0	8.460703986526889e+17
19245.0	8.458402330050556e+17
19246.0	8.456089109878098e+17
19247.0	8.453774797788502e+17
19248.0	8.451450359250944e+17
19249.0	8.449116408031916e+17
19250.0	8.446772951121919e+17
19251.0	8.444386599064915e+17
19252.0	8.441967325915817e+17
19253.0	8.439703316114089e+17
19254.0	8.437334458499072e+17
19255.0	8.434893727290708e+17
19256.0	8.432561140618579e+17
19257.0	8.430175427493885e+17
19258.0	8.427771494312617e+17
19259.0	8.42533356909363e+17
19260.0	8.422902261088255e+17
19261.0	8.420495665922047e+17
19262.0	8.418036472785578e+17
19263.0	8.415564225576957e+17
19264.0	8.412984973284691e+17
19265.0	8.410587277033471e+17
19266.0	8.408115682738175e+17
19267.0	8.405650920964095e+17
19268.0	8.40314141435494e+17
19269.0	8.400620778859178e+17
19270.0	8.398085186475347e+17
19271.0	8.395461055130282e+17
19272.0	8.392976426336255e+17
19273.0	8.389963755640147e+17
19274.0	8.387516888165032e+17
19275.0	8.385264214168915e+17
19276.0	8.38267175960576e+17
19277.0	8.380063266024105e+17
19278.0	8.377441911308288e+17
19279.0	8.374806086243668e+17
19280.0	8.372142009745408e+17
19281.0	8.369499707277311e+17
19282.0	8.36682686608179e+17
19283.0	8.364131290360488e+17
19284.0	8.361411584808275e+17
19285.0	8.35870421889843e+17
19286.0	8.355821329754794e+17
19287.0	8.35308893503488e+17
19288.0	8.349765546104146e+17
19289.0	8.346324351756968e+17
19290.0	8.344789518909439e+17
19291.0	8.341917109933396e+17
19292.0	8.339192674604372e+17
19293.0	8.336361030068905e+17
19294.0	8.333503028527103e+17
19295.0	8.330628947421866e+17
19296.0	8.327739990518441e+17
19297.0	8.324836554877612e+17
19298.0	8.32192365409075e+17
19299.0	8.318994883455658e+17
19300.0	8.316039617402196e+17
19301.0	8.31306317570594e+17
19302.0	8.310068634189824e+17
19303.0	8.307044724157097e+17
19304.0	8.304034832886442e+17
19305.0	8.301005598883837e+17
19306.0	8.297951475881298e+17
19307.0	8.294862010275156e+17
19308.0	8.291776828451497e+17
19309.0	8.288635103215612e+17
19310.0	8.285481365493078e+17
19311.0	8.282401767686143e+17
19312.0	8.279269346814633e+17
19313.0	8.276090664168105e+17
19314.0	8.272147617153024e+17
19315.0	8.268989907424595e+17
19316.0	8.26645346918946e+17
19317.0	8.262942171245224e+17
19318.0	8.259518592974847e+17
19319.0	8.25622939181602e+17
19320.0	8.252918008381439e+17
19321.0	8.249585686981289e+17
19322.0	8.246207082834602e+17
19323.0	8.242840664539135e+17
19324.0	8.239458882508115e+17
19325.0	8.236001615588008e+17
19326.0	8.232523487597906e+17
19327.0	8.228995489333247e+17
19328.0	8.22544077614831e+17
19329.0	8.221860402211498e+17
19330.0	8.21825216131891e+17
19331.0	8.214605706122578e+17
19332.0	8.210939917981011e+17
19333.0	8.207229544387923e+17
19334.0	8.203484369256448e+17
19335.0	8.199141932225875e+17
19336.0	8.195110150515369e+17
19337.0	8.191255650850132e+17
19338.0	8.187307201571496e+17
19339.0	8.183437575847935e+17
19340.0	8.179459184831144e+17
19341.0	8.175448810848255e+17
19342.0	8.171322309170515e+17
19343.0	8.167307615054505e+17
19344.0	8.163163736375293e+17
19345.0	8.15852331082274e+17
19346.0	8.154387120302762e+17
19347.0	8.149183046003369e+17
19348.0	8.144858735356586e+17
19349.0	8.14045479305216e+17
19350.0	8.136005405463892e+17
19351.0	8.131503341611688e+17
19352.0	8.126920417170772e+17
19353.0	8.122308810681004e+17
19354.0	8.11759229206528e+17
19355.0	8.112224772729513e+17
19356.0	8.106112139482454e+17
19357.0	8.101143729143804e+17
19358.0	8.096107501103788e+17
19359.0	8.090996819973459e+17
19360.0	8.085847643521019e+17
19361.0	8.080625386913791e+17
19362.0	8.074916110095702e+17
19363.0	8.067678873496233e+17
19364.0	8.062248938722644e+17
19365.0	8.056748468338685e+17
19366.0	8.051176841587368e+17
19367.0	8.045532446457853e+17
19368.0	8.039365736049325e+17
19369.0	8.031108567749972e+17
19370.0	8.025217874700969e+17
19371.0	8.019316336579923e+17
19372.0	8.013340957736957e+17
19373.0	8.007245495970476e+17
19374.0	7.997431717997226e+17
19375.0	7.990895151065768e+17
19376.0	7.984262021469524e+17
19377.0	7.977506103623679e+17
19378.0	7.969009969048232e+17
19379.0	7.959356066758656e+17
19380.0	7.952232652384936e+17
19381.0	7.944981726975314e+17
19382.0	7.93756191092463e+17
19383.0	7.925405482745859e+17
19384.0	7.917747672099497e+17
19385.0	7.909945732584787e+17
19386.0	7.901985583923199e+17
19387.0	7.889929168923308e+17
19388.0	7.880378874331135e+17
19389.0	7.87183319523874e+17
19390.0	7.863104443165352e+17
19391.0	7.848570802317994e+17
19392.0	7.83932207259102e+17
19393.0	7.830239491828394e+17
19394.0	7.820946926032212e+17
19395.0	7.809177809671508e+17
19396.0	7.799126508262739e+17
19397.0	7.789449240903679e+17
19398.0	7.77959790992862e+17
19399.0	7.769240762668374e+17
19400.0	7.758683366752255e+17
19401.0	7.747926066113194e+17
19402.0	7.736801612879187e+17
19403.0	7.725337531471187e+17
19404.0	7.713536356646911e+17
19405.0	7.701244725078696e+17
19406.0	7.687981102705322e+17
19407.0	7.674980337363626e+17
19408.0	7.661451471399593e+17
19409.0	7.647798526738432e+17
19410.0	7.633692328809812e+17
19411.0	7.618264405027496e+17
19412.0	7.60314282761694e+17
19413.0	7.587773783474175e+17
19414.0	7.571994637063508e+17
19415.0	7.555687859792554e+17
19416.0	7.537470919584425e+17
19417.0	7.519720784439976e+17
19418.0	7.501260645903021e+17
19419.0	7.481894156020394e+17
19420.0	7.461770191612582e+17
19421.0	7.440016341641897e+17
19422.0	7.418690279920982e+17
19423.0	7.396664075616255e+17
19424.0	7.373911058546688e+17
19425.0	7.350042959194794e+17
19426.0	7.324607825925458e+17
19427.0	7.297711488019113e+17
19428.0	7.270285605251756e+17
19429.0	7.241997683960488e+17
19430.0	7.212539778345642e+17
19431.0	7.181293555722921e+17
19432.0	7.148637409421993e+17
19433.0	7.1145783047837e+17
19434.0	7.0790128088733e+17
19435.0	7.041369857414483e+17
19436.0	7.001913329451008e+17
19437.0	6.960621343298899e+17
19438.0	6.916179648752296e+17
19439.0	6.870617320762026e+17
19440.0	6.822100311124649e+17
19441.0	6.770682806053544e+17
19442.0	6.716352273667415e+17
19443.0	6.658873257623551e+17
19444.0	6.598060512291494e+17
19445.0	6.53363348557005e+17
19446.0	6.465386959951188e+17
19447.0	6.392875609402024e+17
19448.0	6.315402273488899e+17
19449.0	6.231786874295636e+17
19450.0	6.138707988621988e+17
19451.0	6.090314478168748e+17
19452.0	6.185840256483327e+17
19453.0	6.271105292916055e+17
19454.0	6.349112747578705e+17
19455.0	6.421623173283839e+17
19456.0	6.489531115809453e+17
19457.0	6.553383947905702e+17
19458.0	6.61315251985886e+17
19459.0	6.670122102729388e+17
19460.0	6.723330342824616e+17
19461.0	6.773716857214291e+17
19462.0	6.820999037190144e+17
19463.0	6.865658959975762e+17
19464.0	6.908046018084864e+17
19465.0	6.947858681604778e+17
19466.0	6.985438201905151e+17
19467.0	7.02133478428945e+17
19468.0	7.055077975348566e+17
19469.0	7.087037270196223e+17
19470.0	7.117761040525993e+17
19471.0	7.14696581849634e+17
19472.0	7.174326587490301e+17
19473.0	7.200356247972521e+17
19474.0	7.225237357024598e+17
19475.0	7.249694820401148e+17
19476.0	7.272986584634708e+17
19477.0	7.294757787839145e+17
19478.0	7.315076326009513e+17
19479.0	7.334582026239999e+17
19480.0	7.353334324614484e+17
19481.0	7.371991093521068e+17
19482.0	7.389986426279251e+17
19483.0	7.406781282123773e+17
19484.0	7.422743795116713e+17
19485.0	7.437879880624812e+17
19486.0	7.452968759241385e+17
19487.0	7.467208424117587e+17
19488.0	7.480216179965952e+17
19489.0	7.492801980443306e+17
19490.0	7.504802707668992e+17
19491.0	7.517541261901821e+17
19492.0	7.529127145897984e+17
19493.0	7.54007044993843e+17
19494.0	7.55064840213845e+17
19495.0	7.560878596205225e+17
19496.0	7.570910308816212e+17
19497.0	7.580777462104063e+17
19498.0	7.589563479009961e+17
19499.0	7.596581273818451e+17
19500.0	7.606615659599187e+17
19501.0	7.614569129530708e+17
19502.0	7.622166142342483e+17
19503.0	7.62975380465254e+17
19504.0	7.636659410217641e+17
19505.0	7.643393959482708e+17
19506.0	7.64995839336994e+17
19507.0	7.658847063070036e+17
19508.0	7.665493042615636e+17
19509.0	7.671650132688896e+17
19510.0	7.677621347986089e+17
19511.0	7.687097164322135e+17
19512.0	7.694592498816338e+17
19513.0	7.699873060443474e+17
19514.0	7.70542705713698e+17
19515.0	7.715535835889661e+17
19516.0	7.720915025177258e+17
19517.0	7.725708630906195e+17
19518.0	7.730361514939732e+17
19519.0	7.738012399392084e+17
19520.0	7.743699129029972e+17
19521.0	7.747928543548756e+17
19522.0	7.752020108072275e+17
19523.0	7.757260846181036e+17
19524.0	7.76389812953634e+17
19525.0	7.767610359807997e+17
19526.0	7.771201973081427e+17
19527.0	7.774670298983084e+17
19528.0	7.78026158024294e+17
19529.0	7.78442908823279e+17
19530.0	7.787364645251753e+17
19531.0	7.790213724110848e+17
19532.0	7.7930093885085e+17
19533.0	7.797225295970303e+17
19534.0	7.80111526826257e+17
19535.0	7.803682517854888e+17
19536.0	7.806164713952595e+17
19537.0	7.808593642389501e+17
19538.0	7.810911410585597e+17
19539.0	7.814154208761174e+17
19540.0	7.817576850303658e+17
19541.0	7.819722228411049e+17
19542.0	7.821790252367872e+17
19543.0	7.823791297484115e+17
19544.0	7.825725790180692e+17
19545.0	7.827483121068713e+17
19546.0	7.82977447493632e+17
19547.0	7.83277252428868e+17
19548.0	7.834425436580521e+17
19549.0	7.83593801584913e+17
19550.0	7.837443478781951e+17
19551.0	7.8388536555165e+17
19552.0	7.840202310199977e+17
19553.0	7.841495562321919e+17
19554.0	7.8427374761629e+17
19555.0	7.844497122306728e+17
19556.0	7.846204461285372e+17
19557.0	7.847288551855444e+17
19558.0	7.848343206800041e+17
19559.0	7.849337544856915e+17
19560.0	7.850274866943315e+17
19561.0	7.85118581105186e+17
19562.0	7.852045950954154e+17
19563.0	7.852864913975977e+17
19564.0	7.853645188737705e+17
19565.0	7.854387251991892e+17
19566.0	7.855087544172543e+17
19567.0	7.856279236815532e+17
19568.0	7.857087795167232e+17
19569.0	7.857691821080575e+17
19570.0	7.858256638640127e+17
19571.0	7.858785478858068e+17
19572.0	7.859263530248873e+17
19573.0	7.859724485656575e+17
19574.0	7.860139832202579e+17
19575.0	7.86058006635042e+17
19576.0	7.860961194366291e+17
19577.0	7.861296315061591e+17
19578.0	7.861569227238058e+17
19579.0	7.861823357321215e+17
19580.0	7.86205467598302e+17
19581.0	7.862266927338836e+17
19582.0	7.862458211368957e+17
19583.0	7.862624610593446e+17
19584.0	7.862769305692842e+17
19585.0	7.863049107712681e+17
19586.0	7.863333569604264e+17
19587.0	7.863452109023914e+17
19588.0	7.86341219602705e+17
19589.0	7.863564779214164e+17
19590.0	7.863582519721981e+17
19591.0	7.863611408689833e+17
19592.0	7.863603008897021e+17
19593.0	7.863570518420138e+17
19594.0	7.863464044614994e+17
19595.0	7.86346932384563e+17
19596.0	7.863212196233216e+17
19597.0	7.863293158883327e+17
19598.0	7.863127654443689e+17
19599.0	7.863062755977897e+17
19600.0	7.862919444998824e+17
19601.0	7.862740630634493e+17
19602.0	7.862563576479743e+17
19603.0	7.862263247536127e+17
19604.0	7.862136225835688e+17
19605.0	7.861840753896105e+17
19606.0	7.861682188233386e+17
19607.0	7.861423282236073e+17
19608.0	7.86114704118033e+17
19609.0	7.860846884203178e+17
19610.0	7.860530289748649e+17
19611.0	7.860191514416471e+17
19612.0	7.859840604962815e+17
19613.0	7.859473558623572e+17
19614.0	7.859078365708288e+17
19615.0	7.85869568020753e+17
19616.0	7.858272529459884e+17
19617.0	7.857861563165354e+17
19618.0	7.857392153438889e+17
19619.0	7.856940510784168e+17
19620.0	7.856495815294973e+17
19621.0	7.856186209949011e+17
19622.0	7.855700797554688e+17
19623.0	7.855200710688767e+17
19624.0	7.854687827001343e+17
19625.0	7.854162454074708e+17
19626.0	7.853624235393024e+17
19627.0	7.85306948276497e+17
19628.0	7.85246678364979e+17
19629.0	7.851881207081642e+17
19630.0	7.850976909546834e+17
19631.0	7.848977894473725e+17
19632.0	7.850095668101119e+17
19633.0	7.849539373367296e+17
19634.0	7.848928231118164e+17
19635.0	7.848284295004157e+17
19636.0	7.84765694316817e+17
19637.0	7.846865819140093e+17
19638.0	7.846338993586173e+17
19639.0	7.845662947278847e+17
19640.0	7.844961104603816e+17
19641.0	7.844154021249024e+17
19642.0	7.843587963573586e+17
19643.0	7.842868644631892e+17
19644.0	7.842120327670442e+17
19645.0	7.841337298649088e+17
19646.0	7.840663555014653e+17
19647.0	7.839912753627135e+17
19648.0	7.83915248988979e+17
19649.0	7.8383831580672e+17
19650.0	7.837608808458922e+17
19651.0	7.836829140473172e+17
19652.0	7.836041341130066e+17
19653.0	7.8352450860701e+17
19654.0	7.834441855882579e+17
19655.0	7.833629167539539e+17
19656.0	7.832809615917053e+17
19657.0	7.831984792054442e+17
19658.0	7.831150819016701e+17
19659.0	7.83030899703808e+17
19660.0	7.82949981513318e+17
19661.0	7.831211861519017e+17
19662.0	7.830335855962793e+17
19663.0	7.829440464333484e+17
19664.0	7.828558279169364e+17
19665.0	7.827668561035261e+17
19666.0	7.826762673859241e+17
