# Flux units: erg / (cm m2 s)
# Wavelength units: Angstrom
wave	flux
19000.0	8.006689194246143e+17
19001.0	8.00521844896563e+17
19002.0	8.003827533873152e+17
19003.0	8.002393497141248e+17
19004.0	8.000958235672573e+17
19005.0	7.999523283184296e+17
19006.0	7.998085667312979e+17
19007.0	7.996630489890812e+17
19008.0	7.995181914303145e+17
19009.0	7.993729920357715e+17
19010.0	7.992148389527552e+17
19011.0	7.990863278549672e+17
19012.0	7.989363129800019e+17
19013.0	7.98798557496388e+17
19014.0	7.986506362781693e+17
19015.0	7.985078212056402e+17
19016.0	7.98361590851174e+17
19017.0	7.982174274497196e+17
19018.0	7.980731625461076e+17
19019.0	7.979279667866281e+17
19020.0	7.977809444077567e+17
19021.0	7.976365594072404e+17
19022.0	7.974913052071251e+17
19023.0	7.973444886287698e+17
19024.0	7.97198480712226e+17
19025.0	7.970532087562239e+17
19026.0	7.969061441546921e+17
19027.0	7.967566703449428e+17
19028.0	7.966149825615187e+17
19029.0	7.964685882097663e+17
19030.0	7.963221221354153e+17
19031.0	7.961755333077673e+17
19032.0	7.960288568191657e+17
19033.0	7.958783958100649e+17
19034.0	7.957351320868182e+17
19035.0	7.9558586925056e+17
19036.0	7.951482224290472e+17
19037.0	7.952935284987219e+17
19038.0	7.951458423013375e+17
19039.0	7.949997189016233e+17
19040.0	7.948524047390036e+17
19041.0	7.947049594344787e+17
19042.0	7.945541653976403e+17
19043.0	7.94438306697489e+17
19044.0	7.943098565569194e+17
19045.0	7.941621751130794e+17
19046.0	7.940124026688854e+17
19047.0	7.93865724502562e+17
19048.0	7.937106732471634e+17
19049.0	7.935676511158271e+17
19050.0	7.934204524363775e+17
19051.0	7.932266453925885e+17
19052.0	7.931168517958313e+17
19053.0	7.929774624909994e+17
19054.0	7.9282911079738e+17
19055.0	7.92670193651985e+17
19056.0	7.925313026304684e+17
19057.0	7.923836316723881e+17
19058.0	7.922349940670463e+17
19059.0	7.920862120378365e+17
19060.0	7.919365806620671e+17
19061.0	7.91788689642837e+17
19062.0	7.916396237990568e+17
19063.0	7.914907320188928e+17
19064.0	7.913371778504019e+17
19065.0	7.911852344344573e+17
19066.0	7.91040998052113e+17
19067.0	7.908943918880083e+17
19068.0	7.907452133572607e+17
19069.0	7.905959668787884e+17
19070.0	7.904462363776339e+17
19071.0	7.902972340076543e+17
19072.0	7.901477761362602e+17
19073.0	7.899980601753599e+17
19074.0	7.898487007302995e+17
19075.0	7.896990967573161e+17
19076.0	7.895486220468221e+17
19077.0	7.893992238743552e+17
19078.0	7.892488857583615e+17
19079.0	7.891001244210515e+17
19080.0	7.889499427525972e+17
19081.0	7.887986219111764e+17
19082.0	7.886485933348179e+17
19083.0	7.884958864157353e+17
19084.0	7.883398429278208e+17
19085.0	7.882000639721472e+17
19086.0	7.880333763193514e+17
19087.0	7.878915088799059e+17
19088.0	7.87744989258274e+17
19089.0	7.875874608469331e+17
19090.0	7.874474512045396e+17
19091.0	7.872970491953151e+17
19092.0	7.87144144724514e+17
19093.0	7.869974243355305e+17
19094.0	7.868456762343421e+17
19095.0	7.866948532568064e+17
19096.0	7.865451916820476e+17
19097.0	7.863951136129021e+17
19098.0	7.862445427130367e+17
19099.0	7.860937579036671e+17
19100.0	7.859429751914496e+17
19101.0	7.857920175767552e+17
19102.0	7.856378085375999e+17
19103.0	7.854902948659199e+17
19104.0	7.85300101215027e+17
19105.0	7.851418077626369e+17
19106.0	7.849892919640061e+17
19107.0	7.848389429428224e+17
19108.0	7.846881359036416e+17
19109.0	7.845095066479272e+17
19110.0	7.843839298852178e+17
19111.0	7.842346691461119e+17
19112.0	7.840834523234301e+17
19113.0	7.839320979275775e+17
19114.0	7.837806630010879e+17
19115.0	7.836277664994646e+17
19116.0	7.834766181837481e+17
19117.0	7.833250248523775e+17
19118.0	7.831698997772289e+17
19119.0	7.829214103339003e+17
19120.0	7.828684127862781e+17
19121.0	7.827173012406271e+17
19122.0	7.825674748297215e+17
19123.0	7.824155344896e+17
19124.0	7.822619206221824e+17
19125.0	7.821253581384362e+17
19126.0	7.819897410508118e+17
19127.0	7.817716200461651e+17
19128.0	7.816753336461993e+17
19129.0	7.815299189440511e+17
19130.0	7.813808085008381e+17
19131.0	7.812287456870399e+17
19132.0	7.810761304834045e+17
19133.0	7.8091496994461e+17
19134.0	7.807669013665108e+17
19135.0	7.806187807790419e+17
19136.0	7.804662093359785e+17
19137.0	7.803072927498239e+17
19138.0	7.80159924760303e+17
19139.0	7.800079401003689e+17
19140.0	7.798551916576765e+17
19141.0	7.79702295994914e+17
19142.0	7.795483313438719e+17
19143.0	7.793943388706131e+17
19144.0	7.792428084538024e+17
19145.0	7.790901039114921e+17
19146.0	7.789136916250621e+17
19147.0	7.787800310404436e+17
19148.0	7.786301390585855e+17
19149.0	7.784768052308649e+17
19150.0	7.78323150958319e+17
19151.0	7.781699684051625e+17
19152.0	7.780161438438739e+17
19153.0	7.778619199848445e+17
19154.0	7.777040346382335e+17
19155.0	7.775551715191464e+17
19156.0	7.774010969773395e+17
19157.0	7.772457087795199e+17
19158.0	7.770759823534761e+17
19159.0	7.769379287946582e+17
19160.0	7.767847772793513e+17
19161.0	7.766295894294527e+17
19162.0	7.764338669868372e+17
19163.0	7.763198793657e+17
19164.0	7.761684171762344e+17
19165.0	7.760134309325481e+17
19166.0	7.758549462198952e+17
19167.0	7.757010607013887e+17
19168.0	7.755487467885908e+17
19169.0	7.753942736480936e+17
19170.0	7.752409117185366e+17
19171.0	7.750841721159679e+17
19172.0	7.749310336030038e+17
19173.0	7.747761983542612e+17
19174.0	7.746190411388244e+17
19175.0	7.74466026218018e+17
19176.0	7.743107281977343e+17
19177.0	7.741491789867688e+17
19178.0	7.739984776440489e+17
19179.0	7.738413984426668e+17
19180.0	7.736877409544876e+17
19181.0	7.735290586901165e+17
19182.0	7.733759825324713e+17
19183.0	7.732210382318252e+17
19184.0	7.730637171589117e+17
19185.0	7.729086668821844e+17
19186.0	7.72752649818385e+17
19187.0	7.725935352610815e+17
19188.0	7.724397818631506e+17
19189.0	7.722829427157673e+17
19190.0	7.721259398507177e+17
19191.0	7.719694235249322e+17
19192.0	7.718128761612968e+17
19193.0	7.716553211860306e+17
19194.0	7.714983978729471e+17
19195.0	7.713411272714922e+17
19196.0	7.711828490584064e+17
19197.0	7.710242397749245e+17
19198.0	7.708614756139007e+17
19199.0	7.704503832106323e+17
19200.0	7.703602815915347e+17
19201.0	7.703889081357651e+17
19202.0	7.702355970970964e+17
19203.0	7.700785830472361e+17
19204.0	7.699197297950717e+17
19205.0	7.697624010326015e+17
19206.0	7.69603407271253e+17
19207.0	7.694424866466474e+17
19208.0	7.692790053994496e+17
19209.0	7.691273590800383e+17
19210.0	7.689681504305151e+17
19211.0	7.688087442292736e+17
19212.0	7.68649179902771e+17
19213.0	7.684849334747133e+17
19214.0	7.683232178896893e+17
19215.0	7.681685248278524e+17
19216.0	7.680092528443391e+17
19217.0	7.678489954790057e+17
19218.0	7.676568298061821e+17
19219.0	7.675211073017172e+17
19220.0	7.673663225244328e+17
19221.0	7.671941106936489e+17
19222.0	7.670448819710633e+17
19223.0	7.66883973230319e+17
19224.0	7.667211056097961e+17
19225.0	7.665552914907133e+17
19226.0	7.663990744984233e+17
19227.0	7.662360611957417e+17
19228.0	7.660748011121321e+17
19229.0	7.6591229042688e+17
19230.0	7.65749473976866e+17
19231.0	7.655867690953386e+17
19232.0	7.654230118629377e+17
19233.0	7.65257274499618e+17
19234.0	7.650957796747948e+17
19235.0	7.649319487624531e+17
19236.0	7.647688464007167e+17
19237.0	7.646039622986409e+17
19238.0	7.6443614749655e+17
19239.0	7.642753371821394e+17
19240.0	7.641074347190952e+17
19241.0	7.639430525353983e+17
19242.0	7.637787443112617e+17
19243.0	7.636064438408532e+17
19244.0	7.634477010386944e+17
19245.0	7.632813406814205e+17
19246.0	7.631140831625215e+17
19247.0	7.62947701833728e+17
19248.0	7.62780563433062e+17
19249.0	7.626129758224383e+17
19250.0	7.624449620705279e+17
19251.0	7.622718139312809e+17
19252.0	7.620967020189012e+17
19253.0	7.619394481946621e+17
19254.0	7.617702868811773e+17
19255.0	7.615935896616957e+17
19256.0	7.614298887727786e+17
19257.0	7.612614066569216e+17
19258.0	7.610908873676115e+17
19259.0	7.609170366824447e+17
19260.0	7.607438754010451e+17
19261.0	7.605565453413033e+17
19262.0	7.603313720339113e+17
19263.0	7.601577384738815e+17
19264.0	7.599682189874515e+17
19265.0	7.598069456218793e+17
19266.0	7.59634929245662e+17
19267.0	7.594659294128808e+17
19268.0	7.592910871942484e+17
19269.0	7.591158216305322e+17
19270.0	7.589399776722943e+17
19271.0	7.587516144156672e+17
19272.0	7.58585824064307e+17
19273.0	7.583257738608637e+17
19274.0	7.581800658370557e+17
19275.0	7.580549975638015e+17
19276.0	7.578769061576703e+17
19277.0	7.576981913381544e+17
19278.0	7.575189638348799e+17
19279.0	7.573390530794834e+17
19280.0	7.571560406362794e+17
19281.0	7.569780234693289e+17
19282.0	7.567966533757609e+17
19283.0	7.566117362991101e+17
19284.0	7.564281138642943e+17
19285.0	7.562430443945983e+17
19286.0	7.560648488299177e+17
19287.0	7.558821943006547e+17
19288.0	7.556162857730045e+17
19289.0	7.553284852154364e+17
19290.0	7.553266865580713e+17
19291.0	7.551296694736214e+17
19292.0	7.549534463503017e+17
19293.0	7.547654945548969e+17
19294.0	7.545774601317034e+17
19295.0	7.543884717839699e+17
19296.0	7.541987607576573e+17
19297.0	7.539672505559718e+17
19298.0	7.537076278919165e+17
19299.0	7.535155795197948e+17
19300.0	7.533226893508608e+17
19301.0	7.531289194965674e+17
19302.0	7.52934135599377e+17
19303.0	7.527363661965993e+17
19304.0	7.525409920210259e+17
19305.0	7.523446286887593e+17
19306.0	7.521458158829565e+17
19307.0	7.519435893331284e+17
19308.0	7.517434748949842e+17
19309.0	7.515348451808596e+17
19310.0	7.513277805013674e+17
19311.0	7.511342378385408e+17
19312.0	7.509322721744212e+17
19313.0	7.507258406950227e+17
19314.0	7.503782805329238e+17
19315.0	7.50177787768559e+17
19316.0	7.500325032296447e+17
19317.0	7.497370038872744e+17
19318.0	7.495249976186196e+17
19319.0	7.493117189379411e+17
19320.0	7.490968940969983e+17
19321.0	7.488810374572714e+17
19322.0	7.486597230493693e+17
19323.0	7.484414388862975e+17
19324.0	7.482244243390461e+17
19325.0	7.47996818055714e+17
19326.0	7.477797337432061e+17
19327.0	7.475550116031145e+17
19328.0	7.473054148635306e+17
19329.0	7.468929609891839e+17
19330.0	7.466609712387411e+17
19331.0	7.464283011721897e+17
19332.0	7.461957256172883e+17
19333.0	7.459598290124799e+17
19334.0	7.457216367252819e+17
19335.0	7.454817324630016e+17
19336.0	7.452394626132649e+17
19337.0	7.448995019707732e+17
19338.0	7.444706808037373e+17
19339.0	7.442286932306602e+17
19340.0	7.439747077111808e+17
19341.0	7.4372131862173e+17
19342.0	7.434520482196138e+17
19343.0	7.432060486549503e+17
19344.0	7.427603192698195e+17
19345.0	7.42273585529924e+17
19346.0	7.420402169719464e+17
19347.0	7.417963785923241e+17
19348.0	7.415238654339753e+17
19349.0	7.412101720397139e+17
19350.0	7.405347571149481e+17
19351.0	7.4024743862272e+17
19352.0	7.399548360065023e+17
19353.0	7.396634185607849e+17
19354.0	7.39091768759637e+17
19355.0	7.385644386309459e+17
19356.0	7.38257913442031e+17
19357.0	7.379443464361299e+17
19358.0	7.371579512061948e+17
19359.0	7.367144273259177e+17
19360.0	7.363851906798931e+17
19361.0	7.358587093385215e+17
19362.0	7.353698876740947e+17
19363.0	7.350186307922602e+17
19364.0	7.346605928393386e+17
19365.0	7.342978996284074e+17
19366.0	7.339305297685161e+17
19367.0	7.335583705726973e+17
19368.0	7.331812998468948e+17
19369.0	7.327968614066857e+17
19370.0	7.324048509894655e+17
19371.0	7.320198991664468e+17
19372.0	7.316252845058726e+17
19373.0	7.312172939302227e+17
19374.0	7.307743037052244e+17
19375.0	7.303610615813459e+17
19376.0	7.299422504004266e+17
19377.0	7.295173685237075e+17
19378.0	7.290866301403135e+17
19379.0	7.286496394477565e+17
19380.0	7.282059405251923e+17
19381.0	7.277494632360617e+17
19382.0	7.272787121711785e+17
19383.0	7.268014483308541e+17
19384.0	7.262743926494548e+17
19385.0	7.257473144586237e+17
19386.0	7.252445286978899e+17
19387.0	7.247337121032874e+17
19388.0	7.242130909036544e+17
19389.0	7.236821493394089e+17
19390.0	7.23120362444117e+17
19391.0	7.222496756847954e+17
19392.0	7.218936026234879e+17
19393.0	7.213212267883178e+17
19394.0	7.207312036986879e+17
19395.0	7.19995230434099e+17
19396.0	7.193238301573117e+17
19397.0	7.186878570692607e+17
19398.0	7.179375328537257e+17
19399.0	7.170952883688787e+17
19400.0	7.164188831689386e+17
19401.0	7.154280940524884e+17
19402.0	7.146505597091839e+17
19403.0	7.135868143097172e+17
19404.0	7.127136014609066e+17
19405.0	7.114652546760699e+17
19406.0	7.104333654349144e+17
19407.0	7.091418953329322e+17
19408.0	7.077422037991424e+17
19409.0	7.06428689553818e+17
19410.0	7.048346180343121e+17
19411.0	7.029951868611242e+17
19412.0	7.014310268108797e+17
19413.0	7.002858586461524e+17
19414.0	6.991128755350185e+17
19415.0	6.979050177647958e+17
19416.0	6.966529418941779e+17
19417.0	6.953326083396947e+17
19418.0	6.940028594115924e+17
19419.0	6.92623057756706e+17
19420.0	6.911946453767507e+17
19421.0	6.896374927501994e+17
19422.0	6.880918853648383e+17
19423.0	6.8645108070045e+17
19424.0	6.847238782670166e+17
19425.0	6.829315397604691e+17
19426.0	6.810223307478355e+17
19427.0	6.789492402115927e+17
19428.0	6.767209576311466e+17
19429.0	6.742781116547071e+17
19430.0	6.715899635564541e+17
19431.0	6.685858509881343e+17
19432.0	6.652587099029501e+17
19433.0	6.615902056000169e+17
19434.0	6.576394508522835e+17
19435.0	6.541243569930237e+17
19436.0	6.506785523367936e+17
19437.0	6.468942801403901e+17
19438.0	6.425515550310397e+17
19439.0	6.381853955063809e+17
19440.0	6.332422780092413e+17
19441.0	6.275676264988667e+17
19442.0	6.212560854450177e+17
19443.0	6.142959916766547e+17
19444.0	6.064589547154088e+17
19445.0	5.978375155176792e+17
19446.0	5.882222587062954e+17
19447.0	5.772247744643066e+17
19448.0	5.6458567745536045e+17
19449.0	5.499730981289981e+17
19450.0	5.3294222026997574e+17
19451.0	5.257553011976883e+17
19452.0	5.4159026219035334e+17
19453.0	5.5740465746193114e+17
19454.0	5.707166154140324e+17
19455.0	5.822646012171603e+17
19456.0	5.922847606177795e+17
19457.0	6.011327042551804e+17
19458.0	6.089994912049834e+17
19459.0	6.16251222060783e+17
19460.0	6.226127585192613e+17
19461.0	6.283829229999444e+17
19462.0	6.334011574059008e+17
19463.0	6.378718740086779e+17
19464.0	6.419836805229225e+17
19465.0	6.456938434221396e+17
19466.0	6.490512571760637e+17
19467.0	6.521791616909311e+17
19468.0	6.55696943959245e+17
19469.0	6.593343990879572e+17
19470.0	6.625184271652184e+17
19471.0	6.654291703321942e+17
19472.0	6.680052219510779e+17
19473.0	6.702883250634751e+17
19474.0	6.723836540092415e+17
19475.0	6.74241695798613e+17
19476.0	6.759159236831913e+17
19477.0	6.77564638245683e+17
19478.0	6.790029201025704e+17
19479.0	6.804654841834153e+17
19480.0	6.81763680620817e+17
19481.0	6.83057978941986e+17
19482.0	6.842748240571049e+17
19483.0	6.854111836241919e+17
19484.0	6.864970146207059e+17
19485.0	6.875541250506751e+17
19486.0	6.885679905286826e+17
19487.0	6.895260625360212e+17
19488.0	6.904451058455892e+17
19489.0	6.913248950834516e+17
19490.0	6.924005616036524e+17
19491.0	6.938626689247908e+17
19492.0	6.952421081918125e+17
19493.0	6.964287161499647e+17
19494.0	6.976229245364913e+17
19495.0	6.985032299533652e+17
19496.0	6.994678961056425e+17
19497.0	7.003243565547519e+17
19498.0	7.009894573364566e+17
19499.0	7.015037972862287e+17
19500.0	7.023666794943827e+17
19501.0	7.030260830131538e+17
19502.0	7.035547080633002e+17
19503.0	7.039929309724671e+17
19504.0	7.045867044689236e+17
19505.0	7.049548333580287e+17
19506.0	7.053074045949267e+17
19507.0	7.057822926416553e+17
19508.0	7.061382460254889e+17
19509.0	7.064447109562365e+17
19510.0	7.06732619866658e+17
19511.0	7.067610187999913e+17
19512.0	7.073535566544893e+17
19513.0	7.075631939802451e+17
19514.0	7.07842771325201e+17
19515.0	7.081363390507689e+17
19516.0	7.083814529182377e+17
19517.0	7.08600861434402e+17
19518.0	7.088725976678399e+17
19519.0	7.090903834077866e+17
19520.0	7.092830065393663e+17
19521.0	7.094678927179775e+17
19522.0	7.096382443749375e+17
19523.0	7.097997836593833e+17
19524.0	7.099548518318079e+17
19525.0	7.101030031775059e+17
19526.0	7.102461950383444e+17
19527.0	7.10383007362799e+17
19528.0	7.105138046358868e+17
19529.0	7.106774412121428e+17
19530.0	7.107975417517398e+17
19531.0	7.109116159153491e+17
19532.0	7.11020356182562e+17
19533.0	7.111243166209364e+17
19534.0	7.112236423533908e+17
19535.0	7.113179254139561e+17
19536.0	7.11405777068578e+17
19537.0	7.114917333172223e+17
19538.0	7.115677403971581e+17
19539.0	7.116281761234944e+17
19540.0	7.117117140762623e+17
19541.0	7.120556689544535e+17
19542.0	7.121425313125716e+17
19543.0	7.121916445152595e+17
19544.0	7.125741151278419e+17
19545.0	7.127965373912403e+17
19546.0	7.128140855203156e+17
19547.0	7.128711751707305e+17
19548.0	7.132396261823834e+17
19549.0	7.133640840445951e+17
19550.0	7.13379994018338e+17
19551.0	7.133886955214164e+17
19552.0	7.134681931011411e+17
19553.0	7.137744132243455e+17
19554.0	7.13770173342242e+17
19555.0	7.137774652795561e+17
19556.0	7.137700564609706e+17
19557.0	7.137575234611881e+17
19558.0	7.139143027698348e+17
19559.0	7.140326274411177e+17
19560.0	7.140092637697363e+17
19561.0	7.139855171583999e+17
19562.0	7.139583496727208e+17
19563.0	7.139291673832105e+17
19564.0	7.138977822452394e+17
19565.0	7.139880544326999e+17
19566.0	7.140719248539647e+17
19567.0	7.140333346007722e+17
19568.0	7.139908707680255e+17
19569.0	7.13948461601041e+17
19570.0	7.139035350127955e+17
19571.0	7.138562805858301e+17
19572.0	7.138063945127251e+17
19573.0	7.137561707981481e+17
19574.0	7.13756467335441e+17
19575.0	7.138381354674857e+17
19576.0	7.137817984150185e+17
19577.0	7.13723458162961e+17
19578.0	7.136629617590271e+17
19579.0	7.136025685349716e+17
19580.0	7.135403291181055e+17
19581.0	7.134769965258067e+17
19582.0	7.134126719806122e+17
19583.0	7.133464502119081e+17
19584.0	7.132787075885736e+17
19585.0	7.132059133455017e+17
19586.0	7.131345450259798e+17
19587.0	7.130847977843369e+17
19588.0	7.131172148609023e+17
19589.0	7.130595458372948e+17
19590.0	7.129826799037097e+17
19591.0	7.129095087325183e+17
19592.0	7.128325604507647e+17
19593.0	7.127538219002538e+17
19594.0	7.12666763947759e+17
19595.0	7.125951449486676e+17
19596.0	7.124867891593216e+17
19597.0	7.124320516745897e+17
19598.0	7.123409641144319e+17
19599.0	7.122668275542697e+17
19600.0	7.121816599745875e+17
19601.0	7.120930128003071e+17
19602.0	7.120068290805757e+17
19603.0	7.119032708759551e+17
19604.0	7.118304454552233e+17
19605.0	7.117326110774611e+17
19606.0	7.116545566179325e+17
19607.0	7.115644228425044e+17
19608.0	7.114794379946666e+17
19609.0	7.114751037407232e+17
19610.0	7.113843205472255e+17
19611.0	7.112909867974653e+17
19612.0	7.111974265552893e+17
19613.0	7.111030512200361e+17
19614.0	7.110063386787837e+17
19615.0	7.109124648424787e+17
19616.0	7.108143040080553e+17
19617.0	7.107196897372842e+17
19618.0	7.106017974987433e+17
19619.0	7.104992962587305e+17
19620.0	7.104020857137833e+17
19621.0	7.10327659467025e+17
19622.0	7.102284412485632e+17
19623.0	7.101286671450111e+17
19624.0	7.100283733671935e+17
19625.0	7.099276131827711e+17
19626.0	7.098263618453504e+17
19627.0	7.097244977201151e+17
19628.0	7.096163090038781e+17
19629.0	7.09515687371298e+17
19630.0	7.093920952134314e+17
19631.0	7.090377722953728e+17
19632.0	7.092081095518889e+17
19633.0	7.091054232032598e+17
19634.0	7.090011934905684e+17
19635.0	7.088945835103572e+17
19636.0	7.087909502276947e+17
19637.0	7.0866829325981e+17
19638.0	7.085781587853311e+17
19639.0	7.084710185052841e+17
19640.0	7.083612841880234e+17
19641.0	7.082348228466003e+17
19642.0	7.081488478633981e+17
19643.0	7.080403589748051e+17
19644.0	7.079293119802026e+17
19645.0	7.078127427649535e+17
19646.0	7.077135629942783e+17
19647.0	7.076039346530985e+17
19648.0	7.074939732841812e+17
19649.0	7.073835819991037e+17
19650.0	7.072731059890857e+17
19651.0	7.071622139041108e+17
19652.0	7.07051033530641e+17
19653.0	7.069506375516159e+17
19654.0	7.068880683226454e+17
19655.0	7.067757809325398e+17
19656.0	7.066633068959059e+17
19657.0	7.065509242950995e+17
19658.0	7.064380169868628e+17
19659.0	7.063247848996863e+17
19660.0	7.062114269833896e+17
19661.0	7.060977621838505e+17
19662.0	7.059838427900586e+17
19663.0	7.058679130663594e+17
19664.0	7.057543303353683e+17
19665.0	7.056407285901993e+17
