# Flux units: erg / (cm m2 s)
# Wavelength units: Angstrom
wave	flux
19000.0	3.580751124976981e+17
19001.0	3.5799240361902074e+17
19002.0	3.5794777133110605e+17
19003.0	3.578828587444906e+17
19004.0	3.578169653198848e+17
19005.0	3.577496161222655e+17
19006.0	3.576651296276479e+17
19007.0	3.5762821360080205e+17
19008.0	3.5755100401390925e+17
19009.0	3.574771278501204e+17
19010.0	3.5732692716748774e+17
19011.0	3.573643096009386e+17
19012.0	3.5727921353413965e+17
19013.0	3.572439658616148e+17
19014.0	3.5717189534569805e+17
19015.0	3.570981829694805e+17
19016.0	3.5703253358346234e+17
19017.0	3.56987237896465e+17
19018.0	3.5692247497659725e+17
19019.0	3.568556346179583e+17
19020.0	3.5679545278682445e+17
19021.0	3.567333013105322e+17
19022.0	3.566694581316266e+17
19023.0	3.5659827534015136e+17
19024.0	3.5653106413513376e+17
19025.0	3.5647802897858554e+17
19026.0	3.564091295662079e+17
19027.0	3.5634292604272634e+17
19028.0	3.5628734102896634e+17
19029.0	3.562213581957802e+17
19030.0	3.5616152190539085e+17
19031.0	3.5609520995915085e+17
19032.0	3.5603221829386234e+17
19033.0	3.559547518757546e+17
19034.0	3.5590600162017274e+17
19035.0	3.558390522096299e+17
19036.0	3.5485549155669306e+17
19037.0	3.557133750632447e+17
19038.0	3.5565004869249696e+17
19039.0	3.5558844597097805e+17
19040.0	3.5552661004615674e+17
19041.0	3.554616317487786e+17
19042.0	3.551033713579346e+17
19043.0	3.553381091464533e+17
19044.0	3.5527284514706765e+17
19045.0	3.552099211498837e+17
19046.0	3.5513419271154336e+17
19047.0	3.550806549375657e+17
19048.0	3.5492817688767123e+17
19049.0	3.543789225028261e+17
19050.0	3.5487625105462605e+17
19051.0	3.547094191177726e+17
19052.0	3.5474984591687674e+17
19053.0	3.547048880111616e+17
19054.0	3.5464054046719994e+17
19055.0	3.544488499391147e+17
19056.0	3.5447730941023565e+17
19057.0	3.544511693193215e+17
19058.0	3.540878647186768e+17
19059.0	3.5420362736926714e+17
19060.0	3.5425763120032416e+17
19061.0	3.541992699767466e+17
19062.0	3.541350489609557e+17
19063.0	3.5407296724991994e+17
19064.0	3.539859814394538e+17
19065.0	3.5391774878160205e+17
19066.0	3.5376055954964486e+17
19067.0	3.538179737692842e+17
19068.0	3.5375748058098336e+17
19069.0	3.536951997803178e+17
19070.0	3.5362609386837325e+17
19071.0	3.5356746253161805e+17
19072.0	3.533866035139924e+17
19073.0	3.5344167137006925e+17
19074.0	3.5338055609658016e+17
19075.0	3.5331761105797114e+17
19076.0	3.532426621310293e+17
19077.0	3.5318665272360954e+17
19078.0	3.5311652088490656e+17
19079.0	3.5306481378481485e+17
19080.0	3.5300034621385376e+17
19081.0	3.529293447561215e+17
19082.0	3.5286770505482234e+17
19083.0	3.5280136423778976e+17
19084.0	3.527184131380565e+17
19085.0	3.5268288137134074e+17
19086.0	3.524328372393301e+17
19087.0	3.5230650032892563e+17
19088.0	3.52353561887812e+17
19089.0	3.5240028070215674e+17
19090.0	3.5237103144359245e+17
19091.0	3.5227792855531526e+17
19092.0	3.520293147508739e+17
19093.0	3.5218695441612794e+17
19094.0	3.5212419238898336e+17
19095.0	3.520611661905919e+17
19096.0	3.5199568821179725e+17
19097.0	3.519353293111295e+17
19098.0	3.517530304588459e+17
19099.0	3.516708721874262e+17
19100.0	3.5173701814408525e+17
19101.0	3.516807602940586e+17
19102.0	3.515902657036287e+17
19103.0	3.5155939933115725e+17
19104.0	3.514983861889706e+17
19105.0	3.5118083400007725e+17
19106.0	3.513661511084715e+17
19107.0	3.5124444240281594e+17
19108.0	3.5115802247386445e+17
19109.0	3.511437199671294e+17
19110.0	3.5112222590675616e+17
19111.0	3.509903754089811e+17
19112.0	3.5090364118685e+17
19113.0	3.5093294636946765e+17
19114.0	3.508300129064276e+17
19115.0	3.507800058276522e+17
19116.0	3.507386450269525e+17
19117.0	3.5068236676464634e+17
19118.0	3.506057024722261e+17
19119.0	3.464404441672303e+17
19120.0	3.5049016781701114e+17
19121.0	3.504320058927786e+17
19122.0	3.5037468429735245e+17
19123.0	3.5031220958003194e+17
19124.0	3.5024769359981216e+17
19125.0	3.501876346967381e+17
19126.0	3.5012552058470394e+17
19127.0	3.496687016345599e+17
19128.0	3.4999954393006074e+17
19129.0	3.4992630299361274e+17
19130.0	3.4987395559806285e+17
19131.0	3.4981370697263776e+17
19132.0	3.4975081383854074e+17
19133.0	3.4968078619333965e+17
19134.0	3.4962720927252474e+17
19135.0	3.495641228159658e+17
19136.0	3.495005018303146e+17
19137.0	3.4940677524903245e+17
19138.0	3.4937685179105274e+17
19139.0	3.493179015473834e+17
19140.0	3.492561432521386e+17
19141.0	3.4919369520360096e+17
19142.0	3.491245811826687e+17
19143.0	3.490559994189141e+17
19144.0	3.49000629293329e+17
19145.0	3.489451342124373e+17
19146.0	3.487680372058796e+17
19147.0	3.487838640275455e+17
19148.0	3.486572674198187e+17
19149.0	3.4858191936989875e+17
19150.0	3.486343210117802e+17
19151.0	3.4857296477552634e+17
19152.0	3.485110126684842e+17
19153.0	3.482497426216275e+17
19154.0	3.483341850061481e+17
19155.0	3.483265027189418e+17
19156.0	3.4826402510056096e+17
19157.0	3.481283860277931e+17
19158.0	3.479741936959489e+17
19159.0	3.4806763401598285e+17
19160.0	3.4801502936978765e+17
19161.0	3.4795507556898125e+17
19162.0	3.478282601583957e+17
19163.0	3.478313505215829e+17
19164.0	3.4776689217809056e+17
19165.0	3.474830194114556e+17
19166.0	3.47613342273809e+17
19167.0	3.475671229311658e+17
19168.0	3.4752268102970016e+17
19169.0	3.474589251971754e+17
19170.0	3.4740043727066445e+17
19171.0	3.4733352466513914e+17
19172.0	3.4727631331000314e+17
19173.0	3.4721493120887456e+17
19174.0	3.471402239087957e+17
19175.0	3.4709067963651405e+17
19176.0	3.4702995422358176e+17
19177.0	3.4693965498286074e+17
19178.0	3.4689252222566394e+17
19179.0	3.468237191075157e+17
19180.0	3.4678272915319456e+17
19181.0	3.4667881037824e+17
19182.0	3.4665194033861965e+17
19183.0	3.465995696646826e+17
19184.0	3.465322729657685e+17
19185.0	3.4647383149117434e+17
19186.0	3.464151946668714e+17
19187.0	3.4634280940339194e+17
19188.0	3.462883717764437e+17
19189.0	3.4623144766122656e+17
19190.0	3.4617010341369165e+17
19191.0	3.4609869912801274e+17
19192.0	3.4604697860614816e+17
19193.0	3.459611715349162e+17
19194.0	3.458847875618133e+17
19195.0	3.4586213692211194e+17
19196.0	3.4579789458527565e+17
19197.0	3.4573781568935245e+17
19198.0	3.4567938410632525e+17
19199.0	3.452144119534932e+17
19200.0	3.4528786064779955e+17
19201.0	3.454929178984447e+17
19202.0	3.4543462682460154e+17
19203.0	3.4537175847185056e+17
19204.0	3.453063154455893e+17
19205.0	3.4524896899891194e+17
19206.0	3.4518583434280954e+17
19207.0	3.4510518364405754e+17
19208.0	3.450068285085012e+17
19209.0	3.4500321287864314e+17
19210.0	3.449421430434474e+17
19211.0	3.448829168495274e+17
19212.0	3.4482224970246816e+17
19213.0	3.4474447524768416e+17
19214.0	3.446750583630506e+17
19215.0	3.4463814380421114e+17
19216.0	3.445786655675733e+17
19217.0	3.4451674222646605e+17
19218.0	3.44291649939046e+17
19219.0	3.4437367381797536e+17
19220.0	3.443301582285482e+17
19221.0	3.44208030232303e+17
19222.0	3.442117271617536e+17
19223.0	3.4414761135308794e+17
19224.0	3.440834528324266e+17
19225.0	3.439981318460756e+17
19226.0	3.4396538397873485e+17
19227.0	3.439050996318208e+17
19228.0	3.4384674990762656e+17
19229.0	3.43785819078656e+17
19230.0	3.437239792741034e+17
19231.0	3.436628612044117e+17
19232.0	3.436028070199296e+17
19233.0	3.4353120416890874e+17
19234.0	3.43476715651072e+17
19235.0	3.43415858467089e+17
19236.0	3.433605814900053e+17
19237.0	3.4329612265717754e+17
19238.0	3.432171740419413e+17
19239.0	3.4317851119233696e+17
19240.0	3.431164344795136e+17
19241.0	3.43053433377041e+17
19242.0	3.429933309930154e+17
19243.0	3.4291062256872096e+17
19244.0	3.4287447923752954e+17
19245.0	3.428094829046442e+17
19246.0	3.4274900362745165e+17
19247.0	3.426910615896064e+17
19248.0	3.4263238946324474e+17
19249.0	3.4256755485573114e+17
19250.0	3.42471922487569e+17
19251.0	3.423930035120809e+17
19252.0	3.4234693327694496e+17
19253.0	3.423232561861973e+17
19254.0	3.422687387626154e+17
19255.0	3.4217844161904634e+17
19256.0	3.4214023937392634e+17
19257.0	3.4208729963779405e+17
19258.0	3.420268757953195e+17
19259.0	3.4195484617386656e+17
19260.0	3.4187821917579936e+17
19261.0	3.4184359467199136e+17
19262.0	3.4177400620537165e+17
19263.0	3.4170956156327245e+17
19264.0	3.415375200212307e+17
19265.0	3.4155422250871456e+17
19266.0	3.414311155619159e+17
19267.0	3.4148299309056e+17
19268.0	3.414211104342015e+17
19269.0	3.4136159916741965e+17
19270.0	3.41302091256081e+17
19271.0	3.411629319738711e+17
19272.0	3.4117411437281274e+17
19273.0	3.4105170399505056e+17
19274.0	3.409832555402579e+17
19275.0	3.410007470112767e+17
19276.0	3.409367090768554e+17
19277.0	3.408780570482004e+17
19278.0	3.408155894262442e+17
19279.0	3.4075468973998074e+17
19280.0	3.4067966391746554e+17
19281.0	3.406361043227988e+17
19282.0	3.405792356772522e+17
19283.0	3.4051312628094285e+17
19284.0	3.4045453286768634e+17
19285.0	3.403675439114922e+17
19286.0	3.403314573781674e+17
19287.0	3.4027753967015245e+17
19288.0	3.399582787567613e+17
19289.0	3.395452450548384e+17
19290.0	3.4009817462865914e+17
19291.0	3.39994862874351e+17
19292.0	3.399778983477247e+17
19293.0	3.399167567899306e+17
19294.0	3.398557446264149e+17
19295.0	3.3979788179101005e+17
19296.0	3.396271036432386e+17
19297.0	3.396478160251563e+17
19298.0	3.3961263595083085e+17
19299.0	3.3942952109670406e+17
19300.0	3.39487335977233e+17
19301.0	3.3943550133534714e+17
19302.0	3.3937495320166394e+17
19303.0	3.3930342805012474e+17
19304.0	3.392517761400832e+17
19305.0	3.391939701724501e+17
19306.0	3.391363824134826e+17
19307.0	3.390677153655466e+17
19308.0	3.390117823294122e+17
19309.0	3.389404576656042e+17
19310.0	3.388755612969642e+17
19311.0	3.3883149887515296e+17
19312.0	3.387770559703722e+17
19313.0	3.3871863029432314e+17
19314.0	3.3452972712482323e+17
19315.0	3.3465874258766957e+17
19316.0	3.383888216850434e+17
19317.0	3.38477098537233e+17
19318.0	3.3841837247911245e+17
19319.0	3.383610286538752e+17
19320.0	3.382501758205951e+17
19321.0	3.3814330516439034e+17
19322.0	3.3816949943173114e+17
19323.0	3.381152583428778e+17
19324.0	3.380622850872661e+17
19325.0	3.3798878155243514e+17
19326.0	3.3794404982456314e+17
19327.0	3.378770604982271e+17
19328.0	3.375961059186007e+17
19329.0	3.377653191715498e+17
19330.0	3.3769773376471034e+17
19331.0	3.3763794937883296e+17
19332.0	3.375863435362304e+17
19333.0	3.3752477328561485e+17
19334.0	3.374545558481579e+17
19335.0	3.3694807249387565e+17
19336.0	3.37338528362223e+17
19337.0	3.3728821282734074e+17
19338.0	3.371896020489556e+17
19339.0	3.3716927606729376e+17
19340.0	3.3700790791045114e+17
19341.0	3.368644279358807e+17
19342.0	3.3685776877922976e+17
19343.0	3.3693211334191776e+17
19344.0	3.367086541766657e+17
19345.0	3.36266084989883e+17
19346.0	3.365500829564926e+17
19347.0	3.3647529453158394e+17
19348.0	3.366356848214015e+17
19349.0	3.3657066531498656e+17
19350.0	3.3644190682316794e+17
19351.0	3.364471752185173e+17
19352.0	3.361607198091943e+17
19353.0	3.3633688830170445e+17
19354.0	3.3628018788270074e+17
19355.0	3.362029781210454e+17
19356.0	3.3616122676073805e+17
19357.0	3.361022197192021e+17
19358.0	3.3604232596684794e+17
19359.0	3.359162924444329e+17
19360.0	3.357490028041556e+17
19361.0	3.358570613571584e+17
19362.0	3.358071271544149e+17
19363.0	3.357472973302442e+17
19364.0	3.3568787700995405e+17
19365.0	3.3562843449480525e+17
19366.0	3.3556899439138125e+17
19367.0	3.3551056675799034e+17
19368.0	3.3545210791198714e+17
19369.0	3.3538375795343354e+17
19370.0	3.353275053113344e+17
19371.0	3.3526556194242554e+17
19372.0	3.352156330524671e+17
19373.0	3.351533391795541e+17
19374.0	3.350970011134634e+17
19375.0	3.3503827271352314e+17
19376.0	3.3498041910558714e+17
19377.0	3.349194785947648e+17
19378.0	3.3486121478389754e+17
19379.0	3.348029090998954e+17
19380.0	3.347432728778069e+17
19381.0	3.3468145813422074e+17
19382.0	3.3461482563829754e+17
19383.0	3.345461474405034e+17
19384.0	3.3450000502838605e+17
19385.0	3.344485196671658e+17
19386.0	3.343904594897578e+17
19387.0	3.34331750453521e+17
19388.0	3.342708277684906e+17
19389.0	3.3421040025599994e+17
19390.0	3.341515981411669e+17
19391.0	3.332332178462025e+17
19392.0	3.340207192189609e+17
19393.0	3.3397524513423354e+17
19394.0	3.339144080829098e+17
19395.0	3.337903977179819e+17
19396.0	3.337772954462891e+17
19397.0	3.337403491155968e+17
19398.0	3.336204333001386e+17
19399.0	3.333647183992147e+17
19400.0	3.33505921740527e+17
19401.0	3.3350269135749114e+17
19402.0	3.3344594553514656e+17
19403.0	3.333834158025386e+17
19404.0	3.3332788202919245e+17
19405.0	3.3326529951825914e+17
19406.0	3.332087975597397e+17
19407.0	3.330673430495231e+17
19408.0	3.329026633149103e+17
19409.0	3.330314630856704e+17
19410.0	3.3297539597161805e+17
19411.0	3.329165473000106e+17
19412.0	3.328546182616405e+17
19413.0	3.327120461791232e+17
19414.0	3.32730564940049e+17
19415.0	3.3267710982881274e+17
19416.0	3.3258909138070176e+17
19417.0	3.3255340694132045e+17
19418.0	3.3250205184819194e+17
19419.0	3.324430923770538e+17
19420.0	3.3238472881165645e+17
19421.0	3.3232470447663776e+17
19422.0	3.32258205045009e+17
19423.0	3.322054182611626e+17
19424.0	3.3214684089111885e+17
19425.0	3.320861077536768e+17
19426.0	3.320279685835434e+17
19427.0	3.3196582336375456e+17
19428.0	3.319075189380437e+17
19429.0	3.3184732539781114e+17
19430.0	3.3177335171645446e+17
19431.0	3.315814455661911e+17
19432.0	3.316647477291689e+17
19433.0	3.316016512062805e+17
19434.0	3.3153824874386765e+17
19435.0	3.3145723009979725e+17
19436.0	3.313365961146367e+17
19437.0	3.3134463033890125e+17
19438.0	3.2932551077833446e+17
19439.0	3.3114557566156806e+17
19440.0	3.3112612974974285e+17
19441.0	3.310442488965802e+17
19442.0	3.3096143998375245e+17
19443.0	3.3086357040878925e+17
19444.0	3.3074764456482125e+17
19445.0	3.305962982430037e+17
19446.0	3.3037892169236474e+17
19447.0	3.300202664077994e+17
19448.0	3.292624645870933e+17
19449.0	3.257311037489149e+17
19450.0	2.8493062976743885e+17
19451.0	2.539088155508726e+17
19452.0	3.000998067262804e+17
19453.0	3.2740746541574874e+17
19454.0	3.2917087161330336e+17
19455.0	3.2965620665767245e+17
19456.0	3.29843604979712e+17
19457.0	3.2992595042194765e+17
19458.0	3.1493159754139757e+17
19459.0	3.293440397454042e+17
19460.0	3.2992650067968e+17
19461.0	3.2989776046981114e+17
19462.0	3.298563008233471e+17
19463.0	3.2981559870313805e+17
19464.0	3.297673876253354e+17
19465.0	3.2972253691904e+17
19466.0	3.2966409904455674e+17
19467.0	3.2962003613341005e+17
19468.0	3.295674123332266e+17
19469.0	3.292817041391613e+17
19470.0	3.2945711667828045e+17
19471.0	3.294065654934186e+17
19472.0	3.29335160578594e+17
19473.0	3.2927904554461856e+17
19474.0	3.290695707131901e+17
19475.0	3.2896142477885414e+17
19476.0	3.2910905683476474e+17
19477.0	3.290606398865407e+17
19478.0	3.2901408534910285e+17
19479.0	3.287927105781756e+17
19480.0	3.288960085961386e+17
19481.0	3.288069882336598e+17
19482.0	3.287825888488106e+17
19483.0	3.287314011783168e+17
19484.0	3.286708646139221e+17
19485.0	3.286031158738944e+17
19486.0	3.28374695930539e+17
19487.0	3.284993212503381e+17
19488.0	3.2844629710383776e+17
19489.0	3.283647391072256e+17
19490.0	3.27975855683447e+17
19491.0	3.2826804509081594e+17
19492.0	3.2821729257936205e+17
19493.0	3.2816074623112525e+17
19494.0	3.2810231066350925e+17
19495.0	3.2804433112159565e+17
19496.0	3.2786896468486803e+17
19497.0	3.2792396693503994e+17
19498.0	3.277853342127446e+17
19499.0	3.264219552153593e+17
19500.0	3.2775628320494925e+17
19501.0	3.2770406541339296e+17
19502.0	3.2764711277690874e+17
19503.0	3.275901299763883e+17
19504.0	3.2753356188767565e+17
19505.0	3.274728952649045e+17
19506.0	3.274195439626922e+17
19507.0	3.2735498768220154e+17
19508.0	3.2730482918905165e+17
19509.0	3.272471461145258e+17
19510.0	3.2712797139763194e+17
19511.0	3.208081997561816e+17
19512.0	3.268612220518396e+17
19513.0	3.265523174342649e+17
19514.0	3.266576611540988e+17
19515.0	3.2679592379897197e+17
19516.0	3.2682543285971616e+17
19517.0	3.2676770158564685e+17
19518.0	3.266902197884244e+17
19519.0	3.266302275048788e+17
19520.0	3.264679454790995e+17
19521.0	3.265598930463402e+17
19522.0	3.264807524368383e+17
19523.0	3.264062442263894e+17
19524.0	3.262817273643009e+17
19525.0	3.263287656098474e+17
19526.0	3.262760704365909e+17
19527.0	3.262136958233258e+17
19528.0	3.2615082020044794e+17
19529.0	3.260873284692651e+17
19530.0	3.2604747835200845e+17
19531.0	3.2599075507404794e+17
19532.0	3.2593335452084896e+17
19533.0	3.2587632212268365e+17
19534.0	3.2581959003668474e+17
19535.0	3.2575994825714336e+17
19536.0	3.256980795118933e+17
19537.0	3.2564752773283834e+17
19538.0	3.254249676516013e+17
19539.0	3.2540475026746054e+17
19540.0	3.254728442686122e+17
19541.0	3.253944220734805e+17
19542.0	3.2535118334306976e+17
19543.0	3.2515877115002886e+17
19544.0	3.252401296375807e+17
19545.0	3.2508585181183974e+17
19546.0	3.249272322523136e+17
19547.0	3.250801595471189e+17
19548.0	3.250223140132181e+17
19549.0	3.2494986653422925e+17
19550.0	3.2490779074450765e+17
19551.0	3.248528486825983e+17
19552.0	3.2479436924955296e+17
19553.0	3.2473346106982394e+17
19554.0	3.246712530752853e+17
19555.0	3.246078278937258e+17
19556.0	3.2455811651338234e+17
19557.0	3.2451007051639456e+17
19558.0	3.244544427906389e+17
19559.0	3.243984274412885e+17
19560.0	3.242873241731071e+17
19561.0	3.24280193192209e+17
19562.0	3.2417669199517005e+17
19563.0	3.2417180238042445e+17
19564.0	3.2411476781520205e+17
19565.0	3.2405783461232634e+17
19566.0	3.239956073239893e+17
19567.0	3.239456306539179e+17
19568.0	3.2388578527586976e+17
19569.0	3.2382768843325434e+17
19570.0	3.237747005674837e+17
19571.0	3.2371709428367354e+17
19572.0	3.23657017659665e+17
19573.0	3.235872331093333e+17
19574.0	3.2352956681202336e+17
19575.0	3.2349284197553485e+17
19576.0	3.2342885332418554e+17
19577.0	3.233550958941525e+17
19578.0	3.233136563104426e+17
19579.0	3.2326142761369594e+17
19580.0	3.232062461618858e+17
19581.0	3.231503187531093e+17
19582.0	3.2309754105692154e+17
19583.0	3.2304182088171514e+17
19584.0	3.2298376052954445e+17
19585.0	3.2290840706198176e+17
19586.0	3.228472744170838e+17
19587.0	3.2281322159691085e+17
19588.0	3.2265205515113824e+17
19589.0	3.2269864589940045e+17
19590.0	3.226070828449791e+17
19591.0	3.22588347797777e+17
19592.0	3.225312050195115e+17
19593.0	3.2246272874250234e+17
19594.0	3.2236556751557965e+17
19595.0	3.223574181576704e+17
19596.0	3.2230216362011296e+17
19597.0	3.2225046983693645e+17
19598.0	3.220112651146579e+17
19599.0	3.221391387131904e+17
19600.0	3.2208385324264096e+17
19601.0	3.220150895859029e+17
19602.0	3.219626053162325e+17
19603.0	3.218162690905428e+17
19604.0	3.218524790762154e+17
19605.0	3.2174666971873274e+17
19606.0	3.217440528225621e+17
19607.0	3.2169022333474125e+17
19608.0	3.216313480992085e+17
19609.0	3.2156799135470925e+17
19610.0	3.214449078261078e+17
19611.0	3.2135731943396704e+17
19612.0	3.2141074857547085e+17
19613.0	3.2135284481064954e+17
19614.0	3.2129213837694285e+17
19615.0	3.212422009236138e+17
19616.0	3.2110247317340166e+17
19617.0	3.2101331611156486e+17
19618.0	3.2093598887444454e+17
19619.0	3.208311099184466e+17
19620.0	3.207566269087742e+17
19621.0	3.2075823843027616e+17
19622.0	3.208506306985983e+17
19623.0	3.207890957849941e+17
19624.0	3.207212491778731e+17
19625.0	3.206822471488853e+17
19626.0	3.206255216689152e+17
19627.0	3.2057139424570016e+17
19628.0	3.2049899063214074e+17
19629.0	3.200636952073555e+17
19630.0	3.203864034192042e+17
19631.0	3.1990638224343034e+17
19632.0	3.202843341225983e+17
19633.0	3.202233267126272e+17
19634.0	3.2017431648010234e+17
19635.0	3.200918774000297e+17
19636.0	3.198880082908499e+17
19637.0	3.197957099749375e+17
19638.0	3.199321509986302e+17
19639.0	3.1989456688906234e+17
19640.0	3.198067702846807e+17
19641.0	3.193069083383136e+17
19642.0	3.197222722557269e+17
19643.0	3.196636155434325e+17
19644.0	3.196087704398506e+17
19645.0	3.19502419178291e+17
19646.0	3.193210409757352e+17
19647.0	3.194469716677972e+17
19648.0	3.193991397900287e+17
19649.0	3.193399425018538e+17
19650.0	3.192887419338751e+17
19651.0	3.192328580060501e+17
19652.0	3.1917627999081805e+17
19653.0	3.1912120965311136e+17
19654.0	3.190654505058303e+17
