# Flux units: erg / (cm m2 s)
# Wavelength units: Angstrom
wave	flux
19000.0	4.7360671845362336e+17
19001.0	4.735029027886421e+17
19002.0	4.734347405251925e+17
19003.0	4.733479261918549e+17
19004.0	4.732562977761962e+17
19005.0	4.731722581147647e+17
19006.0	4.73068219802146e+17
19007.0	4.73003902247458e+17
19008.0	4.729073087545343e+17
19009.0	4.72817323806993e+17
19010.0	4.726524191528276e+17
19011.0	4.726544074626389e+17
19012.0	4.7251688546194765e+17
19013.0	4.7248875146881696e+17
19014.0	4.7239543764200096e+17
19015.0	4.7230770098121376e+17
19016.0	4.722188852658175e+17
19017.0	4.721453902244521e+17
19018.0	4.7205631355344205e+17
19019.0	4.719698063829674e+17
19020.0	4.7188650785505274e+17
19021.0	4.718028349855061e+17
19022.0	4.717167338236585e+17
19023.0	4.716237310743893e+17
19024.0	4.715308883378175e+17
19025.0	4.714575136030719e+17
19026.0	4.713657595680085e+17
19027.0	4.712532785408681e+17
19028.0	4.712034659379881e+17
19029.0	4.7111496940912634e+17
19030.0	4.710336092788051e+17
19031.0	4.7094874082290336e+17
19032.0	4.7086153306385043e+17
19033.0	4.707622492744361e+17
19034.0	4.70688699777024e+17
19035.0	4.705919805947904e+17
19036.0	4.678198757425139e+17
19037.0	4.704270885934421e+17
19038.0	4.703454733795327e+17
19039.0	4.702625224895146e+17
19040.0	4.7017912630422176e+17
19041.0	4.700928554128724e+17
19042.0	4.697472188284925e+17
19043.0	4.6992540034225485e+17
19044.0	4.6983806067234125e+17
19045.0	4.697522802349396e+17
19046.0	4.6965804303209805e+17
19047.0	4.695829925330943e+17
19048.0	4.6941937343310483e+17
19049.0	4.6889548829600365e+17
19050.0	4.693155861495807e+17
19051.0	4.688340176950605e+17
19052.0	4.691154076783958e+17
19053.0	4.6907406407434234e+17
19054.0	4.689886450461353e+17
19055.0	4.687907055643307e+17
19056.0	4.687883251570004e+17
19057.0	4.687331917299711e+17
19058.0	4.6838406443608704e+17
19059.0	4.6846086927264403e+17
19060.0	4.684748977515179e+17
19061.0	4.68394094834483e+17
19062.0	4.6830861785497594e+17
19063.0	4.682242966159359e+17
19064.0	4.6811850277737805e+17
19065.0	4.680285866863274e+17
19066.0	4.6786430160076806e+17
19067.0	4.6788350165647354e+17
19068.0	4.6780080962491725e+17
19069.0	4.6771618569693856e+17
19070.0	4.676263720867155e+17
19071.0	4.6754452045387085e+17
19072.0	4.6736051906368826e+17
19073.0	4.673761842298879e+17
19074.0	4.672930425689428e+17
19075.0	4.6720840878434976e+17
19076.0	4.670930176791891e+17
19077.0	4.670360489645396e+17
19078.0	4.6694575524631885e+17
19079.0	4.6686957298428576e+17
19080.0	4.6678306993821e+17
19081.0	4.666926758363136e+17
19082.0	4.666087548736853e+17
19083.0	4.665192858255359e+17
19084.0	4.66416374452497e+17
19085.0	4.6635983131989325e+17
19086.0	4.660956806949546e+17
19087.0	4.6591384727060454e+17
19088.0	4.6597228846557843e+17
19089.0	4.6596567216073376e+17
19090.0	4.6593745707772576e+17
19091.0	4.6583091665305606e+17
19092.0	4.6555581267312666e+17
19093.0	4.6568850325503994e+17
19094.0	4.656038596138325e+17
19095.0	4.655199597625343e+17
19096.0	4.654325819943593e+17
19097.0	4.653511891484671e+17
19098.0	4.651591771269802e+17
19099.0	4.650555026003285e+17
19100.0	4.6509041591691936e+17
19101.0	4.6501209295202976e+17
19102.0	4.6490523676617376e+17
19103.0	4.6484542696980486e+17
19104.0	4.647625723390634e+17
19105.0	4.644471450195291e+17
19106.0	4.6458028467159034e+17
19107.0	4.644497289205076e+17
19108.0	4.643413381786283e+17
19109.0	4.6418956519123603e+17
19110.0	4.6425754248587936e+17
19111.0	4.6410896450955923e+17
19112.0	4.640029670375422e+17
19113.0	4.6400497394210125e+17
19114.0	4.6387937837492896e+17
19115.0	4.638075233763328e+17
19116.0	4.6374665060351994e+17
19117.0	4.636678245318655e+17
19118.0	4.635611125601621e+17
19119.0	4.612812017325362e+17
19120.0	4.6339431222039885e+17
19121.0	4.633203162393257e+17
19122.0	4.6325214195220474e+17
19123.0	4.631685743596885e+17
19124.0	4.630743675655508e+17
19125.0	4.630001203456682e+17
19126.0	4.6291764494991354e+17
19127.0	4.625042913973586e+17
19128.0	4.627422084683093e+17
19129.0	4.6265433087890765e+17
19130.0	4.625806537348435e+17
19131.0	4.624987297502548e+17
19132.0	4.624147341989204e+17
19133.0	4.6232258016706554e+17
19134.0	4.622447807911251e+17
19135.0	4.6216355089394336e+17
19136.0	4.6208160083476474e+17
19137.0	4.619685975468714e+17
19138.0	4.6191271229085005e+17
19139.0	4.6183151552866976e+17
19140.0	4.6174824160733856e+17
19141.0	4.61664613896465e+17
19142.0	4.6157640230065485e+17
19143.0	4.614863923970047e+17
19144.0	4.6140912332090016e+17
19145.0	4.613308026628779e+17
19146.0	4.611470455909036e+17
19147.0	4.6113142117935776e+17
19148.0	4.609916823491926e+17
19149.0	4.60896300101359e+17
19150.0	4.6091339356788045e+17
19151.0	4.608309090844671e+17
19152.0	4.6074588299264e+17
19153.0	4.604865250590716e+17
19154.0	4.605396807319551e+17
19155.0	4.6049856341060256e+17
19156.0	4.604158216066389e+17
19157.0	4.6027052867911686e+17
19158.0	4.600282569419434e+17
19159.0	4.601568870880595e+17
19160.0	4.6008041856477856e+17
19161.0	4.599997267268948e+17
19162.0	4.596873276948481e+17
19163.0	4.598333467262976e+17
19164.0	4.597502116364287e+17
19165.0	4.594675946094588e+17
19166.0	4.595540952787625e+17
19167.0	4.594717928980479e+17
19168.0	4.5941980652721485e+17
19169.0	4.5933092768754336e+17
19170.0	4.5925432732330656e+17
19171.0	4.5915357447891616e+17
19172.0	4.590872005268821e+17
19173.0	4.59004587348241e+17
19174.0	4.5891174971473914e+17
19175.0	4.58839491154193e+17
19176.0	4.587570170866345e+17
19177.0	4.58649336090897e+17
19178.0	4.585771335243094e+17
19179.0	4.584709017305088e+17
19180.0	4.584253988448938e+17
19181.0	4.583110394686121e+17
19182.0	4.5825454128496634e+17
19183.0	4.5817850372642125e+17
19184.0	4.5809145304405325e+17
19185.0	4.580109730185215e+17
19186.0	4.5793070312762016e+17
19187.0	4.578385374915242e+17
19188.0	4.5776245344610976e+17
19189.0	4.576829504137898e+17
19190.0	4.5760011549627725e+17
19191.0	4.575081990717439e+17
19192.0	4.5743565529852576e+17
19193.0	4.573300667012436e+17
19194.0	4.572330004403541e+17
19195.0	4.5718801569109325e+17
19196.0	4.5710295303891616e+17
19197.0	4.5702269041814176e+17
19198.0	4.569420494711466e+17
19199.0	4.553547716056401e+17
19200.0	4.55804664117112e+17
19201.0	4.5669245182279686e+17
19202.0	4.566127368383146e+17
19203.0	4.5652569398531405e+17
19204.0	4.5644266340351994e+17
19205.0	4.563644176837291e+17
19206.0	4.562805669057876e+17
19207.0	4.561841277632511e+17
19208.0	4.560697776144383e+17
19209.0	4.56034811449617e+17
19210.0	4.559524748154197e+17
19211.0	4.5587199073539405e+17
19212.0	4.5579039502499834e+17
19213.0	4.55683082359057e+17
19214.0	4.555918537304746e+17
19215.0	4.555393985762645e+17
19216.0	4.554628240769024e+17
19217.0	4.553798046100138e+17
19218.0	4.551551175622653e+17
19219.0	4.5519561035175245e+17
19220.0	4.5512992587339085e+17
19221.0	4.549953705039189e+17
19222.0	4.549706301920597e+17
19223.0	4.548855131537408e+17
19224.0	4.5480062127964154e+17
19225.0	4.546977805107198e+17
19226.0	4.5463982683368096e+17
19227.0	4.545586528605525e+17
19228.0	4.5448014919106554e+17
19229.0	4.543982982572715e+17
19230.0	4.543150536261631e+17
19231.0	4.5423282695263565e+17
19232.0	4.541518728309418e+17
19233.0	4.5406013508375885e+17
19234.0	4.5398460056207354e+17
19235.0	4.5390268867106125e+17
19236.0	4.5382616352467616e+17
19237.0	4.5374122082959354e+17
19238.0	4.5364466494559565e+17
19239.0	4.535815480803327e+17
19240.0	4.534990529014442e+17
19241.0	4.534149385114965e+17
19242.0	4.5333432035355296e+17
19243.0	4.532314591723518e+17
19244.0	4.531734363592019e+17
19245.0	4.530899242014036e+17
19246.0	4.5300769130632525e+17
19247.0	4.5292792445228365e+17
19248.0	4.528474425393151e+17
19249.0	4.527608176487082e+17
19250.0	4.526471141217621e+17
19251.0	4.5255140262106445e+17
19252.0	4.524804243019093e+17
19253.0	4.52435797676305e+17
19254.0	4.523592197515946e+17
19255.0	4.5224861993970336e+17
19256.0	4.521884514604373e+17
19257.0	4.521154093339989e+17
19258.0	4.520344338912597e+17
19259.0	4.519419517250217e+17
19260.0	4.517998725431295e+17
19261.0	4.517887877666131e+17
19262.0	4.5169848915503776e+17
19263.0	4.5161598544773114e+17
19264.0	4.5144304961017146e+17
19265.0	4.514262935055017e+17
19266.0	4.5131291475749555e+17
19267.0	4.513037644638891e+17
19268.0	4.5122178294743034e+17
19269.0	4.5114124951442765e+17
19270.0	4.510607496358571e+17
19271.0	4.5091434752464224e+17
19272.0	4.508920089411583e+17
19273.0	4.5075802784180896e+17
19274.0	4.506668775069011e+17
19275.0	4.5065579832279034e+17
19276.0	4.505714922531498e+17
19277.0	4.5049132596155725e+17
19278.0	4.50407339008546e+17
19279.0	4.5032716425844045e+17
19280.0	4.502342042211668e+17
19281.0	4.501671459684351e+17
19282.0	4.5008923055008416e+17
19283.0	4.4998803926111565e+17
19284.0	4.499218813856426e+17
19285.0	4.498166791536639e+17
19286.0	4.497595855186601e+17
19287.0	4.4968272755425274e+17
19288.0	4.4889247258596634e+17
19289.0	4.4768800101717e+17
19290.0	4.4944014236276045e+17
19291.0	4.493227324691798e+17
19292.0	4.492814645723136e+17
19293.0	4.4919995407619405e+17
19294.0	4.491178310019755e+17
19295.0	4.490402275000319e+17
19296.0	4.4885224704355e+17
19297.0	4.4885277727348045e+17
19298.0	4.487935966926166e+17
19299.0	4.485948530229249e+17
19300.0	4.486317394799274e+17
19301.0	4.485556545257472e+17
19302.0	4.484740211365204e+17
19303.0	4.4838184913906336e+17
19304.0	4.4830983335881376e+17
19305.0	4.4823164817681056e+17
19306.0	4.48151810019601e+17
19307.0	4.480623702616746e+17
19308.0	4.479879367447892e+17
19309.0	4.478550325329919e+17
19310.0	4.477626130715987e+17
19311.0	4.477420876857343e+17
19312.0	4.476683957217961e+17
19313.0	4.475860294478507e+17
19314.0	4.4027072398841146e+17
19315.0	4.405448807546982e+17
19316.0	4.471995345403906e+17
19317.0	4.472665102352383e+17
19318.0	4.471875323297791e+17
19319.0	4.4711014616268794e+17
19320.0	4.469838718173183e+17
19321.0	4.4685475750871034e+17
19322.0	4.4685778432819194e+17
19323.0	4.467661529765205e+17
19324.0	4.467083478477483e+17
19325.0	4.465737369037482e+17
19326.0	4.465502390146389e+17
19327.0	4.4646508003327994e+17
19328.0	4.461830353190913e+17
19329.0	4.46310455967744e+17
19330.0	4.462232259788799e+17
19331.0	4.4614293406788256e+17
19332.0	4.4606968649045325e+17
19333.0	4.459871749537791e+17
19334.0	4.459023668958549e+17
19335.0	4.454122801594372e+17
19336.0	4.457439550941866e+17
19337.0	4.456699523323221e+17
19338.0	4.455559951198889e+17
19339.0	4.45509873434624e+17
19340.0	4.453759690910378e+17
19341.0	4.451919820313943e+17
19342.0	4.4515287420108806e+17
19343.0	4.4519151003238406e+17
19344.0	4.449612450496514e+17
19345.0	4.4455638461317037e+17
19346.0	4.448016936555861e+17
19347.0	4.4466720595421856e+17
19348.0	4.447906885009408e+17
19349.0	4.447053291716608e+17
19350.0	4.4455655511162874e+17
19351.0	4.4454268056371194e+17
19352.0	4.44252930004309e+17
19353.0	4.443919186132991e+17
19354.0	4.44313421025553e+17
19355.0	4.442183385306453e+17
19356.0	4.441540914402644e+17
19357.0	4.440747205285206e+17
19358.0	4.4399414927687674e+17
19359.0	4.438585700078931e+17
19360.0	4.436725630413481e+17
19361.0	4.4374957843196576e+17
19362.0	4.436779139945813e+17
19363.0	4.435983508439038e+17
19364.0	4.43518742045218e+17
19365.0	4.434384463593472e+17
19366.0	4.4336006956755616e+17
19367.0	4.4328072487021216e+17
19368.0	4.432016725857621e+17
19369.0	4.431131732606976e+17
19370.0	4.4303607202665805e+17
19371.0	4.429552055659178e+17
19372.0	4.428838949879806e+17
19373.0	4.4280154856707405e+17
19374.0	4.427252062923434e+17
19375.0	4.4264589361151994e+17
19376.0	4.4256779336417274e+17
19377.0	4.424868122591232e+17
19378.0	4.424083527696383e+17
19379.0	4.423297179582464e+17
19380.0	4.422501699070634e+17
19381.0	4.4217060591752525e+17
19382.0	4.4208146947768314e+17
19383.0	4.4199476042137594e+17
19384.0	4.419313341562879e+17
19385.0	4.4185493889351674e+17
19386.0	4.417766206122667e+17
19387.0	4.41697296117487e+17
19388.0	4.4161409447799456e+17
19389.0	4.4152314239385594e+17
19390.0	4.414398702900564e+17
19391.0	4.388539515011033e+17
19392.0	4.4124926811395386e+17
19393.0	4.4120422730082976e+17
19394.0	4.4112406275686394e+17
19395.0	4.4098278832209926e+17
19396.0	4.409475437953024e+17
19397.0	4.4088873608806394e+17
19398.0	4.407503243356842e+17
19399.0	4.405086047786323e+17
19400.0	4.4059698680299514e+17
19401.0	4.4056891914977274e+17
19402.0	4.404901580898302e+17
19403.0	4.404077453989204e+17
19404.0	4.4033091420815354e+17
19405.0	4.402484332898987e+17
19406.0	4.401697844974932e+17
19407.0	4.400177132251818e+17
19408.0	4.398539333435396e+17
19409.0	4.3992909149634554e+17
19410.0	4.3985141193768954e+17
19411.0	4.397710849343488e+17
19412.0	4.3968870090451616e+17
19413.0	4.3953344014363296e+17
19414.0	4.3952157215074976e+17
19415.0	4.39445386043938e+17
19416.0	4.3933063757605536e+17
19417.0	4.3925405727457274e+17
19418.0	4.3920360308299085e+17
19419.0	4.391211887143594e+17
19420.0	4.3904024633671674e+17
19421.0	4.38958062375185e+17
19422.0	4.3886781731089056e+17
19423.0	4.3879015431973536e+17
19424.0	4.387072079036414e+17
19425.0	4.386226835903829e+17
19426.0	4.385375196457642e+17
19427.0	4.3844935977970336e+17
19428.0	4.383640728720725e+17
19429.0	4.382754145828864e+17
19430.0	4.381557408836268e+17
19431.0	4.375885091525983e+17
19432.0	4.3800071640186874e+17
19433.0	4.379026815363755e+17
19434.0	4.3780168178728954e+17
19435.0	4.3764178205627725e+17
19436.0	4.373263518007291e+17
19437.0	4.3746522926066336e+17
19438.0	4.317096678085986e+17
19439.0	4.3706386030264346e+17
19440.0	4.3703211382538234e+17
19441.0	4.368674980888576e+17
19442.0	4.3665108591356576e+17
19443.0	4.36382715678993e+17
19444.0	4.360285889145514e+17
19445.0	4.355254067920896e+17
19446.0	4.347389842991786e+17
19447.0	4.333674895332691e+17
19448.0	4.305582173454337e+17
19449.0	4.21487655430827e+17
19450.0	3.7163639959278925e+17
19451.0	3.346429315645434e+17
19452.0	3.892256839477963e+17
19453.0	4.2512313455302054e+17
19454.0	4.3104217040158694e+17
19455.0	4.3316848302052685e+17
19456.0	4.341764731873962e+17
19457.0	4.347069723224746e+17
19458.0	4.103534669376587e+17
19459.0	4.34554604582782e+17
19460.0	4.352864939933695e+17
19461.0	4.353457939720874e+17
19462.0	4.353634990380372e+17
19463.0	4.353607842048681e+17
19464.0	4.353367155408896e+17
19465.0	4.3530673857058125e+17
19466.0	4.352529206170965e+17
19467.0	4.352169679519743e+17
19468.0	4.351637892803242e+17
19469.0	4.349022326925992e+17
19470.0	4.350454693625855e+17
19471.0	4.3498539763193165e+17
19472.0	4.349123187354281e+17
19473.0	4.348413290916521e+17
19474.0	4.3463300996573843e+17
19475.0	4.345316242707794e+17
19476.0	4.3463304848343034e+17
19477.0	4.345706280823466e+17
19478.0	4.3450468320761165e+17
19479.0	4.3428511132330624e+17
19480.0	4.343548310716415e+17
19481.0	4.3427186710937594e+17
19482.0	4.3420952660978336e+17
19483.0	4.341404502676822e+17
19484.0	4.340640434705749e+17
19485.0	4.339798190500521e+17
19486.0	4.337534383423491e+17
19487.0	4.338397572584789e+17
19488.0	4.3376784983108256e+17
19489.0	4.3368143095070714e+17
19490.0	4.333158348619771e+17
19491.0	4.335357669670911e+17
19492.0	4.334664644820991e+17
19493.0	4.3339078057328634e+17
19494.0	4.3331382998466554e+17
19495.0	4.332364566102015e+17
19496.0	4.3306845103718374e+17
19497.0	4.330770950083925e+17
19498.0	4.327941937474221e+17
19499.0	4.2884813193652634e+17
19500.0	4.3284962797595296e+17
19501.0	4.327926382897834e+17
19502.0	4.327234914134698e+17
19503.0	4.326489850555049e+17
19504.0	4.3257230541892256e+17
19505.0	4.324924237108564e+17
19506.0	4.3241935019704314e+17
19507.0	4.3233649346914976e+17
19508.0	4.3226388118896634e+17
19509.0	4.3218582372351994e+17
19510.0	4.320440916901887e+17
19511.0	4.201068264510705e+17
19512.0	4.313593670183578e+17
19513.0	4.306969498222573e+17
19514.0	4.30978707366433e+17
19515.0	4.316125160538114e+17
19516.0	4.316290240653993e+17
19517.0	4.315556852618579e+17
19518.0	4.3145522280311456e+17
19519.0	4.313747059376127e+17
19520.0	4.3119659314053094e+17
19521.0	4.3126723696394234e+17
19522.0	4.311663549349887e+17
19523.0	4.310754603128149e+17
19524.0	4.309308669252951e+17
19525.0	4.309566249850196e+17
19526.0	4.30885183614703e+17
19527.0	4.3080520019476474e+17
19528.0	4.307203887114921e+17
19529.0	4.306371398161749e+17
19530.0	4.305785837671765e+17
19531.0	4.305022740682068e+17
19532.0	4.3042558191861766e+17
19533.0	4.3034943258187085e+17
19534.0	4.302725309967018e+17
19535.0	4.301935859466238e+17
19536.0	4.301132599918592e+17
19537.0	4.3004179051970554e+17
19538.0	4.298159403215532e+17
19539.0	4.297774285018456e+17
19540.0	4.2980933590056954e+17
19541.0	4.297083877414229e+17
19542.0	4.2964747910731085e+17
19543.0	4.294405686383957e+17
19544.0	4.294991073509375e+17
19545.0	4.293500084420605e+17
19546.0	4.291747918118912e+17
19547.0	4.292801561537193e+17
19548.0	4.292036590392661e+17
19549.0	4.2911230549032954e+17
19550.0	4.2905092730388474e+17
19551.0	4.289752716367189e+17
19552.0	4.2889863659956896e+17
19553.0	4.2881874132992e+17
19554.0	4.287371468778155e+17
19555.0	4.286523926467925e+17
19556.0	4.2858304423417165e+17
19557.0	4.285160151318528e+17
19558.0	4.284411248552618e+17
19559.0	4.2836586492067834e+17
19560.0	4.2823581115787923e+17
19561.0	4.282094718375253e+17
19562.0	4.2808659921250976e+17
19563.0	4.280620778433194e+17
19564.0	4.279857977141929e+17
19565.0	4.279097122706772e+17
19566.0	4.278287589878442e+17
19567.0	4.277582279213055e+17
19568.0	4.2767914145327776e+17
19569.0	4.276025197679957e+17
19570.0	4.275289383239679e+17
19571.0	4.2745291383767034e+17
19572.0	4.2737352873519776e+17
19573.0	4.2728329821115725e+17
19574.0	4.2720726267985914e+17
19575.0	4.2715086648770554e+17
19576.0	4.270665777545215e+17
19577.0	4.269729011204096e+17
19578.0	4.2691552723599354e+17
19579.0	4.2684254550753274e+17
19580.0	4.2676848486427296e+17
19581.0	4.266934133937493e+17
19582.0	4.266210984198143e+17
19583.0	4.265454742099285e+17
19584.0	4.26468429598993e+17
19585.0	4.263758096498687e+17
19586.0	4.2629609983836166e+17
19587.0	4.2623280800071674e+17
19588.0	4.260781434601473e+17
19589.0	4.260884325072895e+17
19590.0	4.25988296155682e+17
19591.0	4.25938882990353e+17
19592.0	4.2586376782916256e+17
19593.0	4.2577358882515616e+17
19594.0	4.2566105732655763e+17
19595.0	4.256328155398144e+17
19596.0	4.2554536667818656e+17
19597.0	4.254853213017429e+17
19598.0	4.252932632128169e+17
19599.0	4.2533545595371514e+17
19600.0	4.2526118566516045e+17
19601.0	4.251744078921728e+17
19602.0	4.251036431329961e+17
19603.0	4.249345565480275e+17
19604.0	4.2495270138675206e+17
19605.0	4.2483420677625165e+17
19606.0	4.248080030018218e+17
19607.0	4.2473377563497805e+17
19608.0	4.246559803135316e+17
19609.0	4.245739938338131e+17
19610.0	4.244364753283756e+17
19611.0	4.24330083102447e+17
19612.0	4.243579645984768e+17
19613.0	4.2428117171568634e+17
19614.0	4.2420163708627616e+17
19615.0	4.2413190685218125e+17
19616.0	4.239639189651456e+17
19617.0	4.2387632176496646e+17
19618.0	4.2379593268592614e+17
19619.0	4.2367197506437075e+17
19620.0	4.235845243153063e+17
19621.0	4.235389247509844e+17
19622.0	4.2360659411380896e+17
19623.0	4.235251571578196e+17
19624.0	4.2343649719091194e+17
19625.0	4.2338128463134714e+17
19626.0	4.233053820594859e+17
19627.0	4.232319109256532e+17
19628.0	4.2311888191269555e+17
19629.0	4.227134432215037e+17
19630.0	4.229728340104534e+17
19631.0	4.213815524720635e+17
19632.0	4.228566478749696e+17
19633.0	4.2276932686970874e+17
19634.0	4.2270739762162336e+17
19635.0	4.226066478530559e+17
19636.0	4.223925801538899e+17
19637.0	4.222772186185727e+17
19638.0	4.22389916700945e+17
19639.0	4.223315203151189e+17
19640.0	4.222424871250603e+17
19641.0	4.2187181522944083e+17
19642.0	4.220974670370133e+17
19643.0	4.220219838955519e+17
19644.0	4.219494189410985e+17
19645.0	4.2183150810781e+17
19646.0	4.216334073550162e+17
19647.0	4.2173154183522976e+17
19648.0	4.2166104243568634e+17
19649.0	4.215856320653994e+17
19650.0	4.215121886139733e+17
19651.0	4.2143705108316166e+17
19652.0	4.21362217849105e+17
19653.0	4.212873754574846e+17
19654.0	4.2121316346975565e+17
19655.0	4.211374428607829e+17
19656.0	4.2106425980573e+17
