# Flux units: erg / (cm m2 s)
# Wavelength units: Angstrom
wave	flux
19000.0	7.503409413008042e+17
19001.0	7.501878019489791e+17
19002.0	7.500555779134803e+17
19003.0	7.49912491888913e+17
19004.0	7.497699741925373e+17
19005.0	7.496268088956244e+17
19006.0	7.494842471590569e+17
19007.0	7.493334868164605e+17
19008.0	7.49189040439296e+17
19009.0	7.490456095031293e+17
19010.0	7.488706550169597e+17
19011.0	7.48767268778803e+17
19012.0	7.486139321548799e+17
19013.0	7.484848140014932e+17
19014.0	7.483352981088938e+17
19015.0	7.48195944595456e+17
19016.0	7.480525118417578e+17
19017.0	7.478393809403901e+17
19018.0	7.477709044536662e+17
19019.0	7.476283195086164e+17
19020.0	7.474768904541523e+17
19021.0	7.473388655564115e+17
19022.0	7.472020908408833e+17
19023.0	7.470551543054335e+17
19024.0	7.469158040076287e+17
19025.0	7.467728660419923e+17
19026.0	7.466302841727658e+17
19027.0	7.464878763671551e+17
19028.0	7.463479532672338e+17
19029.0	7.462040068511059e+17
19030.0	7.460645420488019e+17
19031.0	7.459229967319036e+17
19032.0	7.457806020684458e+17
19033.0	7.45628907794159e+17
19034.0	7.454934038129322e+17
19035.0	7.453497284886525e+17
19036.0	7.447424596792662e+17
19037.0	7.450684268653225e+17
19038.0	7.449249030952276e+17
19039.0	7.447852217270271e+17
19040.0	7.446436731944957e+17
19041.0	7.44500486087202e+17
19042.0	7.443498368936616e+17
19043.0	7.442176522846207e+17
19044.0	7.440739931783165e+17
19045.0	7.439333778784253e+17
19046.0	7.437849371257514e+17
19047.0	7.436474692315816e+17
19048.0	7.434873235745449e+17
19049.0	7.433579704003241e+17
19050.0	7.432191466274816e+17
19051.0	7.430343184700756e+17
19052.0	7.42931366342383e+17
19053.0	7.427960002139475e+17
19054.0	7.426569896547668e+17
19055.0	7.424881395586387e+17
19056.0	7.423707218356905e+17
19057.0	7.422307244965887e+17
19058.0	7.420858124118698e+17
19059.0	7.419478309950803e+17
19060.0	7.418045555277824e+17
19061.0	7.416654824734717e+17
19062.0	7.415235523990868e+17
19063.0	7.413820446911145e+17
19064.0	7.412266058820264e+17
19065.0	7.410795904936617e+17
19066.0	7.40951069888785e+17
19067.0	7.40814756267076e+17
19068.0	7.406750586809e+17
19069.0	7.405338163325608e+17
19070.0	7.403890632119636e+17
19071.0	7.402502833395028e+17
19072.0	7.401098093876564e+17
19073.0	7.399675911645864e+17
19074.0	7.398273783780692e+17
19075.0	7.396861673472e+17
19076.0	7.395427786336938e+17
19077.0	7.394024843378687e+17
19078.0	7.392466514040147e+17
19079.0	7.391205630760276e+17
19080.0	7.389781589054804e+17
19081.0	7.388335044908372e+17
19082.0	7.386887403252394e+17
19083.0	7.385428069274964e+17
19084.0	7.383881506357247e+17
19085.0	7.382737350557693e+17
19086.0	7.380910438962518e+17
19087.0	7.379818415565481e+17
19088.0	7.378431040465578e+17
19089.0	7.376863476667731e+17
19090.0	7.375673094045693e+17
19091.0	7.374247520021161e+17
19092.0	7.372812543765161e+17
19093.0	7.371482727099049e+17
19094.0	7.370038309464744e+17
19095.0	7.368621947529897e+17
19096.0	7.367223344278185e+17
19097.0	7.36584655839778e+17
19098.0	7.364441888784383e+17
19099.0	7.363016721607338e+17
19100.0	7.361620757970941e+17
19101.0	7.360226277720063e+17
19102.0	7.358739162071037e+17
19103.0	7.35741122585122e+17
19104.0	7.356014764490751e+17
19105.0	7.35460633678097e+17
19106.0	7.35318679416559e+17
19107.0	7.351780516735658e+17
19108.0	7.350397068902399e+17
19109.0	7.348466205676883e+17
19110.0	7.347572951744511e+17
19111.0	7.346187315882666e+17
19112.0	7.344784605009235e+17
19113.0	7.343380438712317e+17
19114.0	7.341972573039272e+17
19115.0	7.340520953785002e+17
19116.0	7.339148971780777e+17
19117.0	7.337738163104425e+17
19118.0	7.336247300543827e+17
19119.0	7.332908419252219e+17
19120.0	7.333532249270953e+17
19121.0	7.332150455391572e+17
19122.0	7.330770006485674e+17
19123.0	7.329312743096319e+17
19124.0	7.32794049405474e+17
19125.0	7.326554248620714e+17
19126.0	7.325129692413952e+17
19127.0	7.322060283969535e+17
19128.0	7.321843894233769e+17
19129.0	7.320882235397462e+17
19130.0	7.319548846582441e+17
19131.0	7.318157330306387e+17
19132.0	7.31676202237952e+17
19133.0	7.314414007659178e+17
19134.0	7.31374883578402e+17
19135.0	7.312581186289663e+17
19136.0	7.311192338989055e+17
19137.0	7.309632143185236e+17
19138.0	7.30825550270737e+17
19139.0	7.30700032647714e+17
19140.0	7.305607824539647e+17
19141.0	7.304212252371625e+17
19142.0	7.302791616441004e+17
19143.0	7.301366082961407e+17
19144.0	7.299965929215316e+17
19145.0	7.298621907839657e+17
19146.0	7.296626091622399e+17
19147.0	7.295736665691476e+17
19148.0	7.294447777043795e+17
19149.0	7.293047188488191e+17
19150.0	7.29164159193361e+17
19151.0	7.290263336648701e+17
19152.0	7.288793634351786e+17
19153.0	7.2874654185117e+17
19154.0	7.285959578091519e+17
19155.0	7.284701059001e+17
19156.0	7.283306157921619e+17
19157.0	7.281909530187091e+17
19158.0	7.280138632123731e+17
19159.0	7.279116450878803e+17
19160.0	7.277643112120319e+17
19161.0	7.276296381224276e+17
19162.0	7.274132876733097e+17
19163.0	7.273543375694506e+17
19164.0	7.272182219188905e+17
19165.0	7.270776309459625e+17
19166.0	7.269296456947027e+17
19167.0	7.267936842547197e+17
19168.0	7.266388635462313e+17
19169.0	7.265094306802345e+17
19170.0	7.26384564712243e+17
19171.0	7.26242330550818e+17
19172.0	7.261067994464255e+17
19173.0	7.25968138412578e+17
19174.0	7.258234623273641e+17
19175.0	7.256906604565844e+17
19176.0	7.255513395189075e+17
19177.0	7.253974660240726e+17
19178.0	7.25273236611618e+17
19179.0	7.251315066055338e+17
19180.0	7.249730190966783e+17
19181.0	7.248495923341994e+17
19182.0	7.246859461110441e+17
19183.0	7.245762344430249e+17
19184.0	7.244203820755624e+17
19185.0	7.243010886598655e+17
19186.0	7.241654827570516e+17
19187.0	7.240177069413716e+17
19188.0	7.238877096618666e+17
19189.0	7.237478100500479e+17
19190.0	7.236090364690432e+17
19191.0	7.234691259520339e+17
19192.0	7.233298164787881e+17
19193.0	7.231635092493651e+17
19194.0	7.230411419680768e+17
19195.0	7.229168885082794e+17
19196.0	7.227792683608744e+17
19197.0	7.226417242701824e+17
19198.0	7.225039058720083e+17
19199.0	7.218720590004223e+17
19200.0	7.218788873273344e+17
19201.0	7.220884339163135e+17
19202.0	7.219507950343508e+17
19203.0	7.218117583306751e+17
19204.0	7.216720597658281e+17
19205.0	7.21534709731601e+17
19206.0	7.21395591938048e+17
19207.0	7.212485532013908e+17
19208.0	7.211008851793236e+17
19209.0	7.209817248628735e+17
19210.0	7.20842976727313e+17
19211.0	7.207040176182611e+17
19212.0	7.205690590363645e+17
19213.0	7.204198691809962e+17
19214.0	7.202770037768192e+17
19215.0	7.201532246928042e+17
19216.0	7.200023097202003e+17
19217.0	7.198776695455744e+17
19218.0	7.196563488462163e+17
19219.0	7.195849241832105e+17
19220.0	7.194620162561364e+17
19221.0	7.192932280958973e+17
19222.0	7.191879597337258e+17
19223.0	7.19048517301043e+17
19224.0	7.18884122534434e+17
19225.0	7.1875271093562e+17
19226.0	7.186340364593834e+17
19227.0	7.184957336190973e+17
19228.0	7.18361302540834e+17
19229.0	7.182233138539177e+17
19230.0	7.180803233196714e+17
19231.0	7.179416755677864e+17
19232.0	7.177880474397353e+17
19233.0	7.176636831105024e+17
19234.0	7.1753077372573e+17
19235.0	7.1739176400541e+17
19236.0	7.172576308625407e+17
19237.0	7.1711792852282e+17
19238.0	7.169721988284415e+17
19239.0	7.168442552199849e+17
19240.0	7.166609157608787e+17
19241.0	7.165496530392403e+17
19242.0	7.164229824020477e+17
19243.0	7.162714391227049e+17
19244.0	7.161536331470163e+17
19245.0	7.160158175450451e+17
19246.0	7.158766526354771e+17
19247.0	7.157370181036714e+17
19248.0	7.156032684599978e+17
19249.0	7.154649755462313e+17
19250.0	7.153251986877098e+17
19251.0	7.151734737950036e+17
19252.0	7.150127818997757e+17
19253.0	7.149110496154964e+17
19254.0	7.147681804364457e+17
19255.0	7.146177581547519e+17
19256.0	7.14492798513971e+17
19257.0	7.143607773429757e+17
19258.0	7.142219903401981e+17
19259.0	7.14077449171763e+17
19260.0	7.139407049348436e+17
19261.0	7.138074130295466e+17
19262.0	7.136641698583891e+17
19263.0	7.135260349300735e+17
19264.0	7.13339972948241e+17
19265.0	7.132384973553663e+17
19266.0	7.131066600346964e+17
19267.0	7.129803122191017e+17
19268.0	7.128412383259306e+17
19269.0	7.127033119943338e+17
19270.0	7.125647670028969e+17
19271.0	7.123936312907094e+17
19272.0	7.122849290518527e+17
19273.0	7.110019454249633e+17
19274.0	7.113802573851299e+17
19275.0	7.11873195479313e+17
19276.0	7.117326573546153e+17
19277.0	7.1159418744122e+17
19278.0	7.11455239237359e+17
19279.0	7.113051346042879e+17
19280.0	7.111689199681535e+17
19281.0	7.110384894170451e+17
19282.0	7.109018651372202e+17
19283.0	7.107541371366058e+17
19284.0	7.106023689027583e+17
19285.0	7.104592451294547e+17
19286.0	7.103419259726505e+17
19287.0	7.102067659243519e+17
19288.0	7.09926430528853e+17
19289.0	7.096367992973989e+17
19290.0	7.097891773830483e+17
19291.0	7.096206618525696e+17
19292.0	7.095100674233684e+17
19293.0	7.093698212222292e+17
19294.0	7.092297583121747e+17
19295.0	7.090913067139071e+17
19296.0	7.089507917976916e+17
19297.0	7.088089149909674e+17
19298.0	7.086682475418964e+17
19299.0	7.085315500015615e+17
19300.0	7.083909882489513e+17
19301.0	7.082495510052863e+17
19302.0	7.081075847200768e+17
19303.0	7.079585430634493e+17
19304.0	7.07820107403537e+17
19305.0	7.076857495857834e+17
19306.0	7.075456870951594e+17
19307.0	7.073991674735274e+17
19308.0	7.072603813096105e+17
19309.0	7.071074221730472e+17
19310.0	7.069567269819731e+17
19311.0	7.068343627765076e+17
19312.0	7.066917522462036e+17
19313.0	7.065072958439424e+17
19314.0	7.06311048134656e+17
19315.0	7.061709038551039e+17
19316.0	7.06128183890193e+17
19317.0	7.05985201185314e+17
19318.0	7.058414932852735e+17
19319.0	7.056998088572927e+17
19320.0	7.055450057648808e+17
19321.0	7.054130624681302e+17
19322.0	7.052492901362345e+17
19323.0	7.051169096531965e+17
19324.0	7.049790631531859e+17
19325.0	7.048258543157247e+17
19326.0	7.046895225186985e+17
19327.0	7.04542718383445e+17
19328.0	7.043986135624361e+17
19329.0	7.042528712851455e+17
19330.0	7.041026834650452e+17
19331.0	7.039554583614803e+17
19332.0	7.038122795029844e+17
19333.0	7.036632170845526e+17
19334.0	7.035040812062035e+17
19335.0	7.033701509977428e+17
19336.0	7.03221343592994e+17
19337.0	7.030706188320765e+17
19338.0	7.02900732113715e+17
19339.0	7.027729132158975e+17
19340.0	7.026183903029929e+17
19341.0	7.024706156756991e+17
19342.0	7.022726830445908e+17
19343.0	7.021679049266515e+17
19344.0	7.02014812061696e+17
19345.0	7.01684203878263e+17
19346.0	7.016208985489405e+17
19347.0	7.015467154320041e+17
19348.0	7.013991624037716e+17
19349.0	7.012399400528554e+17
19350.0	7.010841618546687e+17
19351.0	7.009259180348755e+17
19352.0	7.007635993788416e+17
19353.0	7.006130928615423e+17
19354.0	7.004516580851711e+17
19355.0	7.002816526680063e+17
19356.0	7.001297976819711e+17
19357.0	6.999651861397501e+17
19358.0	6.997861200472746e+17
19359.0	6.995732894580735e+17
19360.0	6.994644943852883e+17
19361.0	6.992949619458047e+17
19362.0	6.991345804290729e+17
19363.0	6.989639455167828e+17
19364.0	6.987916628022612e+17
19365.0	6.986188555900244e+17
19366.0	6.984455068931411e+17
19367.0	6.982695174624596e+17
19368.0	6.980917618103635e+17
19369.0	6.978799286965587e+17
19370.0	6.975873903230975e+17
19371.0	6.975412144614058e+17
19372.0	6.97361097695778e+17
19373.0	6.971703994701139e+17
19374.0	6.969820776671913e+17
19375.0	6.967893761720319e+17
19376.0	6.965937388737875e+17
19377.0	6.963949727645696e+17
19378.0	6.96194345013521e+17
19379.0	6.959894594846719e+17
19380.0	6.957829542554281e+17
19381.0	6.955714628375891e+17
19382.0	6.953476846955178e+17
19383.0	6.951253859543722e+17
19384.0	6.949151313668778e+17
19385.0	6.94687443644143e+17
19386.0	6.944547200303103e+17
19387.0	6.942174514686633e+17
19388.0	6.939766970908672e+17
19389.0	6.937291042499242e+17
19390.0	6.934748542096724e+17
19391.0	6.928162165708111e+17
19392.0	6.929367923250516e+17
19393.0	6.926736876197204e+17
19394.0	6.923920531783679e+17
19395.0	6.921027232377513e+17
19396.0	6.918036834833748e+17
19397.0	6.914984645405354e+17
19398.0	6.911792082408787e+17
19399.0	6.90784162755379e+17
19400.0	6.90500464157218e+17
19401.0	6.90156054197043e+17
19402.0	6.897923993021097e+17
19403.0	6.894090188750847e+17
19404.0	6.890149647133353e+17
19405.0	6.886025525024084e+17
19406.0	6.881706117518675e+17
19407.0	6.877221773901823e+17
19408.0	6.871833983494826e+17
19409.0	6.867445806880084e+17
19410.0	6.862406843454804e+17
19411.0	6.856978302588243e+17
19412.0	6.851264094666752e+17
19413.0	6.845239088119807e+17
19414.0	6.838830566998015e+17
19415.0	6.832157978787839e+17
19416.0	6.824797688299519e+17
19417.0	6.817405412048893e+17
19418.0	6.809477556032852e+17
19419.0	6.800960496773801e+17
19420.0	6.791812672913405e+17
19421.0	6.782137490123434e+17
19422.0	6.771668415763798e+17
19423.0	6.760559666003967e+17
19424.0	6.748558700402004e+17
19425.0	6.735824637569706e+17
19426.0	6.722117139693567e+17
19427.0	6.70731869425937e+17
19428.0	6.691704487455402e+17
19429.0	6.674430271597225e+17
19430.0	6.6554963165184e+17
19431.0	6.634300325057876e+17
19432.0	6.612474504325802e+17
19433.0	6.589316614586369e+17
19434.0	6.564539445979817e+17
19435.0	6.537196562896211e+17
19436.0	6.506908522031786e+17
19437.0	6.473722626747052e+17
19438.0	6.431588945144489e+17
19439.0	6.394370962664109e+17
19440.0	6.352955059295572e+17
19441.0	6.306829097238524e+17
19442.0	6.25419429539567e+17
19443.0	6.193342242444628e+17
19444.0	6.128859241338194e+17
19445.0	6.058341820967597e+17
19446.0	5.975510634987517e+17
19447.0	5.883607446279503e+17
19448.0	5.774445917853018e+17
19449.0	5.620217750574421e+17
19450.0	5.251921272460605e+17
19451.0	5.110234813038603e+17
19452.0	5.464092575094107e+17
19453.0	5.708184432585392e+17
19454.0	5.826880783515643e+17
19455.0	5.923584077026643e+17
19456.0	6.009156780337836e+17
19457.0	6.082885833807186e+17
19458.0	6.145734116813482e+17
19459.0	6.208021338259457e+17
19460.0	6.262033832651429e+17
19461.0	6.308651216841386e+17
19462.0	6.34983380016606e+17
19463.0	6.388029834220881e+17
19464.0	6.425749588279295e+17
19465.0	6.458831079647916e+17
19466.0	6.487671792031059e+17
19467.0	6.513857895159123e+17
19468.0	6.53718044418594e+17
19469.0	6.556747621728255e+17
19470.0	6.578622679394985e+17
19471.0	6.597719692236118e+17
19472.0	6.614624151535613e+17
19473.0	6.630020017553407e+17
19474.0	6.643893187641343e+17
19475.0	6.655738006994943e+17
19476.0	6.667790926741504e+17
19477.0	6.678268862267392e+17
19478.0	6.688095819442857e+17
19479.0	6.696893735589204e+17
19480.0	6.705044030226431e+17
19481.0	6.712387686804137e+17
19482.0	6.719135618695168e+17
19483.0	6.725350853006676e+17
19484.0	6.7308892468893e+17
19485.0	6.735929981009919e+17
19486.0	6.740583375350441e+17
19487.0	6.744921495743146e+17
19488.0	6.748760356246868e+17
19489.0	6.752220341075968e+17
19490.0	6.754341504767315e+17
19491.0	6.758393392573097e+17
19492.0	6.761089400307711e+17
19493.0	6.76348772290833e+17
19494.0	6.765660394749951e+17
19495.0	6.767416024847699e+17
19496.0	6.768894541474473e+17
19497.0	6.77089896370449e+17
19498.0	6.771620165888681e+17
19499.0	6.767162077915817e+17
19500.0	6.774633411903487e+17
19501.0	6.775561726022995e+17
19502.0	6.776387000074239e+17
19503.0	6.777091759188649e+17
19504.0	6.77766000419362e+17
19505.0	6.778211943841791e+17
19506.0	6.778612127978836e+17
19507.0	6.778900464708265e+17
19508.0	6.779141686121811e+17
19509.0	6.779281907995987e+17
19510.0	6.779167592240468e+17
19511.0	6.775626983101778e+17
19512.0	6.778206081602899e+17
19513.0	6.777140912936273e+17
19514.0	6.77761957320021e+17
19515.0	6.778315989144916e+17
19516.0	6.778490631574868e+17
19517.0	6.778126210170879e+17
19518.0	6.777807638102015e+17
19519.0	6.777405169467391e+17
19520.0	6.776938243467945e+17
19521.0	6.77647543837218e+17
19522.0	6.775900257386495e+17
19523.0	6.775398738165759e+17
19524.0	6.774819038516564e+17
19525.0	6.774114895964842e+17
19526.0	6.773530312747689e+17
19527.0	6.772861176556202e+17
19528.0	6.772171735739049e+17
19529.0	6.771444908294144e+17
19530.0	6.770717012699817e+17
19531.0	6.7699585070749e+17
19532.0	6.769172803485696e+17
19533.0	6.76837361520913e+17
19534.0	6.76754779939362e+17
19535.0	6.766691106510164e+17
19536.0	6.765816954137258e+17
19537.0	6.764990079959039e+17
19538.0	6.763986471092224e+17
19539.0	6.762715506802687e+17
19540.0	6.762258449301503e+17
19541.0	6.761360910887594e+17
19542.0	6.760418917744639e+17
19543.0	6.759470935135572e+17
19544.0	6.758511085442388e+17
19545.0	6.757066770568532e+17
19546.0	6.75574666371618e+17
19547.0	6.755511615619071e+17
19548.0	6.754564919263231e+17
19549.0	6.753450480107519e+17
19550.0	6.752546500640767e+17
19551.0	6.751524840188585e+17
19552.0	6.750491016254804e+17
19553.0	6.749426294980608e+17
19554.0	6.748366306978474e+17
19555.0	6.747334936712531e+17
19556.0	6.74629039563298e+17
19557.0	6.745219123554985e+17
19558.0	6.744144634445823e+17
19559.0	6.743016751147689e+17
19560.0	6.741954875708755e+17
19561.0	6.740866716663805e+17
19562.0	6.73980117750033e+17
19563.0	6.738687844941823e+17
19564.0	6.737605296477523e+17
19565.0	6.736493024378879e+17
19566.0	6.735363763251881e+17
19567.0	6.73426242150946e+17
19568.0	6.733125860196351e+17
19569.0	6.732016909986473e+17
19570.0	6.730916482602323e+17
19571.0	6.729778816789161e+17
19572.0	6.728612807966719e+17
19573.0	6.7274866177693e+17
19574.0	6.726265738362879e+17
19575.0	6.725212237550932e+17
19576.0	6.724079982389929e+17
19577.0	6.722775158882303e+17
19578.0	6.721712472544595e+17
19579.0	6.720597858626217e+17
19580.0	6.719441772827988e+17
19581.0	6.718300876002644e+17
19582.0	6.71715512427042e+17
19583.0	6.71599184524083e+17
19584.0	6.714822209044479e+17
19585.0	6.713550682718208e+17
19586.0	6.712290109117782e+17
19587.0	6.711208833624746e+17
19588.0	6.709620621967359e+17
19589.0	6.708838726806186e+17
19590.0	6.707718838550527e+17
19591.0	6.70661458456303e+17
19592.0	6.705441926370644e+17
19593.0	6.704235564149417e+17
19594.0	6.702831811690495e+17
19595.0	6.701843489663657e+17
19596.0	6.699458121869994e+17
19597.0	6.69945090347281e+17
19598.0	6.698092958405971e+17
19599.0	6.697143058300927e+17
19600.0	6.695959946504872e+17
19601.0	6.694698752147455e+17
19602.0	6.693520841288361e+17
19603.0	6.691945943749971e+17
19604.0	6.691111637265066e+17
19605.0	6.689681370513408e+17
19606.0	6.688754854352212e+17
19607.0	6.687603570333011e+17
19608.0	6.68638331797504e+17
19609.0	6.685151678081706e+17
19610.0	6.684005070711465e+17
19611.0	6.682798098918058e+17
19612.0	6.681606809627305e+17
19613.0	6.680386213336404e+17
19614.0	6.67915720466978e+17
19615.0	6.677999669040468e+17
19616.0	6.676764735220394e+17
19617.0	6.675588500684797e+17
19618.0	6.673855409378643e+17
19619.0	6.672545449246719e+17
19620.0	6.671347667872425e+17
19621.0	6.67076471693858e+17
19622.0	6.669566204357289e+17
19623.0	6.668359259127807e+17
19624.0	6.667140423046484e+17
19625.0	6.665941467966121e+17
19626.0	6.664725658075135e+17
19627.0	6.663525910271316e+17
19628.0	6.662200387174399e+17
19629.0	6.661016354728617e+17
19630.0	6.659536074397012e+17
19631.0	6.653725225517056e+17
19632.0	6.657471256286548e+17
19633.0	6.656220438637225e+17
19634.0	6.655051723090602e+17
19635.0	6.653796462275242e+17
19636.0	6.652619716733609e+17
19637.0	6.650963258157738e+17
19638.0	6.65019769561634e+17
19639.0	6.648966932332543e+17
19640.0	6.647677953507327e+17
19641.0	6.646103649462954e+17
19642.0	6.645343533225299e+17
19643.0	6.644103645233151e+17
19644.0	6.642863597158399e+17
19645.0	6.641460537458687e+17
19646.0	6.640507079884797e+17
19647.0	6.639293634183167e+17
19648.0	6.638074626834432e+17
19649.0	6.636857725026303e+17
19650.0	6.635652380622847e+17
19651.0	6.634431540363261e+17
19652.0	6.633213042622464e+17
19653.0	6.632008186855423e+17
19654.0	6.630783796117504e+17
19655.0	6.629564473496916e+17
19656.0	6.628360296508074e+17
19657.0	6.627142666289151e+17
19658.0	6.625933651170644e+17
19659.0	6.624722761198249e+17
19660.0	6.623509887320063e+17
19661.0	6.622295458054143e+17
19662.0	6.621080931620179e+17
19663.0	6.619815452781225e+17
19664.0	6.618625467219965e+17
19665.0	6.617437520789503e+17
19666.0	6.616208560357375e+17
