# Flux units: erg / (cm m2 s)
# Wavelength units: Angstrom
wave	flux
19000.0	8.298746611062098e+17
19001.0	8.297190760557225e+17
19002.0	8.295658691756031e+17
19003.0	8.294113486394708e+17
19004.0	8.292567601556136e+17
19005.0	8.291021821575165e+17
19006.0	8.289474972046676e+17
19007.0	8.287927689106772e+17
19008.0	8.286371511446185e+17
19009.0	8.284827820228604e+17
19010.0	8.283225935839231e+17
19011.0	8.281729861156861e+17
19012.0	8.2801668957143e+17
19013.0	8.278633121229481e+17
19014.0	8.277075147008681e+17
19015.0	8.275531131431592e+17
19016.0	8.273972624534186e+17
19017.0	8.272404572798975e+17
19018.0	8.27087425721685e+17
19019.0	8.269321924334932e+17
19020.0	8.267763031561553e+17
19021.0	8.266210551878996e+17
19022.0	8.264661037569366e+17
19023.0	8.263106548815187e+17
19024.0	8.261550696912211e+17
19025.0	8.259996749223254e+17
19026.0	8.258437311190356e+17
19027.0	8.256878347113812e+17
19028.0	8.255329768133972e+17
19029.0	8.253773377961983e+17
19030.0	8.252216824212136e+17
19031.0	8.250659918140755e+17
19032.0	8.249102705885183e+17
19033.0	8.247534231923369e+17
19034.0	8.245987379598676e+17
19035.0	8.244429303316479e+17
19036.0	8.242334200933033e+17
19037.0	8.241312685184338e+17
19038.0	8.239754235609085e+17
19039.0	8.238195370797736e+17
19040.0	8.236636275299667e+17
19041.0	8.235076898783231e+17
19042.0	8.233507304942249e+17
19043.0	8.231957675988306e+17
19044.0	8.23039626523443e+17
19045.0	8.228836062440106e+17
19046.0	8.22726997923157e+17
19047.0	8.225715045881172e+17
19048.0	8.224130161005908e+17
19049.0	8.222585632325631e+17
19050.0	8.22102773919471e+17
19051.0	8.219385335032489e+17
19052.0	8.217904576550225e+17
19053.0	8.216349130096639e+17
19054.0	8.214787769674408e+17
19055.0	8.21319457448482e+17
19056.0	8.211664344186879e+17
19057.0	8.210102455282344e+17
19058.0	8.208540419577172e+17
19059.0	8.206978237071357e+17
19060.0	8.20541299691793e+17
19061.0	8.203853603624276e+17
19062.0	8.202290666143743e+17
19063.0	8.200728395557544e+17
19064.0	8.199151967797247e+17
19065.0	8.197579830809939e+17
19066.0	8.196031899151016e+17
19067.0	8.194477372648105e+17
19068.0	8.192914383437824e+17
19069.0	8.191351431976275e+17
19070.0	8.189786994333012e+17
19071.0	8.188225052300628e+17
19072.0	8.186661784868179e+17
19073.0	8.18509778063633e+17
19074.0	8.183534999743144e+17
19075.0	8.181971518401194e+17
19076.0	8.180405236662271e+17
19077.0	8.178843346359636e+17
19078.0	8.177274418014889e+17
19079.0	8.175717000238419e+17
19080.0	8.174152879964157e+17
19081.0	8.172583537781418e+17
19082.0	8.171019350398292e+17
19083.0	8.169448099807231e+17
19084.0	8.167865235188392e+17
19085.0	8.1663336920733e+17
19086.0	8.164718952142163e+17
19087.0	8.163189809567059e+17
19088.0	8.161631726294356e+17
19089.0	8.160046508670973e+17
19090.0	8.158512566413994e+17
19091.0	8.156945631761748e+17
19092.0	8.155374251147264e+17
19093.0	8.153820436277928e+17
19094.0	8.152233148066473e+17
19095.0	8.150663291382442e+17
19096.0	8.149124908755624e+17
19097.0	8.147563040822611e+17
19098.0	8.145998958297088e+17
19099.0	8.144434133379753e+17
19100.0	8.142870080214355e+17
19101.0	8.141305657950208e+17
19102.0	8.139731559426732e+17
19103.0	8.13817674211874e+17
19104.0	8.13661218144256e+17
19105.0	8.135047595600554e+17
19106.0	8.1334801268736e+17
19107.0	8.131916483351891e+17
19108.0	8.13035360319351e+17
19109.0	8.128728356530858e+17
19110.0	8.127223125682858e+17
19111.0	8.125659703061161e+17
19112.0	8.12409510044194e+17
19113.0	8.122530300690431e+17
19114.0	8.120965563853481e+17
19115.0	8.11939736252143e+17
19116.0	8.11783590982451e+17
19117.0	8.116268970977962e+17
19118.0	8.114693407244285e+17
19119.0	8.112905277581992e+17
19120.0	8.111571974051156e+17
19121.0	8.110008282994003e+17
19122.0	8.1084462137344e+17
19123.0	8.10687940071697e+17
19124.0	8.105315687290195e+17
19125.0	8.103750166118399e+17
19126.0	8.102184305207977e+17
19127.0	8.100424404609706e+17
19128.0	8.099032411581097e+17
19129.0	8.097477851523753e+17
19130.0	8.095924313478486e+17
19131.0	8.094358842638335e+17
19132.0	8.09279270490385e+17
19133.0	8.091159982593364e+17
19134.0	8.089650665095165e+17
19135.0	8.088096854420136e+17
19136.0	8.086531429717331e+17
19137.0	8.084946297378131e+17
19138.0	8.083393788335444e+17
19139.0	8.081833544996179e+17
19140.0	8.080267935743999e+17
19141.0	8.078702062250664e+17
19142.0	8.077135714800979e+17
19143.0	8.075562947269974e+17
19144.0	8.074002972366163e+17
19145.0	8.072436890555731e+17
19146.0	8.070801194483711e+17
19147.0	8.069293630204585e+17
19148.0	8.067736929654098e+17
19149.0	8.066170234077183e+17
19150.0	8.06460220471159e+17
19151.0	8.063036519961942e+17
19152.0	8.061467483963391e+17
19153.0	8.059902336084649e+17
19154.0	8.0583196685981e+17
19155.0	8.056767426592765e+17
19156.0	8.05519938044996e+17
19157.0	8.053630077414057e+17
19158.0	8.05202300187443e+17
19159.0	8.050492971504979e+17
19160.0	8.048924792542548e+17
19161.0	8.047359152532137e+17
19162.0	8.045697119027197e+17
19163.0	8.04422064153122e+17
19164.0	8.042653568466943e+17
19165.0	8.041083098016425e+17
19166.0	8.039502661899603e+17
19167.0	8.037937196651859e+17
19168.0	8.036359270126932e+17
19169.0	8.034796652811603e+17
19170.0	8.033143985187497e+17
19171.0	8.031539602391039e+17
19172.0	8.029973530367318e+17
19173.0	8.028403131219965e+17
19174.0	8.026826037963432e+17
19175.0	8.025261477287254e+17
19176.0	8.023690124634792e+17
19177.0	8.02210035479347e+17
19178.0	8.020544686041769e+17
19179.0	8.018968055556778e+17
19180.0	8.017393404783273e+17
19181.0	8.015817713822377e+17
19182.0	8.014246345790806e+17
19183.0	8.012682246488061e+17
19184.0	8.011094460552532e+17
19185.0	8.009534282924031e+17
19186.0	8.007961031649961e+17
19187.0	8.006377403667795e+17
19188.0	8.004811295293439e+17
19189.0	8.003236542458538e+17
19190.0	8.001660436261548e+17
19191.0	8.000083394734761e+17
19192.0	7.998506948799144e+17
19193.0	7.996922365913768e+17
19194.0	7.995350038784684e+17
19195.0	7.99377533767953e+17
19196.0	7.992195571253247e+17
19197.0	7.99061619909154e+17
19198.0	7.989034129992361e+17
19199.0	7.986890823871148e+17
19200.0	7.985494892391081e+17
19201.0	7.984294528723625e+17
19202.0	7.982716982482259e+17
19203.0	7.9811361926458e+17
19204.0	7.979551317557245e+17
19205.0	7.977971688144893e+17
19206.0	7.976387003198121e+17
19207.0	7.974798572737876e+17
19208.0	7.973196935812436e+17
19209.0	7.971634949040809e+17
19210.0	7.970048845021181e+17
19211.0	7.968461628112893e+17
19212.0	7.96687543461478e+17
19213.0	7.965274330365951e+17
19214.0	7.963683194579626e+17
19215.0	7.96210759030101e+17
19216.0	7.96051585053491e+17
19217.0	7.958928780427264e+17
19218.0	7.957240847095123e+17
19219.0	7.955723772930732e+17
19220.0	7.954151925350397e+17
19221.0	7.952519300907007e+17
19222.0	7.950962941493245e+17
19223.0	7.949366853631999e+17
19224.0	7.947764288367272e+17
19225.0	7.946154102052183e+17
19226.0	7.944574274109439e+17
19227.0	7.942974994382847e+17
19228.0	7.941374406033407e+17
19229.0	7.939772776098473e+17
19230.0	7.938169563512832e+17
19231.0	7.936566451590484e+17
19232.0	7.934955577409535e+17
19233.0	7.93334626910208e+17
19234.0	7.931745227767807e+17
19235.0	7.930140158503594e+17
19236.0	7.92853047410688e+17
19237.0	7.926917794977106e+17
19238.0	7.925296127453866e+17
19239.0	7.923694487732224e+17
19240.0	7.922046605808982e+17
19241.0	7.920453891566249e+17
19242.0	7.918808461912745e+17
19243.0	7.917101430516392e+17
19244.0	7.915503371332266e+17
19245.0	7.913881519259648e+17
19246.0	7.912256093640022e+17
19247.0	7.910632134628694e+17
19248.0	7.909006372066644e+17
19249.0	7.907377736406353e+17
19250.0	7.905747059518122e+17
19251.0	7.904104458223615e+17
19252.0	7.902438830200148e+17
19253.0	7.900845523162454e+17
19254.0	7.899193414778879e+17
19255.0	7.897379490146986e+17
19256.0	7.895762534225238e+17
19257.0	7.89412159946752e+17
19258.0	7.892476701092521e+17
19259.0	7.89081933025553e+17
19260.0	7.889172905153876e+17
19261.0	7.887527935475712e+17
19262.0	7.885842724246868e+17
19263.0	7.884170964150953e+17
19264.0	7.882458892599293e+17
19265.0	7.880831379614378e+17
19266.0	7.879174888183126e+17
19267.0	7.877522117099517e+17
19268.0	7.875852591169535e+17
19269.0	7.874180302591314e+17
19270.0	7.872505090583209e+17
19271.0	7.870790309511165e+17
19272.0	7.869141447518889e+17
19273.0	7.866614717699411e+17
19274.0	7.865352021082111e+17
19275.0	7.864083969736701e+17
19276.0	7.862390540468221e+17
19277.0	7.86069345656286e+17
19278.0	7.858992873209853e+17
19279.0	7.857286086481234e+17
19280.0	7.855571568252246e+17
19281.0	7.853868754927615e+17
19282.0	7.852153107032744e+17
19283.0	7.850425601840467e+17
19284.0	7.848693232653651e+17
19285.0	7.846952340641108e+17
19286.0	7.845244516521302e+17
19287.0	7.843508516465321e+17
19288.0	7.841434229014525e+17
19289.0	7.839438425380178e+17
19290.0	7.838054725888681e+17
19291.0	7.83626637672448e+17
19292.0	7.834539481104381e+17
19293.0	7.832773346372266e+17
19294.0	7.831003755533651e+17
19295.0	7.829227691485868e+17
19296.0	7.827445935767552e+17
19297.0	7.825658014422355e+17
19298.0	7.823864882353492e+17
19299.0	7.822065257502036e+17
19300.0	7.820259223754067e+17
19301.0	7.818445946443092e+17
19302.0	7.816626654500179e+17
19303.0	7.814789641622867e+17
19304.0	7.812960940457983e+17
19305.0	7.811128314822655e+17
19306.0	7.80928080360243e+17
19307.0	7.80715340927249e+17
19308.0	7.80528077976371e+17
19309.0	7.803393189172563e+17
19310.0	7.801503239984467e+17
19311.0	7.799637947711487e+17
19312.0	7.797746747222696e+17
19313.0	7.795829536456701e+17
19314.0	7.793755323105279e+17
19315.0	7.791842133278719e+17
19316.0	7.790067007356927e+17
19317.0	7.787997397953194e+17
19318.0	7.785994255684947e+17
19319.0	7.78398729380386e+17
19320.0	7.781691825324032e+17
19321.0	7.779707154770602e+17
19322.0	7.777690748715005e+17
19323.0	7.7756870192442e+17
19324.0	7.773670824301908e+17
19325.0	7.77162035630353e+17
19326.0	7.769582297852588e+17
19327.0	7.767529433508521e+17
19328.0	7.765507134455807e+17
19329.0	7.76315892400128e+17
19330.0	7.76085807562752e+17
19331.0	7.758734510697128e+17
19332.0	7.756599882590889e+17
19333.0	7.754443553155752e+17
19334.0	7.752266018717696e+17
19335.0	7.750078171884202e+17
19336.0	7.747791087818068e+17
19337.0	7.745369514792275e+17
19338.0	7.743097730149033e+17
19339.0	7.740854714236928e+17
19340.0	7.738561049307817e+17
19341.0	7.7361466848925e+17
19342.0	7.733607116308479e+17
19343.0	7.731294358907562e+17
19344.0	7.728914372405928e+17
19345.0	7.726278755658408e+17
19346.0	7.724017245661866e+17
19347.0	7.721613305490089e+17
19348.0	7.719135948221097e+17
19349.0	7.716622159227561e+17
19350.0	7.714078578092714e+17
19351.0	7.711501115370152e+17
19352.0	7.708889436913663e+17
19353.0	7.706249470672893e+17
19354.0	7.703463114833919e+17
19355.0	7.700465421997395e+17
19356.0	7.697730618348884e+17
19357.0	7.694948310013268e+17
19358.0	7.692119742698836e+17
19359.0	7.689222376215894e+17
19360.0	7.686356324406611e+17
19361.0	7.683404293559636e+17
19362.0	7.680414794995028e+17
19363.0	7.67704273396258e+17
19364.0	7.673744308131158e+17
19365.0	7.670601369343315e+17
19366.0	7.667405099980118e+17
19367.0	7.6641530295965e+17
19368.0	7.660842943599955e+17
19369.0	7.657131685008723e+17
19370.0	7.653114730162858e+17
19371.0	7.649710521188351e+17
19372.0	7.646150674175315e+17
19373.0	7.642517809922047e+17
19374.0	7.638325057814525e+17
19375.0	7.634137087213565e+17
19376.0	7.630276419125247e+17
19377.0	7.626331856568317e+17
19378.0	7.621593400344575e+17
19379.0	7.617083775560361e+17
19380.0	7.612869854800554e+17
19381.0	7.608021180656301e+17
19382.0	7.602809588766036e+17
19383.0	7.598288629574313e+17
19384.0	7.592610424160256e+17
19385.0	7.587327614386175e+17
19386.0	7.58162419421457e+17
19387.0	7.575418908792147e+17
19388.0	7.569994415428947e+17
19389.0	7.564006429906259e+17
19390.0	7.55862683656738e+17
19391.0	7.552695627939836e+17
19392.0	7.54743534018014e+17
19393.0	7.541585836594515e+17
19394.0	7.535182891799892e+17
19395.0	7.529003300683775e+17
19396.0	7.522636048018089e+17
19397.0	7.51607356727842e+17
19398.0	7.509303583135062e+17
19399.0	7.501682738287956e+17
19400.0	7.494511492071424e+17
19401.0	7.487063662264319e+17
19402.0	7.479104047677437e+17
19403.0	7.470563213006164e+17
19404.0	7.462303136656041e+17
19405.0	7.453213762519039e+17
19406.0	7.443803490571603e+17
19407.0	7.43423875219456e+17
19408.0	7.423654156217e+17
19409.0	7.41302523343667e+17
19410.0	7.401728510350676e+17
19411.0	7.389368828996266e+17
19412.0	7.376887482067625e+17
19413.0	7.36339394752239e+17
19414.0	7.348846464073725e+17
19415.0	7.333150357891752e+17
19416.0	7.316839533117437e+17
19417.0	7.301798915560787e+17
19418.0	7.287537218005674e+17
19419.0	7.2726556470586e+17
19420.0	7.256763886381738e+17
19421.0	7.240220473469612e+17
19422.0	7.223059000502956e+17
19423.0	7.204664116947625e+17
19424.0	7.185642962288639e+17
19425.0	7.165562204804436e+17
19426.0	7.143928674036393e+17
19427.0	7.12089767247872e+17
19428.0	7.09605031359283e+17
19429.0	7.068844199772155e+17
19430.0	7.039171886230189e+17
19431.0	7.005988058737325e+17
19432.0	6.972485906639526e+17
19433.0	6.94136208359424e+17
19434.0	6.908833681812138e+17
19435.0	6.873731978057042e+17
19436.0	6.836045760954368e+17
19437.0	6.794813890363391e+17
19438.0	6.749307516485628e+17
19439.0	6.700298031245998e+17
19440.0	6.645981667218769e+17
19441.0	6.590269212327933e+17
19442.0	6.531927594325334e+17
19443.0	6.467535301334356e+17
19444.0	6.396106979497297e+17
19445.0	6.318063557978797e+17
19446.0	6.2340217190045e+17
19447.0	6.140581031968763e+17
19448.0	6.035972681979224e+17
19449.0	5.91046864151074e+17
19450.0	5.7195179837576045e+17
19451.0	5.6521459390655206e+17
19452.0	5.820098781992279e+17
19453.0	5.975347919060997e+17
19454.0	6.084882206468774e+17
19455.0	6.181166519768403e+17
19456.0	6.26719056514253e+17
19457.0	6.345559857517903e+17
19458.0	6.417709774405631e+17
19459.0	6.483293915228844e+17
19460.0	6.541738473335462e+17
19461.0	6.59544255636002e+17
19462.0	6.648793866960896e+17
19463.0	6.697730636251132e+17
19464.0	6.742219537689257e+17
19465.0	6.782734111692118e+17
19466.0	6.819407749709821e+17
19467.0	6.853008528769023e+17
19468.0	6.884133959630848e+17
19469.0	6.912860095512573e+17
19470.0	6.942101050753021e+17
19471.0	6.973536579092485e+17
19472.0	7.002055446451539e+17
19473.0	7.027603720372224e+17
19474.0	7.050596794935978e+17
19475.0	7.071727698487976e+17
19476.0	7.091218451617108e+17
19477.0	7.108924704555008e+17
19478.0	7.125991928714578e+17
19479.0	7.141631965440681e+17
19480.0	7.156640721666047e+17
19481.0	7.170476988170237e+17
19482.0	7.184045051303251e+17
19483.0	7.196438017256105e+17
19484.0	7.208135837439314e+17
19485.0	7.219610970838356e+17
19486.0	7.232803730445655e+17
19487.0	7.245894347565736e+17
19488.0	7.257893015388156e+17
19489.0	7.268766468887892e+17
19490.0	7.279205122659667e+17
19491.0	7.288577796866049e+17
19492.0	7.296963933022889e+17
19493.0	7.305683210163539e+17
19494.0	7.312842842352296e+17
19495.0	7.320271878881279e+17
19496.0	7.326350285209597e+17
19497.0	7.333198483335849e+17
19498.0	7.3386692720285e+17
19499.0	7.343363981661521e+17
19500.0	7.349581022319955e+17
19501.0	7.354223860995411e+17
19502.0	7.358621826416641e+17
19503.0	7.363054266220544e+17
19504.0	7.367300705419263e+17
19505.0	7.371034323845117e+17
19506.0	7.374564750611796e+17
19507.0	7.37790203806788e+17
19508.0	7.381188002622121e+17
19509.0	7.384438312796157e+17
19510.0	7.387235411645782e+17
19511.0	7.389438114704041e+17
19512.0	7.392341641221462e+17
19513.0	7.394745408028671e+17
19514.0	7.397917553153364e+17
19515.0	7.400267420357974e+17
19516.0	7.403895015167316e+17
19517.0	7.405981909297832e+17
19518.0	7.40881357340672e+17
19519.0	7.410857081656659e+17
19520.0	7.412380518580223e+17
19521.0	7.414974467713706e+17
19522.0	7.416377674913106e+17
19523.0	7.417605406414164e+17
19524.0	7.419396020502528e+17
19525.0	7.420815199611561e+17
19526.0	7.42178331627793e+17
19527.0	7.422667472764928e+17
19528.0	7.424011887007062e+17
19529.0	7.425040537266858e+17
19530.0	7.425699620410708e+17
19531.0	7.426294048358397e+17
19532.0	7.426822578197846e+17
19533.0	7.427740421936468e+17
19534.0	7.428416229168467e+17
19535.0	7.428807847138644e+17
19536.0	7.42909729186338e+17
19537.0	7.429334349731156e+17
19538.0	7.429514764921514e+17
19539.0	7.429683852694866e+17
19540.0	7.430233430949887e+17
19541.0	7.430275101360127e+17
19542.0	7.430271828404906e+17
19543.0	7.430225991652691e+17
19544.0	7.430138692807338e+17
19545.0	7.429973035974655e+17
19546.0	7.429744024180051e+17
19547.0	7.429644384294228e+17
19548.0	7.429409499075923e+17
19549.0	7.429479934022996e+17
19550.0	7.429191532281855e+17
19551.0	7.428856804453033e+17
19552.0	7.428491126854995e+17
19553.0	7.428093780863658e+17
19554.0	7.427668056211456e+17
19555.0	7.427221016106323e+17
19556.0	7.426746538262525e+17
19557.0	7.426249444731561e+17
19558.0	7.42572133851682e+17
19559.0	7.425166574703956e+17
19560.0	7.42459425493265e+17
19561.0	7.423997239099391e+17
19562.0	7.423378464615084e+17
19563.0	7.422898820786858e+17
19564.0	7.42232060662033e+17
19565.0	7.421641485888169e+17
19566.0	7.420941223067645e+17
19567.0	7.420381310047572e+17
19568.0	7.419733741666301e+17
19569.0	7.41898267603763e+17
19570.0	7.418216812904447e+17
19571.0	7.417433850991956e+17
19572.0	7.416635454040745e+17
19573.0	7.415820653166591e+17
19574.0	7.414982312460287e+17
19575.0	7.414435633867434e+17
19576.0	7.413688752756054e+17
19577.0	7.412816819869011e+17
19578.0	7.411936744439808e+17
19579.0	7.411045193394858e+17
19580.0	7.410141401972735e+17
19581.0	7.409225688940543e+17
19582.0	7.408300236734461e+17
19583.0	7.407361764010666e+17
19584.0	7.406412492352169e+17
19585.0	7.405503729281705e+17
19586.0	7.404775406567424e+17
19587.0	7.403809370275837e+17
19588.0	7.402771699466239e+17
19589.0	7.401826127183871e+17
19590.0	7.400815991980032e+17
19591.0	7.39980988330803e+17
19592.0	7.398916432243369e+17
19593.0	7.397906092916735e+17
19594.0	7.396837796697428e+17
19595.0	7.39582010335778e+17
19596.0	7.3946455108922e+17
19597.0	7.393704989949952e+17
19598.0	7.3926119011997e+17
19599.0	7.391562626149033e+17
19600.0	7.390563812769791e+17
19601.0	7.389628304020819e+17
19602.0	7.388534088400893e+17
19603.0	7.387387137796777e+17
19604.0	7.386326813551272e+17
19605.0	7.385184834595498e+17
19606.0	7.384103308143274e+17
19607.0	7.382981784808105e+17
19608.0	7.381853354852351e+17
19609.0	7.380717765219667e+17
19610.0	7.3795827152541e+17
19611.0	7.378439296253951e+17
19612.0	7.377292253375144e+17
19613.0	7.3761400305309e+17
19614.0	7.374977995811496e+17
19615.0	7.373822407737343e+17
19616.0	7.372653245497344e+17
19617.0	7.371487753273343e+17
19618.0	7.370258440519679e+17
19619.0	7.369060186587135e+17
19620.0	7.367884145688575e+17
19621.0	7.366771497500671e+17
19622.0	7.365583212030633e+17
19623.0	7.364391548747773e+17
19624.0	7.363236665316692e+17
19625.0	7.362177261021866e+17
19626.0	7.360975657238525e+17
19627.0	7.359770807063891e+17
19628.0	7.35855039881762e+17
19629.0	7.357341210334547e+17
19630.0	7.356122844714323e+17
19631.0	7.354327671417513e+17
19632.0	7.35370158346513e+17
19633.0	7.352480239889066e+17
19634.0	7.351256067954004e+17
19635.0	7.350023394164735e+17
19636.0	7.348799213841066e+17
19637.0	7.347514794923347e+17
19638.0	7.346332230483965e+17
19639.0	7.345094880045738e+17
19640.0	7.343851120710996e+17
19641.0	7.34255839707136e+17
19642.0	7.341373269912233e+17
19643.0	7.340125941224786e+17
19644.0	7.338877059246761e+17
19645.0	7.337601417609215e+17
19646.0	7.336380327089492e+17
19647.0	7.335127330499241e+17
19648.0	7.333872526163965e+17
19649.0	7.332615702970365e+17
19650.0	7.331357696983039e+17
19651.0	7.330097652563965e+17
19652.0	7.328835997532157e+17
19653.0	7.327572505395199e+17
19654.0	7.326308006625279e+17
19655.0	7.325041166035625e+17
19656.0	7.323773074145279e+17
19657.0	7.32250465509922e+17
19658.0	7.321234077384703e+17
19659.0	7.319961898844157e+17
19660.0	7.318688801751039e+17
19661.0	7.317414215679999e+17
19662.0	7.31613834055953e+17
19663.0	7.314856278840662e+17
19664.0	7.313580616231594e+17
19665.0	7.312303432488275e+17
19666.0	7.311020984893441e+17
