# Flux units: erg / (cm m2 s)
# Wavelength units: Angstrom
wave	flux
19000.0	5.0609650866148685e+17
19001.0	5.05991736275763e+17
19002.0	5.0591620196379296e+17
19003.0	5.0582536095880525e+17
19004.0	5.0573543473152006e+17
19005.0	5.056420849035945e+17
19006.0	5.055532225615188e+17
19007.0	5.054645789523966e+17
19008.0	5.053679025520639e+17
19009.0	5.0525992292188154e+17
19010.0	5.051429490262015e+17
19011.0	5.050982012551168e+17
19012.0	5.049886596661247e+17
19013.0	5.0492474895892474e+17
19014.0	5.048292299068756e+17
19015.0	5.0473822518422176e+17
19016.0	5.046495952764928e+17
19017.0	5.045651497462441e+17
19018.0	5.0447428672116045e+17
19019.0	5.043855516063061e+17
19020.0	5.042949196873728e+17
19021.0	5.042070446844585e+17
19022.0	5.041166583420244e+17
19023.0	5.0402062744507725e+17
19024.0	5.039285773620563e+17
19025.0	5.038452870130345e+17
19026.0	5.03752450637824e+17
19027.0	5.036559985628501e+17
19028.0	5.035772251297108e+17
19029.0	5.034860149560661e+17
19030.0	5.0339940341732685e+17
19031.0	5.0331014478342816e+17
19032.0	5.032189395730432e+17
19033.0	5.031164600735059e+17
19034.0	5.030318569073322e+17
19035.0	5.02897077002786e+17
19036.0	5.019274519248894e+17
19037.0	5.027319901061119e+17
19038.0	5.026732669840042e+17
19039.0	5.025907808228693e+17
19040.0	5.0250278446475936e+17
19041.0	5.0241372401172474e+17
19042.0	5.021167397459281e+17
19043.0	5.022378181175978e+17
19044.0	5.021469441873236e+17
19045.0	5.0205684054097914e+17
19046.0	5.01961943294498e+17
19047.0	5.01873091088657e+17
19048.0	5.0174045705994234e+17
19049.0	5.0127866740517485e+17
19050.0	5.015966731730943e+17
19051.0	5.01389929357858e+17
19052.0	5.013770462035968e+17
19053.0	5.0134052262379514e+17
19054.0	5.012544053837823e+17
19055.0	5.010755890621099e+17
19056.0	5.010559647525546e+17
19057.0	5.009884974852777e+17
19058.0	5.006884166347431e+17
19059.0	5.0072899435888634e+17
19060.0	5.007204660106581e+17
19061.0	5.0063239792994976e+17
19062.0	5.0054348022306125e+17
19063.0	5.0045438404853754e+17
19064.0	5.003536939089919e+17
19065.0	5.0025650321708365e+17
19066.0	5.001043556084394e+17
19067.0	5.000972879964841e+17
19068.0	5.000109827118421e+17
19069.0	4.999221937700864e+17
19070.0	4.99829584236817e+17
19071.0	4.9974301471102285e+17
19072.0	4.995758335983614e+17
19073.0	4.9956630392995834e+17
19074.0	4.9947779055397536e+17
19075.0	4.9938949905667405e+17
19076.0	4.992988575607466e+17
19077.0	4.9920894776115194e+17
19078.0	4.9911730529457485e+17
19079.0	4.9903385318522874e+17
19080.0	4.989443709250217e+17
19081.0	4.988502019495253e+17
19082.0	4.9876492762480634e+17
19083.0	4.986685834832553e+17
19084.0	4.985655557182804e+17
19085.0	4.9849957938626554e+17
19086.0	4.982616623153151e+17
19087.0	4.9813756460400614e+17
19088.0	4.9811667508264934e+17
19089.0	4.9811920991027194e+17
19090.0	4.9805323015290874e+17
19091.0	4.9795427918151686e+17
19092.0	4.977117271949315e+17
19093.0	4.977940729167871e+17
19094.0	4.9770622888181754e+17
19095.0	4.976179645076821e+17
19096.0	4.9752865847814816e+17
19097.0	4.974412010881023e+17
19098.0	4.972674408600915e+17
19099.0	4.971612057807531e+17
19100.0	4.971721372554581e+17
19101.0	4.970850033860607e+17
19102.0	4.9698517650418336e+17
19103.0	4.9691055305523194e+17
19104.0	4.968236509910357e+17
19105.0	4.965476783008432e+17
19106.0	4.966430471269034e+17
19107.0	4.965099035601577e+17
19108.0	4.963948785478314e+17
19109.0	4.963492018083157e+17
19110.0	4.9628198591965856e+17
19111.0	4.961515866161151e+17
19112.0	4.960536305336318e+17
19113.0	4.9602917508491936e+17
19114.0	4.959046758389076e+17
19115.0	4.95839397229363e+17
19116.0	4.9576133067625805e+17
19117.0	4.9567024227723936e+17
19118.0	4.955467902790313e+17
19119.0	4.9412579433731226e+17
19120.0	4.953870136508415e+17
19121.0	4.9531551985172474e+17
19122.0	4.9523697270128634e+17
19123.0	4.9515004218572806e+17
19124.0	4.9505654989127674e+17
19125.0	4.9497195336608416e+17
19126.0	4.9487208097600845e+17
19127.0	4.94603679493871e+17
19128.0	4.9469194379810125e+17
19129.0	4.946115343766868e+17
19130.0	4.9453432954333856e+17
19131.0	4.9444853959884794e+17
19132.0	4.943609251321172e+17
19133.0	4.942686300318378e+17
19134.0	4.9418549787798176e+17
19135.0	4.940977884801706e+17
19136.0	4.940096342764202e+17
19137.0	4.939072841711615e+17
19138.0	4.9383241829143885e+17
19139.0	4.9374833431019514e+17
19140.0	4.936613273883989e+17
19141.0	4.9357368083524256e+17
19142.0	4.9348284234683725e+17
19143.0	4.9339269563897165e+17
19144.0	4.933054507603285e+17
19145.0	4.9322322611404794e+17
19146.0	4.93054631940369e+17
19147.0	4.930398724642134e+17
19148.0	4.9289282673704954e+17
19149.0	4.9279315986786976e+17
19150.0	4.927865818010963e+17
19151.0	4.9269880487499085e+17
19152.0	4.926107082730153e+17
19153.0	4.923768585584637e+17
19154.0	4.9241297773745485e+17
19155.0	4.9234756477037216e+17
19156.0	4.922607033909247e+17
19157.0	4.921226649316011e+17
19158.0	4.9196757543813126e+17
19159.0	4.9199298781730125e+17
19160.0	4.9190922064581965e+17
19161.0	4.9181797223410336e+17
19162.0	4.9168559321907194e+17
19163.0	4.916328125868714e+17
19164.0	4.9156106838780576e+17
19165.0	4.913185833003688e+17
19166.0	4.913727973359615e+17
19167.0	4.912974588979883e+17
19168.0	4.912145969272148e+17
19169.0	4.9112841397643936e+17
19170.0	4.9104221382901754e+17
19171.0	4.909527930852694e+17
19172.0	4.9086769450188794e+17
19173.0	4.9078195132388685e+17
19174.0	4.906893368273578e+17
19175.0	4.9060769742629536e+17
19176.0	4.9052143855861754e+17
19177.0	4.90414788452898e+17
19178.0	4.9034390170938016e+17
19179.0	4.902568678042281e+17
19180.0	4.901720596064938e+17
19181.0	4.900698505696596e+17
19182.0	4.8999558503464954e+17
19183.0	4.8991418813426336e+17
19184.0	4.8982760183125325e+17
19185.0	4.8973913571109536e+17
19186.0	4.896541045161984e+17
19187.0	4.8956005892314445e+17
19188.0	4.89480146386944e+17
19189.0	4.893933333818026e+17
19190.0	4.893065309323264e+17
19191.0	4.892155932486314e+17
19192.0	4.8913192450348365e+17
19193.0	4.8902562147642016e+17
19194.0	4.889248172518058e+17
19195.0	4.8886601017371296e+17
19196.0	4.8877167887865165e+17
19197.0	4.886718227764564e+17
19198.0	4.8853014820509e+17
19199.0	4.880821904561491e+17
19200.0	4.8804962518084256e+17
19201.0	4.882778178977791e+17
19202.0	4.882417836534442e+17
19203.0	4.8816715013816314e+17
19204.0	4.880860112573781e+17
19205.0	4.8800338745316685e+17
19206.0	4.879186321036628e+17
19207.0	4.8781563929122125e+17
19208.0	4.877227332905642e+17
19209.0	4.8766183856756045e+17
19210.0	4.875761922080768e+17
19211.0	4.8749242091219616e+17
19212.0	4.8740527963286176e+17
19213.0	4.8730548036348576e+17
19214.0	4.8721908574016845e+17
19215.0	4.871446799056895e+17
19216.0	4.870601385355945e+17
19217.0	4.869675283032746e+17
19218.0	4.868097846542334e+17
19219.0	4.867756649698644e+17
19220.0	4.867108905156608e+17
19221.0	4.86602106348066e+17
19222.0	4.865375425178282e+17
19223.0	4.86455895007778e+17
19224.0	4.86366078251827e+17
19225.0	4.8627423690533536e+17
19226.0	4.8619854341952845e+17
19227.0	4.861140451109546e+17
19228.0	4.8603114462248954e+17
19229.0	4.859445586690047e+17
19230.0	4.8585830434515616e+17
19231.0	4.8577190070408525e+17
19232.0	4.856864942587902e+17
19233.0	4.8559353184474445e+17
19234.0	4.85513716896017e+17
19235.0	4.854257852000938e+17
19236.0	4.8534414593884154e+17
19237.0	4.8525650714514765e+17
19238.0	4.851608583492948e+17
19239.0	4.850872943815338e+17
19240.0	4.8500113407999994e+17
19241.0	4.849137066792276e+17
19242.0	4.8482845605232634e+17
19243.0	4.847257938209449e+17
19244.0	4.8465916863010125e+17
19245.0	4.845726722250068e+17
19246.0	4.844865264637268e+17
19247.0	4.8440100621298336e+17
19248.0	4.843167731242324e+17
19249.0	4.842267741257727e+17
19250.0	4.841138194918057e+17
19251.0	4.84020396962611e+17
19252.0	4.8393845759890765e+17
19253.0	4.8388557106053114e+17
19254.0	4.8380393788101965e+17
19255.0	4.836944029330089e+17
19256.0	4.836311115846996e+17
19257.0	4.835472469655551e+17
19258.0	4.8346196362308256e+17
19259.0	4.833664359028053e+17
19260.0	4.8326007506425165e+17
19261.0	4.8320311117305165e+17
19262.0	4.8310990716709536e+17
19263.0	4.8301686652927994e+17
19264.0	4.828850887677268e+17
19265.0	4.8283467022772896e+17
19266.0	4.827335806506325e+17
19267.0	4.8269297859952634e+17
19268.0	4.826074283595093e+17
19269.0	4.8252256165123405e+17
19270.0	4.824329557988692e+17
19271.0	4.8231506971197434e+17
19272.0	4.8226207915485856e+17
19273.0	4.821555782964564e+17
19274.0	4.820461599500969e+17
19275.0	4.8201267807955616e+17
19276.0	4.819251907701417e+17
19277.0	4.8184093754873165e+17
19278.0	4.817526352161449e+17
19279.0	4.8166747966013434e+17
19280.0	4.815777681812138e+17
19281.0	4.8149831946513056e+17
19282.0	4.814153517279914e+17
19283.0	4.8132769986205005e+17
19284.0	4.8123822801769805e+17
19285.0	4.811466795734357e+17
19286.0	4.810659676727977e+17
19287.0	4.809773659368106e+17
19288.0	4.805768380066472e+17
19289.0	4.80212158303436e+17
19290.0	4.8072059651795616e+17
19291.0	4.8061715519460704e+17
19292.0	4.8056580083548154e+17
19293.0	4.804820701544447e+17
19294.0	4.803955013976063e+17
19295.0	4.803137732870142e+17
19296.0	4.801376095130967e+17
19297.0	4.801268495854251e+17
19298.0	4.8005577130202445e+17
19299.0	4.7987242093772794e+17
19300.0	4.798872187218602e+17
19301.0	4.798047756921514e+17
19302.0	4.797184457310208e+17
19303.0	4.796261414032725e+17
19304.0	4.7954802186212685e+17
19305.0	4.794633708808874e+17
19306.0	4.793793406566398e+17
19307.0	4.792880058422612e+17
19308.0	4.7920465502535674e+17
19309.0	4.791073900243626e+17
19310.0	4.790165790086485e+17
19311.0	4.7894257491858765e+17
19312.0	4.7886010399675725e+17
19313.0	4.787559541855573e+17
19314.0	4.756428347320982e+17
19315.0	4.758347282645035e+17
19316.0	4.783837710123009e+17
19317.0	4.784366951596032e+17
19318.0	4.783593987506176e+17
19319.0	4.782791506001918e+17
19320.0	4.7816001307279334e+17
19321.0	4.780295496663039e+17
19322.0	4.780196563517439e+17
19323.0	4.779370858850987e+17
19324.0	4.7785404209124685e+17
19325.0	4.7776497303988896e+17
19326.0	4.776871910703103e+17
19327.0	4.7760373420741965e+17
19328.0	4.773536389049005e+17
19329.0	4.77438199009553e+17
19330.0	4.773507725175466e+17
19331.0	4.772630986315093e+17
19332.0	4.771855778971647e+17
19333.0	4.770993699203753e+17
19334.0	4.770130851878229e+17
19335.0	4.765906594256217e+17
19336.0	4.7684526814877005e+17
19337.0	4.7676312752837965e+17
19338.0	4.766527146426366e+17
19339.0	4.76593100230929e+17
19340.0	4.7647587174099616e+17
19341.0	4.7628548508221466e+17
19342.0	4.762684796261718e+17
19343.0	4.762514355126272e+17
19344.0	4.7603616908137837e+17
19345.0	4.758082079599274e+17
19346.0	4.758575542261076e+17
19347.0	4.7574837404631034e+17
19348.0	4.758326926289578e+17
19349.0	4.757460985664851e+17
19350.0	4.756038019099306e+17
19351.0	4.7557592586649594e+17
19352.0	4.753217840392871e+17
19353.0	4.7541442202391885e+17
19354.0	4.753309667688447e+17
19355.0	4.7523417712230406e+17
19356.0	4.7516184376333645e+17
19357.0	4.750775694305961e+17
19358.0	4.7499239052629325e+17
19359.0	4.748684389864787e+17
19360.0	4.746866194732372e+17
19361.0	4.7473643955595936e+17
19362.0	4.746556214695251e+17
19363.0	4.745713558749183e+17
19364.0	4.744867870321323e+17
19365.0	4.7440128467708576e+17
19366.0	4.743172316637866e+17
19367.0	4.742327595696127e+17
19368.0	4.741483508094293e+17
19369.0	4.7405844981787296e+17
19370.0	4.739755423389012e+17
19371.0	4.738871737363114e+17
19372.0	4.7380845350092806e+17
19373.0	4.737222106415102e+17
19374.0	4.7363872504763725e+17
19375.0	4.7355423554710176e+17
19376.0	4.7346960742481914e+17
19377.0	4.733832453772629e+17
19378.0	4.7329826136828576e+17
19379.0	4.7321338641121274e+17
19380.0	4.7312655676866554e+17
19381.0	4.730405229953024e+17
19382.0	4.7294614731052365e+17
19383.0	4.728599579284819e+17
19384.0	4.727802810422612e+17
19385.0	4.726974684943702e+17
19386.0	4.7261209567341216e+17
19387.0	4.725251069968384e+17
19388.0	4.724373023883263e+17
19389.0	4.723471548415998e+17
19390.0	4.722410590830591e+17
19391.0	4.713358127267831e+17
19392.0	4.719907918839806e+17
19393.0	4.719937654358014e+17
19394.0	4.7191191583020365e+17
19395.0	4.717756367415979e+17
19396.0	4.717261757612032e+17
19397.0	4.716494806056959e+17
19398.0	4.7151203997450234e+17
19399.0	4.713335494803454e+17
19400.0	4.713222168903679e+17
19401.0	4.712893787755861e+17
19402.0	4.7120170831489696e+17
19403.0	4.7110693088570016e+17
19404.0	4.710167295120725e+17
19405.0	4.7092110322565114e+17
19406.0	4.708287052251134e+17
19407.0	4.706723603764563e+17
19408.0	4.705482802113194e+17
19409.0	4.7052806436509005e+17
19410.0	4.7044474269859834e+17
19411.0	4.7034620892064416e+17
19412.0	4.7024510228671123e+17
19413.0	4.7008373741540685e+17
19414.0	4.7003786123673594e+17
19415.0	4.6993451267741e+17
19416.0	4.6980578550306125e+17
19417.0	4.697127480808789e+17
19418.0	4.696072857321471e+17
19419.0	4.694933422211071e+17
19420.0	4.693761233780734e+17
19421.0	4.6925335714856954e+17
19422.0	4.6912027894306125e+17
19423.0	4.689933823027882e+17
19424.0	4.688570951750996e+17
19425.0	4.6870857927447885e+17
19426.0	4.6855590807688525e+17
19427.0	4.6838927704719354e+17
19428.0	4.682141226325331e+17
19429.0	4.68016629354769e+17
19430.0	4.677634144687445e+17
19431.0	4.6744939580620806e+17
19432.0	4.673323513064107e+17
19433.0	4.670543267627007e+17
19434.0	4.667487496962047e+17
19435.0	4.663816226865151e+17
19436.0	4.659758567697065e+17
19437.0	4.6557616455461536e+17
19438.0	4.633640773003948e+17
19439.0	4.642717853635925e+17
19440.0	4.638029942270634e+17
19441.0	4.6298324470333446e+17
19442.0	4.6192283664165555e+17
19443.0	4.6061014482943994e+17
19444.0	4.590180318401876e+17
19445.0	4.570082834732373e+17
19446.0	4.542619171072682e+17
19447.0	4.505442082357247e+17
19448.0	4.450232635665069e+17
19449.0	4.359894486482943e+17
19450.0	4.1504837251454e+17
19451.0	3.9692628446412986e+17
19452.0	4.2829933004717984e+17
19453.0	4.4098309282856986e+17
19454.0	4.4764439234914963e+17
19455.0	4.519717437265236e+17
19456.0	4.549470796644352e+17
19457.0	4.570515712070995e+17
19458.0	4.4857473161845594e+17
19459.0	4.59398003696164e+17
19460.0	4.6098420061962234e+17
19461.0	4.6178837704212474e+17
19462.0	4.6240197456691194e+17
19463.0	4.628915754631166e+17
19464.0	4.6327178576527354e+17
19465.0	4.635666883280896e+17
19466.0	4.637865482212692e+17
19467.0	4.639730079629311e+17
19468.0	4.641175754156715e+17
19469.0	4.641019759602344e+17
19470.0	4.643426331699882e+17
19471.0	4.644203641088682e+17
19472.0	4.644662392389632e+17
19473.0	4.644947271614464e+17
19474.0	4.6439015267696614e+17
19475.0	4.6441187497738234e+17
19476.0	4.6450164028320416e+17
19477.0	4.644993060132181e+17
19478.0	4.644826114949119e+17
19479.0	4.643341234864125e+17
19480.0	4.644128728023039e+17
19481.0	4.6436930349083296e+17
19482.0	4.6433195433219405e+17
19483.0	4.6428626417090554e+17
19484.0	4.642340151667369e+17
19485.0	4.641738388581034e+17
19486.0	4.6399494696905414e+17
19487.0	4.6406459653270176e+17
19488.0	4.640033540319914e+17
19489.0	4.63898012619025e+17
19490.0	4.637164205069653e+17
19491.0	4.6380459078888096e+17
19492.0	4.637494716923904e+17
19493.0	4.636824736978259e+17
19494.0	4.636123290664959e+17
19495.0	4.6354088902437536e+17
19496.0	4.6341110684276045e+17
19497.0	4.633770462980779e+17
19498.0	4.6306422748610554e+17
19499.0	4.6192063106689664e+17
19500.0	4.6315240224194554e+17
19501.0	4.631078376920404e+17
19502.0	4.6303934372904954e+17
19503.0	4.629677523424598e+17
19504.0	4.628934206073514e+17
19505.0	4.628156291306837e+17
19506.0	4.627431693833557e+17
19507.0	4.6266297701717325e+17
19508.0	4.6258739020649805e+17
19509.0	4.6250012016203085e+17
19510.0	4.623344820639061e+17
19511.0	4.577281015371054e+17
19512.0	4.6192045903052774e+17
19513.0	4.617474079894181e+17
19514.0	4.617767110748839e+17
19515.0	4.6198919276789766e+17
19516.0	4.619501659575636e+17
19517.0	4.6188643742296736e+17
19518.0	4.617858575237118e+17
19519.0	4.617067717547348e+17
19520.0	4.615442382105257e+17
19521.0	4.6158921897519763e+17
19522.0	4.614896061426345e+17
19523.0	4.6140292742512634e+17
19524.0	4.612630072612183e+17
19525.0	4.6127255971867296e+17
19526.0	4.611981149470719e+17
19527.0	4.6111758438017696e+17
19528.0	4.6103108993242445e+17
19529.0	4.60946976870673e+17
19530.0	4.6088322086338554e+17
19531.0	4.608043685074259e+17
19532.0	4.6072527875386016e+17
19533.0	4.606459641856e+17
19534.0	4.605670686283093e+17
19535.0	4.6048545439307085e+17
19536.0	4.6040304282064205e+17
19537.0	4.60325925089007e+17
19538.0	4.601121352624812e+17
19539.0	4.601110575360683e+17
19540.0	4.6008524033665696e+17
19541.0	4.5998542722607776e+17
19542.0	4.599204559192063e+17
19543.0	4.5973109749405005e+17
19544.0	4.597616311184042e+17
19545.0	4.5961869622859085e+17
19546.0	4.595128245157887e+17
19547.0	4.5953105226192205e+17
19548.0	4.594555592638464e+17
19549.0	4.593646855432874e+17
19550.0	4.592973154440532e+17
19551.0	4.5921867937437005e+17
19552.0	4.5913870343427405e+17
19553.0	4.590566351656276e+17
19554.0	4.589749250206379e+17
19555.0	4.588855906795519e+17
19556.0	4.5881156128385696e+17
19557.0	4.587403892577621e+17
19558.0	4.5866203448606714e+17
19559.0	4.5858322162647034e+17
19560.0	4.5845840626974714e+17
19561.0	4.5842101006499834e+17
19562.0	4.5830202213444256e+17
19563.0	4.582657362318677e+17
19564.0	4.5818539147264e+17
19565.0	4.581062150367914e+17
19566.0	4.580236945522688e+17
19567.0	4.5794741519209805e+17
19568.0	4.57865758244864e+17
19569.0	4.577863116958378e+17
19570.0	4.577080873669973e+17
19571.0	4.576289945376084e+17
19572.0	4.5754616416392525e+17
19573.0	4.5745568358946125e+17
19574.0	4.573751470806357e+17
19575.0	4.5731223433816736e+17
19576.0	4.572252993486847e+17
19577.0	4.571301196857343e+17
19578.0	4.570694932583764e+17
19579.0	4.5699122579810976e+17
19580.0	4.569118448200361e+17
19581.0	4.568339579928574e+17
19582.0	4.5675686388913485e+17
19583.0	4.5667763369629005e+17
19584.0	4.5659735499735034e+17
19585.0	4.565037736438442e+17
19586.0	4.564206092637526e+17
19587.0	4.563543333885268e+17
19588.0	4.562284858135893e+17
19589.0	4.561940873478144e+17
19590.0	4.56103560286481e+17
19591.0	4.560414729131349e+17
19592.0	4.559632406850218e+17
19593.0	4.558714557519187e+17
19594.0	4.557624991285246e+17
19595.0	4.5572328014916256e+17
19596.0	4.556426538822314e+17
19597.0	4.5556486925626016e+17
19598.0	4.554121296216064e+17
19599.0	4.554062056565418e+17
19600.0	4.5532931008320845e+17
19601.0	4.55242503299618e+17
19602.0	4.5515772544068256e+17
19603.0	4.550451951304702e+17
19604.0	4.5500308774365856e+17
19605.0	4.548990702627499e+17
19606.0	4.54853693346065e+17
19607.0	4.547766620170923e+17
19608.0	4.54695527190801e+17
19609.0	4.546130847902379e+17
19610.0	4.54482589576943e+17
19611.0	4.543752460828672e+17
19612.0	4.543823120870057e+17
19613.0	4.5430143625898656e+17
19614.0	4.542192973862229e+17
19615.0	4.5414366912184314e+17
19616.0	4.5400163901330784e+17
19617.0	4.538950908291755e+17
19618.0	4.538222526857214e+17
19619.0	4.537153989465427e+17
19620.0	4.5364204825914e+17
19621.0	4.535441273389055e+17
19622.0	4.535911399642453e+17
19623.0	4.5350734406178125e+17
19624.0	4.5341642266596685e+17
19625.0	4.5335526957383674e+17
19626.0	4.532742959486293e+17
19627.0	4.5319334832810656e+17
19628.0	4.531016298747221e+17
19629.0	4.527168435869012e+17
19630.0	4.5281303617426765e+17
19631.0	4.5248138291008845e+17
19632.0	4.5276386145512096e+17
19633.0	4.527083237670911e+17
19634.0	4.526433158299647e+17
19635.0	4.525503425806334e+17
19636.0	4.5235109971886054e+17
19637.0	4.5223988739877523e+17
19638.0	4.52322390127411e+17
19639.0	4.5225302591624525e+17
19640.0	4.521484870134442e+17
19641.0	4.519111777670488e+17
19642.0	4.5200746500587514e+17
19643.0	4.5192966744746656e+17
19644.0	4.5185107674617165e+17
19645.0	4.517545593798654e+17
19646.0	4.515586405040124e+17
19647.0	4.5162521298643616e+17
19648.0	4.5154947629929805e+17
19649.0	4.514705794837162e+17
19650.0	4.5139308230737914e+17
19651.0	4.513143715091796e+17
19652.0	4.512359526345387e+17
19653.0	4.511575457136639e+17
19654.0	4.5107923756864845e+17
19655.0	4.509998637208916e+17
