# Flux units: erg / (cm m2 s)
# Wavelength units: Angstrom
wave	flux
19000.0	4.793047327965183e+17
19001.0	4.792153226783402e+17
19002.0	4.7912785976579405e+17
19003.0	4.7903940804607994e+17
19004.0	4.7895097240453114e+17
19005.0	4.788625870946302e+17
19006.0	4.787741778771968e+17
19007.0	4.7868577718818125e+17
19008.0	4.7859679488901114e+17
19009.0	4.785075244411561e+17
19010.0	4.784161279705087e+17
19011.0	4.783318801317887e+17
19012.0	4.782430445633534e+17
19013.0	4.781555570442239e+17
19014.0	4.7806721745223674e+17
19015.0	4.779787885215743e+17
19016.0	4.778898912269653e+17
19017.0	4.778021636538368e+17
19018.0	4.777139208104617e+17
19019.0	4.7762566985809914e+17
19020.0	4.7753734033244154e+17
19021.0	4.7744907686707194e+17
19022.0	4.773608626847743e+17
19023.0	4.7727260753810765e+17
19024.0	4.7718425256700576e+17
19025.0	4.770961149307561e+17
19026.0	4.77007614906641e+17
19027.0	4.7691895361153696e+17
19028.0	4.7683154312779085e+17
19029.0	4.767433502665387e+17
19030.0	4.7665519368601594e+17
19031.0	4.765670346588159e+17
19032.0	4.7647888457946445e+17
19033.0	4.763898771843753e+17
19034.0	4.763026307678206e+17
19035.0	4.762142851639977e+17
19036.0	4.760668216841557e+17
19037.0	4.76038279725056e+17
19038.0	4.7595027316080634e+17
19039.0	4.7586220179455994e+17
19040.0	4.7577416146616314e+17
19041.0	4.7568607849567565e+17
19042.0	4.755973445692074e+17
19043.0	4.75510095426355e+17
19044.0	4.754220771180543e+17
19045.0	4.753341110288383e+17
19046.0	4.752456058317482e+17
19047.0	4.751578235229524e+17
19048.0	4.7506827981619194e+17
19049.0	4.7498211657864525e+17
19050.0	4.748943702709589e+17
19051.0	4.747994141644117e+17
19052.0	4.7471647711559674e+17
19053.0	4.7463071743999994e+17
19054.0	4.7454279098695674e+17
19055.0	4.744525830422528e+17
19056.0	4.7436716897730554e+17
19057.0	4.7427934654300154e+17
19058.0	4.741913333377706e+17
19059.0	4.7410370237344403e+17
19060.0	4.7401574656027296e+17
19061.0	4.739281950780074e+17
19062.0	4.738403914481664e+17
19063.0	4.7375267149469e+17
19064.0	4.7366404256563194e+17
19065.0	4.7357654777637536e+17
19066.0	4.734895743391059e+17
19067.0	4.734018866817706e+17
19068.0	4.7331418721047885e+17
19069.0	4.732264892071934e+17
19070.0	4.731387580689066e+17
19071.0	4.7305123496809805e+17
19072.0	4.7296361959260154e+17
19073.0	4.7287597982023686e+17
19074.0	4.7278844805119994e+17
19075.0	4.7270087979171834e+17
19076.0	4.72613146206754e+17
19077.0	4.72525584867874e+17
19078.0	4.7243799479801165e+17
19079.0	4.723507621527551e+17
19080.0	4.722632729559039e+17
19081.0	4.721757963419647e+17
19082.0	4.720879393046527e+17
19083.0	4.720006954745855e+17
19084.0	4.719114088087551e+17
19085.0	4.7182603214301856e+17
19086.0	4.717359006744575e+17
19087.0	4.716497152070998e+17
19088.0	4.7156357699556685e+17
19089.0	4.7147441441122976e+17
19090.0	4.713891378495487e+17
19091.0	4.7130176043089914e+17
19092.0	4.7121418553043616e+17
19093.0	4.71127226982946e+17
19094.0	4.710397681248938e+17
19095.0	4.709524571160575e+17
19096.0	4.7086526816146765e+17
19097.0	4.7077813827665914e+17
19098.0	4.706909645613738e+17
19099.0	4.706037566625108e+17
19100.0	4.705165634437119e+17
19101.0	4.704292640391168e+17
19102.0	4.7034110836735994e+17
19103.0	4.702550785785855e+17
19104.0	4.70167942402321e+17
19105.0	4.700808248907093e+17
19106.0	4.6999346145307296e+17
19107.0	4.6990649179067725e+17
19108.0	4.698195594575872e+17
19109.0	4.6972879744532474e+17
19110.0	4.6964521761942176e+17
19111.0	4.6955843649099085e+17
19112.0	4.694714276118527e+17
19113.0	4.6938442984762016e+17
19114.0	4.692974457148757e+17
19115.0	4.692101565863253e+17
19116.0	4.6912351421945165e+17
19117.0	4.6903653484025165e+17
19118.0	4.6894862879948794e+17
19119.0	4.687851160251049e+17
19120.0	4.6877544298141005e+17
19121.0	4.686886363376298e+17
19122.0	4.686021372761429e+17
19123.0	4.685152848445439e+17
19124.0	4.684284579981994e+17
19125.0	4.6834163667435514e+17
19126.0	4.6825478640981325e+17
19127.0	4.6814975341800096e+17
19128.0	4.680811829788671e+17
19129.0	4.6799385770939725e+17
19130.0	4.6790762065210016e+17
19131.0	4.6782101994864634e+17
19132.0	4.677342833497429e+17
19133.0	4.67646957031697e+17
19134.0	4.6756096114687994e+17
19135.0	4.674742694270291e+17
19136.0	4.673876350992383e+17
19137.0	4.672994007842815e+17
19138.0	4.672141435863039e+17
19139.0	4.67127740993809e+17
19140.0	4.670411635687423e+17
19141.0	4.669545829979476e+17
19142.0	4.668679965551274e+17
19143.0	4.6678096306940576e+17
19144.0	4.666947516672681e+17
19145.0	4.66608399196706e+17
19146.0	4.665163915460608e+17
19147.0	4.6643407651252896e+17
19148.0	4.6634889082743443e+17
19149.0	4.6626242601943034e+17
19150.0	4.661759052174677e+17
19151.0	4.66089549041937e+17
19152.0	4.6600311177652896e+17
19153.0	4.659167177124521e+17
19154.0	4.658290507470164e+17
19155.0	4.657439256696149e+17
19156.0	4.6565753684841805e+17
19157.0	4.6557113614335994e+17
19158.0	4.654822179471359e+17
19159.0	4.653983517900798e+17
19160.0	4.653121517824682e+17
19161.0	4.6522588026197325e+17
19162.0	4.651338082287615e+17
19163.0	4.6505297902742176e+17
19164.0	4.649670890487806e+17
19165.0	4.6488070267426125e+17
19166.0	4.647931678294015e+17
19167.0	4.647078169586345e+17
19168.0	4.6462198269433165e+17
19169.0	4.645357234072234e+17
19170.0	4.6444977470832634e+17
19171.0	4.643632358708564e+17
19172.0	4.64277446136081e+17
19173.0	4.641912982077439e+17
19174.0	4.6410458216093005e+17
19175.0	4.6401905436043936e+17
19176.0	4.639329504722944e+17
19177.0	4.6384536746284365e+17
19178.0	4.6376057520346445e+17
19179.0	4.636742040682496e+17
19180.0	4.6358853631781536e+17
19181.0	4.6350131024363514e+17
19182.0	4.6341616034993485e+17
19183.0	4.6333050357459603e+17
19184.0	4.632443429934419e+17
19185.0	4.6315842861793274e+17
19186.0	4.6307247838112416e+17
19187.0	4.629864604063061e+17
19188.0	4.629005073732949e+17
19189.0	4.6281460362335565e+17
19190.0	4.6272862954891936e+17
19191.0	4.6264265023160314e+17
19192.0	4.6255678856451405e+17
19193.0	4.6247085398644045e+17
19194.0	4.6238495596871674e+17
19195.0	4.622990478846634e+17
19196.0	4.622130585709226e+17
19197.0	4.6212719949032096e+17
19198.0	4.620413810944682e+17
19199.0	4.6192187369936205e+17
19200.0	4.6184503432970234e+17
19201.0	4.617838512482987e+17
19202.0	4.6169805235595936e+17
19203.0	4.6161223836412576e+17
19204.0	4.615261756500649e+17
19205.0	4.6144059192552096e+17
19206.0	4.613547068402345e+17
19207.0	4.612684302166697e+17
19208.0	4.611811136154282e+17
19209.0	4.6109749177658016e+17
19210.0	4.6101172874554016e+17
19211.0	4.6092596844079776e+17
19212.0	4.6084021813247994e+17
19213.0	4.607536203650389e+17
19214.0	4.606673062024534e+17
19215.0	4.605828683617621e+17
19216.0	4.6049726618228045e+17
19217.0	4.6041156096273043e+17
19218.0	4.6031760778417485e+17
19219.0	4.6023882225745914e+17
19220.0	4.6015444865952416e+17
19221.0	4.600657159214421e+17
19222.0	4.599827872612352e+17
19223.0	4.598973334902102e+17
19224.0	4.598116305076223e+17
19225.0	4.5972458492832416e+17
19226.0	4.596403239474517e+17
19227.0	4.595546689197397e+17
19228.0	4.594689983731029e+17
19229.0	4.593833158726996e+17
19230.0	4.592976277798911e+17
19231.0	4.59212008263953e+17
19232.0	4.5912622237395616e+17
19233.0	4.5904045416994125e+17
19234.0	4.5895480948817914e+17
19235.0	4.588693666223445e+17
19236.0	4.587836971941887e+17
19237.0	4.5869788243339936e+17
19238.0	4.586119321965909e+17
19239.0	4.5852674930769914e+17
19240.0	4.584407913114282e+17
19241.0	4.5835531083666765e+17
19242.0	4.582696467212971e+17
19243.0	4.5818276814520314e+17
19244.0	4.580984384476502e+17
19245.0	4.580127667126272e+17
19246.0	4.579269452409513e+17
19247.0	4.5784139576989005e+17
19248.0	4.5775572697087994e+17
19249.0	4.576700241980074e+17
19250.0	4.5758426515155616e+17
19251.0	4.5749725473450656e+17
19252.0	4.57410635436305e+17
19253.0	4.573270784693587e+17
19254.0	4.572414384013311e+17
19255.0	4.571542600723114e+17
19256.0	4.5706944956770976e+17
19257.0	4.569842573814442e+17
19258.0	4.568984899463851e+17
19259.0	4.568121423691776e+17
19260.0	4.567256341501268e+17
19261.0	4.566411299695274e+17
19262.0	4.5655531751560525e+17
19263.0	4.564689073733632e+17
19264.0	4.5637824357771936e+17
19265.0	4.562955344893268e+17
19266.0	4.562092199073108e+17
19267.0	4.561260267263317e+17
19268.0	4.560401168247466e+17
19269.0	4.5595418581183123e+17
19270.0	4.5586815266761376e+17
19271.0	4.55778798543394e+17
19272.0	4.5569592042455046e+17
19273.0	4.555994263366314e+17
19274.0	4.5551629404296525e+17
19275.0	4.5543814619026765e+17
19276.0	4.553520612463957e+17
19277.0	4.55265942049041e+17
19278.0	4.5517979642757114e+17
19279.0	4.5509357279204685e+17
19280.0	4.5500666667335674e+17
19281.0	4.5492112412289696e+17
19282.0	4.548348987397461e+17
19283.0	4.547480609183062e+17
19284.0	4.5466213885323936e+17
19285.0	4.5457428824719354e+17
19286.0	4.544894356597417e+17
19287.0	4.544029759548074e+17
19288.0	4.5429679106730656e+17
19289.0	4.5419397630306976e+17
19290.0	4.541433342066687e+17
19291.0	4.540543582688597e+17
19292.0	4.53969973346304e+17
19293.0	4.5388320459106976e+17
19294.0	4.5379649287837e+17
19295.0	4.5370964617898656e+17
19296.0	4.5362274369535994e+17
19297.0	4.5353576571426125e+17
19298.0	4.534487596313258e+17
19299.0	4.533616760935765e+17
19300.0	4.532744983937023e+17
19301.0	4.531872361086976e+17
19302.0	4.530999492171092e+17
19303.0	4.530122888227497e+17
19304.0	4.5292483227156474e+17
19305.0	4.5283766645555194e+17
19306.0	4.527500898074623e+17
19307.0	4.526621749586601e+17
19308.0	4.525746234064896e+17
19309.0	4.5248541971797325e+17
19310.0	4.523972291635882e+17
19311.0	4.523105952552276e+17
19312.0	4.522226403508223e+17
19313.0	4.5213432382750714e+17
19314.0	4.519519987608235e+17
19315.0	4.5186813477082445e+17
19316.0	4.5186885311528954e+17
19317.0	4.5178027584607565e+17
19318.0	4.516914301414057e+17
19319.0	4.516024811869525e+17
19320.0	4.515133724994218e+17
19321.0	4.514241541308415e+17
19322.0	4.513339265428138e+17
19323.0	4.512447417286655e+17
19324.0	4.511555676099926e+17
19325.0	4.5106450004268365e+17
19326.0	4.509757230546943e+17
19327.0	4.50885410951441e+17
19328.0	4.507951774913876e+17
19329.0	4.5070466692765e+17
19330.0	4.5061357775967565e+17
19331.0	4.505228776833024e+17
19332.0	4.504318684867243e+17
19333.0	4.5034051871266125e+17
19334.0	4.502489304924159e+17
19335.0	4.501571438116863e+17
19336.0	4.500650677239808e+17
19337.0	4.4997273718183245e+17
19338.0	4.498781891111594e+17
19339.0	4.4978743772446714e+17
19340.0	4.496928907722751e+17
19341.0	4.4960013276064416e+17
19342.0	4.4950373493200205e+17
19343.0	4.4941326456367776e+17
19344.0	4.493189466204842e+17
19345.0	4.492053722081962e+17
19346.0	4.491184481938089e+17
19347.0	4.490332448227328e+17
19348.0	4.4893815065367885e+17
19349.0	4.4884199840153594e+17
19350.0	4.4874542874623994e+17
19351.0	4.4864845517946874e+17
19352.0	4.4855084114247674e+17
19353.0	4.4845309323728205e+17
19354.0	4.483547428203179e+17
19355.0	4.482550536514218e+17
19356.0	4.481564592657749e+17
19357.0	4.480565331886079e+17
19358.0	4.479559051247615e+17
19359.0	4.4785436116473165e+17
19360.0	4.477528702626475e+17
19361.0	4.4765050806381216e+17
19362.0	4.4754785177436154e+17
19363.0	4.4744411335447885e+17
19364.0	4.4733964309845325e+17
19365.0	4.4723447099555834e+17
19366.0	4.4712847597021856e+17
19367.0	4.4702165816224416e+17
19368.0	4.469139891901781e+17
19369.0	4.468049017044991e+17
19370.0	4.4669488168523085e+17
19371.0	4.465853983970644e+17
19372.0	4.4647387562857805e+17
19373.0	4.463612911419392e+17
19374.0	4.462475941860692e+17
19375.0	4.461326938843818e+17
19376.0	4.460166506348543e+17
19377.0	4.458992673751039e+17
19378.0	4.4578061449953274e+17
19379.0	4.456605571612672e+17
19380.0	4.4553904495875405e+17
19381.0	4.4541601672506016e+17
19382.0	4.4529074852331514e+17
19383.0	4.451640318885887e+17
19384.0	4.45037086244864e+17
19385.0	4.449073402041686e+17
19386.0	4.4477571937949005e+17
19387.0	4.446420892734806e+17
19388.0	4.4450640766347936e+17
19389.0	4.4436858807691936e+17
19390.0	4.4422852600572576e+17
19391.0	4.440343836972371e+17
19392.0	4.439382969461418e+17
19393.0	4.437944263770112e+17
19394.0	4.4364444491666765e+17
19395.0	4.434917858126506e+17
19396.0	4.4333623620403194e+17
19397.0	4.4317779832777376e+17
19398.0	4.430161339132585e+17
19399.0	4.428440632208042e+17
19400.0	4.426819442136404e+17
19401.0	4.4251116935140685e+17
19402.0	4.4233584975107405e+17
19403.0	4.42156699422993e+17
19404.0	4.419739498228394e+17
19405.0	4.4178766547298976e+17
19406.0	4.4159731180939936e+17
19407.0	4.414027505598464e+17
19408.0	4.4119577060529485e+17
19409.0	4.4100013141961376e+17
19410.0	4.40792485409587e+17
19411.0	4.4057982762571085e+17
19412.0	4.4033285071831034e+17
19413.0	4.4009003868487674e+17
19414.0	4.3986245449154554e+17
19415.0	4.396309564533417e+17
19416.0	4.393921853521918e+17
19417.0	4.3915035219940685e+17
19418.0	4.3890264618216096e+17
19419.0	4.386483913184597e+17
19420.0	4.3838807925063674e+17
19421.0	4.3812162637223245e+17
19422.0	4.37850365563153e+17
19423.0	4.374984424161279e+17
19424.0	4.371950756080297e+17
19425.0	4.3689872943568205e+17
19426.0	4.365929840377855e+17
19427.0	4.3616468673931955e+17
19428.0	4.3580891643685536e+17
19429.0	4.353627653843625e+17
19430.0	4.3491055789670406e+17
19431.0	4.3429308448549536e+17
19432.0	4.336271924483414e+17
19433.0	4.326879028139351e+17
19434.0	4.315011315575465e+17
19435.0	4.2965040638197805e+17
19436.0	4.272401725871451e+17
19437.0	4.2595238263739725e+17
19438.0	4.2463122804790605e+17
19439.0	4.2334002309584205e+17
19440.0	4.2180718876426234e+17
19441.0	4.201888598370985e+17
19442.0	4.1833812186890234e+17
19443.0	4.1616105810165766e+17
19444.0	4.1266953616097286e+17
19445.0	4.0526323289948256e+17
19446.0	3.9951346951345485e+17
19447.0	3.9370860702378643e+17
19448.0	3.863233772038841e+17
19449.0	3.681066337785181e+17
19450.0	3.206386315952108e+17
19451.0	3.019084524071578e+17
19452.0	3.495889225121817e+17
19453.0	3.786660400944476e+17
19454.0	3.9019783770166554e+17
19455.0	3.962442872782848e+17
19456.0	4.0148805779892915e+17
19457.0	4.0856664051548077e+17
19458.0	4.1345236266734976e+17
19459.0	4.161375394507435e+17
19460.0	4.1797534260483405e+17
19461.0	4.1954747113362765e+17
19462.0	4.209578037564757e+17
19463.0	4.2227348128399354e+17
19464.0	4.234064999481343e+17
19465.0	4.244085191737344e+17
19466.0	4.261494747299852e+17
19467.0	4.282314043424776e+17
19468.0	4.295470000111618e+17
19469.0	4.3041153428575597e+17
19470.0	4.31033139016499e+17
19471.0	4.3149197623077536e+17
19472.0	4.3182871564779514e+17
19473.0	4.3219034986687123e+17
19474.0	4.323837585216852e+17
19475.0	4.326267441993043e+17
19476.0	4.328314910365012e+17
19477.0	4.3297379475346765e+17
19478.0	4.331063303558485e+17
19479.0	4.3327984892204384e+17
19480.0	4.334311638914389e+17
19481.0	4.335394846583466e+17
19482.0	4.3364258072057165e+17
19483.0	4.337393515626495e+17
19484.0	4.338297116906836e+17
19485.0	4.339136572598953e+17
19486.0	4.3399248326164486e+17
19487.0	4.340660935764651e+17
19488.0	4.341339672018943e+17
19489.0	4.341949183382868e+17
19490.0	4.3425755502564685e+17
19491.0	4.3435684056268806e+17
19492.0	4.3440506715941536e+17
19493.0	4.3444855538100896e+17
19494.0	4.344874246952277e+17
19495.0	4.345217958281215e+17
19496.0	4.345473806630911e+17
19497.0	4.345772644499455e+17
19498.0	4.3458628388126714e+17
19499.0	4.3453710720477875e+17
19500.0	4.346325425105578e+17
19501.0	4.346434833525418e+17
19502.0	4.346507121655807e+17
19503.0	4.346545761681407e+17
19504.0	4.346551975542783e+17
19505.0	4.346525288584532e+17
19506.0	4.346467697295359e+17
19507.0	4.346380164967082e+17
19508.0	4.346267005441364e+17
19509.0	4.346125205110783e+17
19510.0	4.3459357910411936e+17
19511.0	4.344189743529983e+17
19512.0	4.3453808056292685e+17
19513.0	4.345047915604649e+17
19514.0	4.344857522864127e+17
19515.0	4.344724445287764e+17
19516.0	4.3444681138940576e+17
19517.0	4.344145229381631e+17
19518.0	4.3438145238903456e+17
19519.0	4.343459562739028e+17
19520.0	4.343086267585877e+17
19521.0	4.3427009138087245e+17
19522.0	4.3422982291674445e+17
19523.0	4.3418811664520525e+17
19524.0	4.341449981515093e+17
19525.0	4.34100414587426e+17
19526.0	4.340548176794966e+17
19527.0	4.3400788180991994e+17
19528.0	4.339597845375659e+17
19529.0	4.339105592770559e+17
19530.0	4.3386026908276045e+17
19531.0	4.338089554782889e+17
19532.0	4.337566660689919e+17
19533.0	4.337034340597759e+17
19534.0	4.3364931180953594e+17
19535.0	4.335943283987797e+17
19536.0	4.335384573334868e+17
19537.0	4.3348193782879565e+17
19538.0	4.3342284441954976e+17
19539.0	4.333613729797461e+17
19540.0	4.3330775285759994e+17
19541.0	4.332483675247957e+17
19542.0	4.3318831396945914e+17
19543.0	4.331276532886186e+17
19544.0	4.330664109976234e+17
19545.0	4.329988864081919e+17
19546.0	4.329335808152917e+17
19547.0	4.3287939257466874e+17
19548.0	4.328159320560981e+17
19549.0	4.327513896168105e+17
19550.0	4.326879321740629e+17
19551.0	4.326232406971732e+17
19552.0	4.3255809518687565e+17
19553.0	4.3249226887113376e+17
19554.0	4.324262655557631e+17
19555.0	4.323603446584661e+17
19556.0	4.322936907366399e+17
19557.0	4.322266512883711e+17
19558.0	4.3215932683714554e+17
19559.0	4.3209169158799354e+17
19560.0	4.320237644152832e+17
19561.0	4.31955517636608e+17
19562.0	4.318869920066218e+17
19563.0	4.318181927682047e+17
19564.0	4.317491349509461e+17
19565.0	4.3167982428706125e+17
19566.0	4.316100735707817e+17
19567.0	4.3154046231511034e+17
19568.0	4.3147047203416736e+17
19569.0	4.314001473273855e+17
19570.0	4.313298106668372e+17
19571.0	4.31259179356433e+17
19572.0	4.311883359540564e+17
19573.0	4.3111707186298874e+17
19574.0	4.310456749522943e+17
19575.0	4.309747829658965e+17
19576.0	4.3090325071899296e+17
19577.0	4.308313638436864e+17
19578.0	4.3075924607194445e+17
19579.0	4.3068772368165536e+17
19580.0	4.3061552971339085e+17
19581.0	4.305431495879338e+17
19582.0	4.3047090200248314e+17
19583.0	4.3039836417119565e+17
19584.0	4.3032557216508576e+17
19585.0	4.3025221686394874e+17
19586.0	4.301786918333097e+17
19587.0	4.30106790208034e+17
19588.0	4.300290434007038e+17
19589.0	4.299606436697428e+17
19590.0	4.2988645530992634e+17
19591.0	4.2981394613971616e+17
19592.0	4.297404183827796e+17
19593.0	4.2966685811998714e+17
19594.0	4.295911122053802e+17
19595.0	4.2951894647876256e+17
19596.0	4.294436625667412e+17
19597.0	4.2937146104872954e+17
19598.0	4.2929448781086714e+17
19599.0	4.292267152681642e+17
19600.0	4.291525988406613e+17
19601.0	4.290779930077867e+17
19602.0	4.290033288740863e+17
19603.0	4.289253529179476e+17
19604.0	4.288549274080596e+17
19605.0	4.2877828677850445e+17
19606.0	4.2870635299689805e+17
19607.0	4.286318232207359e+17
19608.0	4.285571625123838e+17
19609.0	4.2848228915281914e+17
19610.0	4.28407804465425e+17
19611.0	4.2833296850507085e+17
19612.0	4.282582472589312e+17
19613.0	4.28183397597184e+17
19614.0	4.2810850389524474e+17
19615.0	4.2803352777523194e+17
19616.0	4.279581571809279e+17
19617.0	4.2788346291814394e+17
19618.0	4.2780223749488634e+17
19619.0	4.2772601769383245e+17
19620.0	4.276515355929259e+17
19621.0	4.275832226840575e+17
19622.0	4.2750805278719994e+17
19623.0	4.2743285373992954e+17
19624.0	4.273576244936704e+17
19625.0	4.2728236630671354e+17
19626.0	4.2720708819681274e+17
19627.0	4.271317635301376e+17
19628.0	4.270555911946238e+17
19629.0	4.26980261634594e+17
19630.0	4.2690099760769696e+17
19631.0	4.267928748818432e+17
19632.0	4.267549053157375e+17
19633.0	4.2667947201658874e+17
19634.0	4.2660403934658554e+17
19635.0	4.2652858843136e+17
19636.0	4.264530808930304e+17
19637.0	4.263744907509759e+17
19638.0	4.263019511021567e+17
19639.0	4.2622655701975034e+17
19640.0	4.261490017523029e+17
19641.0	4.260644573063851e+17
19642.0	4.25999908156211e+17
19643.0	4.259243158929407e+17
19644.0	4.258483148248406e+17
19645.0	4.257703365618346e+17
19646.0	4.256975456043008e+17
19647.0	4.2562193488609274e+17
19648.0	4.255463115849728e+17
19649.0	4.2547065682657274e+17
19650.0	4.2539505114152954e+17
19651.0	4.2531940582031354e+17
19652.0	4.252437590310911e+17
19653.0	4.251680822525951e+17
19654.0	4.2509244699770874e+17
19655.0	4.2501673477734394e+17
