# Flux units: erg / (cm m2 s)
# Wavelength units: Angstrom
wave	flux
19000.0	7.310805320772266e+17
19001.0	7.309414060348755e+17
19002.0	7.308158213029887e+17
19003.0	7.306831523916458e+17
19004.0	7.305504444732755e+17
19005.0	7.304179190071293e+17
19006.0	7.302850953259688e+17
19007.0	7.301507468754943e+17
19008.0	7.300151474039466e+17
19009.0	7.29880773927458e+17
19010.0	7.29721978696499e+17
19011.0	7.296173818423977e+17
19012.0	7.294743433532755e+17
19013.0	7.293520852637012e+17
19014.0	7.292146426751657e+17
19015.0	7.290828892405757e+17
19016.0	7.289486105553577e+17
19017.0	7.288179184194899e+17
19018.0	7.286833641684991e+17
19019.0	7.28550012424465e+17
19020.0	7.284148459449002e+17
19021.0	7.282830256810664e+17
19022.0	7.281493147647999e+17
19023.0	7.280121782206463e+17
19024.0	7.278790757580799e+17
19025.0	7.27745855155951e+17
19026.0	7.27609589768738e+17
19027.0	7.274701732009302e+17
19028.0	7.274623603310592e+17
19029.0	7.274445657167187e+17
19030.0	7.27310994051345e+17
19031.0	7.271761980686335e+17
19032.0	7.270413158230697e+17
19033.0	7.269001312163155e+17
19034.0	7.267701339368105e+17
19035.0	7.266311135909203e+17
19036.0	7.259849385574397e+17
19037.0	7.263642240155647e+17
19038.0	7.262300939485181e+17
19039.0	7.261214732189693e+17
19040.0	7.259862734645929e+17
19041.0	7.258509668952745e+17
19042.0	7.257099984349866e+17
19043.0	7.255802507165693e+17
19044.0	7.254446424369833e+17
19045.0	7.253092786853204e+17
19046.0	7.251703936756394e+17
19047.0	7.250370736685055e+17
19048.0	7.248889511236948e+17
19049.0	7.247623821284691e+17
19050.0	7.24627895825203e+17
19051.0	7.24409672759159e+17
19052.0	7.243452318919338e+17
19053.0	7.24223727378978e+17
19054.0	7.240881069359104e+17
19055.0	7.239347029235028e+17
19056.0	7.2381492129082e+17
19057.0	7.236799059460093e+17
19058.0	7.235437826058922e+17
19059.0	7.234085237118292e+17
19060.0	7.23271057355571e+17
19061.0	7.231365802797738e+17
19062.0	7.23000183750656e+17
19063.0	7.228641873581395e+17
19064.0	7.227206294743721e+17
19065.0	7.225796322131968e+17
19066.0	7.2245156263581e+17
19067.0	7.223196415688704e+17
19068.0	7.221834172858368e+17
19069.0	7.220472131354624e+17
19070.0	7.219092633157632e+17
19071.0	7.217746247592617e+17
19072.0	7.216382778627411e+17
19073.0	7.215015673200637e+17
19074.0	7.213655203162794e+17
19075.0	7.21229088694818e+17
19076.0	7.210912666615807e+17
19077.0	7.209553014467241e+17
19078.0	7.208179588224339e+17
19079.0	7.206830613375658e+17
19080.0	7.205455003298474e+17
19081.0	7.204071696673449e+17
19082.0	7.202704749232127e+17
19083.0	7.201287836445353e+17
19084.0	7.199835204965718e+17
19085.0	7.19863342502161e+17
19086.0	7.196997687006548e+17
19087.0	7.195765919186943e+17
19088.0	7.194461615073961e+17
19089.0	7.192964251342164e+17
19090.0	7.191768067997693e+17
19091.0	7.190409082743466e+17
19092.0	7.188997500917075e+17
19093.0	7.187692806733823e+17
19094.0	7.186322102594216e+17
19095.0	7.184952961531904e+17
19096.0	7.183578560812372e+17
19097.0	7.182219075037866e+17
19098.0	7.180851859161087e+17
19099.0	7.179482151867732e+17
19100.0	7.178100910238377e+17
19101.0	7.176741204961961e+17
19102.0	7.175309202467497e+17
19103.0	7.174002433501866e+17
19104.0	7.172631581163519e+17
19105.0	7.171259168544083e+17
19106.0	7.169863982252032e+17
19107.0	7.168505554840233e+17
19108.0	7.167139317634387e+17
19109.0	7.165346335162368e+17
19110.0	7.16436797600563e+17
19111.0	7.163029745565696e+17
19112.0	7.16166002708753e+17
19113.0	7.160288382025727e+17
19114.0	7.158915805828436e+17
19115.0	7.157509320081407e+17
19116.0	7.156153728019113e+17
19117.0	7.154781039973716e+17
19118.0	7.153345827438591e+17
19119.0	7.149714440978428e+17
19120.0	7.150618741309439e+17
19121.0	7.149267972696745e+17
19122.0	7.147928450411177e+17
19123.0	7.146553788246697e+17
19124.0	7.14514906550545e+17
19125.0	7.14380076454161e+17
19126.0	7.142418430995113e+17
19127.0	7.139911843621545e+17
19128.0	7.139572060258304e+17
19129.0	7.138241724896595e+17
19130.0	7.136914342324905e+17
19131.0	7.135549064216575e+17
19132.0	7.134170913789267e+17
19133.0	7.132712060758698e+17
19134.0	7.131369901654015e+17
19135.0	7.130038916175187e+17
19136.0	7.128666095310164e+17
19137.0	7.127183285813247e+17
19138.0	7.124985930492588e+17
19139.0	7.122275846673748e+17
19140.0	7.120898378519892e+17
19141.0	7.119519333307731e+17
19142.0	7.11812271955422e+17
19143.0	7.116724745448105e+17
19144.0	7.11535384138001e+17
19145.0	7.113999622253226e+17
19146.0	7.11221975117551e+17
19147.0	7.111181110083581e+17
19148.0	7.109853864525823e+17
19149.0	7.108472916497748e+17
19150.0	7.107087472175785e+17
19151.0	7.105710250087764e+17
19152.0	7.104324984722772e+17
19153.0	7.102929195849046e+17
19154.0	7.101476908302336e+17
19155.0	7.100174755867306e+17
19156.0	7.098786968327508e+17
19157.0	7.097379407440556e+17
19158.0	7.095753948266493e+17
19159.0	7.094609999385939e+17
19160.0	7.093240992541353e+17
19161.0	7.091843320425129e+17
19162.0	7.089813260511914e+17
19163.0	7.089041407912617e+17
19164.0	7.087701779371348e+17
19165.0	7.086305133461504e+17
19166.0	7.084844859959977e+17
19167.0	7.083478571024381e+17
19168.0	7.082137850565972e+17
19169.0	7.080746134361428e+17
19170.0	7.079372450867881e+17
19171.0	7.077950893588477e+17
19172.0	7.076590589924692e+17
19173.0	7.075202366177279e+17
19174.0	7.073775877794474e+17
19175.0	7.072421023929684e+17
19176.0	7.071028454883327e+17
19177.0	7.069531208592042e+17
19178.0	7.068218897552726e+17
19179.0	7.066798717403135e+17
19180.0	7.065443200838314e+17
19181.0	7.063983282454527e+17
19182.0	7.062648533286911e+17
19183.0	7.061263376973823e+17
19184.0	7.059856473194493e+17
19185.0	7.058464661919059e+17
19186.0	7.05706868150545e+17
19187.0	7.055618005969577e+17
19188.0	7.054268396382889e+17
19189.0	7.052866735483561e+17
19190.0	7.051461062033407e+17
19191.0	7.050038078690644e+17
19192.0	7.048662528731817e+17
19193.0	7.04725453443345e+17
19194.0	7.045841364363945e+17
19195.0	7.044441687370408e+17
19196.0	7.043019979096063e+17
19197.0	7.041593360689834e+17
19198.0	7.040095086794068e+17
19199.0	7.0347378945338e+17
19200.0	7.034404195008512e+17
19201.0	7.035885511333204e+17
19202.0	7.03455929967138e+17
19203.0	7.033158920131923e+17
19204.0	7.031749407495508e+17
19205.0	7.030348775598761e+17
19206.0	7.028937576153087e+17
19207.0	7.027466903573844e+17
19208.0	7.025981819366057e+17
19209.0	7.024693477375997e+17
19210.0	7.023286000375124e+17
19211.0	7.021867238599337e+17
19212.0	7.018647114831187e+17
19213.0	7.016111786688511e+17
19214.0	7.014659076915199e+17
19215.0	7.013318053068799e+17
19216.0	7.011906281799679e+17
19217.0	7.010475011211263e+17
19218.0	7.008518640325972e+17
19219.0	7.007503127325353e+17
19220.0	7.006167436536489e+17
19221.0	7.004544638648319e+17
19222.0	7.003307494430036e+17
19223.0	7.001877552037887e+17
19224.0	7.000408255889407e+17
19225.0	6.998909138239487e+17
19226.0	6.997544054467241e+17
19227.0	6.996099742389587e+17
19228.0	6.994676231962623e+17
19229.0	6.993230053419689e+17
19230.0	6.991780553687039e+17
19231.0	6.990324605211987e+17
19232.0	6.988877395569321e+17
19233.0	6.987382918217725e+17
19234.0	6.98596257309218e+17
19235.0	6.984506825244672e+17
19236.0	6.983064657155412e+17
19237.0	6.981595368696489e+17
19238.0	6.980079504588799e+17
19239.0	6.978683011071999e+17
19240.0	6.977197971603455e+17
19241.0	6.975729245880319e+17
19242.0	6.97427132817954e+17
19243.0	6.972695384861353e+17
19244.0	6.969983833036116e+17
19245.0	6.966335068176383e+17
19246.0	6.964838377630377e+17
19247.0	6.963358522321578e+17
19248.0	6.961867943575551e+17
19249.0	6.960372388287828e+17
19250.0	6.958863092460201e+17
19251.0	6.957302415010473e+17
19252.0	6.955675958291113e+17
19253.0	6.954355716521983e+17
19254.0	6.952861559335593e+17
19255.0	6.95122356478498e+17
19256.0	6.949821403365375e+17
19257.0	6.948326175233364e+17
19258.0	6.946806821464746e+17
19259.0	6.9452340147869e+17
19260.0	6.943667109494783e+17
19261.0	6.94223140622609e+17
19262.0	6.940666199627091e+17
19263.0	6.939123237519359e+17
19264.0	6.935156900932269e+17
19265.0	6.931647958788777e+17
19266.0	6.930101296605865e+17
19267.0	6.928651206175401e+17
19268.0	6.927084258940244e+17
19269.0	6.925512884617215e+17
19270.0	6.923933690014377e+17
19271.0	6.922146241227433e+17
19272.0	6.920746887894355e+17
19273.0	6.918494648008701e+17
19274.0	6.917077361229823e+17
19275.0	6.915992504500223e+17
19276.0	6.914379316461567e+17
19277.0	6.912775426495827e+17
19278.0	6.91037854184243e+17
19279.0	6.906954407127722e+17
19280.0	6.905282012293802e+17
19281.0	6.903676243978921e+17
19282.0	6.902039525894826e+17
19283.0	6.900338668513961e+17
19284.0	6.898679269730985e+17
19285.0	6.896949612161706e+17
19286.0	6.895369057206271e+17
19287.0	6.893714918779562e+17
19288.0	6.890684314637651e+17
19289.0	6.887053221778769e+17
19290.0	6.888645993343657e+17
19291.0	6.886775070916607e+17
19292.0	6.885239800463359e+17
19293.0	6.88351811346978e+17
19294.0	6.881789822544553e+17
19295.0	6.880065035261267e+17
19296.0	6.878324520736084e+17
19297.0	6.876574766159188e+17
19298.0	6.874807121477631e+17
19299.0	6.8730546042525e+17
19300.0	6.871279999822505e+17
19301.0	6.869494547524265e+17
19302.0	6.867701282635775e+17
19303.0	6.865870017353044e+17
19304.0	6.864097477918719e+17
19305.0	6.862298559807487e+17
19306.0	6.860485297176575e+17
19307.0	6.858627779046057e+17
19308.0	6.856802745100969e+17
19309.0	6.854846758693546e+17
19310.0	6.85292499570961e+17
19311.0	6.851214052425727e+17
19312.0	6.84936747164194e+17
19313.0	6.847484058577577e+17
19314.0	6.841981316978004e+17
19315.0	6.840332616466436e+17
19316.0	6.841733662900224e+17
19317.0	6.839812096349524e+17
19318.0	6.837860987218602e+17
19319.0	6.835914296786943e+17
19320.0	6.833941087868244e+17
19321.0	6.831955033893546e+17
19322.0	6.829896647049215e+17
19323.0	6.827886249334099e+17
19324.0	6.825906279197353e+17
19325.0	6.823764833249961e+17
19326.0	6.821766947842729e+17
19327.0	6.819637210294953e+17
19328.0	6.817560990668116e+17
19329.0	6.81545958564386e+17
19330.0	6.813316860433748e+17
19331.0	6.811176230278484e+17
19332.0	6.809052572374355e+17
19333.0	6.806866989765972e+17
19334.0	6.80465220641314e+17
19335.0	6.802425024697684e+17
19336.0	6.800179933304148e+17
19337.0	6.797919000723455e+17
19338.0	6.795514341927593e+17
19339.0	6.793361981003092e+17
19340.0	6.791014876446719e+17
19341.0	6.788722477498367e+17
19342.0	6.786167724834815e+17
19343.0	6.784051616677887e+17
19344.0	6.781685950928212e+17
19345.0	6.778111107181224e+17
19346.0	6.77641084678963e+17
19347.0	6.774473412487848e+17
19348.0	6.772099493746004e+17
19349.0	6.769649709132457e+17
19350.0	6.767200981483519e+17
19351.0	6.764737903023444e+17
19352.0	6.762231395341652e+17
19353.0	6.759787904980308e+17
19354.0	6.757284377351507e+17
19355.0	6.754704920237396e+17
19356.0	6.752227200161107e+17
19357.0	6.749620727534934e+17
19358.0	6.746956205741398e+17
19359.0	6.744239104851965e+17
19360.0	6.741545735334569e+17
19361.0	6.738818884086442e+17
19362.0	6.736088130038441e+17
19363.0	6.733307973380777e+17
19364.0	6.730502004277247e+17
19365.0	6.727670661032617e+17
19366.0	6.724812929324372e+17
19367.0	6.721929148192084e+17
19368.0	6.719020633249108e+17
19369.0	6.715938570589523e+17
19370.0	6.712756322784596e+17
19371.0	6.709798648501588e+17
19372.0	6.706811626673492e+17
19373.0	6.70374880678161e+17
19374.0	6.700679150873257e+17
19375.0	6.697563930143402e+17
19376.0	6.69441822241587e+17
19377.0	6.691227406346921e+17
19378.0	6.68800462758434e+17
19379.0	6.684744339860138e+17
19380.0	6.681447549807274e+17
19381.0	6.678112209906345e+17
19382.0	6.674687669043199e+17
19383.0	6.670740617865897e+17
19384.0	6.667225309467988e+17
19385.0	6.663720521083561e+17
19386.0	6.660182341844991e+17
19387.0	6.656593226978644e+17
19388.0	6.652952745869312e+17
19389.0	6.649257323571881e+17
19390.0	6.645125580412242e+17
19391.0	6.636547896683172e+17
19392.0	6.636624606309033e+17
19393.0	6.632732298488489e+17
19394.0	6.628693400442196e+17
19395.0	6.623931810534739e+17
19396.0	6.618721906152788e+17
19397.0	6.61442538836241e+17
19398.0	6.61001499451938e+17
19399.0	6.603050391175165e+17
19400.0	6.598470835459412e+17
19401.0	6.59307677876224e+17
19402.0	6.585723355048617e+17
19403.0	6.580623463765334e+17
19404.0	6.571471763668993e+17
19405.0	6.565771449379497e+17
19406.0	6.555485076804948e+17
19407.0	6.548002869084161e+17
19408.0	6.537209008794284e+17
19409.0	6.526647053669724e+17
19410.0	6.514348606357505e+17
19411.0	6.500096190098092e+17
19412.0	6.484087254548477e+17
19413.0	6.471281860586153e+17
19414.0	6.462538656339283e+17
19415.0	6.45358270091537e+17
19416.0	6.444262427546966e+17
19417.0	6.434779125776383e+17
19418.0	6.42500038562065e+17
19419.0	6.414757190609578e+17
19420.0	6.403962094398121e+17
19421.0	6.393113954222079e+17
19422.0	6.381819223430484e+17
19423.0	6.370019020286633e+17
19424.0	6.357538774362794e+17
19425.0	6.345230873788415e+17
19426.0	6.331424354686291e+17
19427.0	6.317865586829996e+17
19428.0	6.302171791010472e+17
19429.0	6.28584826867985e+17
19430.0	6.26751196626944e+17
19431.0	6.246122352454318e+17
19432.0	6.223225674880339e+17
19433.0	6.196051437071022e+17
19434.0	6.162537856193882e+17
19435.0	6.124982268592133e+17
19436.0	6.08608036113613e+17
19437.0	6.056402327262548e+17
19438.0	6.020264014555818e+17
19439.0	5.990575994044416e+17
19440.0	5.951792126885889e+17
19441.0	5.907949645987837e+17
19442.0	5.858256682833239e+17
19443.0	5.797965960577027e+17
19444.0	5.727208124099237e+17
19445.0	5.645044247691268e+17
19446.0	5.5473316200884896e+17
19447.0	5.4310979379746074e+17
19448.0	5.2862334634994406e+17
19449.0	5.091948431933438e+17
19450.0	4.813043386373451e+17
19451.0	4.6814602824690304e+17
19452.0	4.963906847331662e+17
19453.0	5.196658505678855e+17
19454.0	5.3600147171792154e+17
19455.0	5.4861688845544083e+17
19456.0	5.5897376728023066e+17
19457.0	5.677319330288977e+17
19458.0	5.745564732533425e+17
19459.0	5.814038506242049e+17
19460.0	5.866162699807398e+17
19461.0	5.910327960360275e+17
19462.0	5.949333832728577e+17
19463.0	5.983571281270099e+17
19464.0	6.013757608864425e+17
19465.0	6.041396819525632e+17
19466.0	6.073303117245102e+17
19467.0	6.110807310641829e+17
19468.0	6.143328524085928e+17
19469.0	6.170444528178513e+17
19470.0	6.194021433081855e+17
19471.0	6.213327697652396e+17
19472.0	6.230112379513512e+17
19473.0	6.245339967258623e+17
19474.0	6.258761705805139e+17
19475.0	6.270212929574226e+17
19476.0	6.282151990744406e+17
19477.0	6.292614631740756e+17
19478.0	6.302486950313983e+17
19479.0	6.312400835138899e+17
19480.0	6.321398038047401e+17
19481.0	6.330021422213801e+17
19482.0	6.338363902656511e+17
19483.0	6.346493536851284e+17
19484.0	6.354040414448297e+17
19485.0	6.361221919932415e+17
19486.0	6.368135528928596e+17
19487.0	6.374783455330303e+17
19488.0	6.38114549867042e+17
19489.0	6.38924002863786e+17
19490.0	6.400412951947941e+17
19491.0	6.413443371018917e+17
19492.0	6.424510463650474e+17
19493.0	6.434761592886615e+17
19494.0	6.44082585322564e+17
19495.0	6.448451499851775e+17
19496.0	6.453917449016664e+17
19497.0	6.459472145459882e+17
19498.0	6.464058867843073e+17
19499.0	6.462375825768443e+17
19500.0	6.472273611456511e+17
19501.0	6.476708922261504e+17
19502.0	6.478936447210835e+17
19503.0	6.482471157060948e+17
19504.0	6.48524051967727e+17
19505.0	6.487098364264445e+17
19506.0	6.488968533813929e+17
19507.0	6.492097848104275e+17
19508.0	6.493677402019156e+17
19509.0	6.495175885630121e+17
19510.0	6.496487246659583e+17
19511.0	6.491067423653883e+17
19512.0	6.499285640151037e+17
19513.0	6.499507674021884e+17
19514.0	6.501306337678675e+17
19515.0	6.503447393555796e+17
19516.0	6.504804794062163e+17
19517.0	6.505789095848617e+17
19518.0	6.506798922072063e+17
19519.0	6.508000008557908e+17
19520.0	6.509178711441408e+17
19521.0	6.510032488584532e+17
19522.0	6.510808807418537e+17
19523.0	6.511585298918057e+17
19524.0	6.51230481359394e+17
19525.0	6.512979346456576e+17
19526.0	6.513628944181929e+17
19527.0	6.514232754088617e+17
19528.0	6.514795988298409e+17
19529.0	6.515336719368191e+17
19530.0	6.515845513609215e+17
19531.0	6.516319987957759e+17
19532.0	6.516764089253887e+17
19533.0	6.517280129854122e+17
19534.0	6.517840240006484e+17
19535.0	6.518194070093824e+17
19536.0	6.518509373401769e+17
19537.0	6.518839472117076e+17
19538.0	6.519059007580842e+17
19539.0	6.519041076931242e+17
19540.0	6.519575880051369e+17
19541.0	6.519792696208042e+17
19542.0	6.519964580883113e+17
19543.0	6.520115431123625e+17
19544.0	6.520239838374569e+17
19545.0	6.520058308198397e+17
19546.0	6.519819834053971e+17
19547.0	6.520344505133737e+17
19548.0	6.520314765421225e+17
19549.0	6.520205719808681e+17
19550.0	6.520208532089514e+17
19551.0	6.52013414261282e+17
19552.0	6.520042346774528e+17
19553.0	6.519922305794045e+17
19554.0	6.519791627359572e+17
19555.0	6.519668538518185e+17
19556.0	6.519527353352191e+17
19557.0	6.519359051311785e+17
19558.0	6.519178875196756e+17
19559.0	6.518982505573033e+17
19560.0	6.518752735308457e+17
19561.0	6.518524579850921e+17
19562.0	6.51830048587776e+17
19563.0	6.518041514169684e+17
19564.0	6.517767413607082e+17
19565.0	6.517477822780756e+17
19566.0	6.517160550247082e+17
19567.0	6.516852234649597e+17
19568.0	6.516499820139859e+17
19569.0	6.516160549879805e+17
19570.0	6.515777786784425e+17
19571.0	6.515365748146175e+17
19572.0	6.514920921934505e+17
19573.0	6.514486946387283e+17
19574.0	6.51397881135104e+17
19575.0	6.513568007236266e+17
19576.0	6.51307997340194e+17
19577.0	6.512571640534356e+17
19578.0	6.512033918178643e+17
19579.0	6.511510429193556e+17
19580.0	6.510966753722368e+17
19581.0	6.510412592491178e+17
19582.0	6.509851326109012e+17
19583.0	6.509315505870164e+17
19584.0	6.508754345743699e+17
19585.0	6.508074467939668e+17
19586.0	6.50743323435554e+17
19587.0	6.506870523035648e+17
19588.0	6.50596480782609e+17
19589.0	6.505582494220287e+17
19590.0	6.504878203469823e+17
19591.0	6.504254795677696e+17
19592.0	6.503567568054953e+17
19593.0	6.502858211284308e+17
19594.0	6.502009802850301e+17
19595.0	6.50142960198178e+17
19596.0	6.500484660942164e+17
19597.0	6.49997700964898e+17
19598.0	6.499042121657001e+17
19599.0	6.49849537176098e+17
19600.0	6.497736991965183e+17
19601.0	6.496931092103168e+17
19602.0	6.496170748674048e+17
19603.0	6.495121967153151e+17
19604.0	6.494600840959316e+17
19605.0	6.493653535031295e+17
19606.0	6.49304613130513e+17
19607.0	6.492240009145001e+17
19608.0	6.491418021330943e+17
19609.0	6.490565639492948e+17
19610.0	6.489769968140287e+17
19611.0	6.488929154891775e+17
19612.0	6.488089128075264e+17
19613.0	6.487231195075923e+17
19614.0	6.486353683764563e+17
19615.0	6.485517012391252e+17
19616.0	6.484610456223743e+17
19617.0	6.483771294831956e+17
19618.0	6.482537258592937e+17
19619.0	6.481557548870312e+17
19620.0	6.480695458616659e+17
19621.0	6.480212229357567e+17
19622.0	6.47931105448209e+17
19623.0	6.478402885604691e+17
19624.0	6.477489176051711e+17
19625.0	6.476570080313343e+17
19626.0	6.476127886027434e+17
19627.0	6.476949234210134e+17
19628.0	6.475909547338409e+17
19629.0	6.474981098302121e+17
19630.0	6.473714330413737e+17
19631.0	6.468856560222208e+17
19632.0	6.472146401711444e+17
19633.0	6.471188518447785e+17
19634.0	6.470254102315007e+17
19635.0	6.469257292414975e+17
19636.0	6.468309612494847e+17
19637.0	6.467072579425622e+17
19638.0	6.466342072877055e+17
19639.0	6.465352201054889e+17
19640.0	6.46431732924416e+17
19641.0	6.462916300286634e+17
19642.0	6.463546390304086e+17
19643.0	6.465224831926271e+17
19644.0	6.464277628758697e+17
19645.0	6.463128039937363e+17
19646.0	6.462280480150868e+17
19647.0	6.46125685187106e+17
19648.0	6.460229884925268e+17
19649.0	6.459198574078633e+17
19650.0	6.458168219533311e+17
19651.0	6.457133674878292e+17
19652.0	6.456096626223785e+17
19653.0	6.455056006119423e+17
19654.0	6.454015442638164e+17
19655.0	6.452968335343615e+17
19656.0	6.451920566747135e+17
19657.0	6.450876642230272e+17
19658.0	6.449826048070998e+17
19659.0	6.448772313776127e+17
19660.0	6.447718573189802e+17
19661.0	6.446661772858708e+17
19662.0	6.445602715293012e+17
19663.0	6.444512598906196e+17
19664.0	6.445216721185453e+17
19665.0	6.445353769369599e+17
