# Flux units: erg / (cm m2 s)
# Wavelength units: Angstrom
wave	flux
19000.0	7.036673635035817e+17
19001.0	7.035320488252755e+17
19002.0	7.034054587187199e+17
19003.0	7.032743488301736e+17
19004.0	7.031432683017555e+17
19005.0	7.030123316379647e+17
19006.0	7.028812433500842e+17
19007.0	7.027436492772692e+17
19008.0	7.026162997220691e+17
19009.0	7.024836523414867e+17
19010.0	7.023374145071785e+17
19011.0	7.022233453767337e+17
19012.0	7.020791059884713e+17
19013.0	7.019631334828713e+17
19014.0	7.018287283393876e+17
19015.0	7.016986387152895e+17
19016.0	7.015668557807615e+17
19017.0	7.014366734625449e+17
19018.0	7.013052735378772e+17
19019.0	7.011752741612201e+17
19020.0	7.010423856780627e+17
19021.0	7.009123134603263e+17
19022.0	7.007816066443946e+17
19023.0	7.006483095661225e+17
19024.0	7.005177119419049e+17
19025.0	7.003864448368637e+17
19026.0	7.002536426864639e+17
19027.0	7.001120173981696e+17
19028.0	6.99993437643298e+17
19029.0	6.998620396060671e+17
19030.0	6.997306793175722e+17
19031.0	6.995992676488532e+17
19032.0	6.994678571685203e+17
19033.0	6.99332481393186e+17
19034.0	6.992049770681684e+17
19035.0	6.990712755890857e+17
19036.0	6.980839724285951e+17
19037.0	6.988104174228819e+17
19038.0	6.986782094655487e+17
19039.0	6.985479373892265e+17
19040.0	6.984165158638932e+17
19041.0	6.982850289074175e+17
19042.0	6.981501181405865e+17
19043.0	6.980222777120084e+17
19044.0	6.978907366490111e+17
19045.0	6.977594082372266e+17
19046.0	6.976257748456787e+17
19047.0	6.974957150710441e+17
19048.0	6.973564645277696e+17
19049.0	6.972308021313535e+17
19050.0	6.971003699025235e+17
19051.0	6.968437570710184e+17
19052.0	6.96814038819362e+17
19053.0	6.967063234303316e+17
19054.0	6.965764874917204e+17
19055.0	6.964338968144553e+17
19056.0	6.963127858670249e+17
19057.0	6.961819084827306e+17
19058.0	6.960492842407252e+17
19059.0	6.959194329929043e+17
19060.0	6.957870836176211e+17
19061.0	6.956567244395859e+17
19062.0	6.955251288506365e+17
19063.0	6.953938195229353e+17
19064.0	6.952574093623295e+17
19065.0	6.951233197004116e+17
19066.0	6.949971354626729e+17
19067.0	6.948683003549012e+17
19068.0	6.947370497474559e+17
19069.0	6.946057349671593e+17
19070.0	6.94473948537378e+17
19071.0	6.943430586400767e+17
19072.0	6.942117226785449e+17
19073.0	6.940801581274452e+17
19074.0	6.939490738940586e+17
19075.0	6.938177623293951e+17
19076.0	6.936855494088019e+17
19077.0	6.935545546539007e+17
19078.0	6.934226186971817e+17
19079.0	6.932925634663764e+17
19080.0	6.931609000695123e+17
19081.0	6.930283246212436e+17
19082.0	6.928967720938153e+17
19083.0	6.927623279433044e+17
19084.0	6.926255882502144e+17
19085.0	6.925049137900201e+17
19086.0	6.923561965628074e+17
19087.0	6.922164501129898e+17
19088.0	6.921064966433449e+17
19089.0	6.919588783936852e+17
19090.0	6.918475582799872e+17
19091.0	6.917162158871892e+17
19092.0	6.915782911634089e+17
19093.0	6.914552618811391e+17
19094.0	6.913233232680276e+17
19095.0	6.911919784984575e+17
19096.0	6.910609634011817e+17
19097.0	6.909305654957395e+17
19098.0	6.907996395973289e+17
19099.0	6.906684895133693e+17
19100.0	6.905361023194451e+17
19101.0	6.904061538336767e+17
19102.0	6.902712294353578e+17
19103.0	6.901441476165631e+17
19104.0	6.900130623346004e+17
19105.0	6.898819288181417e+17
19106.0	6.89746163601681e+17
19107.0	6.896191169451348e+17
19108.0	6.894886366216192e+17
19109.0	6.892800972947453e+17
19110.0	6.892238789410815e+17
19111.0	6.890957228212223e+17
19112.0	6.889647797960701e+17
19113.0	6.888338020980052e+17
19114.0	6.887028176890538e+17
19115.0	6.885691146720595e+17
19116.0	6.884398335699625e+17
19117.0	6.883088026042368e+17
19118.0	6.881711015067647e+17
19119.0	6.879027834912764e+17
19120.0	6.879100268445693e+17
19121.0	6.877807971226964e+17
19122.0	6.876552549629951e+17
19123.0	6.875242404948649e+17
19124.0	6.873890480805203e+17
19125.0	6.872616862919338e+17
19126.0	6.871310577696767e+17
19127.0	6.869259035257513e+17
19128.0	6.868306074708649e+17
19129.0	6.867354546514602e+17
19130.0	6.866076905592148e+17
19131.0	6.864764981127849e+17
19132.0	6.863463026524159e+17
19133.0	6.861997275960662e+17
19134.0	6.860678151274495e+17
19135.0	6.859538005928617e+17
19136.0	6.858232839187113e+17
19137.0	6.856854632835753e+17
19138.0	6.855591350413993e+17
19139.0	6.854307749385556e+17
19140.0	6.853001532669951e+17
19141.0	6.851693774547625e+17
19142.0	6.850375525072896e+17
19143.0	6.849056766689279e+17
19144.0	6.847766024159232e+17
19145.0	6.846460345712639e+17
19146.0	6.844895015381674e+17
19147.0	6.843804914373972e+17
19148.0	6.842536623953235e+17
19149.0	6.841230572912639e+17
19150.0	6.839922363902633e+17
19151.0	6.838619332061865e+17
19152.0	6.837300442955775e+17
19153.0	6.835996860962131e+17
19154.0	6.834642420236287e+17
19155.0	6.833390894448639e+17
19156.0	6.832081569054717e+17
19157.0	6.830759452431699e+17
19158.0	6.828935652311039e+17
19159.0	6.828149388782249e+17
19160.0	6.826842215066281e+17
19161.0	6.825510702503252e+17
19162.0	6.82303955140608e+17
19163.0	6.822893256179711e+17
19164.0	6.821627562732202e+17
19165.0	6.820298625471827e+17
19166.0	6.818939786319188e+17
19167.0	6.817593791523497e+17
19168.0	6.816375712514047e+17
19169.0	6.815060053721087e+17
19170.0	6.813786067435519e+17
19171.0	6.812410587381759e+17
19172.0	6.811171281698815e+17
19173.0	6.809865091547136e+17
19174.0	6.808536944214015e+17
19175.0	6.807254931428692e+17
19176.0	6.805947884240893e+17
19177.0	6.804574481066666e+17
19178.0	6.803301605572607e+17
19179.0	6.801930096825684e+17
19180.0	6.800682626230953e+17
19181.0	6.799366292155049e+17
19182.0	6.798089968943103e+17
19183.0	6.796794154800468e+17
19184.0	6.795470352067241e+17
19185.0	6.794179913624233e+17
19186.0	6.792875059358378e+17
19187.0	6.79154030879266e+17
19188.0	6.790255033537876e+17
19189.0	6.788934641472852e+17
19190.0	6.787621752318633e+17
19191.0	6.78632323424802e+17
19192.0	6.785026159017983e+17
19193.0	6.783701190967295e+17
19194.0	6.782402633050793e+17
19195.0	6.781099115369812e+17
19196.0	6.779786168194387e+17
19197.0	6.778471803344212e+17
19198.0	6.777138855630164e+17
19199.0	6.768765584102738e+17
19200.0	6.769571449012225e+17
19201.0	6.773216836758185e+17
19202.0	6.771932199736659e+17
19203.0	6.770611578383017e+17
19204.0	6.769310414405631e+17
19205.0	6.768011987910655e+17
19206.0	6.76669663879714e+17
19207.0	6.765353603082921e+17
19208.0	6.763998707275091e+17
19209.0	6.762772610853546e+17
19210.0	6.761461609136127e+17
19211.0	6.760149932135764e+17
19212.0	6.758838642409471e+17
19213.0	6.757440694168233e+17
19214.0	6.756085381027155e+17
19215.0	6.754873215287295e+17
19216.0	6.753587200436905e+17
19217.0	6.752277567460692e+17
19218.0	6.750607984208553e+17
19219.0	6.749581807190013e+17
19220.0	6.748326776362324e+17
19221.0	6.746885164018346e+17
19222.0	6.745704443674623e+17
19223.0	6.744392610086911e+17
19224.0	6.743061507866624e+17
19225.0	6.741698872868861e+17
19226.0	6.740439832286548e+17
19227.0	6.739121623356756e+17
19228.0	6.7378145146525e+17
19229.0	6.736497132000595e+17
19230.0	6.735163295793151e+17
19231.0	6.733851423058601e+17
19232.0	6.732534763225087e+17
19233.0	6.731192051171327e+17
19234.0	6.729893725339647e+17
19235.0	6.728574030927188e+17
19236.0	6.727263107503443e+17
19237.0	6.72593487208994e+17
19238.0	6.724570648150015e+17
19239.0	6.72329818509585e+17
19240.0	6.721933040506196e+17
19241.0	6.720627460625748e+17
19242.0	6.719318985277437e+17
19243.0	6.717928387553961e+17
19244.0	6.716678149417642e+17
19245.0	6.715351924473855e+17
19246.0	6.714018156074323e+17
19247.0	6.712696798620329e+17
19248.0	6.711369342648319e+17
19249.0	6.710039590294868e+17
19250.0	6.708707361204906e+17
19251.0	6.707320211898365e+17
19252.0	6.705926374774099e+17
19253.0	6.704711086374911e+17
19254.0	6.703375788452521e+17
19255.0	6.7019696780957e+17
19256.0	6.700682763567101e+17
19257.0	6.699375912812543e+17
19258.0	6.698039982948351e+17
19259.0	6.696671448662015e+17
19260.0	6.695218644516863e+17
19261.0	6.694022865223679e+17
19262.0	6.692660486777514e+17
19263.0	6.691311943243091e+17
19264.0	6.689769895493631e+17
19265.0	6.688569278769834e+17
19266.0	6.687235081153193e+17
19267.0	6.685958869789353e+17
19268.0	6.684610498920447e+17
19269.0	6.68326081733154e+17
19270.0	6.681908684171946e+17
19271.0	6.680415490277375e+17
19272.0	6.679187370104148e+17
19273.0	6.676620971256488e+17
19274.0	6.675753823371261e+17
19275.0	6.675132348454228e+17
19276.0	6.673764211927722e+17
19277.0	6.672411679610195e+17
19278.0	6.67104850354722e+17
19279.0	6.669671035393364e+17
19280.0	6.668283508599465e+17
19281.0	6.666946378465279e+17
19282.0	6.665575740036436e+17
19283.0	6.664095132549119e+17
19284.0	6.662687930974207e+17
19285.0	6.661364971995133e+17
19286.0	6.660060500809044e+17
19287.0	6.658695526787753e+17
19288.0	6.65479384819302e+17
19289.0	6.650531674062839e+17
19290.0	6.654541570594132e+17
19291.0	6.653037869968042e+17
19292.0	6.651761151792468e+17
19293.0	6.650363553775615e+17
19294.0	6.64897028428049e+17
19295.0	6.647570760379049e+17
19296.0	6.646168428391081e+17
19297.0	6.644762099231401e+17
19298.0	6.643347385658025e+17
19299.0	6.641944291704831e+17
19300.0	6.640529256568148e+17
19301.0	6.639109764284415e+17
19302.0	6.637684005710506e+17
19303.0	6.636233966310739e+17
19304.0	6.634820985683967e+17
19305.0	6.633401129194836e+17
19306.0	6.631973624392362e+17
19307.0	6.630506516272468e+17
19308.0	6.629073425356116e+17
19309.0	6.62739669361186e+17
19310.0	6.625862629021012e+17
19311.0	6.624698556568916e+17
19312.0	6.623280519009618e+17
19313.0	6.621815795351551e+17
19314.0	6.614930402137431e+17
19315.0	6.613160210115249e+17
19316.0	6.616656236598614e+17
19317.0	6.615198318198783e+17
19318.0	6.613704683203242e+17
19319.0	6.612221487131304e+17
19320.0	6.610722856719699e+17
19321.0	6.609222932365311e+17
19322.0	6.607656657616895e+17
19323.0	6.606091183980543e+17
19324.0	6.604709326487552e+17
19325.0	6.602964926638761e+17
19326.0	6.601653373370368e+17
19327.0	6.60011267269154e+17
19328.0	6.598573674201087e+17
19329.0	6.597021701330259e+17
19330.0	6.595445137255082e+17
19331.0	6.593874942929578e+17
19332.0	6.592316804431871e+17
19333.0	6.590735922320723e+17
19334.0	6.589141848424447e+17
19335.0	6.587545407542611e+17
19336.0	6.585935951735465e+17
19337.0	6.584316804988927e+17
19338.0	6.582601353527296e+17
19339.0	6.581057816100863e+17
19340.0	6.579386329333759e+17
19341.0	6.577745095382355e+17
19342.0	6.575915239385769e+17
19343.0	6.574411576508415e+17
19344.0	6.572724882593108e+17
19345.0	6.570234570517161e+17
19346.0	6.568932254504275e+17
19347.0	6.567564043878397e+17
19348.0	6.56586092646673e+17
19349.0	6.564101441104554e+17
19350.0	6.562338596104874e+17
19351.0	6.560072646437546e+17
19352.0	6.557693144378025e+17
19353.0	6.555918871298047e+17
19354.0	6.554097531835731e+17
19355.0	6.552223311287636e+17
19356.0	6.550404124202323e+17
19357.0	6.548532588008788e+17
19358.0	6.546630891973289e+17
19359.0	6.544670742719146e+17
19360.0	6.542790669019817e+17
19361.0	6.540847122219008e+17
19362.0	6.538897952254634e+17
19363.0	6.53690991157794e+17
19364.0	6.534899733364733e+17
19365.0	6.532868137637203e+17
19366.0	6.530616676493993e+17
19367.0	6.527170129515859e+17
19368.0	6.52501180359202e+17
19369.0	6.522841205134676e+17
19370.0	6.520579456062804e+17
19371.0	6.518502977787219e+17
19372.0	6.51630499471906e+17
19373.0	6.514045760132435e+17
19374.0	6.511771723147946e+17
19375.0	6.509311607963645e+17
19376.0	6.505199357132799e+17
19377.0	6.502798188696916e+17
19378.0	6.500361129601705e+17
19379.0	6.497882834206719e+17
19380.0	6.495348358905855e+17
19381.0	6.492780167692287e+17
19382.0	6.487912628966742e+17
19383.0	6.485039631390035e+17
19384.0	6.482357801801044e+17
19385.0	6.479570635762345e+17
19386.0	6.475566833554771e+17
19387.0	6.470866518933501e+17
19388.0	6.467881311840938e+17
19389.0	6.464832652618408e+17
19390.0	6.458787138022054e+17
19391.0	6.447812478063946e+17
19392.0	6.451470222229501e+17
19393.0	6.444315237329578e+17
19394.0	6.440571628071594e+17
19395.0	6.434456661393409e+17
19396.0	6.428348495779156e+17
19397.0	6.421852483573074e+17
19398.0	6.414873870554452e+17
19399.0	6.408190819652948e+17
19400.0	6.403146839840084e+17
19401.0	6.39869246242816e+17
19402.0	6.394074054175401e+17
19403.0	6.389008009527295e+17
19404.0	6.383951708946432e+17
19405.0	6.378889330819071e+17
19406.0	6.373671966168403e+17
19407.0	6.368297697498452e+17
19408.0	6.36244300276258e+17
19409.0	6.356959676596223e+17
19410.0	6.351013663473663e+17
19411.0	6.344522772512767e+17
19412.0	6.337587467780095e+17
19413.0	6.330991371791017e+17
19414.0	6.324148875122003e+17
19415.0	6.316919793647615e+17
19416.0	6.308285846825641e+17
19417.0	6.300609281348948e+17
19418.0	6.292157878326611e+17
19419.0	6.28256853266705e+17
19420.0	6.27312254202675e+17
19421.0	6.262290050798932e+17
19422.0	6.250367956986534e+17
19423.0	6.237677699465219e+17
19424.0	6.22312272289246e+17
19425.0	6.206418369642495e+17
19426.0	6.186876550862162e+17
19427.0	6.162354879681879e+17
19428.0	6.133702548870492e+17
19429.0	6.113425085519187e+17
19430.0	6.095586113617919e+17
19431.0	6.075679802829482e+17
19432.0	6.056771440694611e+17
19433.0	6.035723957654868e+17
19434.0	6.012982035917482e+17
19435.0	5.98886299415347e+17
19436.0	5.9631241003008e+17
19437.0	5.935849817855316e+17
19438.0	5.895210125666984e+17
19439.0	5.865259259308716e+17
19440.0	5.816170467469989e+17
19441.0	5.750869126195882e+17
19442.0	5.6968960652520115e+17
19443.0	5.642921009217536e+17
19444.0	5.58030940099925e+17
19445.0	5.502484529283073e+17
19446.0	5.398909590088372e+17
19447.0	5.2820893031028e+17
19448.0	5.1394302880426746e+17
19449.0	4.936352214810624e+17
19450.0	4.619832860693795e+17
19451.0	4.5300026550080864e+17
19452.0	4.784159372694874e+17
19453.0	5.0478281825539514e+17
19454.0	5.2134029459892845e+17
19455.0	5.334846417141759e+17
19456.0	5.446822813586776e+17
19457.0	5.5335194414721664e+17
19458.0	5.5925044664074336e+17
19459.0	5.655196687750489e+17
19460.0	5.7048759732797395e+17
19461.0	5.76542976927335e+17
19462.0	5.820879571255295e+17
19463.0	5.861242742068564e+17
19464.0	5.893560823272786e+17
19465.0	5.921029112550743e+17
19466.0	5.945181890499922e+17
19467.0	5.967201213349885e+17
19468.0	5.988624395578025e+17
19469.0	6.00786503676723e+17
19470.0	6.026131488636927e+17
19471.0	6.043466540777471e+17
19472.0	6.059291061168809e+17
19473.0	6.074667098614441e+17
19474.0	6.097880715274926e+17
19475.0	6.122677693579264e+17
19476.0	6.141266008648371e+17
19477.0	6.157465531274586e+17
19478.0	6.170257441248595e+17
19479.0	6.181822104163668e+17
19480.0	6.191570350331218e+17
19481.0	6.199759684851027e+17
19482.0	6.208175280401065e+17
19483.0	6.214644951678975e+17
19484.0	6.221835328116051e+17
19485.0	6.227214469169151e+17
19486.0	6.232808954178218e+17
19487.0	6.238442522411007e+17
19488.0	6.242981797429247e+17
19489.0	6.24722197033779e+17
19490.0	6.250885371221332e+17
19491.0	6.256026244349951e+17
19492.0	6.259676231150249e+17
19493.0	6.263105497595903e+17
19494.0	6.266339290600788e+17
19495.0	6.269368959412905e+17
19496.0	6.272094836184403e+17
19497.0	6.274929766957055e+17
19498.0	6.276425605360297e+17
19499.0	6.269254091407356e+17
19500.0	6.282570376063657e+17
19501.0	6.284685400692052e+17
19502.0	6.286660262166527e+17
19503.0	6.290805878685699e+17
19504.0	6.293238690349055e+17
19505.0	6.299880142842538e+17
19506.0	6.301492318655828e+17
19507.0	6.30672052348518e+17
19508.0	6.308515867350356e+17
19509.0	6.311238592801448e+17
19510.0	6.314359760355327e+17
19511.0	6.303939472741713e+17
19512.0	6.3156106849594e+17
19513.0	6.316800297926651e+17
19514.0	6.318181473845244e+17
19515.0	6.320829889511423e+17
19516.0	6.323777445036032e+17
19517.0	6.324708602893652e+17
19518.0	6.325049785756329e+17
19519.0	6.325305220268031e+17
19520.0	6.325705112201896e+17
19521.0	6.327942413374803e+17
19522.0	6.328033927495679e+17
19523.0	6.328100416301737e+17
19524.0	6.3281166811136e+17
19525.0	6.328083608327508e+17
19526.0	6.328031148070228e+17
19527.0	6.329066595199657e+17
19528.0	6.329572538712064e+17
19529.0	6.329403909515946e+17
19530.0	6.329212394799104e+17
19531.0	6.328975858423124e+17
19532.0	6.328710242238463e+17
19533.0	6.328416727640745e+17
19534.0	6.328096239474004e+17
19535.0	6.327749973114879e+17
19536.0	6.32736379445794e+17
19537.0	6.328223162608298e+17
19538.0	6.327866830618623e+17
19539.0	6.327275225437524e+17
19540.0	6.327145056610985e+17
19541.0	6.326673117020159e+17
19542.0	6.32616820810274e+17
19543.0	6.325644099758761e+17
19544.0	6.32510147076642e+17
19545.0	6.324334702362623e+17
19546.0	6.323602134313642e+17
19547.0	6.323367926475433e+17
19548.0	6.322756336134825e+17
19549.0	6.322090410683049e+17
19550.0	6.321491837364905e+17
19551.0	6.320837683926356e+17
19552.0	6.320167973814271e+17
19553.0	6.319474847602003e+17
19554.0	6.319273587419817e+17
19555.0	6.319041761247231e+17
19556.0	6.318324981257556e+17
19557.0	6.317588084686847e+17
19558.0	6.316843481082538e+17
19559.0	6.316084561619625e+17
19560.0	6.315309003352745e+17
19561.0	6.314537224153769e+17
19562.0	6.313757238099967e+17
19563.0	6.312959932366847e+17
19564.0	6.312153868926976e+17
19565.0	6.311338442402474e+17
19566.0	6.310505654255615e+17
19567.0	6.309680201946452e+17
19568.0	6.308827564954963e+17
19569.0	6.307986971907412e+17
19570.0	6.307133445723476e+17
19571.0	6.306266302032554e+17
19572.0	6.305383811383295e+17
19573.0	6.30450688238114e+17
19574.0	6.303591945295187e+17
19575.0	6.302738289786879e+17
19576.0	6.301839795071658e+17
19577.0	6.300925204015785e+17
19578.0	6.300004177499475e+17
19579.0	6.299094270083072e+17
19580.0	6.298171251971412e+17
19581.0	6.297246412832767e+17
19582.0	6.296319006780074e+17
19583.0	6.295379486878378e+17
19584.0	6.294431117694292e+17
19585.0	6.293438647500797e+17
19586.0	6.292465831116799e+17
19587.0	6.291527667373396e+17
19588.0	6.290409293261482e+17
19589.0	6.289629123357353e+17
19590.0	6.288636833518932e+17
19591.0	6.28769563869184e+17
19592.0	6.286715215238484e+17
19593.0	6.285722822639615e+17
19594.0	6.28463944929553e+17
19595.0	6.283732219942228e+17
19596.0	6.281877325348864e+17
19597.0	6.28171833676049e+17
19598.0	6.280632372035583e+17
19599.0	6.279754437099519e+17
19600.0	6.278746363396095e+17
19601.0	6.277705266539178e+17
19602.0	6.276696666450601e+17
19603.0	6.275428585745065e+17
19604.0	6.274643832864768e+17
19605.0	6.273532684839593e+17
19606.0	6.272632543860052e+17
19607.0	6.272120673796095e+17
19608.0	6.271211451449344e+17
19609.0	6.270160268689405e+17
19610.0	6.269143408618154e+17
19611.0	6.268102356500477e+17
19612.0	6.267064104080724e+17
19613.0	6.266020950616745e+17
19614.0	6.264957166769492e+17
19615.0	6.263925383364605e+17
19616.0	6.262815172067328e+17
19617.0	6.261827268072788e+17
19618.0	6.260533997775529e+17
19619.0	6.259428660958547e+17
19620.0	6.258381793438377e+17
19621.0	6.257602952429567e+17
19622.0	6.256542663136596e+17
19623.0	6.255480612934995e+17
19624.0	6.254416916469075e+17
19625.0	6.253350804084052e+17
19626.0	6.252284272967679e+17
19627.0	6.251214287841962e+17
19628.0	6.249975844088489e+17
19629.0	6.249032301150205e+17
19630.0	6.247457335104852e+17
19631.0	6.239341160431617e+17
19632.0	6.245842453266431e+17
19633.0	6.244759458807807e+17
19634.0	6.243698571127465e+17
19635.0	6.242602564539732e+17
19636.0	6.241540691197951e+17
19637.0	6.240290056699904e+17
19638.0	6.239373613858815e+17
19639.0	6.238285804339199e+17
19640.0	6.237161294659583e+17
19641.0	6.235837612163072e+17
19642.0	6.235037932453887e+17
19643.0	6.233947844728148e+17
19644.0	6.232833984386388e+17
19645.0	6.231656878134612e+17
19646.0	6.230682959347712e+17
19647.0	6.229591932796927e+17
19648.0	6.228500138688511e+17
19649.0	6.227406343897087e+17
19650.0	6.226314136649727e+17
19651.0	6.225219953885183e+17
19652.0	6.224125011252564e+17
19653.0	6.223028543291391e+17
19654.0	6.221933037922985e+17
19655.0	6.220833931045546e+17
19656.0	6.219735329581737e+17
19657.0	6.21863991578897e+17
19658.0	6.217540973188438e+17
19659.0	6.216440701692585e+17
19660.0	6.215341239697407e+17
19661.0	6.214240480264191e+17
19662.0	6.213139151803732e+17
19663.0	6.212015088118441e+17
19664.0	6.210906741888339e+17
