# Flux units: erg / (cm m2 s)
# Wavelength units: Angstrom
wave	flux
19000.0	7.503849343767892e+17
19001.0	7.502653293243049e+17
19002.0	7.501728974897151e+17
19003.0	7.500361788380499e+17
19004.0	7.498994283096745e+17
19005.0	7.497628447145983e+17
19006.0	7.49625984295458e+17
19007.0	7.494885152828074e+17
19008.0	7.493482063069181e+17
19009.0	7.49209034826274e+17
19010.0	7.490487854301181e+17
19011.0	7.48938449789474e+17
19012.0	7.487960524696233e+17
19013.0	7.486649478938624e+17
19014.0	7.48523580834884e+17
19015.0	7.483878337238356e+17
19016.0	7.482498558022996e+17
19017.0	7.481150268243965e+17
19018.0	7.479767211879084e+17
19019.0	7.478391825498111e+17
19020.0	7.477001624835411e+17
19021.0	7.475643594484394e+17
19022.0	7.474266671590058e+17
19023.0	7.472856556371968e+17
19024.0	7.471486794552662e+17
19025.0	7.470118609791658e+17
19026.0	7.468722476985002e+17
19027.0	7.467330475567786e+17
19028.0	7.465969422521683e+17
19029.0	7.46458364964591e+17
19030.0	7.46321134887458e+17
19031.0	7.461827129289385e+17
19032.0	7.460442179895293e+17
19033.0	7.458996014634323e+17
19034.0	7.45765914734319e+17
19035.0	7.456349965254655e+17
19036.0	7.453210623781545e+17
19037.0	7.453735469623978e+17
19038.0	7.45234337173777e+17
19039.0	7.450973738543785e+17
19040.0	7.449585451881812e+17
19041.0	7.448196393467903e+17
19042.0	7.44675194507537e+17
19043.0	7.445416935860905e+17
19044.0	7.444025098021544e+17
19045.0	7.442635176979114e+17
19046.0	7.441212408943955e+17
19047.0	7.43983862898142e+17
19048.0	7.438334519410688e+17
19049.0	7.437024250997417e+17
19050.0	7.435644692682067e+17
19051.0	7.43393793671168e+17
19052.0	7.43282502148642e+17
19053.0	7.431494968541183e+17
19054.0	7.43082793439505e+17
19055.0	7.429356372623357e+17
19056.0	7.42811860275473e+17
19057.0	7.426732497130836e+17
19058.0	7.425335277999442e+17
19059.0	7.423946304869715e+17
19060.0	7.422537761117523e+17
19061.0	7.421155743541929e+17
19062.0	7.419756515338921e+17
19063.0	7.418360109902505e+17
19064.0	7.416894182479187e+17
19065.0	7.415445590114303e+17
19066.0	7.414127759370922e+17
19067.0	7.412772880340308e+17
19068.0	7.411375103366483e+17
19069.0	7.409977234117972e+17
19070.0	7.408563254547796e+17
19071.0	7.407180567281663e+17
19072.0	7.405781786471081e+17
19073.0	7.404379666994516e+17
19074.0	7.402983570538496e+17
19075.0	7.401583900535466e+17
19076.0	7.400171633639423e+17
19077.0	7.39877524218402e+17
19078.0	7.39736800006417e+17
19079.0	7.395982748680191e+17
19080.0	7.394572419552595e+17
19081.0	7.39315322786065e+17
19082.0	7.391754121292457e+17
19083.0	7.390299167566505e+17
19084.0	7.388814232955561e+17
19085.0	7.387575670363476e+17
19086.0	7.385911750819837e+17
19087.0	7.384727038896809e+17
19088.0	7.383312927905108e+17
19089.0	7.3818169147392e+17
19090.0	7.380540007819945e+17
19091.0	7.379144277666474e+17
19092.0	7.377717024522237e+17
19093.0	7.376356649555284e+17
19094.0	7.374952178472275e+17
19095.0	7.373548549046271e+17
19096.0	7.372137772526249e+17
19097.0	7.370742267467092e+17
19098.0	7.369340575809533e+17
19099.0	7.367936443067049e+17
19100.0	7.3665321383581e+17
19101.0	7.36512545128448e+17
19102.0	7.363663613307562e+17
19103.0	7.361888505561084e+17
19104.0	7.360110440830292e+17
19105.0	7.358704763185833e+17
19106.0	7.357291394585939e+17
19107.0	7.355884363579391e+17
19108.0	7.354484731325097e+17
19109.0	7.352932006974804e+17
19110.0	7.351658556162047e+17
19111.0	7.350271594900138e+17
19112.0	7.348867160167764e+17
19113.0	7.347461433589756e+17
19114.0	7.346054838790824e+17
19115.0	7.344623092148906e+17
19116.0	7.34322525086242e+17
19117.0	7.341819792719871e+17
19118.0	7.340363506603347e+17
19119.0	7.336901934929233e+17
19120.0	7.337581848384851e+17
19121.0	7.336191015780352e+17
19122.0	7.33479774069282e+17
19123.0	7.33338951291153e+17
19124.0	7.3319691873594e+17
19125.0	7.330569936786772e+17
19126.0	7.329146887733245e+17
19127.0	7.326677847769087e+17
19128.0	7.326308490368339e+17
19129.0	7.324875985955498e+17
19130.0	7.323516584067071e+17
19131.0	7.32211768861218e+17
19132.0	7.320705954392745e+17
19133.0	7.319235037145769e+17
19134.0	7.317875818408617e+17
19135.0	7.316476049140394e+17
19136.0	7.315068201642666e+17
19137.0	7.31356033257745e+17
19138.0	7.312237549759145e+17
19139.0	7.310836311086419e+17
19140.0	7.309426413972138e+17
19141.0	7.308014923022335e+17
19142.0	7.306586215852714e+17
19143.0	7.305158021786281e+17
19144.0	7.3037519023418e+17
19145.0	7.302365765959679e+17
19146.0	7.300561442089642e+17
19147.0	7.299488038606164e+17
19148.0	7.298125506368851e+17
19149.0	7.296712095825919e+17
19150.0	7.295294381927081e+17
19151.0	7.293884284884308e+17
19152.0	7.29246783766528e+17
19153.0	7.291039625423529e+17
19154.0	7.289561527528105e+17
19155.0	7.288221810906451e+17
19156.0	7.286804856176637e+17
19157.0	7.285377861681152e+17
19158.0	7.2838824343197e+17
19159.0	7.282539708983978e+17
19160.0	7.281137395171327e+17
19161.0	7.279717080804008e+17
19162.0	7.278066176185684e+17
19163.0	7.276860756983807e+17
19164.0	7.275348454539263e+17
19165.0	7.273485239844863e+17
19166.0	7.272000617010516e+17
19167.0	7.270629711544317e+17
19168.0	7.269222630206121e+17
19169.0	7.267803652423679e+17
19170.0	7.266392469056169e+17
19171.0	7.264962302268755e+17
19172.0	7.263551085346815e+17
19173.0	7.262130969509887e+17
19174.0	7.260675017539581e+17
19175.0	7.259287365615616e+17
19176.0	7.257865328787455e+17
19177.0	7.256341559115773e+17
19178.0	7.255009383852713e+17
19179.0	7.253578491450708e+17
19180.0	7.252165072519165e+17
19181.0	7.250676336470697e+17
19182.0	7.249307340810922e+17
19183.0	7.247577773419177e+17
19184.0	7.245459742173864e+17
19185.0	7.2440371754653e+17
19186.0	7.242612503216127e+17
19187.0	7.241133597218131e+17
19188.0	7.239755232881322e+17
19189.0	7.238329724567551e+17
19190.0	7.236898744085161e+17
19191.0	7.235446277581481e+17
19192.0	7.234038044207785e+17
19193.0	7.232604492617044e+17
19194.0	7.231162995616425e+17
19195.0	7.229735935410175e+17
19196.0	7.228290253892266e+17
19197.0	7.226844510857897e+17
19198.0	7.225351988751017e+17
19199.0	7.2224927121408e+17
19200.0	7.221407266810538e+17
19201.0	7.221055447192916e+17
19202.0	7.21967273476096e+17
19203.0	7.218249003433981e+17
19204.0	7.216800244695039e+17
19205.0	7.215370083500032e+17
19206.0	7.213932387936936e+17
19207.0	7.212433732359508e+17
19208.0	7.210931117359104e+17
19209.0	7.209607385229994e+17
19210.0	7.208173783307603e+17
19211.0	7.206729148967594e+17
19212.0	7.205283067592704e+17
19213.0	7.2037797213853e+17
19214.0	7.202317360518483e+17
19215.0	7.200933751903572e+17
19216.0	7.198941264565587e+17
19217.0	7.197413489333587e+17
19218.0	7.195470244522664e+17
19219.0	7.194398597054463e+17
19220.0	7.193046526809427e+17
19221.0	7.19140900901137e+17
19222.0	7.190075775385599e+17
19223.0	7.188631292040532e+17
19224.0	7.187142518243327e+17
19225.0	7.185631120370345e+17
19226.0	7.184240946271572e+17
19227.0	7.182778495926272e+17
19228.0	7.18133687030033e+17
19229.0	7.179872575859369e+17
19230.0	7.178405571898025e+17
19231.0	7.17693199126801e+17
19232.0	7.175467699623254e+17
19233.0	7.173956670849024e+17
19234.0	7.172520095165097e+17
19235.0	7.171046706074964e+17
19236.0	7.169588064157693e+17
19237.0	7.168103639853736e+17
19238.0	7.166577092154708e+17
19239.0	7.165159617331199e+17
19240.0	7.163664417860266e+17
19241.0	7.162177288230228e+17
19242.0	7.160703724377428e+17
19243.0	7.159114443871572e+17
19244.0	7.157744680654164e+17
19245.0	7.156256074629119e+17
19246.0	7.154756445973161e+17
19247.0	7.153272596288851e+17
19248.0	7.151779762405375e+17
19249.0	7.150282486753961e+17
19250.0	7.148771806106964e+17
19251.0	7.147213933947561e+17
19252.0	7.145088727646207e+17
19253.0	7.143375257993215e+17
19254.0	7.141881737641983e+17
19255.0	7.140243174064127e+17
19256.0	7.138845824909311e+17
19257.0	7.137350723305471e+17
19258.0	7.135834306248704e+17
19259.0	7.134264747360255e+17
19260.0	7.132757876539391e+17
19261.0	7.131271050297343e+17
19262.0	7.129710855891625e+17
19263.0	7.12817052291345e+17
19264.0	7.126357723753129e+17
19265.0	7.125027820404735e+17
19266.0	7.123506284898986e+17
19267.0	7.122071701509459e+17
19268.0	7.120528459082412e+17
19269.0	7.118981370478591e+17
19270.0	7.117424819524947e+17
19271.0	7.115674407840426e+17
19272.0	7.114291691214164e+17
19273.0	7.112183892672511e+17
19274.0	7.110726393004032e+17
19275.0	7.10962512536098e+17
19276.0	7.108044532656808e+17
19277.0	7.106473398108159e+17
19278.0	7.104898083236521e+17
19279.0	7.103311347275091e+17
19280.0	7.101691337900032e+17
19281.0	7.100132981997568e+17
19282.0	7.098550416572415e+17
19283.0	7.0969345469754e+17
19284.0	7.094714057271977e+17
19285.0	7.092316001708714e+17
19286.0	7.090778539032575e+17
19287.0	7.08918597578479e+17
19288.0	7.087033267432105e+17
19289.0	7.084689705664508e+17
19290.0	7.084304489600339e+17
19291.0	7.082497626778284e+17
19292.0	7.081030260708691e+17
19293.0	7.079378886328319e+17
19294.0	7.077721824471722e+17
19295.0	7.076071761510399e+17
19296.0	7.074409065305428e+17
19297.0	7.072739620465321e+17
19298.0	7.071053918502911e+17
19299.0	7.069385504063488e+17
19300.0	7.067696956964861e+17
19301.0	7.066000272916479e+17
19302.0	7.064293971329024e+17
19303.0	7.061020770041853e+17
19304.0	7.059006967250944e+17
19305.0	7.057289568933203e+17
19306.0	7.055561684855465e+17
19307.0	7.053791835368105e+17
19308.0	7.052054297400659e+17
19309.0	7.050267883208704e+17
19310.0	7.048468146509139e+17
19311.0	7.046744686024019e+17
19312.0	7.044981383845204e+17
19313.0	7.043195596002644e+17
19314.0	7.040071653217619e+17
19315.0	7.037576858129748e+17
19316.0	7.035276222267391e+17
19317.0	7.033439667967316e+17
19318.0	7.031585965255337e+17
19319.0	7.029738825231017e+17
19320.0	7.027866713019732e+17
19321.0	7.025983158747136e+17
19322.0	7.02403992232482e+17
19323.0	7.022160379204948e+17
19324.0	7.019344990393684e+17
19325.0	7.015089096534697e+17
19326.0	7.013161801962836e+17
19327.0	7.011186738462719e+17
19328.0	7.009216471149225e+17
19329.0	7.007225086214143e+17
19330.0	7.00519598400034e+17
19331.0	7.001503945108134e+17
19332.0	6.997139918596777e+17
19333.0	6.995072749578921e+17
19334.0	6.992987676475391e+17
19335.0	6.990888713934163e+17
19336.0	6.988770684086953e+17
19337.0	6.983985538269183e+17
19338.0	6.979205278815572e+17
19339.0	6.977147334470313e+17
19340.0	6.974898249400319e+17
19341.0	6.972690647394985e+17
19342.0	6.968048985920852e+17
19343.0	6.962316221000362e+17
19344.0	6.960004303159295e+17
19345.0	6.956557935138129e+17
19346.0	6.954833040900095e+17
19347.0	6.950755898490877e+17
19348.0	6.947149765935103e+17
19349.0	6.944690613343571e+17
19350.0	6.942209038701908e+17
19351.0	6.939700425479508e+17
19352.0	6.937139586880852e+17
19353.0	6.934635455971327e+17
19354.0	6.932064635628201e+17
19355.0	6.92940585373969e+17
19356.0	6.926838089646079e+17
19357.0	6.924184717710676e+17
19358.0	6.921495976607743e+17
19359.0	6.918754241172819e+17
19360.0	6.915631667129001e+17
19361.0	6.912718015561727e+17
19362.0	6.909928768449193e+17
19363.0	6.907084443833684e+17
19364.0	6.90420604539153e+17
19365.0	6.901292685328383e+17
19366.0	6.898344527222099e+17
19367.0	6.895360536477695e+17
19368.0	6.892340589363197e+17
19369.0	6.889252323327999e+17
19370.0	6.886137019411113e+17
19371.0	6.882467861845332e+17
19372.0	6.87890259718963e+17
19373.0	6.875638669508607e+17
19374.0	6.872339933997738e+17
19375.0	6.868989436581203e+17
19376.0	6.86560304501009e+17
19377.0	6.862173478671699e+17
19378.0	6.857539408887807e+17
19379.0	6.853645761686185e+17
19380.0	6.850063763155625e+17
19381.0	6.846437168687785e+17
19382.0	6.842713639660202e+17
19383.0	6.837577143986857e+17
19384.0	6.833025550297769e+17
19385.0	6.829164648726527e+17
19386.0	6.825263000890025e+17
19387.0	6.820267317089615e+17
19388.0	6.814240662181204e+17
19389.0	6.810030536567465e+17
19390.0	6.805645751746561e+17
19391.0	6.795926728693074e+17
19392.0	6.792779727022761e+17
19393.0	6.7866185999319e+17
19394.0	6.778443338700116e+17
19395.0	6.77340710926199e+17
19396.0	6.762393975652348e+17
19397.0	6.757004564146858e+17
19398.0	6.744651785917779e+17
19399.0	6.737160870821884e+17
19400.0	6.724307377979391e+17
19401.0	6.713172825560408e+17
19402.0	6.701695975991977e+17
19403.0	6.689625800878762e+17
19404.0	6.682441374061907e+17
19405.0	6.675071860998143e+17
19406.0	6.667546914717696e+17
19407.0	6.659841404349098e+17
19408.0	6.65159851975202e+17
19409.0	6.643850687457962e+17
19410.0	6.635512494292991e+17
19411.0	6.626962650256724e+17
19412.0	6.618226982475092e+17
19413.0	6.609068856005972e+17
19414.0	6.599833912956243e+17
19415.0	6.590540611059711e+17
19416.0	6.581000621173417e+17
19417.0	6.571389850309971e+17
19418.0	6.561325418632534e+17
19419.0	6.550266576895999e+17
19420.0	6.539470604774057e+17
19421.0	6.52829465387554e+17
19422.0	6.515688046854141e+17
19423.0	6.503420643682985e+17
19424.0	6.48998569377792e+17
19425.0	6.475637931900928e+17
19426.0	6.460083871416316e+17
19427.0	6.443633164506452e+17
19428.0	6.42454067731934e+17
19429.0	6.405127971799036e+17
19430.0	6.383949378311506e+17
19431.0	6.360202905387009e+17
19432.0	6.334165065312934e+17
19433.0	6.305405142914385e+17
19434.0	6.274219471361367e+17
19435.0	6.239988441503059e+17
19436.0	6.204833621082112e+17
19437.0	6.172784140309843e+17
19438.0	6.138250738182825e+17
19439.0	6.103157065121792e+17
19440.0	6.061707538814294e+17
19441.0	6.014429207112358e+17
19442.0	5.96196470799292e+17
19443.0	5.901294991922516e+17
19444.0	5.831660387259727e+17
19445.0	5.750946205619544e+17
19446.0	5.6561063204399776e+17
19447.0	5.5430238783406016e+17
19448.0	5.40357659494537e+17
19449.0	5.224398881554432e+17
19450.0	4.979200963029661e+17
19451.0	4.851686862487558e+17
19452.0	5.112557447326378e+17
19453.0	5.3194083179779475e+17
19454.0	5.473631233987919e+17
19455.0	5.5961614800650234e+17
19456.0	5.697100285913774e+17
19457.0	5.781885836503717e+17
19458.0	5.852401693097985e+17
19459.0	5.917182258402648e+17
19460.0	5.97105482032742e+17
19461.0	6.018215536055635e+17
19462.0	6.060009226676906e+17
19463.0	6.096990242166098e+17
19464.0	6.128965872429738e+17
19465.0	6.158284228657156e+17
19466.0	6.1897721235811e+17
19467.0	6.222993658565966e+17
19468.0	6.252841817604095e+17
19469.0	6.280092375668051e+17
19470.0	6.305220856381437e+17
19471.0	6.327480452033194e+17
19472.0	6.347043022831615e+17
19473.0	6.365703442180778e+17
19474.0	6.381843011425618e+17
19475.0	6.39609789952819e+17
19476.0	6.411081612962472e+17
19477.0	6.422541794366806e+17
19478.0	6.434655848191315e+17
19479.0	6.444536141534548e+17
19480.0	6.454654046393684e+17
19481.0	6.463925727352148e+17
19482.0	6.472409353814015e+17
19483.0	6.480816369216168e+17
19484.0	6.48895646470417e+17
19485.0	6.496220218392573e+17
19486.0	6.503283362714966e+17
19487.0	6.510171649998847e+17
19488.0	6.516863073430185e+17
19489.0	6.523553274221908e+17
19490.0	6.529334535083346e+17
19491.0	6.536045750736212e+17
19492.0	6.541987403879764e+17
19493.0	6.547649999492436e+17
19494.0	6.553079470795434e+17
19495.0	6.558316339658751e+17
19496.0	6.563192264196095e+17
19497.0	6.568227628209494e+17
19498.0	6.572781603564202e+17
19499.0	6.578167721142954e+17
19500.0	6.587480667761325e+17
19501.0	6.599912991664809e+17
19502.0	6.607082077115729e+17
19503.0	6.614804324155391e+17
19504.0	6.622094543202985e+17
19505.0	6.627578027354794e+17
19506.0	6.633553958447789e+17
19507.0	6.638445680831146e+17
19508.0	6.641904104680108e+17
19509.0	6.647631706412371e+17
19510.0	6.649567040765951e+17
19511.0	6.651179417905834e+17
19512.0	6.656726654779391e+17
19513.0	6.657942394066258e+17
19514.0	6.660322714714108e+17
19515.0	6.664375182731946e+17
19516.0	6.665969513878867e+17
19517.0	6.667244241158143e+17
19518.0	6.66853125005858e+17
19519.0	6.671560371514025e+17
19520.0	6.672892981586601e+17
19521.0	6.673969561556308e+17
19522.0	6.674963580846079e+17
19523.0	6.675949357629439e+17
19524.0	6.677859613540351e+17
19525.0	6.679143221559296e+17
19526.0	6.679960513850026e+17
19527.0	6.680731591901183e+17
19528.0	6.681455704233299e+17
19529.0	6.682145072349183e+17
19530.0	6.682767705593172e+17
19531.0	6.684019643820714e+17
19532.0	6.684746711739049e+17
19533.0	6.685218835879252e+17
19534.0	6.685651917340672e+17
19535.0	6.686045042464083e+17
19536.0	6.686391063456425e+17
19537.0	6.686741014511615e+17
19538.0	6.686969427918847e+17
19539.0	6.686983422913194e+17
19540.0	6.687492446442835e+17
19541.0	6.687699951244628e+17
19542.0	6.687973318503081e+17
19543.0	6.688461392183295e+17
19544.0	6.688550462423039e+17
19545.0	6.688342712254461e+17
19546.0	6.688141750566911e+17
19547.0	6.688653624825172e+17
19548.0	6.688634633715711e+17
19549.0	6.688524076755625e+17
19550.0	6.688520896075091e+17
19551.0	6.68843332739618e+17
19552.0	6.68831845589538e+17
19553.0	6.688162789195775e+17
19554.0	6.687966830613844e+17
19555.0	6.690193644628648e+17
19556.0	6.690698855535955e+17
19557.0	6.690423765816659e+17
19558.0	6.690133062800723e+17
19559.0	6.689832654864379e+17
19560.0	6.694836010745852e+17
19561.0	6.694497870151679e+17
19562.0	6.694124602960553e+17
19563.0	6.693714534946131e+17
19564.0	6.693287356268543e+17
19565.0	6.696185384053413e+17
19566.0	6.696916786085888e+17
19567.0	6.696549152544084e+17
19568.0	6.696013444852393e+17
19569.0	6.695493196666195e+17
19570.0	6.694949357617151e+17
19571.0	6.697098159674703e+17
19572.0	6.697413601394687e+17
19573.0	6.696812975663785e+17
19574.0	6.69613698458146e+17
19575.0	6.695564781551615e+17
19576.0	6.694919962536617e+17
19577.0	6.69425805103377e+17
19578.0	6.695483930050563e+17
19579.0	6.695762252879187e+17
19580.0	6.695055256802643e+17
19581.0	6.694339587604477e+17
19582.0	6.693617331251881e+17
19583.0	6.692874194255871e+17
19584.0	6.69211868336401e+17
19585.0	6.69128297947682e+17
19586.0	6.690490311944874e+17
19587.0	6.690260451502762e+17
19588.0	6.690933444356778e+17
19589.0	6.690382071638697e+17
19590.0	6.689527145955327e+17
19591.0	6.688749598889299e+17
19592.0	6.687912254330195e+17
19593.0	6.687054190608383e+17
19594.0	6.686058759236265e+17
19595.0	6.685335354343423e+17
19596.0	6.684396402769919e+17
19597.0	6.683596442042367e+17
19598.0	6.68252867989777e+17
19599.0	6.681831840328361e+17
19600.0	6.680934011808425e+17
19601.0	6.681487449522173e+17
19602.0	6.680698517716992e+17
19603.0	6.679560001159167e+17
19604.0	6.678849567850496e+17
19605.0	6.67776106627072e+17
19606.0	6.677012756299773e+17
19607.0	6.676070976367274e+17
19608.0	6.675116581366442e+17
19609.0	6.674134105500329e+17
19610.0	6.673208249942015e+17
19611.0	6.672240980525055e+17
19612.0	6.671275277680639e+17
19613.0	6.670293780485459e+17
19614.0	6.669294549073919e+17
19615.0	6.668338483341994e+17
19616.0	6.667336266984106e+17
19617.0	6.666355202501289e+17
19618.0	6.665014289803946e+17
19619.0	6.663922829142697e+17
19620.0	6.662955767343785e+17
19621.0	6.663040062368425e+17
19622.0	6.662465531499859e+17
19623.0	6.661447461371903e+17
19624.0	6.660425006099113e+17
19625.0	6.659398587209044e+17
19626.0	6.658368128505172e+17
19627.0	6.657331940382035e+17
19628.0	6.656259130392575e+17
19629.0	6.655185482940415e+17
19630.0	6.653999658827775e+17
19631.0	6.651566162793812e+17
19632.0	6.65208878076177e+17
19633.0	6.651036173336575e+17
19634.0	6.650008964519252e+17
19635.0	6.648924882337791e+17
19636.0	6.647891578497705e+17
19637.0	6.646567778560682e+17
19638.0	6.645755689304063e+17
19639.0	6.644723222926676e+17
19640.0	6.643814494808746e+17
19641.0	6.642361426422442e+17
19642.0	6.641718695471785e+17
19643.0	6.640631580109482e+17
19644.0	6.639512334281385e+17
19645.0	6.638307270896297e+17
19646.0	6.637384680603647e+17
19647.0	6.636296967553023e+17
19648.0	6.635206102482943e+17
19649.0	6.634111568794964e+17
19650.0	6.633018064109567e+17
19651.0	6.631920948128426e+17
19652.0	6.630821857329151e+17
19653.0	6.629719660647764e+17
19654.0	6.628617837259433e+17
19655.0	6.62751038022178e+17
19656.0	6.626402801549311e+17
19657.0	6.625661756811945e+17
19658.0	6.624921311161001e+17
19659.0	6.623808016351231e+17
19660.0	6.622695042405715e+17
19661.0	6.621579438631593e+17
19662.0	6.620461699257684e+17
19663.0	6.619316751433727e+17
19664.0	6.618217504746153e+17
19665.0	6.617101760462847e+17
