# Flux units: erg / (cm m2 s)
# Wavelength units: Angstrom
wave	flux
19000.0	6.262472297502035e+17
19001.0	6.261309758068051e+17
19002.0	6.260167265310035e+17
19003.0	6.259014645405012e+17
19004.0	6.25786226807057e+17
19005.0	6.256710235368105e+17
19006.0	6.255558036990633e+17
19007.0	6.254405702997334e+17
19008.0	6.253248716122793e+17
19009.0	6.25208847446835e+17
19010.0	6.250909180887039e+17
19011.0	6.249794976612351e+17
19012.0	6.248635278819327e+17
19013.0	6.247514688017748e+17
19014.0	6.246363597635583e+17
19015.0	6.245212425464489e+17
19016.0	6.244056682201087e+17
19017.0	6.242909970672298e+17
19018.0	6.24175990370031e+17
19019.0	6.240609533340329e+17
19020.0	6.239459063016106e+17
19021.0	6.23830877933841e+17
19022.0	6.237158687200596e+17
19023.0	6.236008571994111e+17
19024.0	6.234857620023978e+17
19025.0	6.233708286356138e+17
19026.0	6.232556429115391e+17
19027.0	6.231402873181524e+17
19028.0	6.230260286051668e+17
19029.0	6.229111345250303e+17
19030.0	6.227962398157481e+17
19031.0	6.226813451064659e+17
19032.0	6.225664541720576e+17
19033.0	6.224506390227625e+17
19034.0	6.223365508082346e+17
19035.0	6.222204180103165e+17
19036.0	6.220609641338195e+17
19037.0	6.219911843370324e+17
19038.0	6.218773843410943e+17
19039.0	6.217627721181865e+17
19040.0	6.216480766383444e+17
19041.0	6.21533377733154e+17
19042.0	6.214171942540628e+17
19043.0	6.213039933445459e+17
19044.0	6.211893028978687e+17
19045.0	6.210746426501802e+17
19046.0	6.20959543468578e+17
19047.0	6.208449806685524e+17
19048.0	6.207290157126996e+17
19049.0	6.206141693777236e+17
19050.0	6.205014013203795e+17
19051.0	6.203805137196372e+17
19052.0	6.202702348419072e+17
19053.0	6.201578987279699e+17
19054.0	6.200435017427626e+17
19055.0	6.199264949917011e+17
19056.0	6.198145992097792e+17
19057.0	6.197001591630505e+17
19058.0	6.195850235609087e+17
19059.0	6.194712791394985e+17
19060.0	6.19356759400994e+17
19061.0	6.192425541653843e+17
19062.0	6.191281535451133e+17
19063.0	6.190138120645289e+17
19064.0	6.18898611310865e+17
19065.0	6.187839591721641e+17
19066.0	6.186703644175018e+17
19067.0	6.185567137387859e+17
19068.0	6.184424745992192e+17
19069.0	6.183282555923113e+17
19070.0	6.18213978074863e+17
19071.0	6.180998672809983e+17
19072.0	6.179857017514665e+17
19073.0	6.178715182563327e+17
19074.0	6.177574276650324e+17
19075.0	6.176433140050601e+17
19076.0	6.175290710207146e+17
19077.0	6.174149670076415e+17
19078.0	6.173008579614035e+17
19079.0	6.171870621597695e+17
19080.0	6.170730496524287e+17
19081.0	6.169590402908159e+17
19082.0	6.168447464854868e+17
19083.0	6.167302403784703e+17
19084.0	6.166149352565418e+17
19085.0	6.1650322339485e+17
19086.0	6.163857294753791e+17
19087.0	6.162740752853673e+17
19088.0	6.161602445311999e+17
19089.0	6.160456431435776e+17
19090.0	6.159337785393151e+17
19091.0	6.158198254512809e+17
19092.0	6.157051790447956e+17
19093.0	6.155925882667008e+17
19094.0	6.15478881104691e+17
19095.0	6.153651669521748e+17
19096.0	6.152513498294953e+17
19097.0	6.151377579409405e+17
19098.0	6.150238484736682e+17
19099.0	6.149101514478932e+17
19100.0	6.147968769982463e+17
19101.0	6.146830155557546e+17
19102.0	6.145669619602771e+17
19103.0	6.144543765648724e+17
19104.0	6.143408368254976e+17
19105.0	6.14226638999825e+17
19106.0	6.141136376692735e+17
19107.0	6.139999676268544e+17
19108.0	6.138863951020031e+17
19109.0	6.137709825359872e+17
19110.0	6.136593452630015e+17
19111.0	6.135463295320064e+17
19112.0	6.134329732235263e+17
19113.0	6.133198543126527e+17
19114.0	6.132064956973055e+17
19115.0	6.130929024805546e+17
19116.0	6.129798165648724e+17
19117.0	6.128663967825919e+17
19118.0	6.127521100376746e+17
19119.0	6.125833410314237e+17
19120.0	6.125260176184659e+17
19121.0	6.124132375374505e+17
19122.0	6.123004410287443e+17
19123.0	6.121872968122367e+17
19124.0	6.120741340708863e+17
19125.0	6.119609247727615e+17
19126.0	6.118471932837887e+17
19127.0	6.117192297523882e+17
19128.0	6.116208728342527e+17
19129.0	6.115077813261652e+17
19130.0	6.113956626169856e+17
19131.0	6.112826951204863e+17
19132.0	6.111696967958528e+17
19133.0	6.110566265389055e+17
19134.0	6.109438381391872e+17
19135.0	6.108309081817087e+17
19136.0	6.107179404754944e+17
19137.0	6.106037845928618e+17
19138.0	6.104920312075604e+17
19139.0	6.103793856937983e+17
19140.0	6.102665879268009e+17
19141.0	6.101537805129044e+17
19142.0	6.100409642909695e+17
19143.0	6.099277639406931e+17
19144.0	6.098153068210857e+17
19145.0	6.097027142953642e+17
19146.0	6.095838785481386e+17
19147.0	6.094766345988778e+17
19148.0	6.093643752407039e+17
19149.0	6.092516971511807e+17
19150.0	6.091392858193919e+17
19151.0	6.090266964393983e+17
19152.0	6.089140976222207e+17
19153.0	6.088010017800191e+17
19154.0	6.086878576334164e+17
19155.0	6.085762846730922e+17
19156.0	6.084637596057599e+17
19157.0	6.083508004978687e+17
19158.0	6.082370987185492e+17
19159.0	6.081259508509353e+17
19160.0	6.080137699262463e+17
19161.0	6.079011340593833e+17
19162.0	6.077851836437844e+17
19163.0	6.076756851862186e+17
19164.0	6.075641508833961e+17
19165.0	6.07451278807313e+17
19166.0	6.073383765322409e+17
19167.0	6.072268397128361e+17
19168.0	6.071148364868265e+17
19169.0	6.070025625184938e+17
19170.0	6.068903583154175e+17
19171.0	6.0677796411037e+17
19172.0	6.066658588928682e+17
19173.0	6.065536679018495e+17
19174.0	6.064410069390676e+17
19175.0	6.063292852906665e+17
19176.0	6.062171435827199e+17
19177.0	6.061034535474516e+17
19178.0	6.059926573023231e+17
19179.0	6.05880454287633e+17
19180.0	6.057685442450772e+17
19181.0	6.056553574563839e+17
19182.0	6.055442376207018e+17
19183.0	6.054324085282134e+17
19184.0	6.053203500072959e+17
19185.0	6.052083080538793e+17
19186.0	6.050963225138516e+17
19187.0	6.049842999241386e+17
19188.0	6.048723280855039e+17
19189.0	6.047604009162067e+17
19190.0	6.046484211083946e+17
19191.0	6.045364478017535e+17
19192.0	6.044245543966035e+17
19193.0	6.043126152735401e+17
19194.0	6.042006595829759e+17
19195.0	6.040886447527252e+17
19196.0	6.039764686514857e+17
19197.0	6.038640783611219e+17
19198.0	6.037499442888703e+17
19199.0	6.036140405904724e+17
19200.0	6.035063999299583e+17
19201.0	6.03414914470161e+17
19202.0	6.033052107713194e+17
19203.0	6.03193998311424e+17
19204.0	6.030822624023892e+17
19205.0	6.029708196752042e+17
19206.0	6.028590879604733e+17
19207.0	6.027470592890195e+17
19208.0	6.026338729896618e+17
19209.0	6.025241785182889e+17
19210.0	6.02412542923025e+17
19211.0	6.023008880339625e+17
19212.0	6.021892135714815e+17
19213.0	6.020766375433555e+17
19214.0	6.019648770976426e+17
19215.0	6.018541744553983e+17
19216.0	6.017426721690964e+17
19217.0	6.016307710743891e+17
19218.0	6.015127978857812e+17
19219.0	6.014059595257171e+17
19220.0	6.012962729536169e+17
19221.0	6.011823511131476e+17
19222.0	6.010728548925439e+17
19223.0	6.00961728975121e+17
19224.0	6.008501435017898e+17
19225.0	6.007376109546153e+17
19226.0	6.00627198628113e+17
19227.0	6.005155000483839e+17
19228.0	6.004003468301652e+17
19229.0	6.002888390912682e+17
19230.0	6.001773355466751e+17
19231.0	6.000658892543315e+17
19232.0	5.999543176921087e+17
19233.0	5.998427311702015e+17
19234.0	5.997312912392191e+17
19235.0	5.996200048896682e+17
19236.0	5.995085271400447e+17
19237.0	5.99396950614562e+17
19238.0	5.992852618914474e+17
19239.0	5.991741991682047e+17
19240.0	5.990627256128852e+17
19241.0	5.98951302668834e+17
19242.0	5.988398804238335e+17
19243.0	5.987268658113194e+17
19244.0	5.986169973462356e+17
19245.0	5.985055494460756e+17
19246.0	5.983939935425875e+17
19247.0	5.982826372180649e+17
19248.0	5.981712152526847e+17
19249.0	5.980597523928404e+17
19250.0	5.979482444442281e+17
19251.0	5.978359430731092e+17
19252.0	5.977224087863295e+17
19253.0	5.976138137119402e+17
19254.0	5.975024475308031e+17
19255.0	5.973890064274771e+17
19256.0	5.972792901457236e+17
19257.0	5.971680000212991e+17
19258.0	5.970564852918954e+17
19259.0	5.969442010475177e+17
19260.0	5.968324127795882e+17
19261.0	5.967218844805801e+17
19262.0	5.966103180913322e+17
19263.0	5.964980840387924e+17
19264.0	5.963824823795711e+17
19265.0	5.962736294952959e+17
19266.0	5.961617318259369e+17
19267.0	5.96052427285026e+17
19268.0	5.959408195119786e+17
19269.0	5.958291540672511e+17
19270.0	5.957172495471956e+17
19271.0	5.956028494162601e+17
19272.0	5.954936890195967e+17
19273.0	5.953789229356372e+17
19274.0	5.95260617138722e+17
19275.0	5.951533190829396e+17
19276.0	5.950415624820052e+17
19277.0	5.949297542212265e+17
19278.0	5.948178958385151e+17
19279.0	5.947059449714004e+17
19280.0	5.945934677890388e+17
19281.0	5.944820565191337e+17
19282.0	5.943700901330944e+17
19283.0	5.942578546125481e+17
19284.0	5.941456947991892e+17
19285.0	5.940328450228223e+17
19286.0	5.939216157158057e+17
19287.0	5.938092954703188e+17
19288.0	5.936829259841533e+17
19289.0	5.935549971256659e+17
19290.0	5.934724683224403e+17
19291.0	5.933579464168788e+17
19292.0	5.932479521925802e+17
19293.0	5.931342923563007e+17
19294.0	5.930218335589716e+17
19295.0	5.92909282906385e+17
19296.0	5.927963402261844e+17
19297.0	5.926825880453119e+17
19298.0	5.925674197975037e+17
19299.0	5.924542373429247e+17
19300.0	5.923416783716351e+17
19301.0	5.922286907424767e+17
19302.0	5.921155396752724e+17
19303.0	5.920018427194025e+17
19304.0	5.918891165351935e+17
19305.0	5.917760685080575e+17
19306.0	5.916609323466752e+17
19307.0	5.915458452586495e+17
19308.0	5.914323740262399e+17
19309.0	5.913178225508352e+17
19310.0	5.912035526530388e+17
19311.0	5.910905307004927e+17
19312.0	5.909771325188777e+17
19313.0	5.908627567848105e+17
19314.0	5.906799733506045e+17
19315.0	5.905719959573844e+17
19316.0	5.905192506971476e+17
19317.0	5.904055704485887e+17
19318.0	5.902909590645418e+17
19319.0	5.901761702614356e+17
19320.0	5.900610545822377e+17
19321.0	5.899457184923648e+17
19322.0	5.898300620974761e+17
19323.0	5.897149059432445e+17
19324.0	5.895994547197268e+17
19325.0	5.894831798048084e+17
19326.0	5.893676665754963e+17
19327.0	5.892514879198548e+17
19328.0	5.891346571198463e+17
19329.0	5.890186590289919e+17
19330.0	5.889015549001727e+17
19331.0	5.887846902661117e+17
19332.0	5.88667565375488e+17
19333.0	5.885500900507648e+17
19334.0	5.884323339872937e+17
19335.0	5.883132084835668e+17
19336.0	5.881960517861375e+17
19337.0	5.880774732895572e+17
19338.0	5.879565552801108e+17
19339.0	5.878337311692116e+17
19340.0	5.877130304946176e+17
19341.0	5.875933152717482e+17
19342.0	5.874713103783252e+17
19343.0	5.873536589627391e+17
19344.0	5.872321940859561e+17
19345.0	5.870942051194195e+17
19346.0	5.86980545073425e+17
19347.0	5.86866867970594e+17
19348.0	5.867457797423103e+17
19349.0	5.866229783505577e+17
19350.0	5.864996312099498e+17
19351.0	5.863757673310889e+17
19352.0	5.862506354442239e+17
19353.0	5.861264064511999e+17
19354.0	5.859982056620031e+17
19355.0	5.858644152636756e+17
19356.0	5.857385490939904e+17
19357.0	5.856112082070186e+17
19358.0	5.854832000761855e+17
19359.0	5.853542068431529e+17
19360.0	5.852244169020756e+17
19361.0	5.850947376906239e+17
19362.0	5.849641137821012e+17
19363.0	5.848323683166889e+17
19364.0	5.846879256444928e+17
19365.0	5.845516166365183e+17
19366.0	5.844173221527551e+17
19367.0	5.842820478096724e+17
19368.0	5.841457348171092e+17
19369.0	5.840080429471062e+17
19370.0	5.838661337044308e+17
19371.0	5.837121985533268e+17
19372.0	5.835635534681428e+17
19373.0	5.834213160211796e+17
19374.0	5.832777080853844e+17
19375.0	5.831326369666388e+17
19376.0	5.82986004308514e+17
19377.0	5.828151950529875e+17
19378.0	5.826592980161876e+17
19379.0	5.825078319819433e+17
19380.0	5.82354475295266e+17
19381.0	5.821825577648127e+17
19382.0	5.820028728726868e+17
19383.0	5.818430446545578e+17
19384.0	5.816817547214848e+17
19385.0	5.81479735300369e+17
19386.0	5.812965526383273e+17
19387.0	5.811226515516074e+17
19388.0	5.809327828194643e+17
19389.0	5.807458972860415e+17
19390.0	5.805678392945322e+17
19391.0	5.803472179953663e+17
19392.0	5.802014919360511e+17
19393.0	5.800178177015808e+17
19394.0	5.798276919984128e+17
19395.0	5.796169724024148e+17
19396.0	5.794154303629993e+17
19397.0	5.792116737310719e+17
19398.0	5.790025540523348e+17
19399.0	5.787821105916586e+17
19400.0	5.78561666851362e+17
19401.0	5.783053290962943e+17
19402.0	5.780725434067625e+17
19403.0	5.778327121952768e+17
19404.0	5.775842521819818e+17
19405.0	5.77278362919458e+17
19406.0	5.770126617302356e+17
19407.0	5.767385704650068e+17
19408.0	5.7640146670277965e+17
19409.0	5.760957626187776e+17
19410.0	5.757888979009534e+17
19411.0	5.7539305123348474e+17
19412.0	5.750708382291284e+17
19413.0	5.746349440674474e+17
19414.0	5.742559200542719e+17
19415.0	5.737778922214741e+17
19416.0	5.733606562813268e+17
19417.0	5.72799717404399e+17
19418.0	5.722983972033877e+17
19419.0	5.716995113396906e+17
19420.0	5.7113807201239014e+17
19421.0	5.7063675586587296e+17
19422.0	5.700958330464937e+17
19423.0	5.695146377783977e+17
19424.0	5.6894213877050035e+17
19425.0	5.6827808439773856e+17
19426.0	5.6762597540276896e+17
19427.0	5.668796213056852e+17
19428.0	5.660836221681663e+17
19429.0	5.651600882969258e+17
19430.0	5.6421670977536e+17
19431.0	5.6310364921746765e+17
19432.0	5.618872460421803e+17
19433.0	5.605675324757331e+17
19434.0	5.591267926867966e+17
19435.0	5.5751443833596576e+17
19436.0	5.557927484762791e+17
19437.0	5.53842734687846e+17
19438.0	5.5184228166751546e+17
19439.0	5.4975748196270086e+17
19440.0	5.473921494504788e+17
19441.0	5.4465253717224045e+17
19442.0	5.4153493736325146e+17
19443.0	5.377926335823871e+17
19444.0	5.3343182745763795e+17
19445.0	5.281829219904172e+17
19446.0	5.217789018461526e+17
19447.0	5.135626003283963e+17
19448.0	5.026420667449349e+17
19449.0	4.8646473044896416e+17
19450.0	4.5624969221461376e+17
19451.0	4.345521215548111e+17
19452.0	4.743302106578945e+17
19453.0	4.953874659366235e+17
19454.0	5.081962197461669e+17
19455.0	5.172656669545814e+17
19456.0	5.2439708420014106e+17
19457.0	5.2982923936836243e+17
19458.0	5.343053777382061e+17
19459.0	5.38253692309777e+17
19460.0	5.414202588703399e+17
19461.0	5.4417265014429005e+17
19462.0	5.4654369257226246e+17
19463.0	5.484938983899135e+17
19464.0	5.5037751641593165e+17
19465.0	5.5214518248843936e+17
19466.0	5.5371803893869216e+17
19467.0	5.551305105167701e+17
19468.0	5.564545829437442e+17
19469.0	5.5768050257537696e+17
19470.0	5.587281361152685e+17
19471.0	5.596376367540907e+17
19472.0	5.6046215002849274e+17
19473.0	5.612016208532822e+17
19474.0	5.61797183639825e+17
19475.0	5.624088797467988e+17
19476.0	5.6285545617162234e+17
19477.0	5.633290594331306e+17
19478.0	5.6372018247543456e+17
19479.0	5.6407672921347405e+17
19480.0	5.644463661645824e+17
19481.0	5.6473875326347936e+17
19482.0	5.6507433344477875e+17
19483.0	5.653958205549227e+17
19484.0	5.657945993205076e+17
19485.0	5.66087911473152e+17
19486.0	5.663386122234537e+17
19487.0	5.6660619169191226e+17
19488.0	5.667896686542847e+17
19489.0	5.670041562032809e+17
19490.0	5.6714864263604896e+17
19491.0	5.673050800390142e+17
19492.0	5.674473327252821e+17
19493.0	5.6753188870553574e+17
19494.0	5.676563453793622e+17
19495.0	5.6773834563037856e+17
19496.0	5.6779204565401594e+17
19497.0	5.6786560186231456e+17
19498.0	5.679237117072724e+17
19499.0	5.678989549677225e+17
19500.0	5.6798786827059194e+17
19501.0	5.680151120926036e+17
19502.0	5.68051211837986e+17
19503.0	5.680577857104554e+17
19504.0	5.680576570851326e+17
19505.0	5.6805227292699296e+17
19506.0	5.6804155668998816e+17
19507.0	5.68034085376273e+17
19508.0	5.680251531864745e+17
19509.0	5.6800159748587514e+17
19510.0	5.67972325368354e+17
19511.0	5.678296676521299e+17
19512.0	5.6789959334079136e+17
19513.0	5.678552137596926e+17
19514.0	5.6784539901842765e+17
19515.0	5.6782203891220474e+17
19516.0	5.677876851157673e+17
19517.0	5.6777155829650765e+17
19518.0	5.6774385310105594e+17
19519.0	5.6769326776756896e+17
19520.0	5.6763973118197754e+17
19521.0	5.676152597949098e+17
19522.0	5.6756368397653325e+17
19523.0	5.675046034298197e+17
19524.0	5.674435152095913e+17
19525.0	5.67391314719539e+17
19526.0	5.6734420604463776e+17
19527.0	5.6727869842609485e+17
19528.0	5.672117005713406e+17
19529.0	5.671433280334506e+17
19530.0	5.6707363764524365e+17
19531.0	5.6700941411287034e+17
19532.0	5.669500621247828e+17
19533.0	5.668776699057492e+17
19534.0	5.668064908891476e+17
19535.0	5.6673109303186765e+17
19536.0	5.666546426139989e+17
19537.0	5.665773399135573e+17
19538.0	5.664973350327636e+17
19539.0	5.664281820048041e+17
19540.0	5.663538710315006e+17
19541.0	5.662734275663189e+17
19542.0	5.6619213279723514e+17
19543.0	5.661096778836649e+17
19544.0	5.660272091987968e+17
19545.0	5.6593887023595514e+17
19546.0	5.658521135742975e+17
19547.0	5.6577529377805645e+17
19548.0	5.656903073923071e+17
19549.0	5.656109638134442e+17
19550.0	5.655269298842281e+17
19551.0	5.6544017790621005e+17
19552.0	5.653528907350016e+17
19553.0	5.6526491513869645e+17
19554.0	5.6517660644474874e+17
19555.0	5.6508831977089696e+17
19556.0	5.6499927602517325e+17
19557.0	5.649097941843968e+17
19558.0	5.6481997323414176e+17
19559.0	5.647298101684905e+17
19560.0	5.646393064554494e+17
19561.0	5.6454846803694925e+17
19562.0	5.644573084745728e+17
19563.0	5.643658378346496e+17
19564.0	5.642740664631296e+17
19565.0	5.6418200484577274e+17
19566.0	5.6409120026132474e+17
19567.0	5.6400211072778234e+17
19568.0	5.6390927225541965e+17
19569.0	5.6381609376481274e+17
19570.0	5.637228460681898e+17
19571.0	5.636305546728789e+17
19572.0	5.6354082299139405e+17
19573.0	5.634467315406164e+17
19574.0	5.633520513493674e+17
19575.0	5.632583039713279e+17
19576.0	5.631637342999892e+17
19577.0	5.630689487618046e+17
19578.0	5.6297371317480096e+17
19579.0	5.6287896559506765e+17
19580.0	5.627836775093589e+17
19581.0	5.6268817208879776e+17
19582.0	5.6259275642634234e+17
19583.0	5.624970572988415e+17
19584.0	5.6240119913731405e+17
19585.0	5.6230441948719776e+17
19586.0	5.6220768828129274e+17
19587.0	5.621125906868906e+17
19588.0	5.620124603471188e+17
19589.0	5.6191986759106554e+17
19590.0	5.61822814122803e+17
19591.0	5.6172688430858234e+17
19592.0	5.6163011961815034e+17
19593.0	5.615332908946773e+17
19594.0	5.6143383381060256e+17
19595.0	5.6133920765597e+17
19596.0	5.6124159382869325e+17
19597.0	5.611448685647188e+17
19598.0	5.6104407426662394e+17
19599.0	5.609501471626581e+17
19600.0	5.6085272536459936e+17
19601.0	5.6075482730332154e+17
19602.0	5.606567313407998e+17
19603.0	5.605561735315455e+17
19604.0	5.6046182385145165e+17
19605.0	5.60361641152785e+17
19606.0	5.6026650147553274e+17
19607.0	5.6017031259313485e+17
19608.0	5.6007330113781754e+17
19609.0	5.5997512702143136e+17
19610.0	5.5987765719859194e+17
19611.0	5.59781901378082e+17
19612.0	5.5968409664006816e+17
19613.0	5.595858770154835e+17
19614.0	5.5948760580096e+17
19615.0	5.593892553140906e+17
19616.0	5.5929034719450445e+17
19617.0	5.591920629077332e+17
19618.0	5.59088341754402e+17
19619.0	5.589884391653375e+17
19620.0	5.5889105238971725e+17
19621.0	5.5879800755759776e+17
19622.0	5.587000588850517e+17
19623.0	5.5860150679197005e+17
19624.0	5.585029052061011e+17
19625.0	5.5840425552554656e+17
19626.0	5.583055529967615e+17
19627.0	5.582067233805652e+17
19628.0	5.581073168378537e+17
19629.0	5.580067255440724e+17
19630.0	5.579032441651199e+17
19631.0	5.577847438923091e+17
19632.0	5.5771153483257165e+17
19633.0	5.576139233121621e+17
19634.0	5.5751536422857363e+17
19635.0	5.5741656963481594e+17
19636.0	5.573173371557205e+17
19637.0	5.5721501599115936e+17
19638.0	5.5711994845593594e+17
19639.0	5.570211456832853e+17
19640.0	5.569214170180266e+17
19641.0	5.5681537236008954e+17
19642.0	5.56728740618786e+17
19643.0	5.5662982543878816e+17
19644.0	5.5653040596363936e+17
19645.0	5.564295524559529e+17
19646.0	5.5633242978167456e+17
19647.0	5.562340164501503e+17
19648.0	5.5613505953682765e+17
19649.0	5.560360594221737e+17
19650.0	5.559370933512873e+17
19651.0	5.558381012757162e+17
19652.0	5.5573910165039776e+17
19653.0	5.556400868556799e+17
19654.0	5.5554109659764045e+17
19655.0	5.5544204992621216e+17
19656.0	5.5534302674288634e+17
19657.0	5.5524407591130426e+17
19658.0	5.5514506489146016e+17
19659.0	5.5504604506357754e+17
19660.0	5.549470491432276e+17
19661.0	5.548480381932883e+17
