# Flux units: erg / (cm m2 s)
# Wavelength units: Angstrom
wave	flux
19000.0	8.547504302500521e+17
19001.0	8.545926382966098e+17
19002.0	8.544379392229375e+17
19003.0	8.542814747667114e+17
19004.0	8.541248869979476e+17
19005.0	8.539682986699434e+17
19006.0	8.538115245342719e+17
19007.0	8.536392033719638e+17
19008.0	8.534966276543828e+17
19009.0	8.533399913715028e+17
19010.0	8.531761888406186e+17
19011.0	8.530254454150484e+17
19012.0	8.528512331808767e+17
19013.0	8.527113977419091e+17
19014.0	8.52552899048243e+17
19015.0	8.523962097773225e+17
19016.0	8.522375789630803e+17
19017.0	8.520784560171688e+17
19018.0	8.519215493414912e+17
19019.0	8.517647570305024e+17
19020.0	8.516061709555027e+17
19021.0	8.514481607584426e+17
19022.0	8.512904333972819e+17
19023.0	8.511321358903977e+17
19024.0	8.509735443628031e+17
19025.0	8.508137932499624e+17
19026.0	8.506546350718973e+17
19027.0	8.504819150312786e+17
19028.0	8.503396081685842e+17
19029.0	8.501809285606058e+17
19030.0	8.50022163808256e+17
19031.0	8.498633209020416e+17
19032.0	8.497044024983552e+17
19033.0	8.495439779201021e+17
19034.0	8.493863081607167e+17
19035.0	8.492257780258132e+17
19036.0	8.479671971392161e+17
19037.0	8.489082984333311e+17
19038.0	8.48749669856051e+17
19039.0	8.485904523984893e+17
19040.0	8.484311112089597e+17
19041.0	8.482717222043648e+17
19042.0	8.481109327216639e+17
19043.0	8.479528057831424e+17
19044.0	8.477931482032809e+17
19045.0	8.476328707052884e+17
19046.0	8.474730248011775e+17
19047.0	8.473141349187583e+17
19048.0	8.471512638029821e+17
19049.0	8.469935174276438e+17
19050.0	8.468339112979114e+17
19051.0	8.46499723975065e+17
19052.0	8.464969620258815e+17
19053.0	8.463509759197183e+17
19054.0	8.461949373251583e+17
19055.0	8.460307357761535e+17
19056.0	8.458748100083711e+17
19057.0	8.457143971741695e+17
19058.0	8.455506558801236e+17
19059.0	8.453942532199764e+17
19060.0	8.452336134739283e+17
19061.0	8.450737096884224e+17
19062.0	8.449133030058666e+17
19063.0	8.44752970981922e+17
19064.0	8.445907621467476e+17
19065.0	8.444290609621673e+17
19066.0	8.442705625481215e+17
19067.0	8.441111595625128e+17
19068.0	8.43950611112482e+17
19069.0	8.437900534349821e+17
19070.0	8.436292425613312e+17
19071.0	8.434681671669075e+17
19072.0	8.433079922895528e+17
19073.0	8.431473550600873e+17
19074.0	8.429867087429631e+17
19075.0	8.428259340801364e+17
19076.0	8.42664788361216e+17
19077.0	8.425041832880809e+17
19078.0	8.423427896857939e+17
19079.0	8.421825720265388e+17
19080.0	8.420215866698409e+17
19081.0	8.418599411296936e+17
19082.0	8.416989223583743e+17
19083.0	8.415368517954216e+17
19084.0	8.41373267927586e+17
19085.0	8.412163086832982e+17
19086.0	8.410465798804819e+17
19087.0	8.408618870592854e+17
19088.0	8.407274543033e+17
19089.0	8.405513065376426e+17
19090.0	8.404091091462826e+17
19091.0	8.402484765305513e+17
19092.0	8.400794662120105e+17
19093.0	8.399267889326762e+17
19094.0	8.397635594835284e+17
19095.0	8.396016943016616e+17
19096.0	8.394425600311293e+17
19097.0	8.392817533517821e+17
19098.0	8.391205870807722e+17
19099.0	8.389591897036115e+17
19100.0	8.387959732568065e+17
19101.0	8.386356949199528e+17
19102.0	8.384736214209875e+17
19103.0	8.383133882428072e+17
19104.0	8.381518074347519e+17
19105.0	8.379899749684564e+17
19106.0	8.378225970730322e+17
19107.0	8.376662734056105e+17
19108.0	8.375044287758336e+17
19109.0	8.372198883109544e+17
19110.0	8.371771914147156e+17
19111.0	8.370200638390271e+17
19112.0	8.36858626196548e+17
19113.0	8.366969486398804e+17
19114.0	8.365351989411839e+17
19115.0	8.363707938286249e+17
19116.0	8.362115194683392e+17
19117.0	8.36049030174037e+17
19118.0	8.358807918870528e+17
19119.0	8.35695085302579e+17
19120.0	8.355544456757247e+17
19121.0	8.353956986792618e+17
19122.0	8.352400175792128e+17
19123.0	8.350778046895442e+17
19124.0	8.349089873089875e+17
19125.0	8.347529649324031e+17
19126.0	8.345907970615976e+17
19127.0	8.344037364159827e+17
19128.0	8.341752231843153e+17
19129.0	8.341037946066259e+17
19130.0	8.339431151545e+17
19131.0	8.337779163398143e+17
19132.0	8.336185937450322e+17
19133.0	8.334385856817833e+17
19134.0	8.332499394494463e+17
19135.0	8.331313057977683e+17
19136.0	8.329691969268394e+17
19137.0	8.328037809870162e+17
19138.0	8.326382199242753e+17
19139.0	8.324812672510633e+17
19140.0	8.323193760645119e+17
19141.0	8.321569463293267e+17
19142.0	8.319943878290089e+17
19143.0	8.318308932998483e+17
19144.0	8.316691008192511e+17
19145.0	8.315059354031443e+17
19146.0	8.313312171961002e+17
19147.0	8.311797123645439e+17
19148.0	8.310174091575296e+17
19149.0	8.308547857853097e+17
19150.0	8.306920319702356e+17
19151.0	8.305295376427689e+17
19152.0	8.303652028547071e+17
19153.0	8.302035998168403e+17
19154.0	8.300384752413354e+17
19155.0	8.298772050913961e+17
19156.0	8.29713417520196e+17
19157.0	8.295450436173824e+17
19158.0	8.2930785362903e+17
19159.0	8.292211439435773e+17
19160.0	8.290585630736383e+17
19161.0	8.288865721428649e+17
19162.0	8.285439145629012e+17
19163.0	8.285642549799592e+17
19164.0	8.284070045111636e+17
19165.0	8.282411859181567e+17
19166.0	8.28075383263505e+17
19167.0	8.278986589208575e+17
19168.0	8.277507557381459e+17
19169.0	8.275861374151336e+17
19170.0	8.274253128400896e+17
19171.0	8.272533851034962e+17
19172.0	8.270964933875027e+17
19173.0	8.269337279681876e+17
19174.0	8.267695062865236e+17
19175.0	8.266062908183892e+17
19176.0	8.264420607481174e+17
19177.0	8.262751425484114e+17
19178.0	8.261086776131583e+17
19179.0	8.259362878040745e+17
19180.0	8.257724925433172e+17
19181.0	8.256023382982653e+17
19182.0	8.254394958435667e+17
19183.0	8.252748070562473e+17
19184.0	8.251081522588328e+17
19185.0	8.24946676727808e+17
19186.0	8.247820428858708e+17
19187.0	8.2461597906589e+17
19188.0	8.244511830441981e+17
19189.0	8.242827782433449e+17
19190.0	8.241165557388628e+17
19191.0	8.23954262458368e+17
19192.0	8.23789359481924e+17
19193.0	8.236135749429928e+17
19194.0	8.234542063506774e+17
19195.0	8.232925409574911e+17
19196.0	8.231264749005482e+17
19197.0	8.229574325654867e+17
19198.0	8.227773118152701e+17
19199.0	8.214996007081298e+17
19200.0	8.216753410670596e+17
19201.0	8.222816196012714e+17
19202.0	8.221280185963858e+17
19203.0	8.219624594909866e+17
19204.0	8.217992928165885e+17
19205.0	8.216337844622676e+17
19206.0	8.214673132355581e+17
19207.0	8.213001524652713e+17
19208.0	8.211312756654079e+17
19209.0	8.209673752674301e+17
19210.0	8.208002951675903e+17
19211.0	8.206329931890685e+17
19212.0	8.20440208716595e+17
19213.0	8.202544543170561e+17
19214.0	8.200811137990655e+17
19215.0	8.199246420727124e+17
19216.0	8.197612304509609e+17
19217.0	8.19593738190848e+17
19218.0	8.194130597380096e+17
19219.0	8.192546165489663e+17
19220.0	8.190885885203795e+17
19221.0	8.189145353901395e+17
19222.0	8.187517221557587e+17
19223.0	8.185817696567297e+17
19224.0	8.184092666014378e+17
19225.0	8.182382349079891e+17
19226.0	8.180712205189119e+17
19227.0	8.179016945805994e+17
19228.0	8.177319677351254e+17
19229.0	8.175620355085654e+17
19230.0	8.17388080525039e+17
19231.0	8.172191356376403e+17
19232.0	8.170506133962752e+17
19233.0	8.168792757982548e+17
19234.0	8.167092224961194e+17
19235.0	8.165385544488275e+17
19236.0	8.163672385213779e+17
19237.0	8.161954742228308e+17
19238.0	8.160208090038271e+17
19239.0	8.158520643245395e+17
19240.0	8.156765131287208e+17
19241.0	8.155064482223443e+17
19242.0	8.153348810560851e+17
19243.0	8.151590365386067e+17
19244.0	8.149888669144403e+17
19245.0	8.148154599866365e+17
19246.0	8.14641562325265e+17
19247.0	8.144678131422548e+17
19248.0	8.142937161116328e+17
19249.0	8.141192193638399e+17
19250.0	8.139443886096381e+17
19251.0	8.137677976458579e+17
19252.0	8.135885915335336e+17
19253.0	8.134182995755004e+17
19254.0	8.132270716092416e+17
19255.0	8.130183722696701e+17
19256.0	8.128421002128042e+17
19257.0	8.126681983571286e+17
19258.0	8.124911012806655e+17
19259.0	8.123122244212054e+17
19260.0	8.12120879993105e+17
19261.0	8.119573328953343e+17
19262.0	8.117786801515177e+17
19263.0	8.11599267819247e+17
19264.0	8.114128954589183e+17
19265.0	8.112375927057064e+17
19266.0	8.110583274536956e+17
19267.0	8.108794900206931e+17
19268.0	8.106983996872017e+17
19269.0	8.105168679731199e+17
19270.0	8.103346920139433e+17
19271.0	8.101474722643967e+17
19272.0	8.099688930607103e+17
19273.0	8.09696705799782e+17
19274.0	8.095539698597888e+17
19275.0	8.094178525315071e+17
19276.0	8.092330179428352e+17
19277.0	8.090475985283753e+17
19278.0	8.08816504681267e+17
19279.0	8.08615039817045e+17
19280.0	8.084294087300434e+17
19281.0	8.082428091782484e+17
19282.0	8.080538348115283e+17
19283.0	8.078503942903122e+17
19284.0	8.076412071531859e+17
19285.0	8.074831766836564e+17
19286.0	8.072955402999123e+17
19287.0	8.071041140828842e+17
19288.0	8.066529543323645e+17
19289.0	8.059855214477297e+17
19290.0	8.065257675161597e+17
19291.0	8.063206572425212e+17
19292.0	8.061104884984489e+17
19293.0	8.059011386223273e+17
19294.0	8.056455217982122e+17
19295.0	8.05448222576913e+17
19296.0	8.052500693953194e+17
19297.0	8.050505664866985e+17
19298.0	8.048511463456765e+17
19299.0	8.046503247478783e+17
19300.0	8.044485569150973e+17
19301.0	8.042457567242924e+17
19302.0	8.040420230212264e+17
19303.0	8.038360185219753e+17
19304.0	8.036308426773842e+17
19305.0	8.033544139964415e+17
19306.0	8.031269366180522e+17
19307.0	8.029168725917696e+17
19308.0	8.027069390083412e+17
19309.0	8.024623755733676e+17
19310.0	8.022319525352787e+17
19311.0	8.020665705693183e+17
19312.0	8.018563582044841e+17
19313.0	8.016391319846911e+17
19314.0	8.010151269236731e+17
19315.0	8.008134018727941e+17
19316.0	8.009252961168041e+17
19317.0	8.00707461722931e+17
19318.0	8.004845526406483e+17
19319.0	8.002599198392319e+17
19320.0	8.000333284376575e+17
19321.0	7.998055114604543e+17
19322.0	7.995377230457513e+17
19323.0	7.992854734088872e+17
19324.0	7.990677944838825e+17
19325.0	7.988118100989268e+17
19326.0	7.986063600866644e+17
19327.0	7.983691164112211e+17
19328.0	7.981289214836735e+17
19329.0	7.978862531750569e+17
19330.0	7.976408032040276e+17
19331.0	7.97393756880896e+17
19332.0	7.971452674375679e+17
19333.0	7.968938348511232e+17
19334.0	7.966396912063827e+17
19335.0	7.963837315678207e+17
19336.0	7.961248942172842e+17
19337.0	7.958634015926953e+17
19338.0	7.955572438248105e+17
19339.0	7.952711864199849e+17
19340.0	7.950008773683881e+17
19341.0	7.947285912616957e+17
19342.0	7.944462740575572e+17
19343.0	7.941741564220756e+17
19344.0	7.938921080728234e+17
19345.0	7.935779988832255e+17
19346.0	7.933091771318271e+17
19347.0	7.930245343259306e+17
19348.0	7.927027710907731e+17
19349.0	7.923450204476755e+17
19350.0	7.920413313073151e+17
19351.0	7.917338257697449e+17
19352.0	7.914214524627625e+17
19353.0	7.911066583433216e+17
19354.0	7.90786224562722e+17
19355.0	7.904599518915242e+17
19356.0	7.900364033840467e+17
19357.0	7.896838547963901e+17
19358.0	7.893428782934697e+17
19359.0	7.889940117454845e+17
19360.0	7.886469684614484e+17
19361.0	7.882640714279596e+17
19362.0	7.877713957573972e+17
19363.0	7.874027922128896e+17
19364.0	7.870279641814356e+17
19365.0	7.86646645744162e+17
19366.0	7.861603665270099e+17
19367.0	7.856863152439296e+17
19368.0	7.852838442325332e+17
19369.0	7.848721218448042e+17
19370.0	7.842747741022888e+17
19371.0	7.838176100657833e+17
19372.0	7.833853492898473e+17
19373.0	7.828078605981012e+17
19374.0	7.822389178007552e+17
19375.0	7.817789858032298e+17
19376.0	7.810876495801006e+17
19377.0	7.805316678811645e+17
19378.0	7.799926403978582e+17
19379.0	7.793600003833853e+17
19380.0	7.788264583506604e+17
19381.0	7.783034209523028e+17
19382.0	7.777675445097811e+17
19383.0	7.772206771732476e+17
19384.0	7.76663514498116e+17
19385.0	7.760921327129942e+17
19386.0	7.755070259068928e+17
19387.0	7.749066774194858e+17
19388.0	7.742712982448809e+17
19389.0	7.736093656307028e+17
19390.0	7.729641766780925e+17
19391.0	7.715155019650377e+17
19392.0	7.716239342305279e+17
19393.0	7.709343418591913e+17
19394.0	7.701662084890621e+17
19395.0	7.694117176519336e+17
19396.0	7.686606938264914e+17
19397.0	7.678919940855123e+17
19398.0	7.670200722434728e+17
19399.0	7.661673875767293e+17
19400.0	7.653340285850966e+17
19401.0	7.643750837430952e+17
19402.0	7.634263654531071e+17
19403.0	7.624797167725226e+17
19404.0	7.613631861970259e+17
19405.0	7.603551752683517e+17
19406.0	7.591198132098387e+17
19407.0	7.579783165990228e+17
19408.0	7.566879964353875e+17
19409.0	7.553082569261055e+17
19410.0	7.538852363938474e+17
19411.0	7.523062309541204e+17
19412.0	7.505978285796009e+17
19413.0	7.488868100778668e+17
19414.0	7.473656832371369e+17
19415.0	7.459510497749672e+17
19416.0	7.444840595150164e+17
19417.0	7.429651366412287e+17
19418.0	7.413824227377151e+17
19419.0	7.397381834276864e+17
19420.0	7.380230280839164e+17
19421.0	7.361683404095489e+17
19422.0	7.342912210381481e+17
19423.0	7.322521625253203e+17
19424.0	7.301378429594284e+17
19425.0	7.27867453341696e+17
19426.0	7.254552341730641e+17
19427.0	7.228591170038441e+17
19428.0	7.200896073072636e+17
19429.0	7.171463250793812e+17
19430.0	7.13898213839121e+17
19431.0	7.103501300312745e+17
19432.0	7.071747097143976e+17
19433.0	7.03898646024465e+17
19434.0	7.004109530639017e+17
19435.0	6.967182993566376e+17
19436.0	6.927492770867881e+17
19437.0	6.885013111614122e+17
19438.0	6.833687600212648e+17
19439.0	6.787428801052675e+17
19440.0	6.733064482149714e+17
19441.0	6.67562049763191e+17
19442.0	6.616040754642945e+17
19443.0	6.551601477757609e+17
19444.0	6.481187398047057e+17
19445.0	6.40510043409613e+17
19446.0	6.323235752072531e+17
19447.0	6.234705394051749e+17
19448.0	6.137354626531332e+17
19449.0	6.021105512174931e+17
19450.0	5.822656344140421e+17
19451.0	5.719522113749006e+17
19452.0	5.934636024725516e+17
19453.0	6.080834415099908e+17
19454.0	6.182158743896059e+17
19455.0	6.272316149334015e+17
19456.0	6.354874155401219e+17
19457.0	6.431442893886801e+17
19458.0	6.500580171535703e+17
19459.0	6.567032421438807e+17
19460.0	6.626153580199932e+17
19461.0	6.68178361422097e+17
19462.0	6.735447780054359e+17
19463.0	6.785085346239826e+17
19464.0	6.831217796186111e+17
19465.0	6.873493287905964e+17
19466.0	6.911559559282685e+17
19467.0	6.94696141791778e+17
19468.0	6.98005215632862e+17
19469.0	7.011198112017065e+17
19470.0	7.040452372987904e+17
19471.0	7.072044664837463e+17
19472.0	7.103014628229117e+17
19473.0	7.130437591760897e+17
19474.0	7.156417534361599e+17
19475.0	7.180306531134118e+17
19476.0	7.20236947194948e+17
19477.0	7.222825478433449e+17
19478.0	7.24216855990545e+17
19479.0	7.259710411505664e+17
19480.0	7.276427025405268e+17
19481.0	7.292122496849235e+17
19482.0	7.307107606986751e+17
19483.0	7.320958933838506e+17
19484.0	7.334247826893481e+17
19485.0	7.346823960898217e+17
19486.0	7.358760836836009e+17
19487.0	7.370204092126547e+17
19488.0	7.381408164435283e+17
19489.0	7.394965878822227e+17
19490.0	7.409323702834515e+17
19491.0	7.422653181373097e+17
19492.0	7.435081312370687e+17
19493.0	7.445844403945472e+17
19494.0	7.4554738226845e+17
19495.0	7.465294006758058e+17
19496.0	7.473713462465876e+17
19497.0	7.482000274707796e+17
19498.0	7.48904280891938e+17
19499.0	7.484792182407155e+17
19500.0	7.503071125613225e+17
19501.0	7.510121812153683e+17
19502.0	7.515824031356242e+17
19503.0	7.521104780328956e+17
19504.0	7.526937730394793e+17
19505.0	7.53201249849617e+17
19506.0	7.536613989722793e+17
19507.0	7.541010006190761e+17
19508.0	7.545775693234172e+17
19509.0	7.549983083462655e+17
19510.0	7.553798327238655e+17
19511.0	7.548245454618618e+17
19512.0	7.559313727946744e+17
19513.0	7.560863330336759e+17
19514.0	7.565567435210748e+17
19515.0	7.570909799907325e+17
19516.0	7.574024032878591e+17
19517.0	7.576782388942164e+17
19518.0	7.579417361164968e+17
19519.0	7.581919927599103e+17
19520.0	7.584305609965568e+17
19521.0	7.58657389236497e+17
19522.0	7.588725157877074e+17
19523.0	7.591309971816444e+17
19524.0	7.594613854437375e+17
19525.0	7.59643501703987e+17
19526.0	7.600175930758484e+17
19527.0	7.602600199323645e+17
19528.0	7.604126891027113e+17
19529.0	7.607636216250365e+17
19530.0	7.609302118301696e+17
19531.0	7.610560447250432e+17
19532.0	7.612877470258518e+17
19533.0	7.614861332709375e+17
19534.0	7.615894820399785e+17
19535.0	7.616855622199978e+17
19536.0	7.61898748486178e+17
19537.0	7.620216720719872e+17
19538.0	7.620962087687508e+17
19539.0	7.621582503542781e+17
19540.0	7.622386743159468e+17
19541.0	7.624182099607552e+17
19542.0	7.624770248682153e+17
19543.0	7.625276260701523e+17
19544.0	7.625678100190547e+17
19545.0	7.625975975466323e+17
19546.0	7.62637289923106e+17
19547.0	7.627611909215572e+17
19548.0	7.627813658034173e+17
19549.0	7.62795596517649e+17
19550.0	7.628087701274624e+17
19551.0	7.628160436098387e+17
19552.0	7.628192033188522e+17
19553.0	7.628181376860157e+17
19554.0	7.628418195652607e+17
19555.0	7.628835314991103e+17
19556.0	7.628719977223508e+17
19557.0	7.628569565287764e+17
19558.0	7.628386748159318e+17
19559.0	7.628169095938048e+17
19560.0	7.627925204150952e+17
19561.0	7.62764862615279e+17
19562.0	7.627342637694975e+17
19563.0	7.627007600885757e+17
19564.0	7.626646479699968e+17
19565.0	7.626503273578493e+17
19566.0	7.626391147249663e+17
19567.0	7.625953035419647e+17
19568.0	7.625488702199123e+17
19569.0	7.624999277253974e+17
19570.0	7.624489161807187e+17
19571.0	7.623955556859901e+17
19572.0	7.623396560994303e+17
19573.0	7.622824504066045e+17
19574.0	7.622215637925888e+17
19575.0	7.621617053422931e+17
19576.0	7.620983547144874e+17
19577.0	7.620327187502419e+17
19578.0	7.619654832182612e+17
19579.0	7.618968228812118e+17
19580.0	7.618264789505364e+17
19581.0	7.617545221701632e+17
19582.0	7.616811108051625e+17
19583.0	7.616364922186409e+17
19584.0	7.615656430141437e+17
19585.0	7.61485302519125e+17
19586.0	7.614036508846761e+17
19587.0	7.613194000400383e+17
19588.0	7.612361432454484e+17
19589.0	7.611574972492457e+17
19590.0	7.611212650337619e+17
19591.0	7.610369090519039e+17
19592.0	7.609495611331926e+17
19593.0	7.608610048354982e+17
19594.0	7.607654717325311e+17
19595.0	7.606801340039165e+17
19596.0	7.603658054522196e+17
19597.0	7.604937381554858e+17
19598.0	7.603978194561705e+17
19599.0	7.603368532901887e+17
19600.0	7.6028798056093e+17
19601.0	7.601903763106474e+17
19602.0	7.600923541678762e+17
19603.0	7.599707357096617e+17
19604.0	7.598922643363155e+17
19605.0	7.597892487348221e+17
19606.0	7.596925887621802e+17
19607.0	7.595905117061119e+17
19608.0	7.594874598937939e+17
19609.0	7.593833569888936e+17
19610.0	7.59279235908676e+17
19611.0	7.591739043523241e+17
19612.0	7.591172841843369e+17
19613.0	7.590233176539135e+17
19614.0	7.589152985273686e+17
19615.0	7.588079358093993e+17
19616.0	7.586913175207936e+17
19617.0	7.585901306358442e+17
19618.0	7.5847281161885e+17
19619.0	7.583617133139284e+17
19620.0	7.582713738777939e+17
19621.0	7.581691343623508e+17
19622.0	7.580569121237674e+17
19623.0	7.579441521754113e+17
19624.0	7.578308448703828e+17
19625.0	7.577169158296914e+17
19626.0	7.576025419131561e+17
19627.0	7.574873643679743e+17
19628.0	7.573460911215958e+17
19629.0	7.57253360792371e+17
19630.0	7.571269145504426e+17
19631.0	7.55882205205845e+17
19632.0	7.569506650030079e+17
19633.0	7.568359573596841e+17
19634.0	7.567191381639168e+17
19635.0	7.566003479248893e+17
19636.0	7.564824837881855e+17
19637.0	7.563565001779881e+17
19638.0	7.562438966771711e+17
19639.0	7.561239799878996e+17
19640.0	7.560031170636457e+17
19641.0	7.558759446478847e+17
19642.0	7.557625643619667e+17
19643.0	7.556411265384448e+17
19644.0	7.555193203152212e+17
19645.0	7.553939917154985e+17
19646.0	7.552757411435862e+17
19647.0	7.551532572606461e+17
19648.0	7.550304827124393e+17
19649.0	7.549073520678228e+17
19650.0	7.547840339378173e+17
19651.0	7.546603987184296e+17
19652.0	7.545364862555475e+17
19653.0	7.544122869022717e+17
19654.0	7.542878811892394e+17
19655.0	7.541631316830889e+17
19656.0	7.540381547058515e+17
19657.0	7.539130829373439e+17
19658.0	7.537876849917952e+17
19659.0	7.536707800924157e+17
19660.0	7.535719505461247e+17
19661.0	7.534458672513024e+17
19662.0	7.5331955326976e+17
19663.0	7.531919268904957e+17
19664.0	7.530617527511722e+17
19665.0	7.529394072802642e+17
