# Flux units: erg / (cm m2 s)
# Wavelength units: Angstrom
wave	flux
19000.0	5.749676993150975e+17
19001.0	5.7484749636457805e+17
19002.0	5.7475339002402125e+17
19003.0	5.7464533447693645e+17
19004.0	5.745378016799402e+17
19005.0	5.744305200518484e+17
19006.0	5.743244604342271e+17
19007.0	5.742133886233258e+17
19008.0	5.741018132862292e+17
19009.0	5.7399189784494086e+17
19010.0	5.738297483591678e+17
19011.0	5.737832466699604e+17
19012.0	5.736279514458792e+17
19013.0	5.735736089247743e+17
19014.0	5.7346004073403725e+17
19015.0	5.73354469822737e+17
19016.0	5.732453273916756e+17
19017.0	5.7314588261089274e+17
19018.0	5.730357731830442e+17
19019.0	5.729306704958805e+17
19020.0	5.728224677986303e+17
19021.0	5.7271786255592096e+17
19022.0	5.7261039309291514e+17
19023.0	5.724993070912852e+17
19024.0	5.7239333814053536e+17
19025.0	5.722872081984169e+17
19026.0	5.7217557861498874e+17
19027.0	5.720368139818324e+17
19028.0	5.719695260210517e+17
19029.0	5.718602293794132e+17
19030.0	5.7175728668890445e+17
19031.0	5.716506890818901e+17
19032.0	5.7154302444393805e+17
19033.0	5.714251861022036e+17
19034.0	5.7132773403525114e+17
19035.0	5.712119850860543e+17
19036.0	5.6824930825666464e+17
19037.0	5.710035107708928e+17
19038.0	5.708997429908821e+17
19039.0	5.7079623337028256e+17
19040.0	5.706904108706473e+17
19041.0	5.705828283012436e+17
19042.0	5.704437540585471e+17
19043.0	5.703709284980052e+17
19044.0	5.702627319524009e+17
19045.0	5.70156294288179e+17
19046.0	5.7004344038741325e+17
19047.0	5.699427008948906e+17
19048.0	5.6980497498111974e+17
19049.0	5.696788478558206e+17
19050.0	5.696175917236224e+17
19051.0	5.6909450119741357e+17
19052.0	5.6934788168854176e+17
19053.0	5.6930465274484045e+17
19054.0	5.691997218144255e+17
19055.0	5.690548113375232e+17
19056.0	5.689810810656084e+17
19057.0	5.688799309507241e+17
19058.0	5.687495380085417e+17
19059.0	5.6865905072319136e+17
19060.0	5.6855892408838816e+17
19061.0	5.6845594246075725e+17
19062.0	5.683490496446463e+17
19063.0	5.682431181630121e+17
19064.0	5.681206110016853e+17
19065.0	5.680092546072575e+17
19066.0	5.6790952230693536e+17
19067.0	5.678171203917141e+17
19068.0	5.677126037187241e+17
19069.0	5.676067178151936e+17
19070.0	5.674967359640916e+17
19071.0	5.673925639230804e+17
19072.0	5.6727968345838925e+17
19073.0	5.6718193751053645e+17
19074.0	5.6707663706193914e+17
19075.0	5.669706602818218e+17
19076.0	5.6686197020644685e+17
19077.0	5.667567528050687e+17
19078.0	5.666477152316073e+17
19079.0	5.6654652848646816e+17
19080.0	5.6643916940356256e+17
19081.0	5.6632960432646816e+17
19082.0	5.662235923141972e+17
19083.0	5.661113706348543e+17
19084.0	5.659902528367274e+17
19085.0	5.6590979350309536e+17
19086.0	5.657463173589674e+17
19087.0	5.656099018156715e+17
19088.0	5.655691898038953e+17
19089.0	5.6542904251842554e+17
19090.0	5.653783005975892e+17
19091.0	5.65271673770257e+17
19092.0	5.651322237179221e+17
19093.0	5.650661379145728e+17
19094.0	5.6496084131075405e+17
19095.0	5.6485530933657594e+17
19096.0	5.647475004844713e+17
19097.0	5.6464394409738234e+17
19098.0	5.6452897535863456e+17
19099.0	5.64421168603682e+17
19100.0	5.6432198890291194e+17
19101.0	5.642203824477524e+17
19102.0	5.6410108274059936e+17
19103.0	5.64011007615522e+17
19104.0	5.6390602558450336e+17
19105.0	5.637795586506752e+17
19106.0	5.636814619891028e+17
19107.0	5.635814973942441e+17
19108.0	5.634756028923902e+17
19109.0	5.6318439348415104e+17
19110.0	5.6326704322314234e+17
19111.0	5.6316137773028685e+17
19112.0	5.630561527791615e+17
19113.0	5.629577807615317e+17
19114.0	5.6284875122715296e+17
19115.0	5.6273521134796794e+17
19116.0	5.626399895322623e+17
19117.0	5.6253481589145594e+17
19118.0	5.624100617715711e+17
19119.0	5.613997578168988e+17
19120.0	5.621970764125523e+17
19121.0	5.621004147621887e+17
19122.0	5.620122216912211e+17
19123.0	5.619072268675753e+17
19124.0	5.6178925619554976e+17
19125.0	5.6169594845047456e+17
19126.0	5.615910157724329e+17
19127.0	5.6125189098482336e+17
19128.0	5.613547722287785e+17
19129.0	5.612672920496809e+17
19130.0	5.6117040824101536e+17
19131.0	5.6106736768341325e+17
19132.0	5.6096236125552634e+17
19133.0	5.608452697795242e+17
19134.0	5.607404327316138e+17
19135.0	5.6064708241435296e+17
19136.0	5.6054374357183136e+17
19137.0	5.6041757890751136e+17
19138.0	5.603318221679274e+17
19139.0	5.6022947793469434e+17
19140.0	5.6012498377113594e+17
19141.0	5.6002031155937274e+17
19142.0	5.599116768488107e+17
19143.0	5.598031766355968e+17
19144.0	5.597015869576532e+17
19145.0	5.596016256483326e+17
19146.0	5.594185516187648e+17
19147.0	5.5937965133660154e+17
19148.0	5.5927936510853114e+17
19149.0	5.5917323978014714e+17
19150.0	5.5907797161738234e+17
19151.0	5.589738076853588e+17
19152.0	5.5886688012642976e+17
19153.0	5.587479576969215e+17
19154.0	5.586426146062335e+17
19155.0	5.5855571806453754e+17
19156.0	5.5845150932336634e+17
19157.0	5.583374063588694e+17
19158.0	5.581056878400851e+17
19159.0	5.581345471681877e+17
19160.0	5.580303568120489e+17
19161.0	5.5791787152069965e+17
19162.0	5.574909161897986e+17
19163.0	5.5766552101082445e+17
19164.0	5.575705926565887e+17
19165.0	5.5744302171204256e+17
19166.0	5.573385636194986e+17
19167.0	5.5723018818682874e+17
19168.0	5.571528711558483e+17
19169.0	5.570438946794154e+17
19170.0	5.56946080084787e+17
19171.0	5.568233374831956e+17
19172.0	5.5673607184274765e+17
19173.0	5.5663319248622925e+17
19174.0	5.565223772968276e+17
19175.0	5.564261279465471e+17
19176.0	5.5632190536417274e+17
19177.0	5.56198819738419e+17
19178.0	5.561064104132607e+17
19179.0	5.559834738251094e+17
19180.0	5.559038377634473e+17
19181.0	5.557844241809407e+17
19182.0	5.5569588438084256e+17
19183.0	5.5559484702283085e+17
19184.0	5.554899588743167e+17
19185.0	5.553857140621311e+17
19186.0	5.552830484054015e+17
19187.0	5.551706862168745e+17
19188.0	5.5507496562851834e+17
19189.0	5.5497099757049165e+17
19190.0	5.548657318647124e+17
19191.0	5.5475698104183456e+17
19192.0	5.5466027814748154e+17
19193.0	5.545530297242964e+17
19194.0	5.5444725056580256e+17
19195.0	5.543480608686079e+17
19196.0	5.5424108213917005e+17
19197.0	5.5413586872238074e+17
19198.0	5.540210834844329e+17
19199.0	5.52144770398071e+17
19200.0	5.525996340685488e+17
19201.0	5.5371232713550496e+17
19202.0	5.5361935982810445e+17
19203.0	5.535129918592341e+17
19204.0	5.5341133262574925e+17
19205.0	5.533112893876905e+17
19206.0	5.532077350278485e+17
19207.0	5.530920509505535e+17
19208.0	5.5297140815735443e+17
19209.0	5.528978618056703e+17
19210.0	5.527942762681683e+17
19211.0	5.526925567066111e+17
19212.0	5.525890094071806e+17
19213.0	5.524600830033919e+17
19214.0	5.5234868816117754e+17
19215.0	5.522715558892884e+17
19216.0	5.5217529843002016e+17
19217.0	5.520710260752384e+17
19218.0	5.5186142901480083e+17
19219.0	5.518464893932884e+17
19220.0	5.517580134165162e+17
19221.0	5.516162168608086e+17
19222.0	5.515542421045247e+17
19223.0	5.5144925329271456e+17
19224.0	5.51343002624546e+17
19225.0	5.5122603467079654e+17
19226.0	5.511393302981289e+17
19227.0	5.5103596538101754e+17
19228.0	5.5093583930545485e+17
19229.0	5.508324692852735e+17
19230.0	5.507272172808874e+17
19231.0	5.5062366061417805e+17
19232.0	5.505214656981673e+17
19233.0	5.5041029322397005e+17
19234.0	5.5031312636968954e+17
19235.0	5.502087444037631e+17
19236.0	5.5010974226186234e+17
19237.0	5.5000449710817274e+17
19238.0	5.4988887797268474e+17
19239.0	5.498003843798357e+17
19240.0	5.4969537152068256e+17
19241.0	5.495908433832617e+17
19242.0	5.494888035865941e+17
19243.0	5.493678002929662e+17
19244.0	5.4928464304319136e+17
19245.0	5.491807497136811e+17
19246.0	5.4907597474146976e+17
19247.0	5.4897401897069216e+17
19248.0	5.4887145334811296e+17
19249.0	5.48766798123281e+17
19250.0	5.486596969201664e+17
19251.0	5.4854435873314125e+17
19252.0	5.48424689717521e+17
19253.0	5.483528756832939e+17
19254.0	5.4825287319988896e+17
19255.0	5.4812690126383776e+17
19256.0	5.4804271948540576e+17
19257.0	5.4794373090508794e+17
19258.0	5.478404817507669e+17
19259.0	5.477255571920211e+17
19260.0	5.4752232372961254e+17
19261.0	5.4747803194927776e+17
19262.0	5.473690702927188e+17
19263.0	5.472651397038079e+17
19264.0	5.470970173893289e+17
19265.0	5.470400617469267e+17
19266.0	5.4692823782741325e+17
19267.0	5.4686096832157005e+17
19268.0	5.467568891843924e+17
19269.0	5.466540853253462e+17
19270.0	5.465509796861268e+17
19271.0	5.464022560975531e+17
19272.0	5.463402147217406e+17
19273.0	5.461615731627347e+17
19274.0	5.460673202312531e+17
19275.0	5.4603507316381005e+17
19276.0	5.4592925842363725e+17
19277.0	5.458266730179241e+17
19278.0	5.457231782171987e+17
19279.0	5.456169657171967e+17
19280.0	5.4550595717038074e+17
19281.0	5.4541264110660256e+17
19282.0	5.453110591182164e+17
19283.0	5.451819576022357e+17
19284.0	5.450928167583743e+17
19285.0	5.4497809548356256e+17
19286.0	5.448924045246464e+17
19287.0	5.4479230326538234e+17
19288.0	5.439206543327225e+17
19289.0	5.426824628666333e+17
19290.0	5.4448125885371725e+17
19291.0	5.443474304969386e+17
19292.0	5.442759601859242e+17
19293.0	5.4417140842059085e+17
19294.0	5.4406731362467834e+17
19295.0	5.4396489508235936e+17
19296.0	5.4385043336506016e+17
19297.0	5.4375121878166176e+17
19298.0	5.4364922666024954e+17
19299.0	5.435377590468607e+17
19300.0	5.434438666158079e+17
19301.0	5.4334014490323616e+17
19302.0	5.432349138004649e+17
19303.0	5.4312183515490976e+17
19304.0	5.4299936951719245e+17
19305.0	5.428580030873599e+17
19306.0	5.42753505218833e+17
19307.0	5.4264311742900896e+17
19308.0	5.42541335372322e+17
19309.0	5.4237472510443514e+17
19310.0	5.422481027017385e+17
19311.0	5.422207110305108e+17
19312.0	5.4212583300792314e+17
19313.0	5.4202123971898016e+17
19314.0	5.3775472651141184e+17
19315.0	5.37981529655438e+17
19316.0	5.4168621731020794e+17
19317.0	5.4160069838766074e+17
19318.0	5.414955054530558e+17
19319.0	5.413925644402687e+17
19320.0	5.412825614079315e+17
19321.0	5.411725296446121e+17
19322.0	5.410625048018942e+17
19323.0	5.409411291239765e+17
19324.0	5.408597767531178e+17
19325.0	5.406942417649664e+17
19326.0	5.4061778924994554e+17
19327.0	5.405034999185407e+17
19328.0	5.4038106475943245e+17
19329.0	5.402928967144787e+17
19330.0	5.4018085280372045e+17
19331.0	5.400730487051604e+17
19332.0	5.399706690999636e+17
19333.0	5.398614156596564e+17
19334.0	5.397557129074005e+17
19335.0	5.3961203017318394e+17
19336.0	5.3953871674518176e+17
19337.0	5.39431777931537e+17
19338.0	5.392969713931604e+17
19339.0	5.39167876448256e+17
19340.0	5.3901668800703123e+17
19341.0	5.3890945999612576e+17
19342.0	5.3876137443109523e+17
19343.0	5.3870843336676685e+17
19344.0	5.385849013272575e+17
19345.0	5.3820934048098925e+17
19346.0	5.3826601566426426e+17
19347.0	5.382408392146942e+17
19348.0	5.3815637082548896e+17
19349.0	5.3803931269420365e+17
19350.0	5.37921829679923e+17
19351.0	5.37815161049361e+17
19352.0	5.376792816080212e+17
19353.0	5.3759445292810234e+17
19354.0	5.3748126991428256e+17
19355.0	5.373548087825749e+17
19356.0	5.3725244840127136e+17
19357.0	5.371378056298494e+17
19358.0	5.370209234496171e+17
19359.0	5.368952100225023e+17
19360.0	5.367703144846676e+17
19361.0	5.3666727308820474e+17
19362.0	5.3655524672361805e+17
19363.0	5.36436878151953e+17
19364.0	5.3631775824063136e+17
19365.0	5.361523065094143e+17
19366.0	5.359767834154325e+17
19367.0	5.3585552503821645e+17
19368.0	5.3573354545042765e+17
19369.0	5.356034368820564e+17
19370.0	5.3547704845161805e+17
19371.0	5.3535516756978336e+17
19372.0	5.3523622395904e+17
19373.0	5.351065111232512e+17
19374.0	5.3498100734143136e+17
19375.0	5.348524916299092e+17
19376.0	5.347229138507092e+17
19377.0	5.3455176366817274e+17
19378.0	5.343179436632747e+17
19379.0	5.3418389643373216e+17
19380.0	5.340481581307221e+17
19381.0	5.339101721001983e+17
19382.0	5.337624943613268e+17
19383.0	5.336168712721749e+17
19384.0	5.334878377039189e+17
19385.0	5.3318308083357005e+17
19386.0	5.3301121104827725e+17
19387.0	5.328616748832085e+17
19388.0	5.3269190092171936e+17
19389.0	5.3253622758113274e+17
19390.0	5.322081412928852e+17
19391.0	5.2938881633702874e+17
19392.0	5.317792573510993e+17
19393.0	5.316478024111445e+17
19394.0	5.312278126308013e+17
19395.0	5.3099407245748896e+17
19396.0	5.308182468143785e+17
19397.0	5.3034905686944403e+17
19398.0	5.3007707429055136e+17
19399.0	5.2963551600093805e+17
19400.0	5.292395632874837e+17
19401.0	5.289147273052164e+17
19402.0	5.2831071928756896e+17
19403.0	5.279372907555497e+17
19404.0	5.2754401295947085e+17
19405.0	5.2729259889786874e+17
19406.0	5.270373052448768e+17
19407.0	5.267673494934868e+17
19408.0	5.2636260202359475e+17
19409.0	5.261699469453993e+17
19410.0	5.258811680664234e+17
19411.0	5.2558208105622176e+17
19412.0	5.252724670420308e+17
19413.0	5.249481190670335e+17
19414.0	5.2461429804673696e+17
19415.0	5.2419799827524256e+17
19416.0	5.23815870337297e+17
19417.0	5.234476632943273e+17
19418.0	5.230526001927508e+17
19419.0	5.2257468840236365e+17
19420.0	5.221679224935766e+17
19421.0	5.215662525207893e+17
19422.0	5.210769852115628e+17
19423.0	5.2041142480404474e+17
19424.0	5.196919786351278e+17
19425.0	5.188401013719038e+17
19426.0	5.1778080801641805e+17
19427.0	5.163198749605892e+17
19428.0	5.144913381425155e+17
19429.0	5.1213430832496614e+17
19430.0	5.1079966785972915e+17
19431.0	5.092502971351046e+17
19432.0	5.084117546128723e+17
19433.0	5.070467164187307e+17
19434.0	5.0563729326079994e+17
19435.0	5.041556278302036e+17
19436.0	5.025289393755474e+17
19437.0	5.0111809141254816e+17
19438.0	4.952715270553608e+17
19439.0	4.9772713112589677e+17
19440.0	4.961117372328619e+17
19441.0	4.942474556473343e+17
19442.0	4.919485250491735e+17
19443.0	4.880301180321798e+17
19444.0	4.807022187555513e+17
19445.0	4.74963824799471e+17
19446.0	4.6959924469213856e+17
19447.0	4.632808859369471e+17
19448.0	4.514167906806421e+17
19449.0	4.335519601262594e+17
19450.0	3.913887161603475e+17
19451.0	3.7050580901123526e+17
19452.0	4.17744829808642e+17
19453.0	4.427554690345642e+17
19454.0	4.584137221122723e+17
19455.0	4.66076614717167e+17
19456.0	4.7160483349790726e+17
19457.0	4.7650792859675296e+17
19458.0	4.731998255972528e+17
19459.0	4.8873166878365376e+17
19460.0	4.916512818550097e+17
19461.0	4.934896494925141e+17
19462.0	4.950683261687125e+17
19463.0	4.9658621472713363e+17
19464.0	4.9802828858436256e+17
19465.0	4.994615158155946e+17
19466.0	5.008091405877247e+17
19467.0	5.0207181812094285e+17
19468.0	5.03302043275537e+17
19469.0	5.0445443605899923e+17
19470.0	5.056251190837248e+17
19471.0	5.0664061453817165e+17
19472.0	5.0756419643419296e+17
19473.0	5.092661128768175e+17
19474.0	5.112678383790772e+17
19475.0	5.125380877494953e+17
19476.0	5.1365255570609517e+17
19477.0	5.1444410482688e+17
19478.0	5.15039258948403e+17
19479.0	5.1546195552283296e+17
19480.0	5.158781270185301e+17
19481.0	5.1621770157533875e+17
19482.0	5.165204650328062e+17
19483.0	5.167459322910035e+17
19484.0	5.1705080380566176e+17
19485.0	5.172207628757674e+17
19486.0	5.1737377758685856e+17
19487.0	5.175726602977279e+17
19488.0	5.1776623714413216e+17
19489.0	5.1788316182664525e+17
19490.0	5.178203662450684e+17
19491.0	5.181163466042026e+17
19492.0	5.182208016209236e+17
19493.0	5.1831195384326816e+17
19494.0	5.184159684580692e+17
19495.0	5.1850961622138874e+17
19496.0	5.1851769053620896e+17
19497.0	5.186257453842432e+17
19498.0	5.1843653271115117e+17
19499.0	5.1491986570826835e+17
19500.0	5.191090906158415e+17
19501.0	5.195460674671956e+17
19502.0	5.1958153184542726e+17
19503.0	5.199824055959551e+17
19504.0	5.1998115653222394e+17
19505.0	5.201593091751935e+17
19506.0	5.203084260496725e+17
19507.0	5.2028755742993043e+17
19508.0	5.203868467418455e+17
19509.0	5.2052482990626125e+17
19510.0	5.204619900048725e+17
19511.0	5.132069996855248e+17
19512.0	5.199014886637553e+17
19513.0	5.194367492947948e+17
19514.0	5.1972946480769594e+17
19515.0	5.2043481049552224e+17
19516.0	5.2048667858698234e+17
19517.0	5.2044667408438605e+17
19518.0	5.2056681041537696e+17
19519.0	5.2051033718783994e+17
19520.0	5.204435479298047e+17
19521.0	5.204038078780758e+17
19522.0	5.2033842720713376e+17
19523.0	5.202804963890517e+17
19524.0	5.2021261269729274e+17
19525.0	5.201795075451563e+17
19526.0	5.2022616015940256e+17
19527.0	5.201592515734185e+17
19528.0	5.2009042954594976e+17
19529.0	5.200211337718442e+17
19530.0	5.1995552723763194e+17
19531.0	5.1988530529129805e+17
19532.0	5.198141567533055e+17
19533.0	5.1974214132258125e+17
19534.0	5.196689502284458e+17
19535.0	5.195936012348073e+17
19536.0	5.1951593041428474e+17
19537.0	5.194459861308756e+17
19538.0	5.1934460015629645e+17
19539.0	5.1927942640435226e+17
19540.0	5.1930563353422496e+17
19541.0	5.1922766226172576e+17
19542.0	5.1915027665387514e+17
19543.0	5.190591630890324e+17
19544.0	5.1899216369636685e+17
19545.0	5.1885067283551546e+17
19546.0	5.187105656755541e+17
19547.0	5.187521326962005e+17
19548.0	5.1867069126628685e+17
19549.0	5.1857635444872525e+17
19550.0	5.185064275716778e+17
19551.0	5.184240701756755e+17
19552.0	5.183408548347902e+17
19553.0	5.182544415468203e+17
19554.0	5.1816830738978125e+17
19555.0	5.180860936486911e+17
19556.0	5.1800426739138554e+17
19557.0	5.179200532469077e+17
19558.0	5.178349836741289e+17
19559.0	5.1774990690112845e+17
19560.0	5.176564125794304e+17
19561.0	5.1757532626725536e+17
19562.0	5.174874832109567e+17
19563.0	5.174067234253481e+17
19564.0	5.1732023883421005e+17
19565.0	5.1723351146277536e+17
19566.0	5.171425679070549e+17
19567.0	5.170593630519294e+17
19568.0	5.1696905353516365e+17
19569.0	5.168817427360426e+17
19570.0	5.167969451638783e+17
19571.0	5.1670839606640634e+17
19572.0	5.1661709599484595e+17
19573.0	5.1658966594573645e+17
19574.0	5.1649364895989754e+17
19575.0	5.1641831247926605e+17
19576.0	5.163304411114154e+17
19577.0	5.162372564691625e+17
19578.0	5.161485419063978e+17
19579.0	5.1606140062706336e+17
19580.0	5.1597236708747936e+17
19581.0	5.158841612937898e+17
19582.0	5.1579707894442656e+17
19583.0	5.157247910237524e+17
19584.0	5.1565056309766816e+17
19585.0	5.155479762239487e+17
19586.0	5.1545398466751136e+17
19587.0	5.153710611802794e+17
19588.0	5.152302542006954e+17
19589.0	5.1519922550865914e+17
19590.0	5.1509606583282336e+17
19591.0	5.1502050090243405e+17
19592.0	5.149309499255466e+17
19593.0	5.148370010811051e+17
19594.0	5.147172784482985e+17
19595.0	5.1465540617284256e+17
19596.0	5.14512348250112e+17
19597.0	5.144758021608789e+17
19598.0	5.143262239129598e+17
19599.0	5.142960421907115e+17
19600.0	5.142063462307157e+17
19601.0	5.141066433604266e+17
19602.0	5.140179490701311e+17
19603.0	5.1385015167440186e+17
19604.0	5.1383361619012256e+17
19605.0	5.1371262100548256e+17
19606.0	5.136591297882794e+17
19607.0	5.135689930069334e+17
19608.0	5.13475438916403e+17
19609.0	5.133795381127851e+17
19610.0	5.132883552021163e+17
19611.0	5.1319294394368e+17
19612.0	5.131124912510292e+17
19613.0	5.1301973491711994e+17
19614.0	5.1292463774214816e+17
19615.0	5.128514421740885e+17
19616.0	5.127710368071679e+17
19617.0	5.1269827737681914e+17
19618.0	5.1253972261928934e+17
19619.0	5.124272378871806e+17
19620.0	5.1233970744634016e+17
19621.0	5.123295786915157e+17
19622.0	5.122511641509887e+17
19623.0	5.1215871875481594e+17
19624.0	5.120643771138047e+17
19625.0	5.1197589051146234e+17
19626.0	5.118834556010496e+17
19627.0	5.1179148751667194e+17
19628.0	5.116543764878678e+17
19629.0	5.1156142400034125e+17
19630.0	5.114051589133654e+17
19631.0	5.09434333967155e+17
19632.0	5.11325651477026e+17
19633.0	5.1123157820156576e+17
19634.0	5.1114922346195616e+17
19635.0	5.1105123151817376e+17
19636.0	5.1095069321243296e+17
19637.0	5.1081762241686176e+17
19638.0	5.107797349193044e+17
19639.0	5.106892403638271e+17
19640.0	5.105861372411904e+17
19641.0	5.1035579704060614e+17
19642.0	5.10412949745391e+17
19643.0	5.103201846733481e+17
19644.0	5.102232557759146e+17
19645.0	5.1010241158621856e+17
19646.0	5.1003181410986656e+17
19647.0	5.099554600211796e+17
19648.0	5.0986360839864314e+17
19649.0	5.0977131616447136e+17
19650.0	5.0968038036821325e+17
19651.0	5.0958772784332794e+17
19652.0	5.0949556640153594e+17
19653.0	5.0940345599044256e+17
19654.0	5.09311826666018e+17
19655.0	5.0921945781589325e+17
