# Flux units: erg / (cm m2 s)
# Wavelength units: Angstrom
wave	flux
19000.0	7.202090510188543e+17
19001.0	7.200713194427731e+17
19002.0	7.199437452126889e+17
19003.0	7.198108790292479e+17
19004.0	7.196780040377684e+17
19005.0	7.195452938824361e+17
19006.0	7.194123752701952e+17
19007.0	7.192786306596863e+17
19008.0	7.19143274877201e+17
19009.0	7.190084870034772e+17
19010.0	7.188577776915795e+17
19011.0	7.187453778941268e+17
19012.0	7.186084976219476e+17
19013.0	7.184807251410943e+17
19014.0	7.183437523146068e+17
19015.0	7.182118046837417e+17
19016.0	7.180778892252499e+17
19017.0	7.179462356150953e+17
19018.0	7.178130498256896e+17
19019.0	7.176803150637738e+17
19020.0	7.175451963992745e+17
19021.0	7.174131106359977e+17
19022.0	7.172801089765373e+17
19023.0	7.171442488989012e+17
19024.0	7.17011530354961e+17
19025.0	7.168788160053247e+17
19026.0	7.167439494184957e+17
19027.0	7.166095823732735e+17
19028.0	7.164782612316157e+17
19029.0	7.163444939718655e+17
19030.0	7.162107632025599e+17
19031.0	7.16076976649011e+17
19032.0	7.159431544438783e+17
19033.0	7.158047067602943e+17
19034.0	7.156754404081663e+17
19035.0	7.155395052524883e+17
19036.0	7.152496718555817e+17
19037.0	7.152736231489535e+17
19038.0	7.151385120342015e+17
19039.0	7.150058495541247e+17
19040.0	7.148718784512e+17
19041.0	7.147378066849791e+17
19042.0	7.145997171949568e+17
19043.0	7.144698288275455e+17
19044.0	7.143356522037247e+17
19045.0	7.142016907476991e+17
19046.0	7.140650639512916e+17
19047.0	7.139325305159679e+17
19048.0	7.137893305461417e+17
19049.0	7.136618999010644e+17
19050.0	7.135289773741395e+17
19051.0	7.133703664129364e+17
19052.0	7.132580386177023e+17
19053.0	7.131285684223997e+17
19054.0	7.129943456612351e+17
19055.0	7.128470630957055e+17
19056.0	7.127248750510079e+17
19057.0	7.125912503975935e+17
19058.0	7.124568795774973e+17
19059.0	7.123231655854079e+17
19060.0	7.121877805826045e+17
19061.0	7.120546978332671e+17
19062.0	7.119201688879101e+17
19063.0	7.117859721314301e+17
19064.0	7.116458370793471e+17
19065.0	7.115083268227071e+17
19066.0	7.113800461320191e+17
19067.0	7.112486784335872e+17
19068.0	7.111144763643219e+17
19069.0	7.109802021530281e+17
19070.0	7.10845343675187e+17
19071.0	7.107115100056233e+17
19072.0	7.105771331736916e+17
19073.0	7.104424862285823e+17
19074.0	7.103083947491327e+17
19075.0	7.101740100878335e+17
19076.0	7.100385786680659e+17
19077.0	7.09904536122163e+17
19078.0	7.097694554860202e+17
19079.0	7.096364177555455e+17
19080.0	7.095015732587177e+17
19081.0	7.093656080438612e+17
19082.0	7.092308850420393e+17
19083.0	7.090927220118868e+17
19084.0	7.089518947598335e+17
19085.0	7.088298644209663e+17
19086.0	7.086759801607508e+17
19087.0	7.085558780832425e+17
19088.0	7.08422478663953e+17
19089.0	7.08280866378001e+17
19090.0	7.081565371411113e+17
19091.0	7.08021637419281e+17
19092.0	7.078853630842195e+17
19093.0	7.077542422904832e+17
19094.0	7.076188919605929e+17
19095.0	7.074842253022548e+17
19096.0	7.073500061761535e+17
19097.0	7.072162259140607e+17
19098.0	7.070819201056768e+17
19099.0	7.069474142289919e+17
19100.0	7.068129528119293e+17
19101.0	7.066782724521983e+17
19102.0	7.065393101275135e+17
19103.0	7.064094842552319e+17
19104.0	7.062749817339901e+17
19105.0	7.06140462854963e+17
19106.0	7.060050774327293e+17
19107.0	7.058706838235817e+17
19108.0	7.057368883221844e+17
19109.0	7.055883266337449e+17
19110.0	7.054672813970772e+17
19111.0	7.053334011707391e+17
19112.0	7.051988994883583e+17
19113.0	7.050643835453439e+17
19114.0	7.049298525028351e+17
19115.0	7.047939892095657e+17
19116.0	7.046595796620628e+17
19117.0	7.045250577072127e+17
19118.0	7.043870381222569e+17
19119.0	7.040891048252754e+17
19120.0	7.041212586393599e+17
19121.0	7.039869956128765e+17
19122.0	7.038535387316223e+17
19123.0	7.037188940234751e+17
19124.0	7.035843866787839e+17
19125.0	7.034590639510868e+17
19126.0	7.033276645157545e+17
19127.0	7.031065905113769e+17
19128.0	7.030549662487891e+17
19129.0	7.029198967275519e+17
19130.0	7.027889008541696e+17
19131.0	7.026547420561407e+17
19132.0	7.025199471919103e+17
19133.0	7.023757955345066e+17
19134.0	7.022496389092692e+17
19135.0	7.021162454319103e+17
19136.0	7.019816123979092e+17
19137.0	7.018388796735487e+17
19138.0	7.017113376697001e+17
19139.0	7.015775235735551e+17
19140.0	7.014429298262015e+17
19141.0	7.013082108788733e+17
19142.0	7.011722624412329e+17
19143.0	7.010362639515647e+17
19144.0	7.009035024160084e+17
19145.0	7.007693679449428e+17
19146.0	7.006055047364607e+17
19147.0	7.004948552919721e+17
19148.0	7.003650402549759e+17
19149.0	7.002302965612543e+17
19150.0	7.000951049158655e+17
19151.0	6.9996079218688e+17
19152.0	6.998256346551635e+17
19153.0	6.996901803764394e+17
19154.0	6.995498974751401e+17
19155.0	6.994215324789418e+17
19156.0	6.992865411115689e+17
19157.0	6.991513851177642e+17
19158.0	6.990071255269375e+17
19159.0	6.9888105264797e+17
19160.0	6.987468532350973e+17
19161.0	6.986121370140671e+17
19162.0	6.984552440397823e+17
19163.0	6.983415540744191e+17
19164.0	6.982074990155091e+17
19165.0	6.98072062562577e+17
19166.0	6.979317667288404e+17
19167.0	6.97800525488674e+17
19168.0	6.976656259765588e+17
19169.0	6.975309542151508e+17
19170.0	6.973974243530068e+17
19171.0	6.972611541423444e+17
19172.0	6.971273046742356e+17
19173.0	6.969922299101183e+17
19174.0	6.96854292533521e+17
19175.0	6.967220176770387e+17
19176.0	6.965868538538666e+17
19177.0	6.964439815290879e+17
19178.0	6.963157759164415e+17
19179.0	6.961794848740692e+17
19180.0	6.96045331878161e+17
19181.0	6.9590546134685e+17
19182.0	6.957738286383103e+17
19183.0	6.956398756407978e+17
19184.0	6.955028685608276e+17
19185.0	6.953688125931519e+17
19186.0	6.95233638633745e+17
19187.0	6.95095004373538e+17
19188.0	6.949626053656575e+17
19189.0	6.948273745734314e+17
19190.0	6.946917262382419e+17
19191.0	6.945559759814655e+17
19192.0	6.944205698673321e+17
19193.0	6.942847019603284e+17
19194.0	6.941491299614719e+17
19195.0	6.940133943847593e+17
19196.0	6.938770160309588e+17
19197.0	6.937411279912959e+17
19198.0	6.936048410733225e+17
19199.0	6.933378202861565e+17
19200.0	6.932408842584063e+17
19201.0	6.931972903403519e+17
19202.0	6.930620896073044e+17
19203.0	6.929262415533395e+17
19204.0	6.92788949819938e+17
19205.0	6.926540531739305e+17
19206.0	6.925171987666259e+17
19207.0	6.923771327807487e+17
19208.0	6.92235627799074e+17
19209.0	6.921091329032191e+17
19210.0	6.919727358847657e+17
19211.0	6.918362564482387e+17
19212.0	6.916997951870292e+17
19213.0	6.915589879977299e+17
19214.0	6.914203505917951e+17
19215.0	6.91289389601041e+17
19216.0	6.911529284097363e+17
19217.0	6.910163139865258e+17
19218.0	6.908381981835263e+17
19219.0	6.907343832175956e+17
19220.0	6.90604308762897e+17
19221.0	6.904524918052179e+17
19222.0	6.903308130189311e+17
19223.0	6.90193982099729e+17
19224.0	6.90055017538082e+17
19225.0	6.899121027809279e+17
19226.0	6.897811752747007e+17
19227.0	6.896434476832084e+17
19228.0	6.895069842549418e+17
19229.0	6.893692751183872e+17
19230.0	6.892313360640681e+17
19231.0	6.890937233266003e+17
19232.0	6.88954951213602e+17
19233.0	6.888139750637567e+17
19234.0	6.88678328406289e+17
19235.0	6.8854013245085e+17
19236.0	6.884029313843199e+17
19237.0	6.882636918860458e+17
19238.0	6.881213622342996e+17
19239.0	6.879874082581162e+17
19240.0	6.878451002769407e+17
19241.0	6.877074448274772e+17
19242.0	6.875698752913407e+17
19243.0	6.87423098209348e+17
19244.0	6.872926906570067e+17
19245.0	6.871533695795199e+17
19246.0	6.87013133095185e+17
19247.0	6.868742830380372e+17
19248.0	6.867346750701567e+17
19249.0	6.8659476196666e+17
19250.0	6.864545162548563e+17
19251.0	6.863078977175551e+17
19252.0	6.861602889050793e+17
19253.0	6.860335389256361e+17
19254.0	6.858929538247338e+17
19255.0	6.857436013701801e+17
19256.0	6.856096373975721e+17
19257.0	6.854709285486591e+17
19258.0	6.85329684242978e+17
19259.0	6.851847504876884e+17
19260.0	6.850436287255891e+17
19261.0	6.849050659083603e+17
19262.0	6.847606828651859e+17
19263.0	6.846178732452521e+17
19264.0	6.844525934804991e+17
19265.0	6.843268049753427e+17
19266.0	6.841854725892777e+17
19267.0	6.840508120825855e+17
19268.0	6.839077210947583e+17
19269.0	6.837644096263508e+17
19270.0	6.836207328340649e+17
19271.0	6.834606958794068e+17
19272.0	6.83331227361826e+17
19273.0	6.830820716533075e+17
19274.0	6.829780831830013e+17
19275.0	6.828996382337705e+17
19276.0	6.82753736712738e+17
19277.0	6.826095727520426e+17
19278.0	6.824640930381823e+17
19279.0	6.823181326570835e+17
19280.0	6.82168438366754e+17
19281.0	6.820257505913514e+17
19282.0	6.818792927657983e+17
19283.0	6.817305513514324e+17
19284.0	6.815829839227561e+17
19285.0	6.814277048467455e+17
19286.0	6.812881492377597e+17
19287.0	6.811419357304148e+17
19288.0	6.809469435161257e+17
19289.0	6.807453475099987e+17
19290.0	6.80695645147409e+17
19291.0	6.805327838183424e+17
19292.0	6.803962778877951e+17
19293.0	6.802456430247935e+17
19294.0	6.800954095566847e+17
19295.0	6.799443709919231e+17
19296.0	6.797929133462868e+17
19297.0	6.796409047788202e+17
19298.0	6.794878075098452e+17
19299.0	6.793359683223551e+17
19300.0	6.791826519009961e+17
19301.0	6.790287115070122e+17
19302.0	6.788739473517226e+17
19303.0	6.787163512023721e+17
19304.0	6.785629144743935e+17
19305.0	6.784083519952212e+17
19306.0	6.782532826344106e+17
19307.0	6.780937173991424e+17
19308.0	6.779373959686826e+17
19309.0	6.777766753424723e+17
19310.0	6.776157605898921e+17
19311.0	6.774616541014697e+17
19312.0	6.773034145458857e+17
19313.0	6.771293514192212e+17
19314.0	6.768284936437759e+17
19315.0	6.766719794850476e+17
19316.0	6.766062820043433e+17
19317.0	6.764439329396052e+17
19318.0	6.762795292950527e+17
19319.0	6.761162506327379e+17
19320.0	6.759511679303679e+17
19321.0	6.75785639792913e+17
19322.0	6.756145098129405e+17
19323.0	6.7544989316765e+17
19324.0	6.752836113836714e+17
19325.0	6.751107538397865e+17
19326.0	6.749447927103487e+17
19327.0	6.747734114915667e+17
19328.0	6.746024924151807e+17
19329.0	6.744299728622931e+17
19330.0	6.74254502826257e+17
19331.0	6.740796004892671e+17
19332.0	6.739060083130368e+17
19333.0	6.737296277635071e+17
19334.0	6.735517016828586e+17
19335.0	6.733731426817364e+17
19336.0	6.73193061987123e+17
19337.0	6.730117357939369e+17
19338.0	6.728191479644159e+17
19339.0	6.726462800745812e+17
19340.0	6.72458504999185e+17
19341.0	6.722740924973055e+17
19342.0	6.720691478287699e+17
19343.0	6.718990260196691e+17
19344.0	6.71709060538914e+17
19345.0	6.714267404686674e+17
19346.0	6.712814945872553e+17
19347.0	6.711279873949695e+17
19348.0	6.709360595391827e+17
19349.0	6.707376258285567e+17
19350.0	6.705388256755711e+17
19351.0	6.703111930380287e+17
19352.0	6.700474157760511e+17
19353.0	6.698468171055103e+17
19354.0	6.696407417225215e+17
19355.0	6.694285260881919e+17
19356.0	6.692226607000233e+17
19357.0	6.69010707489314e+17
19358.0	6.687955652793684e+17
19359.0	6.685746332521812e+17
19360.0	6.683598047761748e+17
19361.0	6.681394345760083e+17
19362.0	6.679183452624212e+17
19363.0	6.676928559142228e+17
19364.0	6.674648349540351e+17
19365.0	6.672343418011647e+17
19366.0	6.670009489162239e+17
19367.0	6.66641569554978e+17
19368.0	6.663952543689386e+17
19369.0	6.66148512412467e+17
19370.0	6.658942702714879e+17
19371.0	6.656543347616426e+17
19372.0	6.654050235143507e+17
19373.0	6.65149161742882e+17
19374.0	6.648920228757503e+17
19375.0	6.646225911327402e+17
19376.0	6.641881833624916e+17
19377.0	6.639183676309501e+17
19378.0	6.636451004066473e+17
19379.0	6.633678021066751e+17
19380.0	6.630863984918528e+17
19381.0	6.628007330447359e+17
19382.0	6.622825372712959e+17
19383.0	6.619724731383807e+17
19384.0	6.616732567339007e+17
19385.0	6.613624954377558e+17
19386.0	6.608929512139434e+17
19387.0	6.604205705920511e+17
19388.0	6.600770403172351e+17
19389.0	6.597243549253631e+17
19390.0	6.590213820252159e+17
19391.0	6.585327985972562e+17
19392.0	6.582091527487488e+17
19393.0	6.574722110892713e+17
19394.0	6.57079100645922e+17
19395.0	6.562492258626216e+17
19396.0	6.557305703235583e+17
19397.0	6.548060279319208e+17
19398.0	6.541847180607483e+17
19399.0	6.530259957929299e+17
19400.0	6.523415006893398e+17
19401.0	6.516395649007615e+17
19402.0	6.511014164736682e+17
19403.0	6.505480601993215e+17
19404.0	6.499817102508031e+17
19405.0	6.493978480345087e+17
19406.0	6.487957703753727e+17
19407.0	6.481747267725993e+17
19408.0	6.474829544117588e+17
19409.0	6.468282272623274e+17
19410.0	6.461470480356691e+17
19411.0	6.454429221912575e+17
19412.0	6.447160331599872e+17
19413.0	6.439617593780905e+17
19414.0	6.431738770576723e+17
19415.0	6.422888963899391e+17
19416.0	6.414575670919167e+17
19417.0	6.406151176454144e+17
19418.0	6.396801139605501e+17
19419.0	6.387166940758015e+17
19420.0	6.377793944289277e+17
19421.0	6.366435736900948e+17
19422.0	6.355320179785727e+17
19423.0	6.343050064997033e+17
19424.0	6.328632770647379e+17
19425.0	6.313346197007013e+17
19426.0	6.295557855248381e+17
19427.0	6.273873105737041e+17
19428.0	6.248407600114348e+17
19429.0	6.215751348256764e+17
19430.0	6.1889266595485e+17
19431.0	6.168448330279593e+17
19432.0	6.147431796310013e+17
19433.0	6.125664608452608e+17
19434.0	6.102777212873385e+17
19435.0	6.077378121258322e+17
19436.0	6.050900258149718e+17
19437.0	6.022012385711447e+17
19438.0	5.988335219987794e+17
19439.0	5.951389287055359e+17
19440.0	5.904214047850496e+17
19441.0	5.84383668525465e+17
19442.0	5.778494847276378e+17
19443.0	5.7219189648479565e+17
19444.0	5.657412578399569e+17
19445.0	5.5801192606160237e+17
19446.0	5.4799842588753914e+17
19447.0	5.355985305250467e+17
19448.0	5.2107804084797504e+17
19449.0	5.0095420429653325e+17
19450.0	4.714869813848707e+17
19451.0	4.6297836588892134e+17
19452.0	4.8655638109443437e+17
19453.0	5.1196279302826746e+17
19454.0	5.284718528430073e+17
19455.0	5.414553464602625e+17
19456.0	5.525187990650885e+17
19457.0	5.610392955562663e+17
19458.0	5.67643709689037e+17
19459.0	5.735645395113303e+17
19460.0	5.791964449122984e+17
19461.0	5.85655821480755e+17
19462.0	5.906861353424212e+17
19463.0	5.946792114563754e+17
19464.0	5.979399404213587e+17
19465.0	6.007332911710208e+17
19466.0	6.032777470978728e+17
19467.0	6.0561308530333e+17
19468.0	6.077946410303488e+17
19469.0	6.097638829064191e+17
19470.0	6.116924231865683e+17
19471.0	6.135291751082666e+17
19472.0	6.154654459101183e+17
19473.0	6.18456859663837e+17
19474.0	6.210959126648152e+17
19475.0	6.231530177298432e+17
19476.0	6.248439912333312e+17
19477.0	6.262676212678652e+17
19478.0	6.274768632982185e+17
19479.0	6.285147110375419e+17
19480.0	6.295231386703188e+17
19481.0	6.303489389669034e+17
19482.0	6.311577238110208e+17
19483.0	6.318212779431252e+17
19484.0	6.325897711845375e+17
19485.0	6.332003079159807e+17
19486.0	6.337919935578111e+17
19487.0	6.344001339435689e+17
19488.0	6.349932498430633e+17
19489.0	6.355112027663017e+17
19490.0	6.359523043661139e+17
19491.0	6.364751646250324e+17
19492.0	6.369225257342291e+17
19493.0	6.373462536880127e+17
19494.0	6.377909277862569e+17
19495.0	6.381734697719123e+17
19496.0	6.385206383258282e+17
19497.0	6.388793389787817e+17
19498.0	6.391883696351914e+17
19499.0	6.393195766917801e+17
19500.0	6.398140701037908e+17
19501.0	6.400953896927231e+17
19502.0	6.407331096384855e+17
19503.0	6.412656410536613e+17
19504.0	6.418691178627071e+17
19505.0	6.424680255367846e+17
19506.0	6.42831156842769e+17
19507.0	6.433197288762028e+17
19508.0	6.436469350596608e+17
19509.0	6.438890021847035e+17
19510.0	6.443243982028799e+17
19511.0	6.442397198887593e+17
19512.0	6.446465221481811e+17
19513.0	6.449255841529855e+17
19514.0	6.450391903720787e+17
19515.0	6.451484661121024e+17
19516.0	6.454824833559212e+17
19517.0	6.455941762733396e+17
19518.0	6.456551243339091e+17
19519.0	6.457064743589203e+17
19520.0	6.458029266436096e+17
19521.0	6.460122399593811e+17
19522.0	6.460450888395434e+17
19523.0	6.460756623097856e+17
19524.0	6.461011880050687e+17
19525.0	6.461218717958143e+17
19526.0	6.461405625232042e+17
19527.0	6.463103152335529e+17
19528.0	6.463309054913193e+17
19529.0	6.463373262017876e+17
19530.0	6.463405658122921e+17
19531.0	6.463407500820479e+17
19532.0	6.463379761091923e+17
19533.0	6.463323401530025e+17
19534.0	6.463239319715839e+17
19535.0	6.463128404841812e+17
19536.0	6.463611467726847e+17
19537.0	6.463988425206441e+17
19538.0	6.463719719916884e+17
19539.0	6.463289485688831e+17
19540.0	6.463263244724905e+17
19541.0	6.462992966571348e+17
19542.0	6.462684256709289e+17
19543.0	6.462353084252159e+17
19544.0	6.461999833677823e+17
19545.0	6.461389483453097e+17
19546.0	6.460815218922836e+17
19547.0	6.460814650594644e+17
19548.0	6.460379671909716e+17
19549.0	6.459880748963156e+17
19550.0	6.459459084397226e+17
19551.0	6.458972138984788e+17
19552.0	6.458466327592959e+17
19553.0	6.45847046107955e+17
19554.0	6.458171860189183e+17
19555.0	6.457632642564095e+17
19556.0	6.457060455612415e+17
19557.0	6.456471221611178e+17
19558.0	6.455873403966804e+17
19559.0	6.455261375321427e+17
19560.0	6.454625978810367e+17
19561.0	6.453994992609961e+17
19562.0	6.453353255709353e+17
19563.0	6.452690106187775e+17
19564.0	6.45201524826658e+17
19565.0	6.451328233155241e+17
19566.0	6.450619779558058e+17
19567.0	6.449918609369769e+17
19568.0	6.449184140602025e+17
19569.0	6.448462402945023e+17
19570.0	6.447724345251156e+17
19571.0	6.446969079726079e+17
19572.0	6.446194558850388e+17
19573.0	6.445425463306921e+17
19574.0	6.444610312907434e+17
19575.0	6.443865387739817e+17
19576.0	6.443066744023722e+17
19577.0	6.442251406278655e+17
19578.0	6.441421727509161e+17
19579.0	6.440605208368468e+17
19580.0	6.439773028395689e+17
19581.0	6.438937510455978e+17
19582.0	6.438097567525546e+17
19583.0	6.437242369911466e+17
19584.0	6.4363758106269e+17
19585.0	6.435456656867327e+17
19586.0	6.434565263108778e+17
19587.0	6.433745370349567e+17
19588.0	6.432639505749334e+17
19589.0	6.431963932699305e+17
19590.0	6.431034697231017e+17
19591.0	6.430168003029674e+17
19592.0	6.429255388889087e+17
19593.0	6.428327827647146e+17
19594.0	6.42730226229794e+17
19595.0	6.426464316555264e+17
19596.0	6.425415551112532e+17
19597.0	6.424602358753961e+17
19598.0	6.423524988157951e+17
19599.0	6.422722829615103e+17
19600.0	6.421769386721279e+17
19601.0	6.420776852215124e+17
19602.0	6.41982091371042e+17
19603.0	6.419063913141588e+17
19604.0	6.418337276537514e+17
19605.0	6.41724318814481e+17
19606.0	6.416409343732393e+17
19607.0	6.415427410329597e+17
19608.0	6.414436710831443e+17
19609.0	6.413424911887017e+17
19610.0	6.412451912351741e+17
19611.0	6.411450059500202e+17
19612.0	6.410450620470612e+17
19613.0	6.409444701940393e+17
19614.0	6.408413883225427e+17
19615.0	6.407422350458879e+17
19616.0	6.40639546040866e+17
19617.0	6.405388037521407e+17
19618.0	6.404088571538089e+17
19619.0	6.403004950031016e+17
19620.0	6.40199026610449e+17
19621.0	6.401284440238762e+17
19622.0	6.400252473682601e+17
19623.0	6.399217505402879e+17
19624.0	6.398179907294548e+17
19625.0	6.397139605957289e+17
19626.0	6.396096955809791e+17
19627.0	6.395051449341267e+17
19628.0	6.393973322372436e+17
19629.0	6.392909010741929e+17
19630.0	6.391797473345535e+17
19631.0	6.389442081543508e+17
19632.0	6.38978891063842e+17
19633.0	6.38872215233058e+17
19634.0	6.387673337255252e+17
19635.0	6.386590545521322e+17
19636.0	6.385547268325376e+17
19637.0	6.384283454625108e+17
19638.0	6.383408810819583e+17
19639.0	6.382333897386665e+17
19640.0	6.381216743817216e+17
19641.0	6.379865541094058e+17
19642.0	6.37912364491298e+17
19643.0	6.378044849651711e+17
19644.0	6.376936264346282e+17
19645.0	6.375754840757587e+17
19646.0	6.374808118536874e+17
19647.0	6.37372561760802e+17
19648.0	6.37264151445504e+17
19649.0	6.371554644459519e+17
19650.0	6.37046916068147e+17
19651.0	6.369380958994431e+17
19652.0	6.368291423518719e+17
19653.0	6.367199698616319e+17
19654.0	6.366108678356991e+17
19655.0	6.365013045062313e+17
19656.0	6.363917622880937e+17
19657.0	6.362825482742442e+17
19658.0	6.361728771511636e+17
19659.0	6.360630234360489e+17
19660.0	6.359532248760319e+17
19661.0	6.358432361742333e+17
19662.0	6.357331417060692e+17
19663.0	6.356207831526057e+17
19664.0	6.35512152007202e+17
19665.0	6.354023040243027e+17
