# Flux units: erg / (cm m2 s)
# Wavelength units: Angstrom
wave	flux
19000.0	7.770836138896042e+17
19001.0	7.769156341115561e+17
19002.0	7.767907562597033e+17
19003.0	7.766425337506472e+17
19004.0	7.764944723028649e+17
19005.0	7.763487090540544e+17
19006.0	7.7620196685469e+17
19007.0	7.759521352340822e+17
19008.0	7.758918228202836e+17
19009.0	7.757555393975636e+17
19010.0	7.755147347580241e+17
19011.0	7.754619136507901e+17
19012.0	7.752165916060328e+17
19013.0	7.751724889189034e+17
19014.0	7.750124816738985e+17
19015.0	7.748719053810348e+17
19016.0	7.747237819973628e+17
19017.0	7.745095116434088e+17
19018.0	7.744284972635476e+17
19019.0	7.742898489524224e+17
19020.0	7.741279896425812e+17
19021.0	7.739885652454057e+17
19022.0	7.738517561365844e+17
19023.0	7.736958488237395e+17
19024.0	7.735538540172627e+17
19025.0	7.733993473223336e+17
19026.0	7.732505432031232e+17
19027.0	7.730524442678611e+17
19028.0	7.729710680593747e+17
19029.0	7.728200329898664e+17
19030.0	7.726801795153917e+17
19031.0	7.725348647774888e+17
19032.0	7.723872976983378e+17
19033.0	7.722213302075391e+17
19034.0	7.72089811374353e+17
19035.0	7.719389149964969e+17
19036.0	7.663462065547908e+17
19037.0	7.716507143023273e+17
19038.0	7.715028086030335e+17
19039.0	7.713603966031187e+17
19040.0	7.712149175883094e+17
19041.0	7.710665141649405e+17
19042.0	7.709021530925736e+17
19043.0	7.707753360741718e+17
19044.0	7.7062610119994e+17
19045.0	7.704793707446271e+17
19046.0	7.703202617797289e+17
19047.0	7.701892883458732e+17
19048.0	7.699989151787688e+17
19049.0	7.698813211552426e+17
19050.0	7.697397860444841e+17
19051.0	7.688457718246043e+17
19052.0	7.694033600817834e+17
19053.0	7.692854542816595e+17
19054.0	7.691632686137343e+17
19055.0	7.689641355029162e+17
19056.0	7.688658756829181e+17
19057.0	7.687227036751187e+17
19058.0	7.685501047100755e+17
19059.0	7.684325123642708e+17
19060.0	7.682816692540756e+17
19061.0	7.681413335744511e+17
19062.0	7.679938505211901e+17
19063.0	7.678486147760127e+17
19064.0	7.676741501845501e+17
19065.0	7.675158570117802e+17
19066.0	7.673960717440339e+17
19067.0	7.672613367185407e+17
19068.0	7.671177677897727e+17
19069.0	7.669722875166719e+17
19070.0	7.668187716561578e+17
19071.0	7.666752115354284e+17
19072.0	7.665336890075816e+17
19073.0	7.66386706334788e+17
19074.0	7.662428854681597e+17
19075.0	7.660969255064915e+17
19076.0	7.659460900858536e+17
19077.0	7.658026845951315e+17
19078.0	7.656386477424639e+17
19079.0	7.655124187654826e+17
19080.0	7.653642519008596e+17
19081.0	7.652103531003903e+17
19082.0	7.650592916067668e+17
19083.0	7.649028121908563e+17
19084.0	7.647286646887764e+17
19085.0	7.646342778890922e+17
19086.0	7.643994146209791e+17
19087.0	7.641888124654932e+17
19088.0	7.641795645844138e+17
19089.0	7.639304515878911e+17
19090.0	7.6390046119581e+17
19091.0	7.637563875524609e+17
19092.0	7.635666843555155e+17
19093.0	7.634712934394538e+17
19094.0	7.633242219872255e+17
19095.0	7.631781255708671e+17
19096.0	7.630171259535357e+17
19097.0	7.628868775750314e+17
19098.0	7.627435586267816e+17
19099.0	7.625965419801258e+17
19100.0	7.624437841701545e+17
19101.0	7.62305600168482e+17
19102.0	7.621456611508221e+17
19103.0	7.620165943077545e+17
19104.0	7.618730917888e+17
19105.0	7.617264322172246e+17
19106.0	7.615515915365032e+17
19107.0	7.614324637958141e+17
19108.0	7.612908868818258e+17
19109.0	7.604800090800118e+17
19110.0	7.609948817063935e+17
19111.0	7.608532610318335e+17
19112.0	7.607101483035305e+17
19113.0	7.60565278581282e+17
19114.0	7.604196572397565e+17
19115.0	7.60256080642048e+17
19116.0	7.601252596012372e+17
19117.0	7.599806648855208e+17
19118.0	7.597941844519594e+17
19119.0	7.592718616231928e+17
19120.0	7.595056623342931e+17
19121.0	7.593793795304106e+17
19122.0	7.592597451177981e+17
19123.0	7.591078896424276e+17
19124.0	7.589386575850152e+17
19125.0	7.588128820122964e+17
19126.0	7.586526238081021e+17
19127.0	7.58193363598267e+17
19128.0	7.57776309830723e+17
19129.0	7.582248538734592e+17
19130.0	7.58097664680482e+17
19131.0	7.579334543234387e+17
19132.0	7.578100348310867e+17
19133.0	7.574499255910405e+17
19134.0	7.572216932379314e+17
19135.0	7.573717174801747e+17
19136.0	7.572293218380457e+17
19137.0	7.570494063291049e+17
19138.0	7.568339721956012e+17
19139.0	7.567926223699968e+17
19140.0	7.566507553499817e+17
19141.0	7.565065332282708e+17
19142.0	7.563539434700799e+17
19143.0	7.562033254541993e+17
19144.0	7.56060042437154e+17
19145.0	7.559243413236396e+17
19146.0	7.556395921222316e+17
19147.0	7.556211405400744e+17
19148.0	7.554898788177235e+17
19149.0	7.553460527781204e+17
19150.0	7.551974221632851e+17
19151.0	7.550600828944383e+17
19152.0	7.5490328065693e+17
19153.0	7.547671479495336e+17
19154.0	7.546016366592e+17
19155.0	7.544819382135466e+17
19156.0	7.543379929158994e+17
19157.0	7.541836286874964e+17
19158.0	7.535842788638712e+17
19159.0	7.53899057464388e+17
19160.0	7.537415392591871e+17
19161.0	7.535505839226881e+17
19162.0	7.52453226070017e+17
19163.0	7.533198674231293e+17
19164.0	7.531849270165501e+17
19165.0	7.53025764504371e+17
19166.0	7.528595324927997e+17
19167.0	7.526548272491176e+17
19168.0	7.525666364151126e+17
19169.0	7.524310218440703e+17
19170.0	7.523194596491263e+17
19171.0	7.521295990259711e+17
19172.0	7.520265035928918e+17
19173.0	7.518864164956842e+17
19174.0	7.517324722569215e+17
19175.0	7.51599634874368e+17
19176.0	7.51454971511876e+17
19177.0	7.512804140864851e+17
19178.0	7.51155185590818e+17
19179.0	7.509546689189204e+17
19180.0	7.50693755108284e+17
19181.0	7.507105468645375e+17
19182.0	7.505542747870548e+17
19183.0	7.504271996791464e+17
19184.0	7.502555198259197e+17
19185.0	7.501556502320468e+17
19186.0	7.500163000740522e+17
19187.0	7.498515851422377e+17
19188.0	7.497200492522153e+17
19189.0	7.495565619931817e+17
19190.0	7.4940726392477e+17
19191.0	7.492768193926484e+17
19192.0	7.491330327795028e+17
19193.0	7.488118009626621e+17
19194.0	7.487760877223935e+17
19195.0	7.487021211713536e+17
19196.0	7.485709390009684e+17
19197.0	7.484258240517462e+17
19198.0	7.48269126112597e+17
19199.0	7.424636657947973e+17
19200.0	7.442577344517486e+17
19201.0	7.478393852745044e+17
19202.0	7.477085513711615e+17
19203.0	7.475555739194708e+17
19204.0	7.474172287167145e+17
19205.0	7.472788969357311e+17
19206.0	7.4713445433344e+17
19207.0	7.469763580133373e+17
19208.0	7.468070536740861e+17
19209.0	7.466980055449599e+17
19210.0	7.465593120751615e+17
19211.0	7.464169010539177e+17
19212.0	7.462757272125437e+17
19213.0	7.460592169604435e+17
19214.0	7.458825941199532e+17
19215.0	7.458217518257492e+17
19216.0	7.456862005886975e+17
19217.0	7.455548017126057e+17
19218.0	7.452450906701819e+17
19219.0	7.4523375318685e+17
19220.0	7.451162210992128e+17
19221.0	7.449063151981908e+17
19222.0	7.448377187543721e+17
19223.0	7.446891271465642e+17
19224.0	7.445183117393917e+17
19225.0	7.443698435839315e+17
19226.0	7.442567124396714e+17
19227.0	7.441124601189718e+17
19228.0	7.439750021513216e+17
19229.0	7.438311070455123e+17
19230.0	7.43658757501747e+17
19231.0	7.435197363169961e+17
19232.0	7.433783400377e+17
19233.0	7.432385224944298e+17
19234.0	7.43105482526993e+17
19235.0	7.429572742785704e+17
19236.0	7.428212559358633e+17
19237.0	7.426738441857705e+17
19238.0	7.425057381591722e+17
19239.0	7.42388236689954e+17
19240.0	7.421659380187131e+17
19241.0	7.420739052022442e+17
19242.0	7.419478286183081e+17
19243.0	7.417718523996841e+17
19244.0	7.416681802498047e+17
19245.0	7.415231988192596e+17
19246.0	7.413769410620074e+17
19247.0	7.41230823813939e+17
19248.0	7.410910019365545e+17
19249.0	7.409455345259862e+17
19250.0	7.407987734522538e+17
19251.0	7.406386125559123e+17
19252.0	7.404351282741247e+17
19253.0	7.403648436229462e+17
19254.0	7.402126036697087e+17
19255.0	7.400345096071849e+17
19256.0	7.399138008935081e+17
19257.0	7.397893616260436e+17
19258.0	7.396447603392511e+17
19259.0	7.394833461848744e+17
19260.0	7.392895487879849e+17
19261.0	7.392084443703977e+17
19262.0	7.390527659267414e+17
19263.0	7.389108920560297e+17
19264.0	7.386700074450941e+17
19265.0	7.385926144273066e+17
19266.0	7.384606298865663e+17
19267.0	7.383404179182931e+17
19268.0	7.381918415497897e+17
19269.0	7.380477747571369e+17
19270.0	7.379001411283625e+17
19271.0	7.37688910805948e+17
19272.0	7.376039391002624e+17
19273.0	7.354981907344018e+17
19274.0	7.363555376496628e+17
19275.0	7.371741782693203e+17
19276.0	7.370240550415016e+17
19277.0	7.368766034455212e+17
19278.0	7.367317598677674e+17
19279.0	7.365550756506281e+17
19280.0	7.36421094760994e+17
19281.0	7.362917675914582e+17
19282.0	7.361471253402964e+17
19283.0	7.359020240557395e+17
19284.0	7.356223755474257e+17
19285.0	7.35655004296533e+17
19286.0	7.355525890397523e+17
19287.0	7.354130197992787e+17
19288.0	7.34009577159611e+17
19289.0	7.313660699475891e+17
19290.0	7.349700501263702e+17
19291.0	7.347643305601708e+17
19292.0	7.346735245776212e+17
19293.0	7.345238511190015e+17
19294.0	7.34374241833233e+17
19295.0	7.34228283129856e+17
19296.0	7.340778184856916e+17
19297.0	7.339213538896553e+17
19298.0	7.337741280870399e+17
19299.0	7.336311783773523e+17
19300.0	7.334816146696874e+17
19301.0	7.333291680770729e+17
19302.0	7.33177489461521e+17
19303.0	7.33006670139665e+17
19304.0	7.328638963111251e+17
19305.0	7.32724617735919e+17
19306.0	7.325674433238356e+17
19307.0	7.324015791527254e+17
19308.0	7.322575463339347e+17
19309.0	7.319317944554835e+17
19310.0	7.316737759728975e+17
19311.0	7.317904118775805e+17
19312.0	7.316528905759402e+17
19313.0	7.314608359123629e+17
19314.0	7.297566917350715e+17
19315.0	7.296999636336673e+17
19316.0	7.310341640465066e+17
19317.0	7.30889078177792e+17
19318.0	7.307331672298835e+17
19319.0	7.305814546404692e+17
19320.0	7.304125347790847e+17
19321.0	7.302651455384233e+17
19322.0	7.300675050405888e+17
19323.0	7.298471716803927e+17
19324.0	7.29788850442513e+17
19325.0	7.294978771735892e+17
19326.0	7.29474141327633e+17
19327.0	7.29313093615616e+17
19328.0	7.29159057801216e+17
19329.0	7.289989820492458e+17
19330.0	7.288288353539411e+17
19331.0	7.286675050856447e+17
19332.0	7.285120640395944e+17
19333.0	7.283453906474323e+17
19334.0	7.281732833946281e+17
19335.0	7.280234024577705e+17
19336.0	7.278559964605097e+17
19337.0	7.276907941505705e+17
19338.0	7.274830304204116e+17
19339.0	7.273577434841087e+17
19340.0	7.27181306171665e+17
19341.0	7.270180031823871e+17
19342.0	7.267528176129364e+17
19343.0	7.266775979436714e+17
19344.0	7.265031592170836e+17
19345.0	7.259177130917875e+17
19346.0	7.260506326827008e+17
19347.0	7.259684166347434e+17
19348.0	7.258080925799764e+17
19349.0	7.25621140427025e+17
19350.0	7.254431032672255e+17
19351.0	7.252630691992916e+17
19352.0	7.250753946473812e+17
19353.0	7.249089130747219e+17
19354.0	7.247228055147859e+17
19355.0	7.24516578717423e+17
19356.0	7.243491339927551e+17
19357.0	7.241583177673386e+17
19358.0	7.239419972375892e+17
19359.0	7.236609163744598e+17
19360.0	7.23565026615842e+17
19361.0	7.233646949127508e+17
19362.0	7.231800787075071e+17
19363.0	7.229785057700522e+17
19364.0	7.227733148259667e+17
19365.0	7.225603347797332e+17
19366.0	7.223533966284118e+17
19367.0	7.221410401353725e+17
19368.0	7.21920318242816e+17
19369.0	7.216603980627965e+17
19370.0	7.212362416608595e+17
19371.0	7.212490165321727e+17
19372.0	7.210346283182761e+17
19373.0	7.207978639119699e+17
19374.0	7.205695142581587e+17
19375.0	7.203212479518036e+17
19376.0	7.20078520783121e+17
19377.0	7.198334470411603e+17
19378.0	7.195842054193151e+17
19379.0	7.193281379871404e+17
19380.0	7.190534152694441e+17
19381.0	7.187789018475177e+17
19382.0	7.184911565149523e+17
19383.0	7.182113647012521e+17
19384.0	7.179426739519487e+17
19385.0	7.176460161428138e+17
19386.0	7.173510601026217e+17
19387.0	7.170453410589353e+17
19388.0	7.167225422501204e+17
19389.0	7.163940147210921e+17
19390.0	7.160597976186879e+17
19391.0	7.110970968462604e+17
19392.0	7.153663687174824e+17
19393.0	7.150223226830847e+17
19394.0	7.14639457386496e+17
19395.0	7.1424824850077e+17
19396.0	7.138534820063913e+17
19397.0	7.134686880290131e+17
19398.0	7.130297553737044e+17
19399.0	7.124629572638035e+17
19400.0	7.121387948867583e+17
19401.0	7.116666128651604e+17
19402.0	7.11172377612561e+17
19403.0	7.106718560769364e+17
19404.0	7.10110285467921e+17
19405.0	7.095616580616191e+17
19406.0	7.08955299835631e+17
19407.0	7.083643043665236e+17
19408.0	7.075728891139416e+17
19409.0	7.070026235729235e+17
19410.0	7.063046925058047e+17
19411.0	7.055373113141929e+17
19412.0	7.047711510844756e+17
19413.0	7.040144632010068e+17
19414.0	7.031933969454419e+17
19415.0	7.023472391749632e+17
19416.0	7.014103353305769e+17
19417.0	7.00400100581922e+17
19418.0	6.995182703957332e+17
19419.0	6.984079400501247e+17
19420.0	6.973114729278121e+17
19421.0	6.96112636895778e+17
19422.0	6.948030420178259e+17
19423.0	6.934211792819539e+17
19424.0	6.919201068067497e+17
19425.0	6.902839035734697e+17
19426.0	6.884824411974313e+17
19427.0	6.86537344950818e+17
19428.0	6.847650324982441e+17
19429.0	6.828727757438973e+17
19430.0	6.8072145682432e+17
19431.0	6.77791972738118e+17
19432.0	6.763065392846164e+17
19433.0	6.7374888793757e+17
19434.0	6.7090954846208e+17
19435.0	6.677219680889512e+17
19436.0	6.639415012447569e+17
19437.0	6.604225303805951e+17
19438.0	6.528551397010092e+17
19439.0	6.526982667894787e+17
19440.0	6.482825044470442e+17
19441.0	6.433920704140627e+17
19442.0	6.377903481334444e+17
19443.0	6.316145820128595e+17
19444.0	6.25246352913203e+17
19445.0	6.180675309447854e+17
19446.0	6.098418706066088e+17
19447.0	6.008167050422949e+17
19448.0	5.90265954441626e+17
19449.0	5.762872857242281e+17
19450.0	5.4509615451558784e+17
19451.0	5.322878392205314e+17
19452.0	5.632477527801862e+17
19453.0	5.839362006712324e+17
19454.0	5.952710331334651e+17
19455.0	6.047577131362986e+17
19456.0	6.130811071190358e+17
19457.0	6.205752614060028e+17
19458.0	6.258252391470445e+17
19459.0	6.330112830778029e+17
19460.0	6.387286814665385e+17
19461.0	6.437004609497769e+17
19462.0	6.48094370618846e+17
19463.0	6.520398847235411e+17
19464.0	6.555860973824681e+17
19465.0	6.591096782061572e+17
19466.0	6.624111302279165e+17
19467.0	6.656108889025194e+17
19468.0	6.683115593749846e+17
19469.0	6.705249662970536e+17
19470.0	6.729157813032276e+17
19471.0	6.749248706052096e+17
19472.0	6.76761563387221e+17
19473.0	6.784336142882131e+17
19474.0	6.800111746504022e+17
19475.0	6.814947509359956e+17
19476.0	6.831894549932714e+17
19477.0	6.846521003737087e+17
19478.0	6.859259406275924e+17
19479.0	6.870877719232511e+17
19480.0	6.881494407228074e+17
19481.0	6.891229249798143e+17
19482.0	6.900278967489876e+17
19483.0	6.90854236852497e+17
19484.0	6.916066457070249e+17
19485.0	6.922987685019645e+17
19486.0	6.929534181266772e+17
19487.0	6.935419758662995e+17
19488.0	6.94112091181329e+17
19489.0	6.946168569331712e+17
19490.0	6.948649066037243e+17
19491.0	6.955698974534313e+17
19492.0	6.960642621003092e+17
19493.0	6.964970203206996e+17
19494.0	6.96870883102993e+17
19495.0	6.972137092939773e+17
19496.0	6.974790483749545e+17
19497.0	6.978464645819049e+17
19498.0	6.979083913833138e+17
19499.0	6.912419805440607e+17
19500.0	6.986025117155325e+17
19501.0	6.988212909462868e+17
19502.0	6.990072198987775e+17
19503.0	6.991745223666345e+17
19504.0	6.993308321928531e+17
19505.0	6.994889722036224e+17
19506.0	6.996117666747732e+17
19507.0	6.997194480200362e+17
19508.0	6.998314228645888e+17
19509.0	6.9992791946909e+17
19510.0	6.999697825376937e+17
19511.0	6.949626475184096e+17
19512.0	6.991961788164737e+17
19513.0	6.980541747647789e+17
19514.0	6.987981582412439e+17
19515.0	7.001031488219823e+17
19516.0	7.003132861786794e+17
19517.0	7.003204357193727e+17
19518.0	7.003533617747284e+17
19519.0	7.00367945928977e+17
19520.0	7.003654129188861e+17
19521.0	7.003674116445523e+17
19522.0	7.003479177079466e+17
19523.0	7.003630031514282e+17
19524.0	7.003465368032595e+17
19525.0	7.003083362009087e+17
19526.0	7.002919236796415e+17
19527.0	7.002583914774527e+17
19528.0	7.002275765551103e+17
19529.0	7.00193516429858e+17
19530.0	7.001521025712127e+17
19531.0	7.001070396680874e+17
19532.0	7.000564305668777e+17
19533.0	7.000041303222953e+17
19534.0	6.999484752636586e+17
19535.0	6.998847437930495e+17
19536.0	6.998258462578004e+17
19537.0	6.997725999180457e+17
19538.0	6.996999129792511e+17
19539.0	6.995260131508229e+17
19540.0	6.995642826096639e+17
19541.0	6.995012330629801e+17
19542.0	6.994250563234473e+17
19543.0	6.993478746286762e+17
19544.0	6.992700444246015e+17
19545.0	6.991230643382949e+17
19546.0	6.989222065296726e+17
19547.0	6.990193968021504e+17
19548.0	6.989467618028202e+17
19549.0	6.988371271701844e+17
19550.0	6.987720099714388e+17
19551.0	6.986834872980819e+17
19552.0	6.985925143123284e+17
19553.0	6.984969856133802e+17
19554.0	6.983990330261504e+17
19555.0	6.983103961978195e+17
19556.0	6.982171143875242e+17
19557.0	6.981197849340585e+17
19558.0	6.980226930879145e+17
19559.0	6.979166761123839e+17
19560.0	6.978196534023508e+17
19561.0	6.977191561308842e+17
19562.0	6.976224296785235e+17
19563.0	6.975198014210047e+17
19564.0	6.974189221882538e+17
19565.0	6.973140617920511e+17
19566.0	6.972051920606548e+17
19567.0	6.971048480909993e+17
19568.0	6.969933990723583e+17
19569.0	6.968929076729171e+17
19570.0	6.967919465114281e+17
19571.0	6.966839754795689e+17
19572.0	6.965676429628755e+17
19573.0	6.964646699335679e+17
19574.0	6.963347367570089e+17
19575.0	6.962467629083306e+17
19576.0	6.961360188123817e+17
19577.0	6.960059077274281e+17
19578.0	6.959069189373951e+17
19579.0	6.957973435143507e+17
19580.0	6.956859647503018e+17
19581.0	6.955755975824724e+17
19582.0	6.954659233136639e+17
19583.0	6.953522237014016e+17
19584.0	6.952355559899135e+17
19585.0	6.950964529463295e+17
19586.0	6.94949286632926e+17
19587.0	6.948199837903529e+17
19588.0	6.94669349556497e+17
19589.0	6.945935061243219e+17
19590.0	6.945238924219731e+17
19591.0	6.944281876321619e+17
19592.0	6.943128748206762e+17
19593.0	6.941893012575572e+17
19594.0	6.940146419105788e+17
19595.0	6.939570811000148e+17
19596.0	6.923893781211828e+17
19597.0	6.937180568027136e+17
19598.0	6.935589511233535e+17
19599.0	6.934894779301887e+17
19600.0	6.933722639106047e+17
19601.0	6.932399194286762e+17
19602.0	6.931258835031379e+17
19603.0	6.928406723690492e+17
19604.0	6.928807469165225e+17
19605.0	6.927115091968e+17
19606.0	6.926514188014932e+17
19607.0	6.925350090397012e+17
19608.0	6.924119325016061e+17
19609.0	6.92281234493713e+17
19610.0	6.921754999346516e+17
19611.0	6.920528777794899e+17
19612.0	6.919347120723283e+17
19613.0	6.918104205142698e+17
19614.0	6.916834258670932e+17
19615.0	6.915724412977151e+17
19616.0	6.914098086980266e+17
19617.0	6.913305238394195e+17
19618.0	6.911124169555965e+17
19619.0	6.909541079143761e+17
19620.0	6.908397014919848e+17
19621.0	6.908423518027775e+17
19622.0	6.90722473910818e+17
19623.0	6.906007483580415e+17
19624.0	6.904764804278953e+17
19625.0	6.903549429896532e+17
19626.0	6.902307578970111e+17
19627.0	6.901105206930089e+17
19628.0	6.89847151397001e+17
19629.0	6.898448780143274e+17
19630.0	6.896386649882628e+17
19631.0	6.837906350014438e+17
19632.0	6.894904433879722e+17
19633.0	6.893605532030291e+17
19634.0	6.892505848436052e+17
19635.0	6.891185660493823e+17
19636.0	6.890016052259497e+17
19637.0	6.887910043986604e+17
19638.0	6.887556139799892e+17
19639.0	6.886274600271871e+17
19640.0	6.884971494331731e+17
19641.0	6.88283942754714e+17
19642.0	6.882626235968169e+17
19643.0	6.881349213705556e+17
19644.0	6.880073645468329e+17
19645.0	6.878442859528191e+17
19646.0	6.877725962098004e+17
19647.0	6.87649030545954e+17
19648.0	6.875241099122004e+17
19649.0	6.873995789292884e+17
19650.0	6.872771114041341e+17
19651.0	6.871516730534569e+17
19652.0	6.870272673404244e+17
19653.0	6.869024628888916e+17
19654.0	6.867783211373908e+17
19655.0	6.866529260579497e+17
19656.0	6.865295864670889e+17
19657.0	6.864063083227818e+17
19658.0	6.862820466141865e+17
19659.0	6.861591546953727e+17
19660.0	6.86035785884194e+17
19661.0	6.859104113568426e+17
19662.0	6.857871292978515e+17
19663.0	6.856520610349055e+17
19664.0	6.855082946942292e+17
19665.0	6.854139786384723e+17
19666.0	6.852851101160788e+17
