# Flux units: erg / (cm m2 s)
# Wavelength units: Angstrom
wave	flux
19000.0	7.377786188595199e+17
19001.0	7.375998995660799e+17
19002.0	7.375079419674623e+17
19003.0	7.373697673330687e+17
19004.0	7.372329441034239e+17
19005.0	7.370961835087187e+17
19006.0	7.369597320342185e+17
19007.0	7.368017648986793e+17
19008.0	7.366598089594195e+17
19009.0	7.365087941623807e+17
19010.0	7.362206109444776e+17
19011.0	7.362613123306836e+17
19012.0	7.360637030105084e+17
19013.0	7.360011635610963e+17
19014.0	7.358377477450409e+17
19015.0	7.357122912190463e+17
19016.0	7.35570986934818e+17
19017.0	7.354399538020351e+17
19018.0	7.353104318769832e+17
19019.0	7.351752530941268e+17
19020.0	7.350293599617024e+17
19021.0	7.349023298726569e+17
19022.0	7.347682372747264e+17
19023.0	7.346142498346323e+17
19024.0	7.344868861586089e+17
19025.0	7.343523992961023e+17
19026.0	7.342060865934675e+17
19027.0	7.340386455038633e+17
19028.0	7.339458359022931e+17
19029.0	7.33801504588868e+17
19030.0	7.336762393231357e+17
19031.0	7.335416561314474e+17
19032.0	7.334033005827412e+17
19033.0	7.332254355292157e+17
19034.0	7.331208662177108e+17
19035.0	7.32971847909376e+17
19036.0	7.295252384361129e+17
19037.0	7.327089209726292e+17
19038.0	7.325683765564755e+17
19039.0	7.324400686028116e+17
19040.0	7.323050914261674e+17
19041.0	7.321637815495336e+17
19042.0	7.319890292288169e+17
19043.0	7.318916777552553e+17
19044.0	7.317499420169556e+17
19045.0	7.31616343228416e+17
19046.0	7.314523878850557e+17
19047.0	7.313336565060947e+17
19048.0	7.311142828026536e+17
19049.0	7.310343210532863e+17
19050.0	7.30907075936256e+17
19051.0	7.302612047101944e+17
19052.0	7.3054979924951e+17
19053.0	7.305108133336403e+17
19054.0	7.303768876690088e+17
19055.0	7.301272484271447e+17
19056.0	7.300921014179156e+17
19057.0	7.299625293010259e+17
19058.0	7.298167242489855e+17
19059.0	7.296893814046719e+17
19060.0	7.295433692938239e+17
19061.0	7.294169033386666e+17
19062.0	7.292759318025555e+17
19063.0	7.291401716891645e+17
19064.0	7.289430194083156e+17
19065.0	7.287838027896148e+17
19066.0	7.287005060093267e+17
19067.0	7.285824626360319e+17
19068.0	7.284503357685757e+17
19069.0	7.283138023653373e+17
19070.0	7.281631900816723e+17
19071.0	7.280351779662505e+17
19072.0	7.279003035500543e+17
19073.0	7.277599495553024e+17
19074.0	7.276264094870185e+17
19075.0	7.274886595958099e+17
19076.0	7.273417198447272e+17
19077.0	7.272072061386751e+17
19078.0	7.270554022532436e+17
19079.0	7.26935295562001e+17
19080.0	7.267913255179604e+17
19081.0	7.266429296443391e+17
19082.0	7.265030407979007e+17
19083.0	7.263325212289705e+17
19084.0	7.261385815053654e+17
19085.0	7.26103398285312e+17
19086.0	7.257955310589268e+17
19087.0	7.257280851126956e+17
19088.0	7.256522929209344e+17
19089.0	7.254230301671424e+17
19090.0	7.254043374125055e+17
19091.0	7.252684813893632e+17
19092.0	7.25096397205231e+17
19093.0	7.250049552263849e+17
19094.0	7.2486792214173e+17
19095.0	7.247309231707475e+17
19096.0	7.245865980089684e+17
19097.0	7.24455004377361e+17
19098.0	7.243163562060458e+17
19099.0	7.24177815408913e+17
19100.0	7.24035785789713e+17
19101.0	7.239018233550163e+17
19102.0	7.237257505275901e+17
19103.0	7.236261973240489e+17
19104.0	7.234916232200191e+17
19105.0	7.233511854789972e+17
19106.0	7.231958909539667e+17
19107.0	7.230684633847123e+17
19108.0	7.229385930528084e+17
19109.0	7.224883676534097e+17
19110.0	7.226504633821864e+17
19111.0	7.225249531691007e+17
19112.0	7.22388430950673e+17
19113.0	7.222499574022143e+17
19114.0	7.221102029133139e+17
19115.0	7.219480207818751e+17
19116.0	7.218264909632851e+17
19117.0	7.216864953019049e+17
19118.0	7.215097894141951e+17
19119.0	7.200763893776366e+17
19120.0	7.212492728041471e+17
19121.0	7.211255053243731e+17
19122.0	7.210099124032854e+17
19123.0	7.208699925189972e+17
19124.0	7.207155945963519e+17
19125.0	7.205914567595348e+17
19126.0	7.20454500290833e+17
19127.0	7.195707712034131e+17
19128.0	7.200269133676541e+17
19129.0	7.200064966142633e+17
19130.0	7.198961258812756e+17
19131.0	7.197622311146836e+17
19132.0	7.196281232774483e+17
19133.0	7.193773559076182e+17
19134.0	7.192850353618944e+17
19135.0	7.192131318491817e+17
19136.0	7.190789430618794e+17
19137.0	7.188705673827667e+17
19138.0	7.18790203539456e+17
19139.0	7.186638613162666e+17
19140.0	7.185273620267007e+17
19141.0	7.183893213304147e+17
19142.0	7.18239364616465e+17
19143.0	7.180880792868182e+17
19144.0	7.17956865798963e+17
19145.0	7.17834155982848e+17
19146.0	7.174376259234477e+17
19147.0	7.17515986706978e+17
19148.0	7.174200562636116e+17
19149.0	7.172808475934719e+17
19150.0	7.171420742920874e+17
19151.0	7.170061806600191e+17
19152.0	7.168642019317076e+17
19153.0	7.167241328700074e+17
19154.0	7.165383011554642e+17
19155.0	7.164552937821523e+17
19156.0	7.163164002440531e+17
19157.0	7.161687357172394e+17
19158.0	7.158268050101586e+17
19159.0	7.158919738687487e+17
19160.0	7.157538178291028e+17
19161.0	7.156100570808319e+17
19162.0	7.150003183856302e+17
19163.0	7.153296123538089e+17
19164.0	7.152120201478143e+17
19165.0	7.150619501876564e+17
19166.0	7.148795032764415e+17
19167.0	7.147518500536317e+17
19168.0	7.146368665649151e+17
19169.0	7.145001631525545e+17
19170.0	7.143822170871123e+17
19171.0	7.142155910905855e+17
19172.0	7.141011166505642e+17
19173.0	7.139671254149802e+17
19174.0	7.138041913846441e+17
19175.0	7.136916664571219e+17
19176.0	7.135513672679424e+17
19177.0	7.133480352393897e+17
19178.0	7.132629568585727e+17
19179.0	7.130991156002815e+17
19180.0	7.129832768929791e+17
19181.0	7.128166942375935e+17
19182.0	7.127072022112936e+17
19183.0	7.125818171282772e+17
19184.0	7.124246456522068e+17
19185.0	7.122995550093311e+17
19186.0	7.121671662774953e+17
19187.0	7.119922995920892e+17
19188.0	7.118872312982185e+17
19189.0	7.117455144342868e+17
19190.0	7.116045605142527e+17
19191.0	7.114554590188884e+17
19192.0	7.11333645665348e+17
19193.0	7.111860149725865e+17
19194.0	7.110450505667926e+17
19195.0	7.109142565093373e+17
19196.0	7.107678000818857e+17
19197.0	7.10628534788642e+17
19198.0	7.104733416259583e+17
19199.0	7.075249913506465e+17
19200.0	7.082037304011444e+17
19201.0	7.100597805951658e+17
19202.0	7.099381474568874e+17
19203.0	7.097962229749075e+17
19204.0	7.096530284576765e+17
19205.0	7.095202222527828e+17
19206.0	7.093777123857748e+17
19207.0	7.091995912000851e+17
19208.0	7.090237062774781e+17
19209.0	7.089616947511293e+17
19210.0	7.088241945608191e+17
19211.0	7.086906579877887e+17
19212.0	7.085499272047274e+17
19213.0	7.083546625004883e+17
19214.0	7.081910112441684e+17
19215.0	7.081200329949183e+17
19216.0	7.079894532663977e+17
19217.0	7.078482613895168e+17
19218.0	7.073525849740623e+17
19219.0	7.074999087835816e+17
19220.0	7.074195498336255e+17
19221.0	7.071485937407318e+17
19222.0	7.071472097602217e+17
19223.0	7.069999344648191e+17
19224.0	7.068458105700351e+17
19225.0	7.066623068340223e+17
19226.0	7.065774752180906e+17
19227.0	7.06436433916723e+17
19228.0	7.063076609545556e+17
19229.0	7.061669747709267e+17
19230.0	7.06016374371123e+17
19231.0	7.058753948658345e+17
19232.0	7.057372434399232e+17
19233.0	7.055708691016362e+17
19234.0	7.054502164518228e+17
19235.0	7.053036353137322e+17
19236.0	7.051792042950655e+17
19237.0	7.050293922846036e+17
19238.0	7.048531709788159e+17
19239.0	7.047549798055935e+17
19240.0	7.045743969828863e+17
19241.0	7.044480049872893e+17
19242.0	7.043193591125331e+17
19243.0	7.041075322202793e+17
19244.0	7.040449751547904e+17
19245.0	7.039002056764074e+17
19246.0	7.037518221759828e+17
19247.0	7.036125300391935e+17
19248.0	7.034743350624255e+17
19249.0	7.033295101493247e+17
19250.0	7.031798234087423e+17
19251.0	7.029835281640104e+17
19252.0	7.027767228323155e+17
19253.0	7.027487100545705e+17
19254.0	7.026094042163881e+17
19255.0	7.023904879717032e+17
19256.0	7.023038416901459e+17
19257.0	7.02181871259921e+17
19258.0	7.020385990082559e+17
19259.0	7.018631763678548e+17
19260.0	7.016851827589117e+17
19261.0	7.015983982750378e+17
19262.0	7.014338502765225e+17
19263.0	7.012878582983338e+17
19264.0	7.009409390258854e+17
19265.0	7.009423385952253e+17
19266.0	7.008110180827136e+17
19267.0	7.007333920014336e+17
19268.0	7.005839706204841e+17
19269.0	7.004375294323369e+17
19270.0	7.002927709989546e+17
19271.0	7.000020731559937e+17
19272.0	6.999825804077738e+17
19273.0	6.987640535864652e+17
19274.0	6.990449794001569e+17
19275.0	6.995576376437417e+17
19276.0	6.994016611248809e+17
19277.0	6.992544855141034e+17
19278.0	6.991080203485183e+17
19279.0	6.989445500065108e+17
19280.0	6.987736001019901e+17
19281.0	6.986583794952874e+17
19282.0	6.985157247849812e+17
19283.0	6.983231612824234e+17
19284.0	6.981532605830484e+17
19285.0	6.97976127435571e+17
19286.0	6.978985747546111e+17
19287.0	6.977645883424765e+17
19288.0	6.966406356664307e+17
19289.0	6.95372044374286e+17
19290.0	6.973103461280425e+17
19291.0	6.970410418219692e+17
19292.0	6.970049860468735e+17
19293.0	6.96849381143347e+17
19294.0	6.966942833311743e+17
19295.0	6.96545469145634e+17
19296.0	6.963882668414291e+17
19297.0	6.962232463545684e+17
19298.0	6.960674517985961e+17
19299.0	6.959249694042793e+17
19300.0	6.957682788051625e+17
19301.0	6.95609638134306e+17
19302.0	6.954464541234516e+17
19303.0	6.95209173328418e+17
19304.0	6.950565333084842e+17
19305.0	6.949074625014442e+17
19306.0	6.947510304811689e+17
19307.0	6.945721465612969e+17
19308.0	6.944196120281085e+17
19309.0	6.941713611707731e+17
19310.0	6.939685790154751e+17
19311.0	6.93932431385122e+17
19312.0	6.937903314414249e+17
19313.0	6.936267737879892e+17
19314.0	6.915223906680845e+17
19315.0	6.914457249426107e+17
19316.0	6.931315816049321e+17
19317.0	6.929723223441407e+17
19318.0	6.928040235193684e+17
19319.0	6.926434752790527e+17
19320.0	6.924756404142079e+17
19321.0	6.923078376357887e+17
19322.0	6.920925092686506e+17
19323.0	6.919210145240404e+17
19324.0	6.917914733051904e+17
19325.0	6.915379897739946e+17
19326.0	6.914488857001983e+17
19327.0	6.912732193707348e+17
19328.0	6.911059278080681e+17
19329.0	6.909312644765012e+17
19330.0	6.907382649061373e+17
19331.0	6.905579713505962e+17
19332.0	6.90395905401378e+17
19333.0	6.902105298173952e+17
19334.0	6.900304932328788e+17
19335.0	6.898464141781673e+17
19336.0	6.896621663027199e+17
19337.0	6.894788149597526e+17
19338.0	6.892041554362365e+17
19339.0	6.891078398159529e+17
19340.0	6.888332025222484e+17
19341.0	6.886251325379923e+17
19342.0	6.882741542278482e+17
19343.0	6.882505945426601e+17
19344.0	6.880534122725375e+17
19345.0	6.87080384006279e+17
19346.0	6.872957643827878e+17
19347.0	6.874414783485268e+17
19348.0	6.872713519955967e+17
19349.0	6.870542962742611e+17
19350.0	6.868546916537683e+17
19351.0	6.866465598035284e+17
19352.0	6.864237875254612e+17
19353.0	6.862494055617876e+17
19354.0	6.860392468141395e+17
19355.0	6.857841330967894e+17
19356.0	6.855779667673088e+17
19357.0	6.852555695631017e+17
19358.0	6.850235426930687e+17
19359.0	6.847569509132969e+17
19360.0	6.845702144873812e+17
19361.0	6.843471130962601e+17
19362.0	6.841344163752617e+17
19363.0	6.839016320838313e+17
19364.0	6.836659056279551e+17
19365.0	6.834261282433705e+17
19366.0	6.831009812534612e+17
19367.0	6.827575628267519e+17
19368.0	6.825104124149759e+17
19369.0	6.822190034976767e+17
19370.0	6.818840920981504e+17
19371.0	6.817256071058772e+17
19372.0	6.814871723879081e+17
19373.0	6.810476319080447e+17
19374.0	6.807090258859348e+17
19375.0	6.804366514891434e+17
19376.0	6.801590147787433e+17
19377.0	6.798710304407551e+17
19378.0	6.793813527188822e+17
19379.0	6.789879995651412e+17
19380.0	6.78685681263138e+17
19381.0	6.78374898016802e+17
19382.0	6.777579162479277e+17
19383.0	6.773249737577812e+17
19384.0	6.770415422668799e+17
19385.0	6.76470310707746e+17
19386.0	6.759199514733225e+17
19387.0	6.755624213807103e+17
19388.0	6.747657855478447e+17
19389.0	6.743041700265983e+17
19390.0	6.736014583616854e+17
19391.0	6.702695338125958e+17
19392.0	6.722463989060943e+17
19393.0	6.717272378834943e+17
19394.0	6.712517516591101e+17
19395.0	6.707909963896148e+17
19396.0	6.703262909246122e+17
19397.0	6.698555393004884e+17
19398.0	6.693561661652991e+17
19399.0	6.685974472600233e+17
19400.0	6.683179853982378e+17
19401.0	6.678147367960575e+17
19402.0	6.67274876953122e+17
19403.0	6.667088152231935e+17
19404.0	6.661217125575338e+17
19405.0	6.654732069590356e+17
19406.0	6.648640049250304e+17
19407.0	6.64239370019362e+17
19408.0	6.633140471376559e+17
19409.0	6.629066439742804e+17
19410.0	6.621194727981055e+17
19411.0	6.613945524333225e+17
19412.0	6.606559378756948e+17
19413.0	6.598109724759379e+17
19414.0	6.589400166520147e+17
19415.0	6.581195355717633e+17
19416.0	6.570233674334207e+17
19417.0	6.561145953452028e+17
19418.0	6.550171986952192e+17
19419.0	6.538004080361472e+17
19420.0	6.524807287930877e+17
19421.0	6.509937061877079e+17
19422.0	6.49252667234714e+17
19423.0	6.472937696307886e+17
19424.0	6.448909234733069e+17
19425.0	6.42319518234487e+17
19426.0	6.405206261978451e+17
19427.0	6.388019486173866e+17
19428.0	6.370500540366847e+17
19429.0	6.352288747967827e+17
19430.0	6.332738735614637e+17
19431.0	6.308891841964719e+17
19432.0	6.292424018799272e+17
19433.0	6.269398495002625e+17
19434.0	6.24518734422562e+17
19435.0	6.217917509839528e+17
19436.0	6.186940907563692e+17
19437.0	6.153107357914449e+17
19438.0	6.08214304633652e+17
19439.0	6.053614478950406e+17
19440.0	6.001893200713047e+17
19441.0	5.955551427734184e+17
19442.0	5.903547428241408e+17
19443.0	5.844130273951743e+17
19444.0	5.773871632351228e+17
19445.0	5.684554208990552e+17
19446.0	5.5801893760969395e+17
19447.0	5.465426689523706e+17
19448.0	5.319219817567579e+17
19449.0	5.127667290472448e+17
19450.0	4.858785515088503e+17
19451.0	4.7760977575280634e+17
19452.0	4.996512022353235e+17
19453.0	5.230565637401265e+17
19454.0	5.3936676111646656e+17
19455.0	5.519793829795156e+17
19456.0	5.624585389779624e+17
19457.0	5.721308510464676e+17
19458.0	5.774731638734877e+17
19459.0	5.85813627904547e+17
19460.0	5.91243130594918e+17
19461.0	5.959109815129428e+17
19462.0	6.004194933385896e+17
19463.0	6.05852030957431e+17
19464.0	6.104723554478764e+17
19465.0	6.141975703759529e+17
19466.0	6.17096978785894e+17
19467.0	6.19721763463714e+17
19468.0	6.220338944453292e+17
19469.0	6.239962622066685e+17
19470.0	6.260713833452884e+17
19471.0	6.278781558500009e+17
19472.0	6.295831246973609e+17
19473.0	6.311806726657363e+17
19474.0	6.327402921721855e+17
19475.0	6.339874582604453e+17
19476.0	6.356127498720596e+17
19477.0	6.376486919471112e+17
19478.0	6.398920040469841e+17
19479.0	6.418526207563089e+17
19480.0	6.434157988500824e+17
19481.0	6.447346441956006e+17
19482.0	6.459162338787327e+17
19483.0	6.469530458346839e+17
19484.0	6.477817467721044e+17
19485.0	6.486034850949802e+17
19486.0	6.49294967419699e+17
19487.0	6.500002653623636e+17
19488.0	6.505488619405311e+17
19489.0	6.511733630479017e+17
19490.0	6.512353724071931e+17
19491.0	6.521789767920297e+17
19492.0	6.527058273719635e+17
19493.0	6.531862993655123e+17
19494.0	6.535895424084649e+17
19495.0	6.53970680840192e+17
19496.0	6.542007867888978e+17
19497.0	6.546860128862207e+17
19498.0	6.546972991990442e+17
19499.0	6.513197839635785e+17
19500.0	6.556870646956031e+17
19501.0	6.559685820459689e+17
19502.0	6.562325173633023e+17
19503.0	6.564864795344895e+17
19504.0	6.567253912846335e+17
19505.0	6.569548848649555e+17
19506.0	6.571754852625066e+17
19507.0	6.573710209187839e+17
19508.0	6.575793833858388e+17
19509.0	6.577805782766931e+17
19510.0	6.581728939693399e+17
19511.0	6.544907712506524e+17
19512.0	6.584222918989134e+17
19513.0	6.579749826592749e+17
19514.0	6.58748246991393e+17
19515.0	6.597747347379544e+17
19516.0	6.600733647787347e+17
19517.0	6.604935734318415e+17
19518.0	6.606628139477673e+17
19519.0	6.607303579009024e+17
19520.0	6.609802748755969e+17
19521.0	6.611996692709373e+17
19522.0	6.612320557989888e+17
19523.0	6.612921777913855e+17
19524.0	6.614749114531836e+17
19525.0	6.616322100166655e+17
19526.0	6.616652551902548e+17
19527.0	6.616827092271101e+17
19528.0	6.616982217206441e+17
19529.0	6.617815535233706e+17
19530.0	6.61945561784866e+17
19531.0	6.619504001941503e+17
19532.0	6.619474301375828e+17
19533.0	6.61945215754786e+17
19534.0	6.619354228938068e+17
19535.0	6.619178470124201e+17
19536.0	6.619383276590418e+17
19537.0	6.620674720268287e+17
19538.0	6.619995707888982e+17
19539.0	6.618102355722244e+17
19540.0	6.61987360051473e+17
19541.0	6.619706872037375e+17
19542.0	6.619383258415103e+17
19543.0	6.619036951511039e+17
19544.0	6.618696893420884e+17
19545.0	6.616295639700819e+17
19546.0	6.614362447238486e+17
19547.0	6.618485134895785e+17
19548.0	6.618313963252393e+17
19549.0	6.617409061038761e+17
19550.0	6.61735815127586e+17
19551.0	6.616859479987539e+17
19552.0	6.616325610100052e+17
19553.0	6.615676479340544e+17
19554.0	6.6150492274688e+17
19555.0	6.614574694399999e+17
19556.0	6.614033149635242e+17
19557.0	6.613413700567039e+17
19558.0	6.612782398395731e+17
19559.0	6.612119415248211e+17
19560.0	6.611380147497641e+17
19561.0	6.610710058500095e+17
19562.0	6.610124079977812e+17
19563.0	6.609460884318889e+17
19564.0	6.608745920462847e+17
19565.0	6.608364222720682e+17
19566.0	6.608042040055123e+17
19567.0	6.607435523424255e+17
19568.0	6.606550494522026e+17
19569.0	6.605819781753514e+17
19570.0	6.605139882977961e+17
19571.0	6.604337182670847e+17
19572.0	6.603413413079721e+17
19573.0	6.602657472271702e+17
19574.0	6.601545513347753e+17
19575.0	6.601107848910164e+17
19576.0	6.600279090790399e+17
19577.0	6.599314189058047e+17
19578.0	6.598407849596243e+17
19579.0	6.597614053796521e+17
19580.0	6.596749930004479e+17
19581.0	6.595940169285632e+17
19582.0	6.595127747280895e+17
19583.0	6.594239206348116e+17
19584.0	6.593295970992127e+17
19585.0	6.592026404104872e+17
19586.0	6.590971212289366e+17
19587.0	6.590500376499539e+17
19588.0	6.587776025056599e+17
19589.0	6.588710281106772e+17
19590.0	6.587532179406847e+17
19591.0	6.586925983640234e+17
19592.0	6.586009589033641e+17
19593.0	6.584968281063423e+17
19594.0	6.583065666475346e+17
19595.0	6.582928728042153e+17
19596.0	6.578815383896065e+17
19597.0	6.581012282037588e+17
19598.0	6.578914851116372e+17
19599.0	6.579213935050751e+17
19600.0	6.578256420186793e+17
19601.0	6.576973322474838e+17
19602.0	6.57603991577122e+17
19603.0	6.573183080944978e+17
19604.0	6.573969518537385e+17
19605.0	6.571942550525268e+17
19606.0	6.572207448784895e+17
19607.0	6.571207960122708e+17
19608.0	6.570131867391316e+17
19609.0	6.568931746993492e+17
19610.0	6.568154357213866e+17
19611.0	6.567083476604244e+17
19612.0	6.566101798354943e+17
19613.0	6.565014393585663e+17
19614.0	6.563836821766143e+17
19615.0	6.562961862688765e+17
19616.0	6.562144208289791e+17
19617.0	6.561417686330025e+17
19618.0	6.557970069804369e+17
19619.0	6.556429477478395e+17
19620.0	6.55544096740693e+17
19621.0	6.557169103841961e+17
19622.0	6.556126429227689e+17
19623.0	6.555069164726954e+17
19624.0	6.55395401044241e+17
19625.0	6.552924088609449e+17
19626.0	6.551798986833919e+17
19627.0	6.550761782990164e+17
19628.0	6.548945870957228e+17
19629.0	6.548179571616425e+17
19630.0	6.54527103570193e+17
19631.0	6.516327509742938e+17
19632.0	6.545261232914432e+17
19633.0	6.544026971581097e+17
19634.0	6.543161379782655e+17
19635.0	6.541889877923156e+17
19636.0	6.540928710519466e+17
19637.0	6.538115344760832e+17
19638.0	6.538734430322687e+17
19639.0	6.537594204585983e+17
19640.0	6.536119346091348e+17
19641.0	6.532723768295429e+17
19642.0	6.534319240293034e+17
19643.0	6.533174497989971e+17
19644.0	6.531872744013823e+17
19645.0	6.529883409394342e+17
19646.0	6.529934454773076e+17
19647.0	6.52882187788834e+17
19648.0	6.52768595550754e+17
19649.0	6.526555996727978e+17
19650.0	6.525469050535933e+17
19651.0	6.524326135551316e+17
19652.0	6.523190132779689e+17
19653.0	6.522090928035156e+17
19654.0	6.520934070484992e+17
19655.0	6.519792532630185e+17
19656.0	6.518702868529151e+17
19657.0	6.517574700717395e+17
19658.0	6.516472552969555e+17
19659.0	6.515339710605993e+17
19660.0	6.514229288894464e+17
19661.0	6.513077900716714e+17
19662.0	6.51196667929122e+17
19663.0	6.510610646827007e+17
19664.0	6.509548273664e+17
19665.0	6.508566984086868e+17
