# Flux units: erg / (cm m2 s)
# Wavelength units: Angstrom
wave	flux
19000.0	6.515285116846079e+17
19001.0	6.513998366594388e+17
19002.0	6.512834696096425e+17
19003.0	6.511603503595519e+17
19004.0	6.510373768615252e+17
19005.0	6.509151828049919e+17
19006.0	6.507925628168874e+17
19007.0	6.506402926646612e+17
19008.0	6.50542547345954e+17
19009.0	6.50423301186082e+17
19010.0	6.502716083798015e+17
19011.0	6.501780920380074e+17
19012.0	6.500248802645331e+17
19013.0	6.499344240869373e+17
19014.0	6.498082214641663e+17
19015.0	6.496874716463101e+17
19016.0	6.495645155546452e+17
19017.0	6.494243665215487e+17
19018.0	6.493193395415722e+17
19019.0	6.491994691993599e+17
19020.0	6.490726642745343e+17
19021.0	6.489525993865215e+17
19022.0	6.488330891253076e+17
19023.0	6.487082021857961e+17
19024.0	6.485871641493501e+17
19025.0	6.48462823657745e+17
19026.0	6.483396617655635e+17
19027.0	6.482021725503487e+17
19028.0	6.480995861659647e+17
19029.0	6.479761203964585e+17
19030.0	6.478559630939475e+17
19031.0	6.477342507532287e+17
19032.0	6.476119102455807e+17
19033.0	6.474841974636543e+17
19034.0	6.473664996311039e+17
19035.0	6.472434501462698e+17
19036.0	6.453099326952772e+17
19037.0	6.470007290593279e+17
19038.0	6.468782756549972e+17
19039.0	6.467575129746089e+17
19040.0	6.466359739285503e+17
19041.0	6.465134177637716e+17
19042.0	6.463861866277546e+17
19043.0	6.462703239430143e+17
19044.0	6.461475261164201e+17
19045.0	6.460255856055635e+17
19046.0	6.459000721069396e+17
19047.0	6.457829387578025e+17
19048.0	6.456476002418687e+17
19049.0	6.455350495193769e+17
19050.0	6.454145698846036e+17
19051.0	6.450654312660986e+17
19052.0	6.451599272574976e+17
19053.0	6.450452368807252e+17
19054.0	6.449309619497642e+17
19055.0	6.447933963982166e+17
19056.0	6.446858587777705e+17
19057.0	6.445654077341695e+17
19058.0	6.444361346711551e+17
19059.0	6.443228979003391e+17
19060.0	6.441999848701951e+17
19061.0	6.440803614326783e+17
19062.0	6.439584768458751e+17
19063.0	6.438373271011327e+17
19064.0	6.437073673606484e+17
19065.0	6.43582713274914e+17
19066.0	6.434691078247763e+17
19067.0	6.433510295688531e+17
19068.0	6.432303641264127e+17
19069.0	6.431092129835689e+17
19070.0	6.429858069129897e+17
19071.0	6.428651715996329e+17
19072.0	6.427454332381865e+17
19073.0	6.426237971638954e+17
19074.0	6.425032418918399e+17
19075.0	6.42382076977698e+17
19076.0	6.422594598557012e+17
19077.0	6.421390930477055e+17
19078.0	6.420130010147498e+17
19079.0	6.418974211659091e+17
19080.0	6.417757067280383e+17
19081.0	6.416523955186346e+17
19082.0	6.415295022716244e+17
19083.0	6.414061605836116e+17
19084.0	6.412767056975188e+17
19085.0	6.411707644291753e+17
19086.0	6.410238960511657e+17
19087.0	6.408833761716905e+17
19088.0	6.408037749926569e+17
19089.0	6.406517282570239e+17
19090.0	6.405650598155604e+17
19091.0	6.404447144684202e+17
19092.0	6.403107597232809e+17
19093.0	6.40204753932561e+17
19094.0	6.400831421153279e+17
19095.0	6.399621639176191e+17
19096.0	6.398358669230079e+17
19097.0	6.397216447703721e+17
19098.0	6.396014230852948e+17
19099.0	6.394803258392576e+17
19100.0	6.393574309145257e+17
19101.0	6.392390057896617e+17
19102.0	6.391138485971625e+17
19103.0	6.389985851386537e+17
19104.0	6.388785994530815e+17
19105.0	6.387579028329812e+17
19106.0	6.386289165904553e+17
19107.0	6.385160058568701e+17
19108.0	6.383968231707988e+17
19109.0	6.380825048951462e+17
19110.0	6.381553427589801e+17
19111.0	6.380351868545705e+17
19112.0	6.379155963423402e+17
19113.0	6.377951480250367e+17
19114.0	6.376747997418836e+17
19115.0	6.37548969992738e+17
19116.0	6.37433186021103e+17
19117.0	6.373132524148052e+17
19118.0	6.371806957010943e+17
19119.0	6.369165844327078e+17
19120.0	6.36940780184098e+17
19121.0	6.368264308741459e+17
19122.0	6.367139939571027e+17
19123.0	6.36592140198434e+17
19124.0	6.364654083244032e+17
19125.0	6.36351114449169e+17
19126.0	6.362230143931731e+17
19127.0	6.360092783935484e+17
19128.0	6.358141546179238e+17
19129.0	6.358681748067668e+17
19130.0	6.357534746432852e+17
19131.0	6.356281023528959e+17
19132.0	6.355143226993321e+17
19133.0	6.353311500337152e+17
19134.0	6.351865785963862e+17
19135.0	6.351545552251562e+17
19136.0	6.350356867623594e+17
19137.0	6.349056947257343e+17
19138.0	6.347619910899028e+17
19139.0	6.346763030669994e+17
19140.0	6.345570099309225e+17
19141.0	6.344374504565418e+17
19142.0	6.343155812488532e+17
19143.0	6.341940081590272e+17
19144.0	6.340750183410346e+17
19145.0	6.339581316169727e+17
19146.0	6.337966887316138e+17
19147.0	6.337146425529684e+17
19148.0	6.335993395281919e+17
19149.0	6.334801179749034e+17
19150.0	6.333596530201939e+17
19151.0	6.332422011136682e+17
19152.0	6.33118885220625e+17
19153.0	6.330024859445929e+17
19154.0	6.32876586430191e+17
19155.0	6.327647080546303e+17
19156.0	6.326457964604074e+17
19157.0	6.325247837295956e+17
19158.0	6.322720300072956e+17
19159.0	6.322867650865834e+17
19160.0	6.321630675817812e+17
19161.0	6.320313595155798e+17
19162.0	6.316325604775255e+17
19163.0	6.318103865939284e+17
19164.0	6.316926345849514e+17
19165.0	6.315690388619264e+17
19166.0	6.31443146547746e+17
19167.0	6.313072550827348e+17
19168.0	6.312039932056916e+17
19169.0	6.310875549226324e+17
19170.0	6.309784231870463e+17
19171.0	6.308456613718698e+17
19172.0	6.307391655466324e+17
19173.0	6.306212075274239e+17
19174.0	6.304992840034985e+17
19175.0	6.303838517941588e+17
19176.0	6.302648759571795e+17
19177.0	6.301369652041044e+17
19178.0	6.300251305891156e+17
19179.0	6.298882825431722e+17
19180.0	6.297299646939136e+17
19181.0	6.296643616549546e+17
19182.0	6.295406821157546e+17
19183.0	6.294271309818538e+17
19184.0	6.29301391270434e+17
19185.0	6.291953041102163e+17
19186.0	6.290779265127764e+17
19187.0	6.289534295037268e+17
19188.0	6.288382752369321e+17
19189.0	6.287142372245504e+17
19190.0	6.285940734907731e+17
19191.0	6.284793050999465e+17
19192.0	6.283618393522175e+17
19193.0	6.281936792890025e+17
19194.0	6.281049881444351e+17
19195.0	6.280048553579859e+17
19196.0	6.278913740592467e+17
19197.0	6.277732419764223e+17
19198.0	6.276541271681706e+17
19199.0	6.257805904314362e+17
19200.0	6.263109314412549e+17
19201.0	6.272993237925887e+17
19202.0	6.271822416139604e+17
19203.0	6.270604906856447e+17
19204.0	6.269437358025386e+17
19205.0	6.268270403387391e+17
19206.0	6.267083591516159e+17
19207.0	6.265859509059583e+17
19208.0	6.264589415088127e+17
19209.0	6.263523202039808e+17
19210.0	6.262356640268287e+17
19211.0	6.261177476710397e+17
19212.0	6.260003291092308e+17
19213.0	6.258610353646249e+17
19214.0	6.257335964008447e+17
19215.0	6.256398425216339e+17
19216.0	6.255231583824553e+17
19217.0	6.254091726487551e+17
19218.0	6.252408147542013e+17
19219.0	6.251634501877759e+17
19220.0	6.250529032241151e+17
19221.0	6.249149540335615e+17
19222.0	6.248198156845055e+17
19223.0	6.247002133583188e+17
19224.0	6.245736382114474e+17
19225.0	6.244545824030719e+17
19226.0	6.243461319622655e+17
19227.0	6.242281583542272e+17
19228.0	6.241121476804608e+17
19229.0	6.23994387632401e+17
19230.0	6.23868307972642e+17
19231.0	6.237514926915583e+17
19232.0	6.236337146778963e+17
19233.0	6.235178125666985e+17
19234.0	6.234031024766976e+17
19235.0	6.23284557254929e+17
19236.0	6.231692355654996e+17
19237.0	6.230502329548799e+17
19238.0	6.229234548735999e+17
19239.0	6.228133646696445e+17
19240.0	6.226719417565183e+17
19241.0	6.225703628439551e+17
19242.0	6.224577256488959e+17
19243.0	6.223306143301631e+17
19244.0	6.222245387042815e+17
19245.0	6.221067604109993e+17
19246.0	6.219884181935444e+17
19247.0	6.218702818465108e+17
19248.0	6.217537573005994e+17
19249.0	6.216356785553407e+17
19250.0	6.215173173936127e+17
19251.0	6.213952281247741e+17
19252.0	6.212599488184319e+17
19253.0	6.211640775147519e+17
19254.0	6.210440747723434e+17
19255.0	6.209165459805524e+17
19256.0	6.208062854878548e+17
19257.0	6.206942475889321e+17
19258.0	6.205765811437568e+17
19259.0	6.204541392038569e+17
19260.0	6.203201058155178e+17
19261.0	6.202230062099113e+17
19262.0	6.20102315811362e+17
19263.0	6.199853781964115e+17
19264.0	6.198381562385747e+17
19265.0	6.19741276414498e+17
19266.0	6.196266724403881e+17
19267.0	6.195176840101887e+17
19268.0	6.193989828302164e+17
19269.0	6.192817846790825e+17
19270.0	6.191634268028927e+17
19271.0	6.190253033390079e+17
19272.0	6.189264196162899e+17
19273.0	6.181888721595043e+17
19274.0	6.183964927939922e+17
19275.0	6.185754051652265e+17
19276.0	6.184563275464704e+17
19277.0	6.183383574336852e+17
19278.0	6.182207234244607e+17
19279.0	6.180943921064618e+17
19280.0	6.179798051192831e+17
19281.0	6.178669843535188e+17
19282.0	6.177499441179306e+17
19283.0	6.176028526728532e+17
19284.0	6.174487992423763e+17
19285.0	6.173809446311252e+17
19286.0	6.172758205530111e+17
19287.0	6.171600479759018e+17
19288.0	6.166414326322515e+17
19289.0	6.156531053625317e+17
19290.0	6.168056876586324e+17
19291.0	6.166704644860588e+17
19292.0	6.165691163301204e+17
19293.0	6.16450439057681e+17
19294.0	6.163318364438527e+17
19295.0	6.162142730387455e+17
19296.0	6.160954626670591e+17
19297.0	6.159751222132735e+17
19298.0	6.158568633925631e+17
19299.0	6.157402702697812e+17
19300.0	6.15621691773201e+17
19301.0	6.15502290493986e+17
19302.0	6.153831519879165e+17
19303.0	6.152581448116906e+17
19304.0	6.151418756289876e+17
19305.0	6.15026379596322e+17
19306.0	6.149065124697428e+17
19307.0	6.147835085630121e+17
19308.0	6.146668704213673e+17
19309.0	6.144967156869801e+17
19310.0	6.143462602003794e+17
19311.0	6.14306264785442e+17
19312.0	6.141906689283412e+17
19313.0	6.140582526539094e+17
19314.0	6.133051609666886e+17
19315.0	6.132376903439715e+17
19316.0	6.137113966455465e+17
19317.0	6.135938400911359e+17
19318.0	6.134734838388052e+17
19319.0	6.133544064297641e+17
19320.0	6.132306056052735e+17
19321.0	6.131137285281107e+17
19322.0	6.129815175648596e+17
19323.0	6.128417546873514e+17
19324.0	6.127505924685823e+17
19325.0	6.125897216862889e+17
19326.0	6.125089546305533e+17
19327.0	6.123831835317588e+17
19328.0	6.122633414311933e+17
19329.0	6.121417336684544e+17
19330.0	6.120171657756671e+17
19331.0	6.118951391417684e+17
19332.0	6.117749927444479e+17
19333.0	6.116505297791657e+17
19334.0	6.115236046176255e+17
19335.0	6.114056246482259e+17
19336.0	6.112816245942953e+17
19337.0	6.111585893700948e+17
19338.0	6.110223217459199e+17
19339.0	6.10911204217105e+17
19340.0	6.107838152354474e+17
19341.0	6.106627827914068e+17
19342.0	6.105094118440959e+17
19343.0	6.104133542434134e+17
19344.0	6.10287267942673e+17
19345.0	6.100299158650875e+17
19346.0	6.10003822121233e+17
19347.0	6.099049472065535e+17
19348.0	6.097831890081108e+17
19349.0	6.096532125603156e+17
19350.0	6.095256939746644e+17
19351.0	6.093976817194324e+17
19352.0	6.092673739915263e+17
19353.0	6.091432384615763e+17
19354.0	6.090132376169129e+17
19355.0	6.088771415397716e+17
19356.0	6.087526639643305e+17
19357.0	6.086210806087679e+17
19358.0	6.084840171154089e+17
19359.0	6.083239698847059e+17
19360.0	6.082212720017408e+17
19361.0	6.080852289126399e+17
19362.0	6.079536302478676e+17
19363.0	6.078184607623849e+17
19364.0	6.076818996068351e+17
19365.0	6.075451529931434e+17
19366.0	6.074077845738836e+17
19367.0	6.072685520661161e+17
19368.0	6.071279917116074e+17
19369.0	6.069708858763944e+17
19370.0	6.067605151066793e+17
19371.0	6.066881660889769e+17
19372.0	6.065473406544553e+17
19373.0	6.063995815460863e+17
19374.0	6.062540382885204e+17
19375.0	6.061043271510698e+17
19376.0	6.059536339173373e+17
19377.0	6.058019878775465e+17
19378.0	6.056488864142676e+17
19379.0	6.054933156943188e+17
19380.0	6.053367284847956e+17
19381.0	6.051769749951827e+17
19382.0	6.050103545211561e+17
19383.0	6.048444907694761e+17
19384.0	6.046805438147241e+17
19385.0	6.045118727454719e+17
19386.0	6.043406923639465e+17
19387.0	6.041659885573459e+17
19388.0	6.039886619825492e+17
19389.0	6.038081291419647e+17
19390.0	6.036209745439401e+17
19391.0	6.018107420180453e+17
19392.0	6.032349131177981e+17
19393.0	6.030401655013375e+17
19394.0	6.028383589411498e+17
19395.0	6.026255722523306e+17
19396.0	6.024080906693289e+17
19397.0	6.021942616260605e+17
19398.0	6.01963617128721e+17
19399.0	6.016927203153235e+17
19400.0	6.014953829957631e+17
19401.0	6.012467072554324e+17
19402.0	6.009882063579817e+17
19403.0	6.007272067039231e+17
19404.0	6.004564090858154e+17
19405.0	6.001562452579668e+17
19406.0	5.998622459385172e+17
19407.0	5.99551007400482e+17
19408.0	5.991881514505556e+17
19409.0	5.988858645359273e+17
19410.0	5.985374856456873e+17
19411.0	5.981508714801833e+17
19412.0	5.977642593419263e+17
19413.0	5.973571117514751e+17
19414.0	5.969091282075647e+17
19415.0	5.964699710870868e+17
19416.0	5.959781097406463e+17
19417.0	5.954556876466857e+17
19418.0	5.949456418253482e+17
19419.0	5.943619283670356e+17
19420.0	5.937497940951037e+17
19421.0	5.930898329436159e+17
19422.0	5.923724117846697e+17
19423.0	5.915976897221972e+17
19424.0	5.907341137062569e+17
19425.0	5.898118084165631e+17
19426.0	5.887879961466198e+17
19427.0	5.876265388430675e+17
19428.0	5.865825833582591e+17
19429.0	5.854323695856297e+17
19430.0	5.841551071292074e+17
19431.0	5.824827303307954e+17
19432.0	5.813349884013225e+17
19433.0	5.796564488421376e+17
19434.0	5.777802696938834e+17
19435.0	5.7556778915375776e+17
19436.0	5.728949897614677e+17
19437.0	5.701292710865576e+17
19438.0	5.654429216800765e+17
19439.0	5.6466167439906157e+17
19440.0	5.614416229127509e+17
19441.0	5.577259345073491e+17
19442.0	5.532369042451116e+17
19443.0	5.476610979397631e+17
19444.0	5.422099253777747e+17
19445.0	5.361677913904471e+17
19446.0	5.286233478179499e+17
19447.0	5.19663383058841e+17
19448.0	5.093323245791918e+17
19449.0	4.9478621064069114e+17
19450.0	4.6258092028286125e+17
19451.0	4.5077007052745325e+17
19452.0	4.8087804719486336e+17
19453.0	5.0292828772761664e+17
19454.0	5.144901040384676e+17
19455.0	5.2357353226021523e+17
19456.0	5.3181600840198854e+17
19457.0	5.3828028230970003e+17
19458.0	5.4269867755656685e+17
19459.0	5.491028836483076e+17
19460.0	5.538862945621331e+17
19461.0	5.57730851000593e+17
19462.0	5.609528267636737e+17
19463.0	5.637465071856296e+17
19464.0	5.6621515400369485e+17
19465.0	5.687610456408064e+17
19466.0	5.71249630781986e+17
19467.0	5.7343993135322445e+17
19468.0	5.75237876805359e+17
19469.0	5.766799573734739e+17
19470.0	5.781331396351316e+17
19471.0	5.793382493672788e+17
19472.0	5.804173155106815e+17
19473.0	5.813627196014591e+17
19474.0	5.822296591695872e+17
19475.0	5.830639389507583e+17
19476.0	5.839786999458473e+17
19477.0	5.847035455821142e+17
19478.0	5.853702103498751e+17
19479.0	5.859625756786687e+17
19480.0	5.864749445152767e+17
19481.0	5.869425844551679e+17
19482.0	5.873502803809622e+17
19483.0	5.877098884016809e+17
19484.0	5.880552320838314e+17
19485.0	5.8833716655773e+17
19486.0	5.886141347659775e+17
19487.0	5.888390696970921e+17
19488.0	5.890512668065791e+17
19489.0	5.892503405679956e+17
19490.0	5.893427261254312e+17
19491.0	5.895735286082218e+17
19492.0	5.897265395444393e+17
19493.0	5.898470207870292e+17
19494.0	5.899486951200084e+17
19495.0	5.900299318678868e+17
19496.0	5.900877749551101e+17
19497.0	5.901740923333289e+17
19498.0	5.901773654283607e+17
19499.0	5.876078487448202e+17
19500.0	5.903146924638207e+17
19501.0	5.903408606565716e+17
19502.0	5.903592414948009e+17
19503.0	5.903717844211028e+17
19504.0	5.903712784482303e+17
19505.0	5.903731965034495e+17
19506.0	5.903670996631552e+17
19507.0	5.903498285678592e+17
19508.0	5.903355917718867e+17
19509.0	5.903122701833556e+17
19510.0	5.902703518897492e+17
19511.0	5.883201232131398e+17
19512.0	5.899037423872666e+17
19513.0	5.894354677792753e+17
19514.0	5.896377761879374e+17
19515.0	5.900224893550593e+17
19516.0	5.900282209413802e+17
19517.0	5.899696218308607e+17
19518.0	5.899175684210687e+17
19519.0	5.898575418490879e+17
19520.0	5.897948829319167e+17
19521.0	5.897369124077567e+17
19522.0	5.896696947015677e+17
19523.0	5.896053012998825e+17
19524.0	5.895357082195284e+17
19525.0	5.894599050526719e+17
19526.0	5.893908113042089e+17
19527.0	5.893160857239551e+17
19528.0	5.892406624212308e+17
19529.0	5.891633071521791e+17
19530.0	5.890853696438272e+17
19531.0	5.890060731809791e+17
19532.0	5.889252196526761e+17
19533.0	5.888444714014035e+17
19534.0	5.887612690628608e+17
19535.0	5.886757199413248e+17
19536.0	5.88589743350306e+17
19537.0	5.885061187152554e+17
19538.0	5.884175452209151e+17
19539.0	5.882962377004375e+17
19540.0	5.882417236322986e+17
19541.0	5.881604306108415e+17
19542.0	5.880743018364928e+17
19543.0	5.879837168238591e+17
19544.0	5.878930103861247e+17
19545.0	5.877808256865618e+17
19546.0	5.87649898320145e+17
19547.0	5.876144519075156e+17
19548.0	5.875230197153791e+17
19549.0	5.874223315331753e+17
19550.0	5.873349418112339e+17
19551.0	5.872403218781524e+17
19552.0	5.871450170152276e+17
19553.0	5.870482545617578e+17
19554.0	5.869518386976084e+17
19555.0	5.868583473119231e+17
19556.0	5.86762191774242e+17
19557.0	5.866647635449172e+17
19558.0	5.865674361886036e+17
19559.0	5.864674625759914e+17
19560.0	5.86370044133376e+17
19561.0	5.862715926336852e+17
19562.0	5.8617426856291e+17
19563.0	5.860750869047977e+17
19564.0	5.859765329242793e+17
19565.0	5.858766586467668e+17
19566.0	5.857755499855871e+17
19567.0	5.856770063510186e+17
19568.0	5.855755439702015e+17
19569.0	5.854753821032447e+17
19570.0	5.853765653495807e+17
19571.0	5.852758717846868e+17
19572.0	5.851725593662804e+17
19573.0	5.850730327266644e+17
19574.0	5.849656991591082e+17
19575.0	5.848707301201236e+17
19576.0	5.847689702932479e+17
19577.0	5.84658584740386e+17
19578.0	5.845632161939455e+17
19579.0	5.844620808989354e+17
19580.0	5.843602076860415e+17
19581.0	5.842585955685716e+17
19582.0	5.841573032667817e+17
19583.0	5.840547783988564e+17
19584.0	5.839514120836436e+17
19585.0	5.838416865744212e+17
19586.0	5.837289220123306e+17
19587.0	5.836214492637866e+17
19588.0	5.83508327207185e+17
19589.0	5.834164861403136e+17
19590.0	5.833277743038463e+17
19591.0	5.832303217475583e+17
19592.0	5.831271235540307e+17
19593.0	5.830216682657108e+17
19594.0	5.829008412726611e+17
19595.0	5.828153050835625e+17
19596.0	5.822931631691094e+17
19597.0	5.826072541134848e+17
19598.0	5.824889858555904e+17
19599.0	5.824015137155753e+17
19600.0	5.822980126233942e+17
19601.0	5.82189979865361e+17
19602.0	5.820876350029823e+17
19603.0	5.819333698999635e+17
19604.0	5.818779042141524e+17
19605.0	5.817582909827754e+17
19606.0	5.816718284816383e+17
19607.0	5.81568931439138e+17
19608.0	5.81463666921745e+17
19609.0	5.813561813106685e+17
19610.0	5.81256265928977e+17
19611.0	5.811513117900799e+17
19612.0	5.810475580609876e+17
19613.0	5.809419556225023e+17
19614.0	5.808358602833919e+17
19615.0	5.807338613112831e+17
19616.0	5.806154867277823e+17
19617.0	5.805243036073983e+17
19618.0	5.803899334164479e+17
19619.0	5.802734030684159e+17
19620.0	5.801716254856531e+17
19621.0	5.801057628891818e+17
19622.0	5.800014744562346e+17
19623.0	5.798969526801748e+17
19624.0	5.797915855421439e+17
19625.0	5.796869420613631e+17
19626.0	5.795819383597738e+17
19627.0	5.79477791973922e+17
19628.0	5.79331879337984e+17
19629.0	5.792624243900415e+17
19630.0	5.791420432515072e+17
19631.0	5.772147493786954e+17
19632.0	5.789526267352404e+17
19633.0	5.788450893944147e+17
19634.0	5.787439882829823e+17
19635.0	5.786365834821631e+17
19636.0	5.785334512091135e+17
19637.0	5.784036470074028e+17
19638.0	5.783239507574783e+17
19639.0	5.78217676251682e+17
19640.0	5.781108008419327e+17
19641.0	5.77973658775279e+17
19642.0	5.779043136481961e+17
19643.0	5.777975252702548e+17
19644.0	5.776914803326976e+17
19645.0	5.775743309753001e+17
19646.0	5.774856060665855e+17
19647.0	5.773807161005396e+17
19648.0	5.772755161754282e+17
19649.0	5.771704325024426e+17
19650.0	5.770659799323988e+17
19651.0	5.769606832586751e+17
19652.0	5.76855703814144e+17
19653.0	5.767505610014719e+17
19654.0	5.766457315033087e+17
19655.0	5.765405698861738e+17
19656.0	5.7643580379190605e+17
19657.0	5.763312675454975e+17
19658.0	5.762262727917568e+17
19659.0	5.761219373826047e+17
19660.0	5.7601735786496e+17
19661.0	5.7591222448947194e+17
19662.0	5.758076974006271e+17
19663.0	5.756997527928831e+17
19664.0	5.7558932306001914e+17
