# Flux units: erg / (cm m2 s)
# Wavelength units: Angstrom
wave	flux
19000.0	3.6777610780344314e+17
19001.0	3.6769106521402016e+17
19002.0	3.676439087939584e+17
19003.0	3.6757646934889805e+17
19004.0	3.675063904283306e+17
19005.0	3.6743889477959674e+17
19006.0	3.6735319606121805e+17
19007.0	3.6731304245111456e+17
19008.0	3.672339396952064e+17
19009.0	3.671565658314069e+17
19010.0	3.670124671620435e+17
19011.0	3.6703970986557434e+17
19012.0	3.669317686831786e+17
19013.0	3.669153613348863e+17
19014.0	3.6684138947106125e+17
19015.0	3.6676811994344096e+17
19016.0	3.666993835496789e+17
19017.0	3.666498015636138e+17
19018.0	3.6658196093337594e+17
19019.0	3.6651367074365434e+17
19020.0	3.6645032822483616e+17
19021.0	3.6638519683536205e+17
19022.0	3.6631870439423994e+17
19023.0	3.662441305778857e+17
19024.0	3.661727085712724e+17
19025.0	3.661191930271061e+17
19026.0	3.6604739758762656e+17
19027.0	3.6596567842488314e+17
19028.0	3.659233991415125e+17
19029.0	3.658547864797183e+17
19030.0	3.6579288428489376e+17
19031.0	3.657266203634346e+17
19032.0	3.6565950835370656e+17
19033.0	3.655798786534058e+17
19034.0	3.65528218599424e+17
19035.0	3.654582224464554e+17
19036.0	3.6325295058670886e+17
19037.0	3.653293082760533e+17
19038.0	3.6526287777082016e+17
19039.0	3.6519908946739194e+17
19040.0	3.6513492486498976e+17
19041.0	3.6506743285131936e+17
19042.0	3.6460665164704384e+17
19043.0	3.6493992845639674e+17
19044.0	3.6487234920120314e+17
19045.0	3.64806335889408e+17
19046.0	3.647300842815487e+17
19047.0	3.6467369850525e+17
19048.0	3.6450275684952736e+17
19049.0	3.6376591040075014e+17
19050.0	3.644578526309033e+17
19051.0	3.641414724354043e+17
19052.0	3.6430517807786656e+17
19053.0	3.642842858302122e+17
19054.0	3.6421796843137696e+17
19055.0	3.639981391566166e+17
19056.0	3.640379542863871e+17
19057.0	3.6402178615323296e+17
19058.0	3.6354834898616256e+17
19059.0	3.637269342715903e+17
19060.0	3.6382151918223354e+17
19061.0	3.6376072372442445e+17
19062.0	3.6369439681850016e+17
19063.0	3.636299130994687e+17
19064.0	3.6354172429271034e+17
19065.0	3.634712911631701e+17
19066.0	3.6327079434431155e+17
19067.0	3.6336606886843725e+17
19068.0	3.6330342008750074e+17
19069.0	3.632387077089963e+17
19070.0	3.6316789408617805e+17
19071.0	3.631061788874068e+17
19072.0	3.628818662511956e+17
19073.0	3.629764206133247e+17
19074.0	3.6291294017181e+17
19075.0	3.6284787575138976e+17
19076.0	3.627602846329514e+17
19077.0	3.6271301091218765e+17
19078.0	3.6264113340415994e+17
19079.0	3.6258613160837114e+17
19080.0	3.6251934269986125e+17
19081.0	3.624471911639722e+17
19082.0	3.623836036978004e+17
19083.0	3.623138602516479e+17
19084.0	3.622297213250218e+17
19085.0	3.621906671119018e+17
19086.0	3.6188859354753696e+17
19087.0	3.616980156983976e+17
19088.0	3.6180398499867283e+17
19089.0	3.61886907437329e+17
19090.0	3.6186794771524256e+17
19091.0	3.617594112912044e+17
19092.0	3.6144114156175405e+17
19093.0	3.6167708870792525e+17
19094.0	3.616121078939648e+17
19095.0	3.6154709443433805e+17
19096.0	3.614794022824618e+17
19097.0	3.6141700809577805e+17
19098.0	3.611879909184853e+17
19099.0	3.610972117095766e+17
19100.0	3.6121195787059194e+17
19101.0	3.6115378734803616e+17
19102.0	3.6106302058222925e+17
19103.0	3.6102733775066445e+17
19104.0	3.6096410372450976e+17
19105.0	3.6055139169075264e+17
19106.0	3.6082239315203405e+17
19107.0	3.6067953746466125e+17
19108.0	3.6058172440794445e+17
19109.0	3.605375934791678e+17
19110.0	3.605737176913236e+17
19111.0	3.604139538557609e+17
19112.0	3.6032174215222586e+17
19113.0	3.60378904154385e+17
19114.0	3.602573187612671e+17
19115.0	3.6021658556825594e+17
19116.0	3.601787175742122e+17
19117.0	3.601197119657301e+17
19118.0	3.600375020694186e+17
19119.0	3.564756622726435e+17
19120.0	3.599125761228799e+17
19121.0	3.5985415408189434e+17
19122.0	3.5980079785137485e+17
19123.0	3.5973624681376416e+17
19124.0	3.5966568561814176e+17
19125.0	3.596065618001919e+17
19126.0	3.595427521058133e+17
19127.0	3.5910603439254176e+17
19128.0	3.5940936226351776e+17
19129.0	3.593373278186153e+17
19130.0	3.5928243311738874e+17
19131.0	3.5922007521143456e+17
19132.0	3.591549123646805e+17
19133.0	3.5908181704048634e+17
19134.0	3.590254953671338e+17
19135.0	3.5896164827354445e+17
19136.0	3.58897688772608e+17
19137.0	3.58801642426641e+17
19138.0	3.587678177416532e+17
19139.0	3.5870651903726925e+17
19140.0	3.586425709308586e+17
19141.0	3.5857791482593274e+17
19142.0	3.585077941720404e+17
19143.0	3.584368128469674e+17
19144.0	3.5837883260600314e+17
19145.0	3.5832068144715085e+17
19146.0	3.581471640693419e+17
19147.0	3.581558785048576e+17
19148.0	3.5798940224498355e+17
19149.0	3.5790823113796275e+17
19150.0	3.5799907577801376e+17
19151.0	3.579354795737087e+17
19152.0	3.578703174959104e+17
19153.0	3.575399466401788e+17
19154.0	3.5767896474910714e+17
19155.0	3.5767992622339405e+17
19156.0	3.5761615637490336e+17
19157.0	3.5745015253347e+17
19158.0	3.572345801277441e+17
19159.0	3.574133077398869e+17
19160.0	3.5735714426170016e+17
19161.0	3.572957687316479e+17
19162.0	3.5707604669125984e+17
19163.0	3.5716618354251085e+17
19164.0	3.570991810041172e+17
19165.0	3.5673522635625766e+17
19166.0	3.569428188190037e+17
19167.0	3.5688678347680416e+17
19168.0	3.5684808591933434e+17
19169.0	3.5678042186929485e+17
19170.0	3.567215082558805e+17
19171.0	3.566459772294485e+17
19172.0	3.5659283903283194e+17
19173.0	3.5652899906955936e+17
19174.0	3.564534360266069e+17
19175.0	3.5640129614424736e+17
19176.0	3.563381804673706e+17
19177.0	3.562469241563818e+17
19178.0	3.5619462845562874e+17
19179.0	3.561172524247723e+17
19180.0	3.5608244102976845e+17
19181.0	3.55980760055808e+17
19182.0	3.5594663359064736e+17
19183.0	3.5589235664049485e+17
19184.0	3.5582361059983354e+17
19185.0	3.557625133618517e+17
19186.0	3.557017472641706e+17
19187.0	3.556281096164693e+17
19188.0	3.555709321652906e+17
19189.0	3.5551124421345274e+17
19190.0	3.554476400399701e+17
19191.0	3.553743827457365e+17
19192.0	3.5532031397287245e+17
19193.0	3.552232879073963e+17
19194.0	3.551417035216213e+17
19195.0	3.5512894284103674e+17
19196.0	3.550630171901952e+17
19197.0	3.5500128717154976e+17
19198.0	3.549401149953365e+17
19199.0	3.5390980473487334e+17
19200.0	3.541642092653231e+17
19201.0	3.5474646481851725e+17
19202.0	3.546866970350933e+17
19203.0	3.546198356350293e+17
19204.0	3.545540578334037e+17
19205.0	3.544948154564608e+17
19206.0	3.5442937375839565e+17
19207.0	3.5434735176690336e+17
19208.0	3.5425085523230714e+17
19209.0	3.5424061721586336e+17
19210.0	3.5417677075141965e+17
19211.0	3.5411566477530445e+17
19212.0	3.540528617138858e+17
19213.0	3.539686341476351e+17
19214.0	3.538954798934699e+17
19215.0	3.5386012421761696e+17
19216.0	3.538006588435114e+17
19217.0	3.5373646613927245e+17
19218.0	3.535162895062354e+17
19219.0	3.5358952205407565e+17
19220.0	3.5354319128275616e+17
19221.0	3.534226542559232e+17
19222.0	3.5342055137170765e+17
19223.0	3.533548187287552e+17
19224.0	3.532885767574869e+17
19225.0	3.5320226839702176e+17
19226.0	3.5316605869096954e+17
19227.0	3.5310364171523405e+17
19228.0	3.530435458673322e+17
19229.0	3.529805256108714e+17
19230.0	3.529161552079531e+17
19231.0	3.528528151358122e+17
19232.0	3.527904513578325e+17
19233.0	3.5271716791910394e+17
19234.0	3.5266054614330016e+17
19235.0	3.5259747464642554e+17
19236.0	3.525399807350101e+17
19237.0	3.524734455818922e+17
19238.0	3.523938533507072e+17
19239.0	3.523513625346048e+17
19240.0	3.5228696675614714e+17
19241.0	3.522220296328533e+17
19242.0	3.5215996190283085e+17
19243.0	3.520756698142036e+17
19244.0	3.5203677120976205e+17
19245.0	3.51971184808209e+17
19246.0	3.519079983874047e+17
19247.0	3.5184745186153805e+17
19248.0	3.5178605448615245e+17
19249.0	3.517169005843797e+17
19250.0	3.516085648927402e+17
19251.0	3.5152765142084256e+17
19252.0	3.514941448039082e+17
19253.0	3.5146686368754336e+17
19254.0	3.514096697737215e+17
19255.0	3.513182270608724e+17
19256.0	3.5127552240517114e+17
19257.0	3.512220015831722e+17
19258.0	3.511594592326997e+17
19259.0	3.5108563997163514e+17
19260.0	3.509763051268777e+17
19261.0	3.5096981524534605e+17
19262.0	3.508977624503637e+17
19263.0	3.5083138727499085e+17
19264.0	3.5066539465332026e+17
19265.0	3.506751485771775e+17
19266.0	3.5056049329274886e+17
19267.0	3.505964850348031e+17
19268.0	3.5053287236785485e+17
19269.0	3.5047136716390394e+17
19270.0	3.504093246696106e+17
19271.0	3.502729040581974e+17
19272.0	3.5027734432317434e+17
19273.0	3.5014702569007776e+17
19274.0	3.500818821720745e+17
19275.0	3.5009751518194336e+17
19276.0	3.5003144902191776e+17
19277.0	3.4997033147651405e+17
19278.0	3.499044879990783e+17
19279.0	3.4984272232884896e+17
19280.0	3.4976707725230074e+17
19281.0	3.4972000817861965e+17
19282.0	3.4966111672511136e+17
19283.0	3.4958511146270714e+17
19284.0	3.4953051738821965e+17
19285.0	3.4944396072495776e+17
19286.0	3.4940522982277114e+17
19287.0	3.49348713009425e+17
19288.0	3.486775943451982e+17
19289.0	3.478171981709289e+17
19290.0	3.491629995393024e+17
19291.0	3.49059343187968e+17
19292.0	3.4903879728496634e+17
19293.0	3.489755246013098e+17
19294.0	3.4891202961954125e+17
19295.0	3.488526987078315e+17
19296.0	3.486398068468397e+17
19297.0	3.486871180716715e+17
19298.0	3.486613584041301e+17
19299.0	3.484277752026454e+17
19300.0	3.485298951804245e+17
19301.0	3.484784406822912e+17
19302.0	3.4841499987694925e+17
19303.0	3.483418223094442e+17
19304.0	3.482880906188117e+17
19305.0	3.4822831025247565e+17
19306.0	3.4816772919350605e+17
19307.0	3.4809649135179085e+17
19308.0	3.480397869481983e+17
19309.0	3.4794403776866976e+17
19310.0	3.4787339506373965e+17
19311.0	3.478508015714303e+17
19312.0	3.477960640866986e+17
19313.0	3.4773519519361696e+17
19314.0	3.397964712815332e+17
19315.0	3.400680701864694e+17
19316.0	3.4734058140685677e+17
19317.0	3.474859581855061e+17
19318.0	3.474250238612821e+17
19319.0	3.473656002554538e+17
19320.0	3.4723236374992205e+17
19321.0	3.4710729911173114e+17
19322.0	3.471673803844266e+17
19323.0	3.4710293923758074e+17
19324.0	3.470558134359381e+17
19325.0	3.46959407288593e+17
19326.0	3.4693407355262285e+17
19327.0	3.4686277244682234e+17
19328.0	3.4649934477830854e+17
19329.0	3.4674929810363725e+17
19330.0	3.4667987877232634e+17
19331.0	3.4661793376064845e+17
19332.0	3.465635533509973e+17
19333.0	3.464998029710677e+17
19334.0	3.4642195539558406e+17
19335.0	3.457558032766299e+17
19336.0	3.463032826669739e+17
19337.0	3.462555131794773e+17
19338.0	3.4615649408559776e+17
19339.0	3.4613216285818874e+17
19340.0	3.4598635630318925e+17
19341.0	3.457716391859543e+17
19342.0	3.457942529856853e+17
19343.0	3.4588687786311674e+17
19344.0	3.4560343882246854e+17
19345.0	3.452159052305743e+17
19346.0	3.455042015898281e+17
19347.0	3.453467699270997e+17
19348.0	3.4558011307458554e+17
19349.0	3.45512937066769e+17
19350.0	3.4535523868125856e+17
19351.0	3.453843142257322e+17
19352.0	3.450148550082555e+17
19353.0	3.452698866221055e+17
19354.0	3.4521233164861434e+17
19355.0	3.451337844632235e+17
19356.0	3.450892386129237e+17
19357.0	3.450281876520959e+17
19358.0	3.4496600167765325e+17
19359.0	3.4481448615062176e+17
19360.0	3.446106525532158e+17
19361.0	3.4477567786352634e+17
19362.0	3.447227419372202e+17
19363.0	3.4466089709950285e+17
19364.0	3.445994473302698e+17
19365.0	3.4453784111349754e+17
19366.0	3.4447710846539085e+17
19367.0	3.4441613342146554e+17
19368.0	3.4435560028241914e+17
19369.0	3.4428448397066234e+17
19370.0	3.4422560565930656e+17
19371.0	3.441633096892415e+17
19372.0	3.4411065411720525e+17
19373.0	3.440463966808746e+17
19374.0	3.439881653409109e+17
19375.0	3.4392704706150394e+17
19376.0	3.4386730654105594e+17
19377.0	3.4380437667184634e+17
19378.0	3.4374406719406074e+17
19379.0	3.4368366967084365e+17
19380.0	3.4362185251553274e+17
19381.0	3.435597594798762e+17
19382.0	3.4348998705807354e+17
19383.0	3.43419599786257e+17
19384.0	3.4337222865278285e+17
19385.0	3.433171562179242e+17
19386.0	3.4325694778791245e+17
19387.0	3.4319604467630074e+17
19388.0	3.431334123929599e+17
19389.0	3.4307025858286925e+17
19390.0	3.430088492886698e+17
19391.0	3.409632161693667e+17
19392.0	3.4285399541022694e+17
19393.0	3.4282655595888634e+17
19394.0	3.427636628597418e+17
19395.0	3.4261334442202464e+17
19396.0	3.4261303149199366e+17
19397.0	3.425836473516031e+17
19398.0	3.424386332054869e+17
19399.0	3.4218754091690656e+17
19400.0	3.423258582624939e+17
19401.0	3.423382695925077e+17
19402.0	3.4227882892984314e+17
19403.0	3.422148412222122e+17
19404.0	3.421568599676245e+17
19405.0	3.4209306467368954e+17
19406.0	3.420336123718314e+17
19407.0	3.418599138699945e+17
19408.0	3.417346697505454e+17
19409.0	3.418496861295957e+17
19410.0	3.4179194713101645e+17
19411.0	3.4173097610663245e+17
19412.0	3.416658384606549e+17
19413.0	3.41491576733696e+17
19414.0	3.41539298021649e+17
19415.0	3.4148337781309434e+17
19416.0	3.4139026779450016e+17
19417.0	3.4134369672451405e+17
19418.0	3.4130227168105805e+17
19419.0	3.4124054494795085e+17
19420.0	3.4118032019510605e+17
19421.0	3.411188056238762e+17
19422.0	3.4104958562686285e+17
19423.0	3.409942413312e+17
19424.0	3.4093374663994016e+17
19425.0	3.4087123648075085e+17
19426.0	3.4080978286673914e+17
19427.0	3.407457360194218e+17
19428.0	3.406851032656554e+17
19429.0	3.406220688534186e+17
19430.0	3.405278148733612e+17
19431.0	3.401623161274373e+17
19432.0	3.4043230665659725e+17
19433.0	3.4036625695921485e+17
19434.0	3.4030007975499085e+17
19435.0	3.4018859924411725e+17
19436.0	3.3999488457987386e+17
19437.0	3.4009537213453645e+17
19438.0	3.355888946861413e+17
19439.0	3.397930012639233e+17
19440.0	3.398566828223146e+17
19441.0	3.3977965953242445e+17
19442.0	3.396889615182506e+17
19443.0	3.3958081317218976e+17
19444.0	3.394528248244906e+17
19445.0	3.392838166031018e+17
19446.0	3.390368831417002e+17
19447.0	3.3862549081074336e+17
19448.0	3.377507596588373e+17
19449.0	3.332403416268792e+17
19450.0	2.8724393123948963e+17
19451.0	2.5531448075223014e+17
19452.0	3.035900776808427e+17
19453.0	3.35535420420916e+17
19454.0	3.37686119457314e+17
19455.0	3.382633706465962e+17
19456.0	3.384900654727168e+17
19457.0	3.3859258824349005e+17
19458.0	3.123874909651276e+17
19459.0	3.3726484705881696e+17
19460.0	3.3861874014836045e+17
19461.0	3.3859250558074874e+17
19462.0	3.3855255060589216e+17
19463.0	3.385121229329749e+17
19464.0	3.38463745446161e+17
19465.0	3.3841837254901754e+17
19466.0	3.3835604068270074e+17
19467.0	3.3831392679471776e+17
19468.0	3.382607353304405e+17
19469.0	3.379164465157457e+17
19470.0	3.3814842127155194e+17
19471.0	3.38096794177809e+17
19472.0	3.380264008592042e+17
19473.0	3.379648089030655e+17
19474.0	3.376941169464657e+17
19475.0	3.3765833803038694e+17
19476.0	3.3779176446798496e+17
19477.0	3.3774268153419085e+17
19478.0	3.3769267470008314e+17
19479.0	3.374096855684433e+17
19480.0	3.37570944848145e+17
19481.0	3.37488265084928e+17
19482.0	3.374540586134186e+17
19483.0	3.374007262205269e+17
19484.0	3.373385173871274e+17
19485.0	3.372694579620522e+17
19486.0	3.369772693236399e+17
19487.0	3.3716092800423245e+17
19488.0	3.371063414794922e+17
19489.0	3.3702172153610234e+17
19490.0	3.366558558934353e+17
19491.0	3.369225340409173e+17
19492.0	3.3686991786038605e+17
19493.0	3.3681098012972365e+17
19494.0	3.367506293380437e+17
19495.0	3.3669022402041165e+17
19496.0	3.365217388636841e+17
19497.0	3.365665804473685e+17
19498.0	3.3629138373836806e+17
19499.0	3.332737448542196e+17
19500.0	3.3639263927009274e+17
19501.0	3.3633868982517754e+17
19502.0	3.3627992577365325e+17
19503.0	3.3622166101906765e+17
19504.0	3.361631432430933e+17
19505.0	3.3610024273401165e+17
19506.0	3.36045205880832e+17
19507.0	3.359794427243178e+17
19508.0	3.3592622864575136e+17
19509.0	3.3586676652223136e+17
19510.0	3.3574147574114976e+17
19511.0	3.2324888356890675e+17
19512.0	3.35183584410555e+17
19513.0	3.346795601068017e+17
19514.0	3.348903814146721e+17
19515.0	3.354004311157421e+17
19516.0	3.354248874732202e+17
19517.0	3.353719990124543e+17
19518.0	3.352751140853076e+17
19519.0	3.3521198302931616e+17
19520.0	3.3501066486087654e+17
19521.0	3.351547463335935e+17
19522.0	3.3506776779325434e+17
19523.0	3.349805492688214e+17
19524.0	3.348311224003245e+17
19525.0	3.3491611245608954e+17
19526.0	3.3486236629510816e+17
19527.0	3.3479898372068685e+17
19528.0	3.347297468415999e+17
19529.0	3.3466162190745594e+17
19530.0	3.3462609090969594e+17
19531.0	3.3456738061516794e+17
19532.0	3.345081215658666e+17
19533.0	3.3444923776696314e+17
19534.0	3.3439013313795405e+17
19535.0	3.3432866337587194e+17
19536.0	3.3426528209469434e+17
19537.0	3.3421171863060474e+17
19538.0	3.339339730081113e+17
19539.0	3.339745293413037e+17
19540.0	3.3403147753881594e+17
19541.0	3.3394073967875405e+17
19542.0	3.339009790050304e+17
19543.0	3.3365593944664755e+17
19544.0	3.337865328765611e+17
19545.0	3.336384881360894e+17
19546.0	3.334875137791317e+17
19547.0	3.336241764018858e+17
19548.0	3.335646051216042e+17
19549.0	3.3349086118324896e+17
19550.0	3.3344673263124474e+17
19551.0	3.3338911428881056e+17
19552.0	3.3332935381046605e+17
19553.0	3.332661839571626e+17
19554.0	3.332023178493952e+17
19555.0	3.331303455151445e+17
19556.0	3.3308094010927776e+17
19557.0	3.330343243350016e+17
19558.0	3.3297691305137485e+17
19559.0	3.329191409527467e+17
19560.0	3.327863189493076e+17
19561.0	3.3279725566689274e+17
19562.0	3.32671999943202e+17
19563.0	3.326849693253631e+17
19564.0	3.326259402287786e+17
19565.0	3.3256724810956794e+17
19566.0	3.325031091623253e+17
19567.0	3.3245076187163296e+17
19568.0	3.323892259793578e+17
19569.0	3.3232945546963616e+17
19570.0	3.3227362666195616e+17
19571.0	3.322144203909802e+17
19572.0	3.3215291651522554e+17
19573.0	3.3207437128717645e+17
19574.0	3.320195401995604e+17
19575.0	3.319824623774378e+17
19576.0	3.3191331239034874e+17
19577.0	3.3183244571989325e+17
19578.0	3.3179800698879994e+17
19579.0	3.31743529341201e+17
19580.0	3.316863569930922e+17
19581.0	3.316287228171605e+17
19582.0	3.3157389075087354e+17
19583.0	3.315159320057173e+17
19584.0	3.3145560026316794e+17
19585.0	3.3137971258108576e+17
19586.0	3.313166369248598e+17
19587.0	3.312760660514133e+17
19588.0	3.311230739895639e+17
19589.0	3.311620888461312e+17
19590.0	3.3107144948230816e+17
19591.0	3.3104727568110925e+17
19592.0	3.309889725835946e+17
19593.0	3.309126349925034e+17
19594.0	3.3081680657558176e+17
19595.0	3.3080846333597005e+17
19596.0	3.307432050338474e+17
19597.0	3.3069746324766714e+17
19598.0	3.3047836860525203e+17
19599.0	3.305825764726101e+17
19600.0	3.3052550024396794e+17
19601.0	3.3045518770066765e+17
19602.0	3.3040034273689594e+17
19603.0	3.302489541225129e+17
19604.0	3.302851506514603e+17
19605.0	3.30181342396416e+17
19606.0	3.301749475857749e+17
19607.0	3.3011849725214714e+17
19608.0	3.300578047994538e+17
19609.0	3.299926923892053e+17
19610.0	3.2983733099997875e+17
19611.0	3.297388314056022e+17
19612.0	3.2982913012203514e+17
19613.0	3.2976942560269645e+17
19614.0	3.2970707220561914e+17
19615.0	3.296545816095402e+17
19616.0	3.2947359809099104e+17
19617.0	3.293848311693313e+17
19618.0	3.2934842489023123e+17
19619.0	3.29241609389124e+17
19620.0	3.291492337931603e+17
19621.0	3.291055731507199e+17
19622.0	3.2924991456542714e+17
19623.0	3.2918390883833165e+17
19624.0	3.291096281688746e+17
19625.0	3.2907577880739834e+17
19626.0	3.290172300634794e+17
19627.0	3.2896091520587085e+17
19628.0	3.288698948244822e+17
19629.0	3.283094941117096e+17
19630.0	3.287403369332736e+17
19631.0	3.276739557283157e+17
19632.0	3.286688909142698e+17
19633.0	3.2859926497853434e+17
19634.0	3.2855426855512736e+17
19635.0	3.284543673991166e+17
19636.0	3.2820172070147386e+17
19637.0	3.2810699500202643e+17
19638.0	3.282918312334676e+17
19639.0	3.2826419230801914e+17
19640.0	3.281734929656492e+17
19641.0	3.2773125082972243e+17
19642.0	3.2807959462761805e+17
19643.0	3.2802084752807245e+17
19644.0	3.2796775120459085e+17
19645.0	3.278617974232404e+17
19646.0	3.276051840674471e+17
19647.0	3.27795573662242e+17
19648.0	3.2774941887692794e+17
19649.0	3.27689933754641e+17
19650.0	3.2763484380856314e+17
19651.0	3.2757698090325325e+17
19652.0	3.2751887109324794e+17
19653.0	3.2746112384587085e+17
