# Flux units: erg / (cm m2 s)
# Wavelength units: Angstrom
wave	flux
19000.0	6.151708980456105e+17
19001.0	6.150542244620969e+17
19002.0	6.149390118944765e+17
19003.0	6.148230726636884e+17
19004.0	6.147071485323946e+17
19005.0	6.145912724258815e+17
19006.0	6.144753919153492e+17
19007.0	6.143588721928873e+17
19008.0	6.142431396713812e+17
19009.0	6.141276533555199e+17
19010.0	6.140084459929599e+17
19011.0	6.138959911103146e+17
19012.0	6.137791080912212e+17
19013.0	6.136646421097129e+17
19014.0	6.135484948414464e+17
19015.0	6.134331377800532e+17
19016.0	6.133169968032425e+17
19017.0	6.131997514661887e+17
19018.0	6.130859525887316e+17
19019.0	6.12970335899921e+17
19020.0	6.128542441362772e+17
19021.0	6.127386999390207e+17
19022.0	6.126234189343401e+17
19023.0	6.125078067194538e+17
19024.0	6.12392145850641e+17
19025.0	6.122766500276905e+17
19026.0	6.121608611627008e+17
19027.0	6.120449533891924e+17
19028.0	6.119300571419988e+17
19029.0	6.118145580335101e+17
19030.0	6.116990815742633e+17
19031.0	6.11583622521378e+17
19032.0	6.114681820632404e+17
19033.0	6.113521070069076e+17
19034.0	6.112373329537706e+17
19035.0	6.111216971808767e+17
19036.0	6.109524928058707e+17
19037.0	6.108912534508884e+17
19038.0	6.1077593260032e+17
19039.0	6.106606268492457e+17
19040.0	6.105453394832041e+17
19041.0	6.104300718303913e+17
19042.0	6.103142327036586e+17
19043.0	6.101995967829332e+17
19044.0	6.100843671584765e+17
19045.0	6.099691985611433e+17
19046.0	6.098536584882857e+17
19047.0	6.097388725512873e+17
19048.0	6.096222386039466e+17
19049.0	6.095081692637865e+17
19050.0	6.093932465225728e+17
19051.0	6.092713056621908e+17
19052.0	6.091630510953812e+17
19053.0	6.090483966498132e+17
19054.0	6.089334070793556e+17
19055.0	6.088165703374163e+17
19056.0	6.087034621919231e+17
19057.0	6.08588515053841e+17
19058.0	6.084735928019625e+17
19059.0	6.083586904730282e+17
19060.0	6.082436275022505e+17
19061.0	6.081289450247508e+17
19062.0	6.080140765298687e+17
19063.0	6.078992772410025e+17
19064.0	6.077836584550399e+17
19065.0	6.0766837814941e+17
19066.0	6.075544834321066e+17
19067.0	6.074402275153236e+17
19068.0	6.073255100153855e+17
19069.0	6.072108296350378e+17
19070.0	6.070960798389588e+17
19071.0	6.069815135436799e+17
19072.0	6.068668849629866e+17
19073.0	6.067522452673875e+17
19074.0	6.066376988950527e+17
19075.0	6.065231393106601e+17
19076.0	6.064084295002793e+17
19077.0	6.062940195127295e+17
19078.0	6.06179105579554e+17
19079.0	6.060651098494291e+17
19080.0	6.059506372968447e+17
19081.0	6.058358778538665e+17
19082.0	6.057212640930473e+17
19083.0	6.056067252704596e+17
19084.0	6.054912523763711e+17
19085.0	6.053787178718548e+17
19086.0	6.052615436282537e+17
19087.0	6.051487159418879e+17
19088.0	6.050353314616659e+17
19089.0	6.049195578359807e+17
19090.0	6.048073118296746e+17
19091.0	6.046929154037076e+17
19092.0	6.045782145411753e+17
19093.0	6.044647591772159e+17
19094.0	6.043493984807593e+17
19095.0	6.042347633988948e+17
19096.0	6.041221021564927e+17
19097.0	6.04008282726946e+17
19098.0	6.03894247849984e+17
19099.0	6.03780163899665e+17
19100.0	6.036661915877375e+17
19101.0	6.035522108172969e+17
19102.0	6.034376032081236e+17
19103.0	6.033242931068927e+17
19104.0	6.032103716159487e+17
19105.0	6.030964721451007e+17
19106.0	6.029823366747476e+17
19107.0	6.028686203551743e+17
19108.0	6.027548933401257e+17
19109.0	6.026355477053439e+17
19110.0	6.025272681824255e+17
19111.0	6.024135194968063e+17
19112.0	6.022997724889087e+17
19113.0	6.021860514856959e+17
19114.0	6.020723455819775e+17
19115.0	6.019584230424576e+17
19116.0	6.018450010931199e+17
19117.0	6.017312551337983e+17
19118.0	6.016168805182122e+17
19119.0	6.014852153038163e+17
19120.0	6.013902194212863e+17
19121.0	6.012767976816639e+17
19122.0	6.011635118374911e+17
19123.0	6.010498510225407e+17
19124.0	6.009362517240489e+17
19125.0	6.008229932826623e+17
19126.0	6.007093170885972e+17
19127.0	6.005841949884415e+17
19128.0	6.004787411681279e+17
19129.0	6.003687574994943e+17
19130.0	6.002560737476607e+17
19131.0	6.00142741766144e+17
19132.0	6.000294160760831e+17
19133.0	5.999108707145044e+17
19134.0	5.998009318550186e+17
19135.0	5.996896514473983e+17
19136.0	5.995764390035455e+17
19137.0	5.994620824234665e+17
19138.0	5.993491235951956e+17
19139.0	5.992369007274665e+17
19140.0	5.991237773426687e+17
19141.0	5.990106684282196e+17
19142.0	5.988975667838975e+17
19143.0	5.987840933844308e+17
19144.0	5.986714393422505e+17
19145.0	5.985584359145472e+17
19146.0	5.984412911708841e+17
19147.0	5.983318299727187e+17
19148.0	5.982194464631465e+17
19149.0	5.981065201407316e+17
19150.0	5.979935134973951e+17
19151.0	5.978807280336893e+17
19152.0	5.977676202377215e+17
19153.0	5.976549968838655e+17
19154.0	5.975412421864105e+17
19155.0	5.974293482919252e+17
19156.0	5.973165354254336e+17
19157.0	5.972037264736255e+17
19158.0	5.970871522252116e+17
19159.0	5.969781499538089e+17
19160.0	5.968652596325033e+17
19161.0	5.967523781192362e+17
19162.0	5.966316471757481e+17
19163.0	5.965275548265129e+17
19164.0	5.964149596443988e+17
19165.0	5.963013416812544e+17
19166.0	5.961865641328639e+17
19167.0	5.960740587088554e+17
19168.0	5.959609975395668e+17
19169.0	5.958490363265023e+17
19170.0	5.957372816130047e+17
19171.0	5.956243969540096e+17
19172.0	5.95512347660561e+17
19173.0	5.953998901215231e+17
19174.0	5.952870859232595e+17
19175.0	5.951750796214271e+17
19176.0	5.950626932457472e+17
19177.0	5.949492536803327e+17
19178.0	5.948379076318547e+17
19179.0	5.9472505484957e+17
19180.0	5.94611797107234e+17
19181.0	5.945003012521983e+17
19182.0	5.943876799954944e+17
19183.0	5.942763692490751e+17
19184.0	5.941631362531327e+17
19185.0	5.940520189340329e+17
19186.0	5.93939885335074e+17
19187.0	5.938272277277354e+17
19188.0	5.937155455057919e+17
19189.0	5.936032467211606e+17
19190.0	5.934910490192554e+17
19191.0	5.933791008784383e+17
19192.0	5.932670155838803e+17
19193.0	5.931537734303741e+17
19194.0	5.930424480737961e+17
19195.0	5.9293081548445e+17
19196.0	5.928188843305641e+17
19197.0	5.927068843900927e+17
19198.0	5.925949454767444e+17
19199.0	5.924309008646143e+17
19200.0	5.923383399852714e+17
19201.0	5.922591211869524e+17
19202.0	5.921472443493033e+17
19203.0	5.920353626182995e+17
19204.0	5.919232892076031e+17
19205.0	5.918116234832554e+17
19206.0	5.91699690791458e+17
19207.0	5.915875991355391e+17
19208.0	5.914745121712808e+17
19209.0	5.913643327684607e+17
19210.0	5.912525270242644e+17
19211.0	5.911406843701929e+17
19212.0	5.910290235391999e+17
19213.0	5.909163227305299e+17
19214.0	5.908044079344297e+17
19215.0	5.90693668032785e+17
19216.0	5.905816916503209e+17
19217.0	5.90470446125329e+17
19218.0	5.903529757638656e+17
19219.0	5.902459536233812e+17
19220.0	5.901355013810857e+17
19221.0	5.900215295584938e+17
19222.0	5.899122503232169e+17
19223.0	5.898006150075732e+17
19224.0	5.89688316502562e+17
19225.0	5.895762402956628e+17
19226.0	5.894658943789737e+17
19227.0	5.893543497302015e+17
19228.0	5.892428025648467e+17
19229.0	5.891312637181951e+17
19230.0	5.890197015931562e+17
19231.0	5.889082229347668e+17
19232.0	5.8879604438685e+17
19233.0	5.886846837282131e+17
19234.0	5.885735447385427e+17
19235.0	5.88462260556049e+17
19236.0	5.883507876298751e+17
19237.0	5.882392115238228e+17
19238.0	5.881271646770516e+17
19239.0	5.88016442810914e+17
19240.0	5.879024068154707e+17
19241.0	5.877928810949289e+17
19242.0	5.876819894992895e+17
19243.0	5.875694061311315e+17
19244.0	5.874592623798954e+17
19245.0	5.873479003930623e+17
19246.0	5.872363886695764e+17
19247.0	5.871250155678377e+17
19248.0	5.87013714608128e+17
19249.0	5.869023123559764e+17
19250.0	5.867908894119252e+17
19251.0	5.86678919111202e+17
19252.0	5.865655504295252e+17
19253.0	5.864567083805354e+17
19254.0	5.863449965887487e+17
19255.0	5.862324656493908e+17
19256.0	5.861225116904106e+17
19257.0	5.860112340090879e+17
19258.0	5.858998128825683e+17
19259.0	5.857878753673215e+17
19260.0	5.856764275370666e+17
19261.0	5.855656772195668e+17
19262.0	5.854542765053268e+17
19263.0	5.853427038246228e+17
19264.0	5.852278698628435e+17
19265.0	5.851186796167167e+17
19266.0	5.850075883722068e+17
19267.0	5.848971887684266e+17
19268.0	5.847857482082986e+17
19269.0	5.846742970925055e+17
19270.0	5.845628283606356e+17
19271.0	5.84449073942801e+17
19272.0	5.843396195254271e+17
19273.0	5.841604029273428e+17
19274.0	5.840848443583144e+17
19275.0	5.840053309800447e+17
19276.0	5.838937896867155e+17
19277.0	5.837822295889236e+17
19278.0	5.836706470516052e+17
19279.0	5.83558822502946e+17
19280.0	5.834468607306409e+17
19281.0	5.833357696958464e+17
19282.0	5.832241130591571e+17
19283.0	5.831116022524586e+17
19284.0	5.829992553731412e+17
19285.0	5.828874403315712e+17
19286.0	5.827769586592425e+17
19287.0	5.826653806657536e+17
19288.0	5.825382785045844e+17
19289.0	5.823994241133225e+17
19290.0	5.823254868525055e+17
19291.0	5.822116082832724e+17
19292.0	5.82101573374225e+17
19293.0	5.819895008722944e+17
19294.0	5.81877509530146e+17
19295.0	5.817654097652393e+17
19296.0	5.816532657504255e+17
19297.0	5.815410632250708e+17
19298.0	5.814288328075946e+17
19299.0	5.813165379376467e+17
19300.0	5.812041816211455e+17
19301.0	5.810917185596074e+17
19302.0	5.809792515833855e+17
19303.0	5.808660000626004e+17
19304.0	5.807536494084095e+17
19305.0	5.806415197241344e+17
19306.0	5.805287980138495e+17
19307.0	5.804157926288042e+17
19308.0	5.803030932182356e+17
19309.0	5.801886154227711e+17
19310.0	5.800746349319508e+17
19311.0	5.799633260030633e+17
19312.0	5.798482816270336e+17
19313.0	5.797335940464639e+17
19314.0	5.796005298219689e+17
19315.0	5.794888223642963e+17
19316.0	5.793945436378452e+17
19317.0	5.792809330147327e+17
19318.0	5.791671047072426e+17
19319.0	5.790531732897791e+17
19320.0	5.789387385558356e+17
19321.0	5.78824914931985e+17
19322.0	5.787094334395734e+17
19323.0	5.785952731529215e+17
19324.0	5.784815262149289e+17
19325.0	5.783655531500884e+17
19326.0	5.782518552854527e+17
19327.0	5.781366688623273e+17
19328.0	5.780215459130025e+17
19329.0	5.779061290827776e+17
19330.0	5.777902215189844e+17
19331.0	5.77674411123234e+17
19332.0	5.775587334073001e+17
19333.0	5.774391031889919e+17
19334.0	5.77319121977344e+17
19335.0	5.772029465373354e+17
19336.0	5.770860630988116e+17
19337.0	5.769688900435967e+17
19338.0	5.768500607975423e+17
19339.0	5.767339626725376e+17
19340.0	5.766156595320147e+17
19341.0	5.764977944166399e+17
19342.0	5.763764840999594e+17
19343.0	5.762605242471763e+17
19344.0	5.761413920325632e+17
19345.0	5.760067054512809e+17
19346.0	5.758984250895018e+17
19347.0	5.7578131487894176e+17
19348.0	5.7566123677887136e+17
19349.0	5.7554022264995834e+17
19350.0	5.754169145163775e+17
19351.0	5.752939121475583e+17
19352.0	5.7517124406476794e+17
19353.0	5.7504895591601485e+17
19354.0	5.7492559276714656e+17
19355.0	5.748011400080042e+17
19356.0	5.746772896907264e+17
19357.0	5.745526460208468e+17
19358.0	5.74423500254959e+17
19359.0	5.7429222378263885e+17
19360.0	5.74168635679266e+17
19361.0	5.740407489735338e+17
19362.0	5.739127953686526e+17
19363.0	5.7378359983035725e+17
19364.0	5.736535233484117e+17
19365.0	5.735227366309887e+17
19366.0	5.7339099801627296e+17
19367.0	5.732573709860863e+17
19368.0	5.7312304441589754e+17
19369.0	5.7298712799477754e+17
19370.0	5.728442131677183e+17
19371.0	5.72714979111731e+17
19372.0	5.725771245027326e+17
19373.0	5.7243755617102496e+17
19374.0	5.722966261585236e+17
19375.0	5.721542197510143e+17
19376.0	5.720103289793193e+17
19377.0	5.718637379147092e+17
19378.0	5.717108851736575e+17
19379.0	5.715618663759871e+17
19380.0	5.7141056769447245e+17
19381.0	5.7125219322210976e+17
19382.0	5.7109641131895456e+17
19383.0	5.7093889856634874e+17
19384.0	5.7077992430851405e+17
19385.0	5.706175300851027e+17
19386.0	5.7045247953906323e+17
19387.0	5.702797091667967e+17
19388.0	5.7009515042351776e+17
19389.0	5.699208714300074e+17
19390.0	5.6974302371293856e+17
19391.0	5.695130532402515e+17
19392.0	5.6937603378708474e+17
19393.0	5.691864020331177e+17
19394.0	5.689835695461717e+17
19395.0	5.6878319988462925e+17
19396.0	5.685789416838485e+17
19397.0	5.6836932295284045e+17
19398.0	5.681489803651754e+17
19399.0	5.679148919947263e+17
19400.0	5.676907002942805e+17
19401.0	5.674482705017513e+17
19402.0	5.67181876343603e+17
19403.0	5.6692940909226656e+17
19404.0	5.6666300577655456e+17
19405.0	5.6638067920513696e+17
19406.0	5.660972193327786e+17
19407.0	5.657873901507924e+17
19408.0	5.654558103568383e+17
19409.0	5.6512117088802125e+17
19410.0	5.6477381114374816e+17
19411.0	5.644136417853439e+17
19412.0	5.640208199101098e+17
19413.0	5.636288444454228e+17
19414.0	5.632229084495871e+17
19415.0	5.6275937766932474e+17
19416.0	5.623001315803136e+17
19417.0	5.6179794064179194e+17
19418.0	5.6128136554741754e+17
19419.0	5.607008565373609e+17
19420.0	5.6009917593900365e+17
19421.0	5.5944393960106656e+17
19422.0	5.587180186151594e+17
19423.0	5.579340644002475e+17
19424.0	5.5709176126504954e+17
19425.0	5.561522590493354e+17
19426.0	5.5509084833928506e+17
19427.0	5.5409411386682016e+17
19428.0	5.530723918282751e+17
19429.0	5.519862584923476e+17
19430.0	5.507673441872554e+17
19431.0	5.49440539800371e+17
19432.0	5.4799039959749965e+17
19433.0	5.463469905499477e+17
19434.0	5.4449425791057894e+17
19435.0	5.423318950390441e+17
19436.0	5.397690187776001e+17
19437.0	5.369533288852138e+17
19438.0	5.344063097492819e+17
19439.0	5.317355798964907e+17
19440.0	5.286391748143786e+17
19441.0	5.250359046613672e+17
19442.0	5.20671626212147e+17
19443.0	5.151745794288299e+17
19444.0	5.0977051197658426e+17
19445.0	5.038766589389486e+17
19446.0	4.964834451914749e+17
19447.0	4.8736132549399834e+17
19448.0	4.7694935798142317e+17
19449.0	4.619910027498839e+17
19450.0	4.306899509269833e+17
19451.0	4.201944370730319e+17
19452.0	4.48070001867708e+17
19453.0	4.70403531494742e+17
19454.0	4.822151484582564e+17
19455.0	4.914210855190528e+17
19456.0	4.996634508612952e+17
19457.0	5.059756757964114e+17
19458.0	5.1117375664510317e+17
19459.0	5.166890850014552e+17
19460.0	5.2136573389154944e+17
19461.0	5.2509207764664314e+17
19462.0	5.282043520177494e+17
19463.0	5.3090046160404454e+17
19464.0	5.33278540955648e+17
19465.0	5.35655121682432e+17
19466.0	5.3824307638654285e+17
19467.0	5.40365860826863e+17
19468.0	5.4214155654485325e+17
19469.0	5.436594553793193e+17
19470.0	5.44993828807202e+17
19471.0	5.461700887183358e+17
19472.0	5.4721018740080634e+17
19473.0	5.481494682271743e+17
19474.0	5.4899393177845754e+17
19475.0	5.497572475011071e+17
19476.0	5.5059318347311776e+17
19477.0	5.513809732392277e+17
19478.0	5.5203899473483066e+17
19479.0	5.526426808396458e+17
19480.0	5.531813741068288e+17
19481.0	5.5365418100981754e+17
19482.0	5.5407488612870816e+17
19483.0	5.544401865889108e+17
19484.0	5.547680856014846e+17
19485.0	5.5507169875503776e+17
19486.0	5.553293016520021e+17
19487.0	5.5557260553748474e+17
19488.0	5.5579904587421005e+17
19489.0	5.559782633810602e+17
19490.0	5.5614514124554234e+17
19491.0	5.5631832909086714e+17
19492.0	5.5646079449825274e+17
19493.0	5.565802091293353e+17
19494.0	5.567041113161726e+17
19495.0	5.5680446961636685e+17
19496.0	5.568909402963966e+17
19497.0	5.5695639443756365e+17
19498.0	5.570204118198954e+17
19499.0	5.569863626697385e+17
19500.0	5.571033872465919e+17
19501.0	5.5714820478293325e+17
19502.0	5.5717655093794125e+17
19503.0	5.5718890903524685e+17
19504.0	5.5719940570043725e+17
19505.0	5.5720563941485216e+17
19506.0	5.571997961901396e+17
19507.0	5.5718860355010554e+17
19508.0	5.571726253490175e+17
19509.0	5.571576026103807e+17
19510.0	5.571350968139774e+17
19511.0	5.570477153408341e+17
19512.0	5.5706544927757645e+17
19513.0	5.570146096993619e+17
19514.0	5.569842288175785e+17
19515.0	5.569520840212479e+17
19516.0	5.56914951987746e+17
19517.0	5.5687668071137274e+17
19518.0	5.568283281457151e+17
19519.0	5.567749518524414e+17
19520.0	5.5671915943034874e+17
19521.0	5.566614760762026e+17
19522.0	5.5660155904546125e+17
19523.0	5.5653987278738765e+17
19524.0	5.564762808472915e+17
19525.0	5.564105078691157e+17
19526.0	5.563439620904276e+17
19527.0	5.562755393606996e+17
19528.0	5.562104129344851e+17
19529.0	5.5614062216260256e+17
19530.0	5.5607338886758394e+17
19531.0	5.559996413990227e+17
19532.0	5.559246783512574e+17
19533.0	5.5584862897875616e+17
19534.0	5.5577151676962125e+17
19535.0	5.5569341722132474e+17
19536.0	5.55614060360499e+17
19537.0	5.555344065429503e+17
19538.0	5.5545336888470176e+17
19539.0	5.553678555545599e+17
19540.0	5.5528956544505165e+17
19541.0	5.552064532840447e+17
19542.0	5.5512279684218874e+17
19543.0	5.550395411660798e+17
19544.0	5.549544116147541e+17
19545.0	5.5486628054958074e+17
19546.0	5.5477552028494496e+17
19547.0	5.5469528234065914e+17
19548.0	5.5460791729520634e+17
19549.0	5.5451931031633914e+17
19550.0	5.5443178183284045e+17
19551.0	5.543429534646271e+17
19552.0	5.5425366707841696e+17
19553.0	5.5416383878813005e+17
19554.0	5.540735864537087e+17
19555.0	5.539833869675177e+17
19556.0	5.538938012478122e+17
19557.0	5.5380607304553805e+17
19558.0	5.5371455319244794e+17
19559.0	5.5362246626945696e+17
19560.0	5.5353054711862605e+17
19561.0	5.534380852248575e+17
19562.0	5.533453306385749e+17
19563.0	5.5325224945582074e+17
19564.0	5.53159048106257e+17
19565.0	5.530655405725013e+17
19566.0	5.5297163520901114e+17
19567.0	5.5287771474602656e+17
19568.0	5.52783579324962e+17
19569.0	5.526891045847039e+17
19570.0	5.525945423932074e+17
19571.0	5.524997177780905e+17
19572.0	5.524044811425109e+17
19573.0	5.523094353477631e+17
19574.0	5.5221342751948794e+17
19575.0	5.521186695938047e+17
19576.0	5.5202548579041274e+17
19577.0	5.519287700335274e+17
19578.0	5.518333935878143e+17
19579.0	5.5173739806283085e+17
19580.0	5.5164120547546445e+17
19581.0	5.5154484798204576e+17
19582.0	5.514484902789119e+17
19583.0	5.513518790301011e+17
19584.0	5.5125514796400634e+17
19585.0	5.511574889081513e+17
19586.0	5.510601271585451e+17
19587.0	5.509636588655957e+17
19588.0	5.508636147187711e+17
19589.0	5.507693783547903e+17
19590.0	5.506720554024958e+17
19591.0	5.505752225546239e+17
19592.0	5.5047772071526394e+17
19593.0	5.503801688937813e+17
19594.0	5.5028073487837856e+17
19595.0	5.501847726282069e+17
19596.0	5.5007519377981434e+17
19597.0	5.4998910659898016e+17
19598.0	5.498893956896085e+17
19599.0	5.4979324336756045e+17
19600.0	5.4969519438124365e+17
19601.0	5.495966082443947e+17
19602.0	5.494986459403604e+17
19603.0	5.493972008959998e+17
19604.0	5.493021077755219e+17
19605.0	5.492019773658451e+17
19606.0	5.491056774042964e+17
19607.0	5.490074245748052e+17
19608.0	5.4890895496970234e+17
19609.0	5.488103180118697e+17
19610.0	5.4871199185196365e+17
19611.0	5.4861340012270925e+17
19612.0	5.485148482393427e+17
19613.0	5.4841618206119245e+17
19614.0	5.4831725968097274e+17
19615.0	5.482188846574249e+17
19616.0	5.4811976255842976e+17
19617.0	5.4802142598266874e+17
19618.0	5.479191861876052e+17
19619.0	5.478189966382421e+17
19620.0	5.477205665994068e+17
19621.0	5.476262123754837e+17
19622.0	5.4752734962428576e+17
19623.0	5.4742847072501754e+17
19624.0	5.4732957295138125e+17
19625.0	5.4723064043492685e+17
19626.0	5.4713171742556154e+17
19627.0	5.47032767992081e+17
19628.0	5.4693265184303776e+17
19629.0	5.4683419510046714e+17
19630.0	5.4673519855097165e+17
19631.0	5.4658201180351136e+17
19632.0	5.4653777881333754e+17
19633.0	5.464387698906452e+17
19634.0	5.4633974523931296e+17
19635.0	5.4624039678771194e+17
19636.0	5.461416542033236e+17
19637.0	5.4603968032713376e+17
19638.0	5.4594347424808954e+17
19639.0	5.4584437032441165e+17
19640.0	5.4574503110027936e+17
19641.0	5.4564198285312e+17
19642.0	5.455472129037653e+17
19643.0	5.4544795749580794e+17
19644.0	5.453485833890475e+17
19645.0	5.4524807598134605e+17
19646.0	5.451508437658281e+17
19647.0	5.450517480210431e+17
19648.0	5.449526522762579e+17
19649.0	5.448535364687187e+17
19650.0	5.447544609964032e+17
19651.0	5.4465536916630176e+17
19652.0	5.44556274749713e+17
19653.0	5.4445717397176314e+17
19654.0	5.443580983596372e+17
19655.0	5.44258985558016e+17
19656.0	5.441598813547177e+17
19657.0	5.4406084992259405e+17
19658.0	5.4396178416708256e+17
19659.0	5.4386270373150714e+17
19660.0	5.437636528657747e+17
