# Flux units: erg / (cm m2 s)
# Wavelength units: Angstrom
wave	flux
19000.0	7.131167013382825e+17
19001.0	7.129775815873876e+17
19002.0	7.128543574097917e+17
19003.0	7.127229178489513e+17
19004.0	7.125915357500756e+17
19005.0	7.124603319091199e+17
19006.0	7.123289103837866e+17
19007.0	7.121964260218198e+17
19008.0	7.120614803024553e+17
19009.0	7.119265261944832e+17
19010.0	7.117682408510803e+17
19011.0	7.116683694396756e+17
19012.0	7.115258214045012e+17
19013.0	7.11406982930978e+17
19014.0	7.112916662747133e+17
19015.0	7.111812594707113e+17
19016.0	7.110491010061651e+17
19017.0	7.109209040617472e+17
19018.0	7.107879092529833e+17
19019.0	7.106565625260714e+17
19020.0	7.105234130873e+17
19021.0	7.103931304553129e+17
19022.0	7.102620704789844e+17
19023.0	7.10125893451776e+17
19024.0	7.099957474142889e+17
19025.0	7.098648162030931e+17
19026.0	7.097305380771156e+17
19027.0	7.095927400912212e+17
19028.0	7.094686595765587e+17
19029.0	7.093363691312467e+17
19030.0	7.092055831827795e+17
19031.0	7.090733841732947e+17
19032.0	7.089410973630463e+17
19033.0	7.088013929261738e+17
19034.0	7.086743866048511e+17
19035.0	7.085328363945983e+17
19036.0	7.078270507941884e+17
19037.0	7.082725268433578e+17
19038.0	7.081447616326314e+17
19039.0	7.080152981482153e+17
19040.0	7.078832855056383e+17
19041.0	7.077511130600787e+17
19042.0	7.076102592441002e+17
19043.0	7.074866150768637e+17
19044.0	7.073533062545407e+17
19045.0	7.072218710278143e+17
19046.0	7.070857500644691e+17
19047.0	7.069551506227199e+17
19048.0	7.068095095679657e+17
19049.0	7.066841475536212e+17
19050.0	7.065553407574015e+17
19051.0	7.063327900084904e+17
19052.0	7.062733659482794e+17
19053.0	7.061620965157545e+17
19054.0	7.060303072897705e+17
19055.0	7.058775546527744e+17
19056.0	7.057638933484883e+17
19057.0	7.056325815741097e+17
19058.0	7.054986845705556e+17
19059.0	7.053677697171455e+17
19060.0	7.052343621888681e+17
19061.0	7.051035324798291e+17
19062.0	7.049707086588586e+17
19063.0	7.048382753275904e+17
19064.0	7.046969595789311e+17
19065.0	7.045591172732244e+17
19066.0	7.044361047681706e+17
19067.0	7.043086609809407e+17
19068.0	7.041762079364436e+17
19069.0	7.040437771217577e+17
19070.0	7.039094236381183e+17
19071.0	7.037788190233939e+17
19072.0	7.036458874088105e+17
19073.0	7.035135026615636e+17
19074.0	7.033813693628415e+17
19075.0	7.032488573184681e+17
19076.0	7.031149142474751e+17
19077.0	7.029826779086847e+17
19078.0	7.028494393409535e+17
19079.0	7.027187425214461e+17
19080.0	7.025851174486015e+17
19081.0	7.024503945166848e+17
19082.0	7.023181992121684e+17
19083.0	7.021794828834131e+17
19084.0	7.020370944415062e+17
19085.0	7.0192334386845e+17
19086.0	7.017588348070569e+17
19087.0	7.016446678794239e+17
19088.0	7.015160295544148e+17
19089.0	7.013714030318932e+17
19090.0	7.012570059068755e+17
19091.0	7.011258562423466e+17
19092.0	7.009881632538623e+17
19093.0	7.00863307981346e+17
19094.0	7.007311130962601e+17
19095.0	7.005986898313215e+17
19096.0	7.004651743696212e+17
19097.0	7.003336180673194e+17
19098.0	7.002008925328723e+17
19099.0	7.000683137990655e+17
19100.0	6.999349914151593e+17
19101.0	6.99803596034321e+17
19102.0	6.996640674785962e+17
19103.0	6.995389266438825e+17
19104.0	6.994064031350783e+17
19105.0	6.992724615320916e+17
19106.0	6.991388604366847e+17
19107.0	6.990068698841087e+17
19108.0	6.988741287608319e+17
19109.0	6.987020261217619e+17
19110.0	6.986047198767785e+17
19111.0	6.984780474220543e+17
19112.0	6.983460470827689e+17
19113.0	6.982141392977919e+17
19114.0	6.980815344194899e+17
19115.0	6.979446698060458e+17
19116.0	6.978147446685695e+17
19117.0	6.976821991396691e+17
19118.0	6.97542090162176e+17
19119.0	6.971171836788731e+17
19120.0	6.972795909046271e+17
19121.0	6.971502254970196e+17
19122.0	6.970219460646227e+17
19123.0	6.968895446799699e+17
19124.0	6.967534335732393e+17
19125.0	6.966240181835091e+17
19126.0	6.964893131472893e+17
19127.0	6.96230748496418e+17
19128.0	6.962177770520575e+17
19129.0	6.960874177342121e+17
19130.0	6.959610060253866e+17
19131.0	6.958297783468031e+17
19132.0	6.956971294283091e+17
19133.0	6.955584112820224e+17
19134.0	6.954291565341353e+17
19135.0	6.952996933293398e+17
19136.0	6.9516754157568e+17
19137.0	6.950237234353491e+17
19138.0	6.949014789073578e+17
19139.0	6.94770352591121e+17
19140.0	6.946380922748927e+17
19141.0	6.945056476190036e+17
19142.0	6.943711573311485e+17
19143.0	6.942368171993769e+17
19144.0	6.941050104272212e+17
19145.0	6.939757254104404e+17
19146.0	6.937782965152426e+17
19147.0	6.936805574180863e+17
19148.0	6.9355341100701e+17
19149.0	6.9342093915805e+17
19150.0	6.932886279509332e+17
19151.0	6.931565600833533e+17
19152.0	6.930232095976106e+17
19153.0	6.928888063415636e+17
19154.0	6.927496793205417e+17
19155.0	6.926258774474751e+17
19156.0	6.924929038898515e+17
19157.0	6.923564607340543e+17
19158.0	6.922032405719721e+17
19159.0	6.920919672247636e+17
19160.0	6.9196120077981e+17
19161.0	6.918274382036991e+17
19162.0	6.916328120822442e+17
19163.0	6.915559743204009e+17
19164.0	6.914322800312319e+17
19165.0	6.91298382258722e+17
19166.0	6.911583836613289e+17
19167.0	6.910292060886355e+17
19168.0	6.909015267213311e+17
19169.0	6.907689433737897e+17
19170.0	6.906375179337727e+17
19171.0	6.905022339437908e+17
19172.0	6.903721131420329e+17
19173.0	6.902399289524224e+17
19174.0	6.901034263074132e+17
19175.0	6.899748498483881e+17
19176.0	6.898422284025855e+17
19177.0	6.896972687824212e+17
19178.0	6.895741444292605e+17
19179.0	6.894393068530345e+17
19180.0	6.8930972432029e+17
19181.0	6.8916983365632e+17
19182.0	6.890443298045951e+17
19183.0	6.889128591359997e+17
19184.0	6.887794785910783e+17
19185.0	6.886467849333417e+17
19186.0	6.88514141397538e+17
19187.0	6.883753804693504e+17
19188.0	6.882480913820329e+17
19189.0	6.88115184443938e+17
19190.0	6.879816622014464e+17
19191.0	6.878460597239807e+17
19192.0	6.877159572373504e+17
19193.0	6.875823994830847e+17
19194.0	6.87447810908706e+17
19195.0	6.873147324934826e+17
19196.0	6.871788198472362e+17
19197.0	6.870409436375721e+17
19198.0	6.868875241761449e+17
19199.0	6.863596633281875e+17
19200.0	6.863153710585174e+17
19201.0	6.864911522420052e+17
19202.0	6.863760086007805e+17
19203.0	6.862461331658068e+17
19204.0	6.861141213620905e+17
19205.0	6.859824360849407e+17
19206.0	6.858497092222975e+17
19207.0	6.857091614507007e+17
19208.0	6.855685594327721e+17
19209.0	6.854497670266879e+17
19210.0	6.853167005652307e+17
19211.0	6.851838559824553e+17
19212.0	6.85049987010833e+17
19213.0	6.849069467740841e+17
19214.0	6.847714516008959e+17
19215.0	6.846468082106368e+17
19216.0	6.845147490811903e+17
19217.0	6.84379804410402e+17
19218.0	6.841882938179581e+17
19219.0	6.840986607725225e+17
19220.0	6.839768737032874e+17
19221.0	6.838227602243583e+17
19222.0	6.83708992594466e+17
19223.0	6.835750437213524e+17
19224.0	6.834385830193833e+17
19225.0	6.832982704783359e+17
19226.0	6.831719746022057e+17
19227.0	6.830374587990015e+17
19228.0	6.829053299742036e+17
19229.0	6.827706388490921e+17
19230.0	6.826357631746047e+17
19231.0	6.825001482540372e+17
19232.0	6.823657807194793e+17
19233.0	6.822259024986111e+17
19234.0	6.820949996688724e+17
19235.0	6.819597537072467e+17
19236.0	6.81826381341218e+17
19237.0	6.816900641543508e+17
19238.0	6.815183281673556e+17
19239.0	6.81384664367104e+17
19240.0	6.81248169411652e+17
19241.0	6.811115305915732e+17
19242.0	6.809767627806035e+17
19243.0	6.808288189830484e+17
19244.0	6.807066862332585e+17
19245.0	6.805702307042644e+17
19246.0	6.804334532624383e+17
19247.0	6.802984618251604e+17
19248.0	6.801623707112788e+17
19249.0	6.800258664584534e+17
19250.0	6.798878628817577e+17
19251.0	6.797447672801962e+17
19252.0	6.795921122306729e+17
19253.0	6.794774928075433e+17
19254.0	6.793422959192746e+17
19255.0	6.791895437716138e+17
19256.0	6.790661741914793e+17
19257.0	6.789308178497535e+17
19258.0	6.787932720813395e+17
19259.0	6.786494563876864e+17
19260.0	6.785059914077523e+17
19261.0	6.783787976010409e+17
19262.0	6.782369500146346e+17
19263.0	6.780976806668969e+17
19264.0	6.779256697432745e+17
19265.0	6.778116850581501e+17
19266.0	6.776737195098111e+17
19267.0	6.775491132391423e+17
19268.0	6.774100965283155e+17
19269.0	6.772707653844991e+17
19270.0	6.771303105866409e+17
19271.0	6.769672370257919e+17
19272.0	6.768046821605373e+17
19273.0	6.766112029016061e+17
19274.0	6.764731141106344e+17
19275.0	6.763789536635561e+17
19276.0	6.762370760878761e+17
19277.0	6.760966237366954e+17
19278.0	6.759558130521427e+17
19279.0	6.758133491826687e+17
19280.0	6.756674865987583e+17
19281.0	6.755301086724095e+17
19282.0	6.753891005759487e+17
19283.0	6.752424367401642e+17
19284.0	6.750760874278912e+17
19285.0	6.749262965986643e+17
19286.0	6.747914349750954e+17
19287.0	6.746499573263017e+17
19288.0	6.74342508971076e+17
19289.0	6.73980566051225e+17
19290.0	6.742175621229225e+17
19291.0	6.740541439300948e+17
19292.0	6.738729492283391e+17
19293.0	6.737134552263337e+17
19294.0	6.735673718822227e+17
19295.0	6.734223432657578e+17
19296.0	6.732753696107177e+17
19297.0	6.731280761399978e+17
19298.0	6.729797835161599e+17
19299.0	6.728339025472169e+17
19300.0	6.726864698955092e+17
19301.0	6.725378512344403e+17
19302.0	6.723883789626025e+17
19303.0	6.722343961362432e+17
19304.0	6.720881958409556e+17
19305.0	6.719128814135978e+17
19306.0	6.716942922547197e+17
19307.0	6.715396192556372e+17
19308.0	6.713891487394473e+17
19309.0	6.712249909510143e+17
19310.0	6.710661222498303e+17
19311.0	6.709286748378452e+17
19312.0	6.707791297948329e+17
19313.0	6.706250430196393e+17
19314.0	6.699694152133288e+17
19315.0	6.697916660624049e+17
19316.0	6.700336760750079e+17
19317.0	6.698799736378708e+17
19318.0	6.697223247801002e+17
19319.0	6.69565837185297e+17
19320.0	6.694066679622314e+17
19321.0	6.692465717979817e+17
19322.0	6.690800902253225e+17
19323.0	6.68777343684881e+17
19324.0	6.686094712810153e+17
19325.0	6.684381313761279e+17
19326.0	6.682837363195903e+17
19327.0	6.681192667545599e+17
19328.0	6.679080712448681e+17
19329.0	6.677064743998803e+17
19330.0	6.674806625796096e+17
19331.0	6.673119770400084e+17
19332.0	6.671473152360447e+17
19333.0	6.669783393807017e+17
19334.0	6.668081114557097e+17
19335.0	6.666351049441279e+17
19336.0	6.664647345526099e+17
19337.0	6.662912702327466e+17
19338.0	6.661010563792895e+17
19339.0	6.659415869838676e+17
19340.0	6.657587352524116e+17
19341.0	6.655826188741289e+17
19342.0	6.653792860766205e+17
19343.0	6.652244229357567e+17
19344.0	6.650403648525652e+17
19345.0	6.64717726336068e+17
19346.0	6.645773851339433e+17
19347.0	6.64398067872563e+17
19348.0	6.642161541272916e+17
19349.0	6.640242022940672e+17
19350.0	6.638323361644543e+17
19351.0	6.636385932935165e+17
19352.0	6.634387216356692e+17
19353.0	6.632481171526995e+17
19354.0	6.630491049776467e+17
19355.0	6.628402793895252e+17
19356.0	6.626444331450367e+17
19357.0	6.623609909586601e+17
19358.0	6.621039101826388e+17
19359.0	6.618911535529983e+17
19360.0	6.616789757373097e+17
19361.0	6.614663505291946e+17
19362.0	6.612524898888362e+17
19363.0	6.610333253413546e+17
19364.0	6.607677282407763e+17
19365.0	6.604004426164905e+17
19366.0	6.601716134838271e+17
19367.0	6.599397560636756e+17
19368.0	6.597046474287785e+17
19369.0	6.594622524489727e+17
19370.0	6.591599998577321e+17
19371.0	6.587145716236285e+17
19372.0	6.584643200832852e+17
19373.0	6.582077273145343e+17
19374.0	6.579495181309268e+17
19375.0	6.575918412376746e+17
19376.0	6.570892427526143e+17
19377.0	6.568155125470548e+17
19378.0	6.565372841601706e+17
19379.0	6.560335453137578e+17
19380.0	6.555507162611711e+17
19381.0	6.55252265247266e+17
19382.0	6.547943428106921e+17
19383.0	6.541255741800447e+17
19384.0	6.538124779148627e+17
19385.0	6.531997788099922e+17
19386.0	6.525467349745663e+17
19387.0	6.522014307887785e+17
19388.0	6.51151874300313e+17
19389.0	6.507765304393727e+17
19390.0	6.500719408447484e+17
19391.0	6.4911093352366e+17
19392.0	6.491659225967272e+17
19393.0	6.487799175140691e+17
19394.0	6.483710868193279e+17
19395.0	6.479556318505641e+17
19396.0	6.475333863036243e+17
19397.0	6.471055812067328e+17
19398.0	6.466023008676522e+17
19399.0	6.461071790789971e+17
19400.0	6.456955744114004e+17
19401.0	6.452445369248426e+17
19402.0	6.447820311625727e+17
19403.0	6.442473493976404e+17
19404.0	6.436866390403753e+17
19405.0	6.431750068633599e+17
19406.0	6.426538651506004e+17
19407.0	6.419570889850876e+17
19408.0	6.413261308865194e+17
19409.0	6.407968714478934e+17
19410.0	6.399505852618068e+17
19411.0	6.393420439704915e+17
19412.0	6.38452260195533e+17
19413.0	6.37704958185745e+17
19414.0	6.366456978953551e+17
19415.0	6.357485050920963e+17
19416.0	6.345189072655699e+17
19417.0	6.332528097667753e+17
19418.0	6.319300395313837e+17
19419.0	6.304006636131668e+17
19420.0	6.286300489449471e+17
19421.0	6.265824841039866e+17
19422.0	6.249251433261741e+17
19423.0	6.237345207899475e+17
19424.0	6.22551510356241e+17
19425.0	6.213411666919423e+17
19426.0	6.200731159057748e+17
19427.0	6.18737636090402e+17
19428.0	6.173153343220394e+17
19429.0	6.158661936218111e+17
19430.0	6.143389972037631e+17
19431.0	6.12614226977314e+17
19432.0	6.109644794276521e+17
19433.0	6.090306165058218e+17
19434.0	6.07010766856738e+17
19435.0	6.047364324261887e+17
19436.0	6.023007700342099e+17
19437.0	5.995497421187754e+17
19438.0	5.958154034610176e+17
19439.0	5.92813659835597e+17
19440.0	5.888339043418112e+17
19441.0	5.844597601206271e+17
19442.0	5.795050957045761e+17
19443.0	5.7389707246086854e+17
19444.0	5.676817983034705e+17
19445.0	5.60354819886285e+17
19446.0	5.517346904997888e+17
19447.0	5.41077169346969e+17
19448.0	5.2740641224567526e+17
19449.0	5.086774583186772e+17
19450.0	4.797740877873129e+17
19451.0	4.629622790553612e+17
19452.0	4.9608955432796186e+17
19453.0	5.188178669469703e+17
19454.0	5.343685985523021e+17
19455.0	5.460909950500864e+17
19456.0	5.55416631814827e+17
19457.0	5.630688928377513e+17
19458.0	5.6875137399521414e+17
19459.0	5.752628620645719e+17
19460.0	5.802798694967978e+17
19461.0	5.846912821362688e+17
19462.0	5.88641838073993e+17
19463.0	5.92218682643797e+17
19464.0	5.953111410256552e+17
19465.0	5.98037578645504e+17
19466.0	6.00447376372531e+17
19467.0	6.024927823353174e+17
19468.0	6.043679417084586e+17
19469.0	6.06148417954338e+17
19470.0	6.077267643990015e+17
19471.0	6.091976540334761e+17
19472.0	6.105386523645267e+17
19473.0	6.117832242757631e+17
19474.0	6.129839975869098e+17
19475.0	6.14082875245636e+17
19476.0	6.151922800481619e+17
19477.0	6.161916141502464e+17
19478.0	6.171519137524393e+17
19479.0	6.180826544865279e+17
19480.0	6.193196249208147e+17
19481.0	6.209370221532506e+17
19482.0	6.225232825505101e+17
19483.0	6.238874925094226e+17
19484.0	6.251415666163711e+17
19485.0	6.262761508044806e+17
19486.0	6.271219093471231e+17
19487.0	6.279602584420351e+17
19488.0	6.287426753746262e+17
19489.0	6.29282225328401e+17
19490.0	6.298926124630011e+17
19491.0	6.304068565729279e+17
19492.0	6.30896950928998e+17
19493.0	6.313628829483005e+17
19494.0	6.316812845886121e+17
19495.0	6.321133279597908e+17
19496.0	6.324271458549759e+17
19497.0	6.327213116183891e+17
19498.0	6.329254455978666e+17
19499.0	6.325968847241211e+17
19500.0	6.335689097128617e+17
19501.0	6.337897258374484e+17
19502.0	6.339998994748756e+17
19503.0	6.342045803915946e+17
19504.0	6.344388636573695e+17
19505.0	6.346577662006612e+17
19506.0	6.348386972904106e+17
19507.0	6.350111781158912e+17
19508.0	6.351797583784617e+17
19509.0	6.353394433611091e+17
19510.0	6.354769775951871e+17
19511.0	6.347241581882019e+17
19512.0	6.359800596834986e+17
19513.0	6.360823992330918e+17
19514.0	6.366498373238784e+17
19515.0	6.371739911061504e+17
19516.0	6.37329727291392e+17
19517.0	6.379622265869652e+17
19518.0	6.380440968145578e+17
19519.0	6.38222416740352e+17
19520.0	6.38652796510754e+17
19521.0	6.387100284179795e+17
19522.0	6.387563731703124e+17
19523.0	6.391725232051539e+17
19524.0	6.392241572544511e+17
19525.0	6.392535145163433e+17
19526.0	6.393239805711702e+17
19527.0	6.396081020949844e+17
19528.0	6.396230294132052e+17
19529.0	6.396343882175828e+17
19530.0	6.39641402212352e+17
19531.0	6.39675894141201e+17
19532.0	6.398874005187242e+17
19533.0	6.398816461433513e+17
19534.0	6.398718077741737e+17
19535.0	6.398580078149631e+17
19536.0	6.398397941896534e+17
19537.0	6.398313702795946e+17
19538.0	6.399642146526548e+17
19539.0	6.399098055819264e+17
19540.0	6.399170244684457e+17
19541.0	6.398882521022463e+17
19542.0	6.39854464606754e+17
19543.0	6.398180871285417e+17
19544.0	6.397804097656148e+17
19545.0	6.397625657982975e+17
19546.0	6.397532524161704e+17
19547.0	6.397724533107369e+17
19548.0	6.397269452521471e+17
19549.0	6.396711217222995e+17
19550.0	6.39628928492066e+17
19551.0	6.395773280671059e+17
19552.0	6.39523716473378e+17
19553.0	6.394668455559168e+17
19554.0	6.394090547576831e+17
19555.0	6.393522781421567e+17
19556.0	6.393133340994217e+17
19557.0	6.393062815170559e+17
19558.0	6.39243310473762e+17
19559.0	6.391790105351508e+17
19560.0	6.391110423980714e+17
19561.0	6.390439221395456e+17
19562.0	6.389778292058794e+17
19563.0	6.389078261323092e+17
19564.0	6.388365895139327e+17
19565.0	6.387642518907562e+17
19566.0	6.386886056607744e+17
19567.0	6.386163587044691e+17
19568.0	6.385389721179476e+17
19569.0	6.384641409810431e+17
19570.0	6.383875211831978e+17
19571.0	6.383093464170495e+17
19572.0	6.382281172888233e+17
19573.0	6.381965929698644e+17
19574.0	6.381472852912809e+17
19575.0	6.380736335227561e+17
19576.0	6.380021495802538e+17
19577.0	6.379491364438015e+17
19578.0	6.378635646031188e+17
19579.0	6.377795092130473e+17
19580.0	6.378085212837202e+17
19581.0	6.377460381078868e+17
19582.0	6.37660444107298e+17
19583.0	6.375729679826943e+17
19584.0	6.374846483835562e+17
19585.0	6.373870423856467e+17
19586.0	6.372951551814314e+17
19587.0	6.372138055368703e+17
19588.0	6.371911822300502e+17
19589.0	6.371398580699136e+17
19590.0	6.370436202539689e+17
19591.0	6.369580091266388e+17
19592.0	6.368648899155284e+17
19593.0	6.36769781555746e+17
19594.0	6.366582067778899e+17
19595.0	6.365806166278144e+17
19596.0	6.364705212508842e+17
19597.0	6.363907844560211e+17
19598.0	6.363170230064468e+17
19599.0	6.362815986139136e+17
19600.0	6.361854522337961e+17
19601.0	6.360828084573524e+17
19602.0	6.359851059904511e+17
19603.0	6.358578752039593e+17
19604.0	6.357881639840426e+17
19605.0	6.356718116143104e+17
19606.0	6.3559559558813e+17
19607.0	6.354964561526783e+17
19608.0	6.353952282334548e+17
19609.0	6.352923704076969e+17
19610.0	6.351954296963071e+17
19611.0	6.35094097199104e+17
19612.0	6.349939651117053e+17
19613.0	6.349445271999827e+17
19614.0	6.348485267816447e+17
19615.0	6.347495108684458e+17
19616.0	6.346424353903956e+17
19617.0	6.345431263652521e+17
19618.0	6.344141711605759e+17
19619.0	6.343012412730025e+17
19620.0	6.342033081193812e+17
19621.0	6.341469195468799e+17
19622.0	6.340444025782272e+17
19623.0	6.339403475582975e+17
19624.0	6.338351462350845e+17
19625.0	6.337312159956991e+17
19626.0	6.336261047801172e+17
19627.0	6.335199531674282e+17
19628.0	6.334044008611839e+17
19629.0	6.333096647458815e+17
19630.0	6.331509432647677e+17
19631.0	6.326738313980586e+17
19632.0	6.330005017591807e+17
19633.0	6.329001257030996e+17
19634.0	6.328181878773076e+17
19635.0	6.327331187938644e+17
19636.0	6.326292290295124e+17
19637.0	6.324923484078079e+17
19638.0	6.324156982012585e+17
19639.0	6.323081837892948e+17
19640.0	6.321944288122198e+17
19641.0	6.320354536456192e+17
19642.0	6.319859277933225e+17
19643.0	6.31878106218496e+17
19644.0	6.317656414792361e+17
19645.0	6.316434165945683e+17
19646.0	6.315541228683263e+17
19647.0	6.31446993703185e+17
19648.0	6.313386916009299e+17
19649.0	6.312300367577087e+17
19650.0	6.311216318251008e+17
19651.0	6.310123838373887e+17
19652.0	6.309039073918975e+17
19653.0	6.307950276640767e+17
19654.0	6.306853891866624e+17
19655.0	6.305766197690368e+17
19656.0	6.304672304332799e+17
19657.0	6.303583972622335e+17
19658.0	6.302489629775188e+17
19659.0	6.301393269467818e+17
19660.0	6.300298278600701e+17
19661.0	6.299201107394559e+17
19662.0	6.298102259864916e+17
19663.0	6.296969918720682e+17
19664.0	6.295888990655828e+17
19665.0	6.294804105265151e+17
