# Flux units: erg / (cm m2 s)
# Wavelength units: Angstrom
wave	flux
19000.0	5.1239776444306765e+17
19001.0	5.122946421664426e+17
19002.0	5.122081373028351e+17
19003.0	5.1211165922317645e+17
19004.0	5.1201590263371085e+17
19005.0	5.119229045680809e+17
19006.0	5.118287323070464e+17
19007.0	5.1170569701294086e+17
19008.0	5.1163387570858656e+17
19009.0	5.1153395151885645e+17
19010.0	5.1141446628365645e+17
19011.0	5.113430344204287e+17
19012.0	5.111461798652585e+17
19013.0	5.1116671832337056e+17
19014.0	5.1106823844222285e+17
19015.0	5.109747164381182e+17
19016.0	5.1087851846806176e+17
19017.0	5.107880480997375e+17
19018.0	5.1068714586821965e+17
19019.0	5.1059858544612685e+17
19020.0	5.1050265066864634e+17
19021.0	5.104096093317802e+17
19022.0	5.103148300850515e+17
19023.0	5.1021750615408634e+17
19024.0	5.101233411631787e+17
19025.0	5.100208745960788e+17
19026.0	5.099236472040106e+17
19027.0	5.097401297666047e+17
19028.0	5.0974779443773446e+17
19029.0	5.09651381719313e+17
19030.0	5.0955906956219725e+17
19031.0	5.094652372495017e+17
19032.0	5.0936983808464205e+17
19033.0	5.092687032090624e+17
19034.0	5.0918054502072314e+17
19035.0	5.090678054846462e+17
19036.0	5.0174036394639443e+17
19037.0	5.0889367252282016e+17
19038.0	5.088019976202922e+17
19039.0	5.087097078327979e+17
19040.0	5.086153957616298e+17
19041.0	5.085199797496489e+17
19042.0	5.0840797358762656e+17
19043.0	5.083326691934207e+17
19044.0	5.082360192871081e+17
19045.0	5.0814064444921165e+17
19046.0	5.0804533399388154e+17
19047.0	5.079528043621033e+17
19048.0	5.078412139255125e+17
19049.0	5.077401278436693e+17
19050.0	5.076677855368532e+17
19051.0	5.066326789150028e+17
19052.0	5.072283490757287e+17
19053.0	5.073833153964714e+17
19054.0	5.0729564899027616e+17
19055.0	5.071783722658474e+17
19056.0	5.0710419516074656e+17
19057.0	5.070123168344746e+17
19058.0	5.0690079057073485e+17
19059.0	5.068204593031849e+17
19060.0	5.067286201237504e+17
19061.0	5.0663752480413005e+17
19062.0	5.065430620176383e+17
19063.0	5.0644918811142816e+17
19064.0	5.063439778403669e+17
19065.0	5.062475461776724e+17
19066.0	5.0615903881352525e+17
19067.0	5.06072649502993e+17
19068.0	5.059794638820693e+17
19069.0	5.0588563862978554e+17
19070.0	5.0578983331648845e+17
19071.0	5.0569417822917965e+17
19072.0	5.055984151385428e+17
19073.0	5.055098194143914e+17
19074.0	5.0541642841238176e+17
19075.0	5.053226144148138e+17
19076.0	5.0522719644549114e+17
19077.0	5.051334331290964e+17
19078.0	5.050383783865002e+17
19079.0	5.0494721917364896e+17
19080.0	5.048522428645375e+17
19081.0	5.0475685446505805e+17
19082.0	5.0466280943124474e+17
19083.0	5.0456451836368205e+17
19084.0	5.0446124089780896e+17
19085.0	5.04384649830946e+17
19086.0	5.04252261798161e+17
19087.0	5.0400111540305926e+17
19088.0	5.040831571776853e+17
19089.0	5.0389728533763405e+17
19090.0	5.0391348143281485e+17
19091.0	5.038191276283221e+17
19092.0	5.036728479907838e+17
19093.0	5.036365706865321e+17
19094.0	5.0354296626435405e+17
19095.0	5.034494182555647e+17
19096.0	5.033539419155113e+17
19097.0	5.0326230734820685e+17
19098.0	5.0316428303837856e+17
19099.0	5.030699471994879e+17
19100.0	5.0297152156467194e+17
19101.0	5.028847356127914e+17
19102.0	5.02785957306914e+17
19103.0	5.0270224088651085e+17
19104.0	5.026091804655615e+17
19105.0	5.0250530691918496e+17
19106.0	5.0238613164305056e+17
19107.0	5.023248754409471e+17
19108.0	5.0223174357701965e+17
19109.0	5.01627362126506e+17
19110.0	5.020222859072851e+17
19111.0	5.019508708212736e+17
19112.0	5.0185897089433594e+17
19113.0	5.0176960118128634e+17
19114.0	5.016744584282111e+17
19115.0	5.01563855540497e+17
19116.0	5.0148875002620576e+17
19117.0	5.013952292104874e+17
19118.0	5.01263054737681e+17
19119.0	5.006589118731598e+17
19120.0	5.010616248958974e+17
19121.0	5.009811768169812e+17
19122.0	5.009321540714496e+17
19123.0	5.0083909994195616e+17
19124.0	5.0071705058891085e+17
19125.0	5.0064622969596576e+17
19126.0	5.005580529827838e+17
19127.0	5.003144110363989e+17
19128.0	5.0019821322676883e+17
19129.0	5.00275395690496e+17
19130.0	5.001864749776895e+17
19131.0	5.0008937893724154e+17
19132.0	5.000023725047807e+17
19133.0	4.998680205590528e+17
19134.0	4.997414941360128e+17
19135.0	4.997216557072383e+17
19136.0	4.9963154667820365e+17
19137.0	4.995252555350015e+17
19138.0	4.994376022010538e+17
19139.0	4.9935304538193914e+17
19140.0	4.992605817405439e+17
19141.0	4.991677997514752e+17
19142.0	4.990714536525823e+17
19143.0	4.9897780560964256e+17
19144.0	4.988865984419157e+17
19145.0	4.9879553136394234e+17
19146.0	4.9865332907922765e+17
19147.0	4.9860112376572576e+17
19148.0	4.98512167121715e+17
19149.0	4.984193637416959e+17
19150.0	4.983333821874175e+17
19151.0	4.982409948823551e+17
19152.0	4.981420832675157e+17
19153.0	4.980481383377577e+17
19154.0	4.9795168591325856e+17
19155.0	4.9786940016994976e+17
19156.0	4.977786704538281e+17
19157.0	4.9767644086490445e+17
19158.0	4.9723370928865235e+17
19159.0	4.9749933588916896e+17
19160.0	4.974009840741034e+17
19161.0	4.9730301219307514e+17
19162.0	4.964289678234971e+17
19163.0	4.9709174950461446e+17
19164.0	4.9703903059858765e+17
19165.0	4.9692206481189536e+17
19166.0	4.968228590365355e+17
19167.0	4.9668622399133e+17
19168.0	4.9666511853322234e+17
19169.0	4.965610834362368e+17
19170.0	4.964847938000212e+17
19171.0	4.9634207477705376e+17
19172.0	4.962963707745621e+17
19173.0	4.962054839118506e+17
19174.0	4.961122237022208e+17
19175.0	4.960243310133247e+17
19176.0	4.9593295817058976e+17
19177.0	4.958282063369557e+17
19178.0	4.9572557745029114e+17
19179.0	4.955875811437226e+17
19180.0	4.9555117717149005e+17
19181.0	4.954615563594409e+17
19182.0	4.9537522479049376e+17
19183.0	4.9528615811590816e+17
19184.0	4.951921162977279e+17
19185.0	4.951034271105024e+17
19186.0	4.9501176521031674e+17
19187.0	4.949128586286421e+17
19188.0	4.948247109260628e+17
19189.0	4.947277233083732e+17
19190.0	4.946318938778281e+17
19191.0	4.945404295293609e+17
19192.0	4.94459191103761e+17
19193.0	4.943624603172864e+17
19194.0	4.942706115608575e+17
19195.0	4.941827226468351e+17
19196.0	4.940900720792917e+17
19197.0	4.9399784583550285e+17
19198.0	4.9390231238301005e+17
19199.0	4.894026468338332e+17
19200.0	4.905286236110865e+17
19201.0	4.936278104954196e+17
19202.0	4.935396362289151e+17
19203.0	4.934349998085461e+17
19204.0	4.9335301661436576e+17
19205.0	4.932645540593664e+17
19206.0	4.931723587835221e+17
19207.0	4.9307153498548896e+17
19208.0	4.929725451468798e+17
19209.0	4.928965152079871e+17
19210.0	4.9280639555338234e+17
19211.0	4.9271536825139194e+17
19212.0	4.926236091132585e+17
19213.0	4.924852325930324e+17
19214.0	4.923709755577685e+17
19215.0	4.9232872717243725e+17
19216.0	4.922564215657813e+17
19217.0	4.921647211479039e+17
19218.0	4.920010203288915e+17
19219.0	4.9196937046043296e+17
19220.0	4.918849488377173e+17
19221.0	4.9177034731028474e+17
19222.0	4.917046725487274e+17
19223.0	4.9161352473040205e+17
19224.0	4.9151960664418976e+17
19225.0	4.914192867917823e+17
19226.0	4.9133875182086816e+17
19227.0	4.9124702434973005e+17
19228.0	4.9115724114821114e+17
19229.0	4.910656515298645e+17
19230.0	4.909680022607189e+17
19231.0	4.9087703409841485e+17
19232.0	4.907889902048596e+17
19233.0	4.906926958357162e+17
19234.0	4.906058208247807e+17
19235.0	4.9051397905885856e+17
19236.0	4.9042461990147405e+17
19237.0	4.903317182349311e+17
19238.0	4.9022646091775994e+17
19239.0	4.901498542620671e+17
19240.0	4.900548413227007e+17
19241.0	4.899635093045247e+17
19242.0	4.898735611969534e+17
19243.0	4.8977157061345274e+17
19244.0	4.896923811053566e+17
19245.0	4.896004928525651e+17
19246.0	4.895078643051179e+17
19247.0	4.8941771480104954e+17
19248.0	4.893248702469461e+17
19249.0	4.892313111931561e+17
19250.0	4.8913972360205645e+17
19251.0	4.8903844374336845e+17
19252.0	4.889399335933268e+17
19253.0	4.888664866466474e+17
19254.0	4.8877592519202125e+17
19255.0	4.8867225506938874e+17
19256.0	4.8858561018593274e+17
19257.0	4.8850154654706336e+17
19258.0	4.884107030254934e+17
19259.0	4.883138431942656e+17
19260.0	4.8808388544430054e+17
19261.0	4.8813476696555514e+17
19262.0	4.880395673097556e+17
19263.0	4.8794591234621434e+17
19264.0	4.878148867631785e+17
19265.0	4.8775144022562125e+17
19266.0	4.8765718701451936e+17
19267.0	4.875862163849214e+17
19268.0	4.8749415267041274e+17
19269.0	4.8740261261475834e+17
19270.0	4.8731068752199674e+17
19271.0	4.871905943224319e+17
19272.0	4.8712475423539194e+17
19273.0	4.869087024906238e+17
19274.0	4.8685585398060346e+17
19275.0	4.868523765530624e+17
19276.0	4.867589420001961e+17
19277.0	4.866672450775722e+17
19278.0	4.865751403986943e+17
19279.0	4.864764215121236e+17
19280.0	4.863857382828713e+17
19281.0	4.8629958490193914e+17
19282.0	4.8620898849477965e+17
19283.0	4.8604104604603725e+17
19284.0	4.859690123001855e+17
19285.0	4.859170986306217e+17
19286.0	4.8583808926788256e+17
19287.0	4.857484634925738e+17
19288.0	4.833129353882253e+17
19289.0	4.8114105794778e+17
19290.0	4.854721696585045e+17
19291.0	4.853601087608148e+17
19292.0	4.852879565258751e+17
19293.0	4.8519525989089274e+17
19294.0	4.851027438206975e+17
19295.0	4.8501115608978765e+17
19296.0	4.8491349591545165e+17
19297.0	4.848201588102485e+17
19298.0	4.8473161831109965e+17
19299.0	4.8463560775652685e+17
19300.0	4.845473686181204e+17
19301.0	4.8445527624253434e+17
19302.0	4.843611192208042e+17
19303.0	4.842622490596693e+17
19304.0	4.8417383019533645e+17
19305.0	4.8408221289458336e+17
19306.0	4.8398678464921594e+17
19307.0	4.8388789931868154e+17
19308.0	4.8379733115316896e+17
19309.0	4.8353089078777165e+17
19310.0	4.833957607287463e+17
19311.0	4.834639284447914e+17
19312.0	4.83368691110161e+17
19313.0	4.8327522810593274e+17
19314.0	4.743268626246403e+17
19315.0	4.746507535603065e+17
19316.0	4.82972326376243e+17
19317.0	4.8290039769770656e+17
19318.0	4.828062568240468e+17
19319.0	4.8271344337769805e+17
19320.0	4.8261660088292685e+17
19321.0	4.8252075956852045e+17
19322.0	4.8240988656762874e+17
19323.0	4.822635010239146e+17
19324.0	4.822366667756883e+17
19325.0	4.819763495348907e+17
19326.0	4.820499215417343e+17
19327.0	4.8195398033298765e+17
19328.0	4.8185189509802656e+17
19329.0	4.817656716023125e+17
19330.0	4.816666313621504e+17
19331.0	4.815706104616276e+17
19332.0	4.8147604980804256e+17
19333.0	4.8137848288706554e+17
19334.0	4.812847189415253e+17
19335.0	4.8117189174449485e+17
19336.0	4.810889183450453e+17
19337.0	4.8099541444635296e+17
19338.0	4.8088141969489914e+17
19339.0	4.8079974163633485e+17
19340.0	4.8069276780025165e+17
19341.0	4.8059451098617165e+17
19342.0	4.804651607479636e+17
19343.0	4.804092078238378e+17
19344.0	4.8030461942824954e+17
19345.0	4.8005020063716666e+17
19346.0	4.800250400560468e+17
19347.0	4.799994020233215e+17
19348.0	4.7991426506205856e+17
19349.0	4.7980945702475085e+17
19350.0	4.797063196486314e+17
19351.0	4.796097383890943e+17
19352.0	4.794964371658068e+17
19353.0	4.794100341538815e+17
19354.0	4.793087782726313e+17
19355.0	4.7919853518629536e+17
19356.0	4.7910314769558176e+17
19357.0	4.790006909151914e+17
19358.0	4.7889352022644045e+17
19359.0	4.7878281870267725e+17
19360.0	4.7867811314619725e+17
19361.0	4.785795286171647e+17
19362.0	4.7847813145777485e+17
19363.0	4.783718089271977e+17
19364.0	4.782648968871936e+17
19365.0	4.7815792402978125e+17
19366.0	4.780499994847914e+17
19367.0	4.779404906113706e+17
19368.0	4.778322620492458e+17
19369.0	4.7771311885953696e+17
19370.0	4.7759548939414176e+17
19371.0	4.774962350347604e+17
19372.0	4.773880237391871e+17
19373.0	4.772721495900159e+17
19374.0	4.7716070427634336e+17
19375.0	4.7704539579897165e+17
19376.0	4.7693083712334483e+17
19377.0	4.7681337067656525e+17
19378.0	4.7669607493795834e+17
19379.0	4.7657798437874336e+17
19380.0	4.7645810858393594e+17
19381.0	4.763367291311444e+17
19382.0	4.762093898519893e+17
19383.0	4.7608219555594234e+17
19384.0	4.7596589743254176e+17
19385.0	4.758407482791253e+17
19386.0	4.757137293748907e+17
19387.0	4.755839753650176e+17
19388.0	4.7545440373746336e+17
19389.0	4.75322296443426e+17
19390.0	4.7518708641300474e+17
19391.0	4.6867517213244736e+17
19392.0	4.745844158889972e+17
19393.0	4.747769684164606e+17
19394.0	4.7463190456784205e+17
19395.0	4.744778321930923e+17
19396.0	4.7433321126297594e+17
19397.0	4.7415679289480525e+17
19398.0	4.739496531372714e+17
19399.0	4.737418771038207e+17
19400.0	4.73639232278801e+17
19401.0	4.734922863760724e+17
19402.0	4.7333215504957434e+17
19403.0	4.7316818537567565e+17
19404.0	4.730032405960021e+17
19405.0	4.7283282183017805e+17
19406.0	4.726611193277097e+17
19407.0	4.724824338683221e+17
19408.0	4.722378330341376e+17
19409.0	4.720229852643328e+17
19410.0	4.717982376088916e+17
19411.0	4.7160522237979296e+17
19412.0	4.714060066411861e+17
19413.0	4.711987016280746e+17
19414.0	4.709597617061886e+17
19415.0	4.705984635906729e+17
19416.0	4.7032639775484576e+17
19417.0	4.700504278608553e+17
19418.0	4.69728293359889e+17
19419.0	4.6941946263197005e+17
19420.0	4.690614071328766e+17
19421.0	4.68612472181009e+17
19422.0	4.681177219377835e+17
19423.0	4.6761309326977664e+17
19424.0	4.6694676530462726e+17
19425.0	4.661351687389183e+17
19426.0	4.651223928012797e+17
19427.0	4.639180822937597e+17
19428.0	4.62770029007121e+17
19429.0	4.6209255880349e+17
19430.0	4.612485775272623e+17
19431.0	4.5965426581394874e+17
19432.0	4.600249943326718e+17
19433.0	4.592265255889578e+17
19434.0	4.582773333426177e+17
19435.0	4.571500746462545e+17
19436.0	4.557360232835752e+17
19437.0	4.5508026475479034e+17
19438.0	4.429016504554886e+17
19439.0	4.5086885449564115e+17
19440.0	4.4895707381541523e+17
19441.0	4.4408955242632525e+17
19442.0	4.402400975301291e+17
19443.0	4.3698825112234656e+17
19444.0	4.333954579212969e+17
19445.0	4.29489602359023e+17
19446.0	4.2505922720126336e+17
19447.0	4.1718158923748525e+17
19448.0	4.049079963222018e+17
19449.0	3.8907575589492134e+17
19450.0	3.384478812252831e+17
19451.0	3.2080065500719597e+17
19452.0	3.680480383729676e+17
19453.0	3.990458941658464e+17
19454.0	4.105451106992116e+17
19455.0	4.21635510029516e+17
19456.0	4.267010324168707e+17
19457.0	4.306291186991102e+17
19458.0	4.143771414779365e+17
19459.0	4.351679783414518e+17
19460.0	4.404632785431206e+17
19461.0	4.453492751422808e+17
19462.0	4.4886657324810304e+17
19463.0	4.5091068442924384e+17
19464.0	4.523109097581224e+17
19465.0	4.534459877556223e+17
19466.0	4.543197265701545e+17
19467.0	4.552032381130068e+17
19468.0	4.5599433907240954e+17
19469.0	4.5664761981610656e+17
19470.0	4.572812176698025e+17
19471.0	4.578267468835499e+17
19472.0	4.583180788389204e+17
19473.0	4.5876542568748365e+17
19474.0	4.594104635053392e+17
19475.0	4.605580985499647e+17
19476.0	4.614933994012671e+17
19477.0	4.6218052559175674e+17
19478.0	4.6270251280629766e+17
19479.0	4.6311026381728416e+17
19480.0	4.635286924776789e+17
19481.0	4.63695366848512e+17
19482.0	4.6404798750829216e+17
19483.0	4.641362661430613e+17
19484.0	4.6434510759963296e+17
19485.0	4.644866880088746e+17
19486.0	4.645367979879082e+17
19487.0	4.64619797671663e+17
19488.0	4.648068950174378e+17
19489.0	4.648233546547198e+17
19490.0	4.6475270230289056e+17
19491.0	4.6489084485085856e+17
19492.0	4.649130067143338e+17
19493.0	4.649764789070507e+17
19494.0	4.650637666374997e+17
19495.0	4.6506741847818234e+17
19496.0	4.650317241122814e+17
19497.0	4.65064168591633e+17
19498.0	4.6362220196877555e+17
19499.0	4.554424246599685e+17
19500.0	4.6503982268416e+17
19501.0	4.650248121090047e+17
19502.0	4.6500360843427834e+17
19503.0	4.649890050561364e+17
19504.0	4.649652880845482e+17
19505.0	4.6494261968895994e+17
19506.0	4.649642578236757e+17
19507.0	4.649742701865642e+17
19508.0	4.6494448762224634e+17
19509.0	4.6491059408076794e+17
19510.0	4.648535920214015e+17
19511.0	4.4886653906452294e+17
19512.0	4.62833615564527e+17
19513.0	4.619549889178249e+17
19514.0	4.624597703983076e+17
19515.0	4.645574192835242e+17
19516.0	4.6462293459162445e+17
19517.0	4.645737126865577e+17
19518.0	4.645289626086058e+17
19519.0	4.644743001320106e+17
19520.0	4.644215064275626e+17
19521.0	4.6437848440285856e+17
19522.0	4.6432200474405536e+17
19523.0	4.642686945110698e+17
19524.0	4.642105123143679e+17
19525.0	4.6415788987733325e+17
19526.0	4.641019359046314e+17
19527.0	4.640433084825598e+17
19528.0	4.6398313399145805e+17
19529.0	4.639229002208597e+17
19530.0	4.638638135924053e+17
19531.0	4.638021596304725e+17
19532.0	4.637397436334079e+17
19533.0	4.6367660397909325e+17
19534.0	4.636124220402345e+17
19535.0	4.635474171789311e+17
19536.0	4.634796879773696e+17
19537.0	4.63417246744576e+17
19538.0	4.633309155950591e+17
19539.0	4.6324026368327686e+17
19540.0	4.6321406081761274e+17
19541.0	4.631464018706431e+17
19542.0	4.630783823533396e+17
19543.0	4.630035198290602e+17
19544.0	4.629399903840938e+17
19545.0	4.6282472147298976e+17
19546.0	4.627276868790953e+17
19547.0	4.6272996732218016e+17
19548.0	4.6265801431668045e+17
19549.0	4.625801695723519e+17
19550.0	4.6251532724032845e+17
19551.0	4.6244322743418874e+17
19552.0	4.623704991115946e+17
19553.0	4.622952021972309e+17
19554.0	4.6222116783827616e+17
19555.0	4.621485519929343e+17
19556.0	4.6207587386217805e+17
19557.0	4.620023156965375e+17
19558.0	4.6192800758934176e+17
19559.0	4.618531227653461e+17
19560.0	4.6177386321237325e+17
19561.0	4.617010331080021e+17
19562.0	4.616253951268181e+17
19563.0	4.615523011308202e+17
19564.0	4.61476472029184e+17
19565.0	4.614004097242453e+17
19566.0	4.613216628550314e+17
19567.0	4.6124746324049914e+17
19568.0	4.611691766961492e+17
19569.0	4.610927708078079e+17
19570.0	4.610171872127657e+17
19571.0	4.6093931178011296e+17
19572.0	4.608605128316245e+17
19573.0	4.6078208717619194e+17
19574.0	4.607005823423828e+17
19575.0	4.6062963548050765e+17
19576.0	4.6055106421282125e+17
19577.0	4.604691582637396e+17
19578.0	4.603916886299989e+17
19579.0	4.603151075595605e+17
19580.0	4.602365064424106e+17
19581.0	4.6015909105500154e+17
19582.0	4.600817933178197e+17
19583.0	4.6000303750075725e+17
19584.0	4.5992059789639674e+17
19585.0	4.598366294682283e+17
19586.0	4.597521585624405e+17
19587.0	4.596573131855189e+17
19588.0	4.5956685630887245e+17
19589.0	4.5952500847957325e+17
19590.0	4.5943725259489274e+17
19591.0	4.593679357094569e+17
19592.0	4.5928975989473274e+17
19593.0	4.592079801242964e+17
19594.0	4.591091463137962e+17
19595.0	4.5904540680410445e+17
19596.0	4.5863039699080544e+17
19597.0	4.5886422839022944e+17
19598.0	4.5877346651777696e+17
19599.0	4.587307198491306e+17
19600.0	4.5865142086970016e+17
19601.0	4.5856568663954765e+17
19602.0	4.5848528078329165e+17
19603.0	4.5830329769219405e+17
19604.0	4.583121473241088e+17
19605.0	4.5822659764333216e+17
19606.0	4.5816917874005325e+17
19607.0	4.5808949919743994e+17
19608.0	4.5800737507464525e+17
19609.0	4.5792359273376416e+17
19610.0	4.578442829190485e+17
19611.0	4.577621787191978e+17
19612.0	4.5768675269017594e+17
19613.0	4.5760756751619405e+17
19614.0	4.5752515685253114e+17
19615.0	4.574431387757225e+17
19616.0	4.5730618650132474e+17
19617.0	4.5728065234752845e+17
19618.0	4.5715354599205523e+17
19619.0	4.570626825475412e+17
19620.0	4.569837466550272e+17
19621.0	4.569561446394538e+17
19622.0	4.56881834365201e+17
19623.0	4.568005212809898e+17
19624.0	4.567180906244779e+17
19625.0	4.5663847770139296e+17
19626.0	4.5655787674009594e+17
19627.0	4.564746962818389e+17
19628.0	4.5627647347479904e+17
19629.0	4.562900956654249e+17
19630.0	4.556995635970045e+17
19631.0	4.512325246997859e+17
19632.0	4.560687038726143e+17
19633.0	4.559778123262634e+17
19634.0	4.559091539465557e+17
19635.0	4.5582356497913165e+17
19636.0	4.557391067960661e+17
19637.0	4.5563226885543245e+17
19638.0	4.555825672617983e+17
19639.0	4.555007295400619e+17
19640.0	4.55406467870447e+17
19641.0	4.5525741705625606e+17
19642.0	4.5525898495699616e+17
19643.0	4.551760773382142e+17
19644.0	4.550922050295125e+17
19645.0	4.549932988672681e+17
19646.0	4.5492791819632634e+17
19647.0	4.5485366321698125e+17
19648.0	4.547732170255018e+17
19649.0	4.5469177231005005e+17
19650.0	4.546107830960128e+17
19651.0	4.5452911755045536e+17
19652.0	4.5444808548461216e+17
19653.0	4.543643383059796e+17
19654.0	4.5428519416627194e+17
19655.0	4.542036543100244e+17
