# Flux units: erg / (cm m2 s)
# Wavelength units: Angstrom
wave	flux
19000.0	6.831663073984511e+17
19001.0	6.830334712741887e+17
19002.0	6.829159976271871e+17
19003.0	6.827906690973693e+17
19004.0	6.826654154358783e+17
19005.0	6.825396699922431e+17
19006.0	6.824148462469119e+17
19007.0	6.822890717926739e+17
19008.0	6.821606586318847e+17
19009.0	6.820261836532394e+17
19010.0	6.818897089003519e+17
19011.0	6.817845871990099e+17
19012.0	6.816534744443561e+17
19013.0	6.815368119757481e+17
19014.0	6.814074538382676e+17
19015.0	6.812835506028543e+17
19016.0	6.811594865158825e+17
19017.0	6.810362894614527e+17
19018.0	6.8091019015837e+17
19019.0	6.807853230019923e+17
19020.0	6.806590206945962e+17
19021.0	6.805352121106431e+17
19022.0	6.804094681350143e+17
19023.0	6.802813339653459e+17
19024.0	6.801578154175145e+17
19025.0	6.800333099499519e+17
19026.0	6.799067482947583e+17
19027.0	6.797798903119871e+17
19028.0	6.796572317362858e+17
19029.0	6.795314618957823e+17
19030.0	6.7940802115229e+17
19031.0	6.792825635078143e+17
19032.0	6.791566236581887e+17
19033.0	6.7902373363712e+17
19034.0	6.789015569869481e+17
19035.0	6.787535460805289e+17
19036.0	6.783789091695273e+17
19037.0	6.785103932598953e+17
19038.0	6.784001810016938e+17
19039.0	6.782793498143402e+17
19040.0	6.781549615775743e+17
19041.0	6.780294601725268e+17
19042.0	6.77895176733764e+17
19043.0	6.777799315204778e+17
19044.0	6.776538357126484e+17
19045.0	6.775291412217855e+17
19046.0	6.774012436108628e+17
19047.0	6.772745078920532e+17
19048.0	6.771429839557972e+17
19049.0	6.770162520118611e+17
19050.0	6.768957229542057e+17
19051.0	6.767358626496511e+17
19052.0	6.766320715213481e+17
19053.0	6.765257568201385e+17
19054.0	6.764025449458346e+17
19055.0	6.762575392582314e+17
19056.0	6.761505213120511e+17
19057.0	6.760274997892436e+17
19058.0	6.758993102547625e+17
19059.0	6.757766494420991e+17
19060.0	6.756521452328275e+17
19061.0	6.755278756249599e+17
19062.0	6.754025835855871e+17
19063.0	6.752771468427264e+17
19064.0	6.751461801896617e+17
19065.0	6.750146971478697e+17
19066.0	6.748967348644522e+17
19067.0	6.747773676989098e+17
19068.0	6.746530344075263e+17
19069.0	6.745281147524436e+17
19070.0	6.744017151371945e+17
19071.0	6.742782766306644e+17
19072.0	6.741523657916415e+17
19073.0	6.740283569995775e+17
19074.0	6.739036281154217e+17
19075.0	6.737786819663187e+17
19076.0	6.736530057986047e+17
19077.0	6.735275812891305e+17
19078.0	6.734021263709523e+17
19079.0	6.73279147769856e+17
19080.0	6.731533393417556e+17
19081.0	6.730258110393002e+17
19082.0	6.72902978539793e+17
19083.0	6.727713165410301e+17
19084.0	6.726368705729875e+17
19085.0	6.725298234064896e+17
19086.0	6.723739568482986e+17
19087.0	6.722748182517076e+17
19088.0	6.721470451417087e+17
19089.0	6.720148193585833e+17
19090.0	6.719031060288852e+17
19091.0	6.717796687806463e+17
19092.0	6.716505755134633e+17
19093.0	6.715325713569108e+17
19094.0	6.714082621827754e+17
19095.0	6.712837306406227e+17
19096.0	6.711585494007807e+17
19097.0	6.710343290759849e+17
19098.0	6.709089107181567e+17
19099.0	6.707841359762772e+17
19100.0	6.706598223981226e+17
19101.0	6.705352336736255e+17
19102.0	6.704059741721939e+17
19103.0	6.70286893617425e+17
19104.0	6.701627738161151e+17
19105.0	6.700353510004052e+17
19106.0	6.699128713117695e+17
19107.0	6.697870168861353e+17
19108.0	6.69660840128239e+17
19109.0	6.695286021117268e+17
19110.0	6.694103189640531e+17
19111.0	6.692895546758484e+17
19112.0	6.691659757999444e+17
19113.0	6.690428245333332e+17
19114.0	6.689182383953236e+17
19115.0	6.687907794386943e+17
19116.0	6.686673129701375e+17
19117.0	6.685423151611903e+17
19118.0	6.684038947405823e+17
19119.0	6.679893093908475e+17
19120.0	6.681626757038079e+17
19121.0	6.680448779769172e+17
19122.0	6.679235304707411e+17
19123.0	6.677995697034579e+17
19124.0	6.676727009553065e+17
19125.0	6.675490872666793e+17
19126.0	6.674152503814825e+17
19127.0	6.672118558578004e+17
19128.0	6.671642810559146e+17
19129.0	6.670458680246271e+17
19130.0	6.669290431665491e+17
19131.0	6.668065651556351e+17
19132.0	6.666824790485673e+17
19133.0	6.665551415869439e+17
19134.0	6.664339605247316e+17
19135.0	6.663103801109161e+17
19136.0	6.661858424870228e+17
19137.0	6.660555168634196e+17
19138.0	6.659366966351188e+17
19139.0	6.658146767121065e+17
19140.0	6.656910891679743e+17
19141.0	6.65567177613858e+17
19142.0	6.654411968697684e+17
19143.0	6.653167270537897e+17
19144.0	6.65191789572915e+17
19145.0	6.650711725047808e+17
19146.0	6.648999181636948e+17
19147.0	6.648193811655338e+17
19148.0	6.646984423243775e+17
19149.0	6.645740905081513e+17
19150.0	6.644517435692371e+17
19151.0	6.64327940088354e+17
19152.0	6.642038506258431e+17
19153.0	6.64075689333009e+17
19154.0	6.639503451444563e+17
19155.0	6.638308014686207e+17
19156.0	6.637072922880682e+17
19157.0	6.635811406260906e+17
19158.0	6.634532444132691e+17
19159.0	6.633335140909055e+17
19160.0	6.632103728906239e+17
19161.0	6.630846440843946e+17
19162.0	6.629466416960852e+17
19163.0	6.628331815785812e+17
19164.0	6.62716139245841e+17
19165.0	6.625912040718335e+17
19166.0	6.624636742314665e+17
19167.0	6.62344799617024e+17
19168.0	6.622228289770836e+17
19169.0	6.620996765919914e+17
19170.0	6.619763904785066e+17
19171.0	6.61852490109201e+17
19172.0	6.617292707550547e+17
19173.0	6.616056492370601e+17
19174.0	6.614796191399935e+17
19175.0	6.613583525139795e+17
19176.0	6.612351886644564e+17
19177.0	6.610999611577684e+17
19178.0	6.609871412308649e+17
19179.0	6.608632030429183e+17
19180.0	6.607395592951123e+17
19181.0	6.606105469779967e+17
19182.0	6.604914769788927e+17
19183.0	6.603700791410687e+17
19184.0	6.602464091788627e+17
19185.0	6.601222656098304e+17
19186.0	6.599993161591465e+17
19187.0	6.598703441073491e+17
19188.0	6.597518615205204e+17
19189.0	6.59628410151458e+17
19190.0	6.595045036305065e+17
19191.0	6.593781995754836e+17
19192.0	6.59256599851827e+17
19193.0	6.591318969723561e+17
19194.0	6.590057489454419e+17
19195.0	6.588812702515199e+17
19196.0	6.587515019111081e+17
19197.0	6.586177988941139e+17
19198.0	6.584663378231295e+17
19199.0	6.582363893006336e+17
19200.0	6.581277423566847e+17
19201.0	6.580995002204159e+17
19202.0	6.580016789149012e+17
19203.0	6.57886513603106e+17
19204.0	6.577668457059667e+17
19205.0	6.576453321752576e+17
19206.0	6.575236374506153e+17
19207.0	6.573906871014739e+17
19208.0	6.572675026299562e+17
19209.0	6.571542295784105e+17
19210.0	6.570316959230634e+17
19211.0	6.569090362987859e+17
19212.0	6.567852808426835e+17
19213.0	6.566541985666388e+17
19214.0	6.565322313520468e+17
19215.0	6.564134757859327e+17
19216.0	6.562899689122474e+17
19217.0	6.561617459631444e+17
19218.0	6.560066664660991e+17
19219.0	6.559005823117993e+17
19220.0	6.55792363676194e+17
19221.0	6.556596869354835e+17
19222.0	6.555448183706964e+17
19223.0	6.554240198290089e+17
19224.0	6.552978740390569e+17
19225.0	6.551728057658025e+17
19226.0	6.550533329737044e+17
19227.0	6.549302001620307e+17
19228.0	6.548088908240212e+17
19229.0	6.546851243928233e+17
19230.0	6.545613430019412e+17
19231.0	6.544365558169597e+17
19232.0	6.543133008811348e+17
19233.0	6.54185020260352e+17
19234.0	6.540653268478634e+17
19235.0	6.539399431629482e+17
19236.0	6.538183772034388e+17
19237.0	6.536937852633087e+17
19238.0	6.535643340122793e+17
19239.0	6.534468097540095e+17
19240.0	6.533228241704275e+17
19241.0	6.531972470581929e+17
19242.0	6.530736540614656e+17
19243.0	6.529380424963412e+17
19244.0	6.528268967258793e+17
19245.0	6.527021845490346e+17
19246.0	6.525778137885353e+17
19247.0	6.52454122155759e+17
19248.0	6.523300865201491e+17
19249.0	6.522047084975444e+17
19250.0	6.520771632081578e+17
19251.0	6.519474899386365e+17
19252.0	6.518064832402772e+17
19253.0	6.517042535115433e+17
19254.0	6.515814339444735e+17
19255.0	6.514413009196371e+17
19256.0	6.513309392743081e+17
19257.0	6.51207669448704e+17
19258.0	6.510828714284372e+17
19259.0	6.509516833161215e+17
19260.0	6.508261912783529e+17
19261.0	6.50706706113058e+17
19262.0	6.505776995281577e+17
19263.0	6.504485048986281e+17
19264.0	6.50302647767313e+17
19265.0	6.501932466875049e+17
19266.0	6.500688830573225e+17
19267.0	6.499569700088489e+17
19268.0	6.498319708717055e+17
19269.0	6.497062371022163e+17
19270.0	6.495774446365353e+17
19271.0	6.49438186962944e+17
19272.0	6.493258596570452e+17
19273.0	6.49182013624593e+17
19274.0	6.4904417523357e+17
19275.0	6.489516762901162e+17
19276.0	6.488237883260927e+17
19277.0	6.486981801760083e+17
19278.0	6.485722326368255e+17
19279.0	6.484438219926186e+17
19280.0	6.483160026054655e+17
19281.0	6.481916162561363e+17
19282.0	6.480664153729708e+17
19283.0	6.479385259409405e+17
19284.0	6.478088125459114e+17
19285.0	6.476788542035284e+17
19286.0	6.475530432588457e+17
19287.0	6.474248344305664e+17
19288.0	6.471937363891539e+17
19289.0	6.469992309937491e+17
19290.0	6.470414666563583e+17
19291.0	6.46900064784657e+17
19292.0	6.467898402231635e+17
19293.0	6.466618600543572e+17
19294.0	6.465332169758035e+17
19295.0	6.464059698315263e+17
19296.0	6.46275678671121e+17
19297.0	6.461477918954835e+17
19298.0	6.460178680162986e+17
19299.0	6.458894526884521e+17
19300.0	6.457613057960617e+17
19301.0	6.456318790118058e+17
19302.0	6.45500970939187e+17
19303.0	6.453671310480723e+17
19304.0	6.45240728846336e+17
19305.0	6.451099814854655e+17
19306.0	6.44979750023987e+17
19307.0	6.448459520060074e+17
19308.0	6.447151172638036e+17
19309.0	6.445808362717183e+17
19310.0	6.444460846787242e+17
19311.0	6.443177987451562e+17
19312.0	6.441880718584489e+17
19313.0	6.440529965350911e+17
19314.0	6.435650743391572e+17
19315.0	6.43455262567083e+17
19316.0	6.436446235088212e+17
19317.0	6.435163119200937e+17
19318.0	6.433831997407231e+17
19319.0	6.432506980422995e+17
19320.0	6.431153897952596e+17
19321.0	6.429789971109204e+17
19322.0	6.428416430921044e+17
19323.0	6.427071649677311e+17
19324.0	6.425717808736938e+17
19325.0	6.42433559962146e+17
19326.0	6.422980138980692e+17
19327.0	6.421608215696723e+17
19328.0	6.420213419474943e+17
19329.0	6.418856827770195e+17
19330.0	6.41741447303441e+17
19331.0	6.415940019290111e+17
19332.0	6.414581143786836e+17
19333.0	6.413173813586602e+17
19334.0	6.411771243222356e+17
19335.0	6.410310418169855e+17
19336.0	6.408935119170218e+17
19337.0	6.407506440661674e+17
19338.0	6.405894934538921e+17
19339.0	6.404597766335146e+17
19340.0	6.403079628215635e+17
19341.0	6.401561821446143e+17
19342.0	6.39990896857361e+17
19343.0	6.39857734066722e+17
19344.0	6.39703548305954e+17
19345.0	6.394613119407443e+17
19346.0	6.393399588421631e+17
19347.0	6.39253976518929e+17
19348.0	6.391125920535892e+17
19349.0	6.389589430239231e+17
19350.0	6.387989475229695e+17
19351.0	6.386318842003455e+17
19352.0	6.38471827881984e+17
19353.0	6.383223236635305e+17
19354.0	6.381645409375571e+17
19355.0	6.379978527954262e+17
19356.0	6.378447192457215e+17
19357.0	6.376831180253865e+17
19358.0	6.375033741333844e+17
19359.0	6.373292722793129e+17
19360.0	6.371565732102143e+17
19361.0	6.369915856486399e+17
19362.0	6.368253273527638e+17
19363.0	6.366564350339754e+17
19364.0	6.364810327359487e+17
19365.0	6.362989050811731e+17
19366.0	6.361254648785578e+17
19367.0	6.359503917634902e+17
19368.0	6.35773565079825e+17
19369.0	6.355925329772543e+17
19370.0	6.354124299130196e+17
19371.0	6.352260221807273e+17
19372.0	6.350433192771583e+17
19373.0	6.348417232710314e+17
19374.0	6.346495051694079e+17
19375.0	6.344546836632916e+17
19376.0	6.342565446724266e+17
19377.0	6.340555316046506e+17
19378.0	6.338525270813353e+17
19379.0	6.336463681617919e+17
19380.0	6.334367025943892e+17
19381.0	6.332196466633386e+17
19382.0	6.329849331318783e+17
19383.0	6.327522293011795e+17
19384.0	6.325307710286505e+17
19385.0	6.323021097380521e+17
19386.0	6.320685808877567e+17
19387.0	6.318304718574931e+17
19388.0	6.315872892573011e+17
19389.0	6.313359433531391e+17
19390.0	6.310509123644074e+17
19391.0	6.305753741306536e+17
19392.0	6.305054162856617e+17
19393.0	6.302782014007978e+17
19394.0	6.300120888901631e+17
19395.0	6.297342146423466e+17
19396.0	6.294187166487891e+17
19397.0	6.29108771983633e+17
19398.0	6.287987637747711e+17
19399.0	6.284578594837844e+17
19400.0	6.281588906830505e+17
19401.0	6.278330712763049e+17
19402.0	6.274614165154473e+17
19403.0	6.271111768222378e+17
19404.0	6.267502135519914e+17
19405.0	6.263719554886314e+17
19406.0	6.259790841905151e+17
19407.0	6.255265519239167e+17
19408.0	6.250647737335807e+17
19409.0	6.246698178663763e+17
19410.0	6.242416865225386e+17
19411.0	6.237931945590783e+17
19412.0	6.233218047716009e+17
19413.0	6.227900081285801e+17
19414.0	6.222562011556521e+17
19415.0	6.217267649271124e+17
19416.0	6.211674464496297e+17
19417.0	6.20597688349491e+17
19418.0	6.199950520090623e+17
19419.0	6.193625584457044e+17
19420.0	6.186347860241065e+17
19421.0	6.179236300368553e+17
19422.0	6.171885756044627e+17
19423.0	6.163913404055551e+17
19424.0	6.155628800114687e+17
19425.0	6.146883588194303e+17
19426.0	6.137669908168704e+17
19427.0	6.127729232926036e+17
19428.0	6.117547874538836e+17
19429.0	6.106719416833363e+17
19430.0	6.094512410241706e+17
19431.0	6.081660093901481e+17
19432.0	6.068599050119848e+17
19433.0	6.054154385140394e+17
19434.0	6.038344971933012e+17
19435.0	6.020974990327807e+17
19436.0	6.002389637136384e+17
19437.0	5.982531046342655e+17
19438.0	5.956989974740991e+17
19439.0	5.935555891516756e+17
19440.0	5.909126522950998e+17
19441.0	5.879022990218579e+17
19442.0	5.845420441163094e+17
19443.0	5.806935009918975e+17
19444.0	5.762826747161256e+17
19445.0	5.7114192909434886e+17
19446.0	5.650327260190037e+17
19447.0	5.575721712528039e+17
19448.0	5.480563026690053e+17
19449.0	5.3502542977433594e+17
19450.0	5.140042567647218e+17
19451.0	4.9890683945397e+17
19452.0	5.261912364635477e+17
19453.0	5.4194336841072685e+17
19454.0	5.5268290903845504e+17
19455.0	5.6081692383423136e+17
19456.0	5.673137801439916e+17
19457.0	5.7264846353203174e+17
19458.0	5.7634569364439136e+17
19459.0	5.810178616197121e+17
19460.0	5.844384905953277e+17
19461.0	5.873948546476713e+17
19462.0	5.900318346138966e+17
19463.0	5.923763153534973e+17
19464.0	5.944711253939539e+17
19465.0	5.96319550902545e+17
19466.0	5.980061007435091e+17
19467.0	5.995704863774036e+17
19468.0	6.009922858079572e+17
19469.0	6.022597202411519e+17
19470.0	6.034319253088937e+17
19471.0	6.044971810772308e+17
19472.0	6.055138763123369e+17
19473.0	6.064167942706516e+17
19474.0	6.07229523787776e+17
19475.0	6.079663025684477e+17
19476.0	6.087251217175892e+17
19477.0	6.094007170673321e+17
19478.0	6.100203322998783e+17
19479.0	6.106035046230697e+17
19480.0	6.11134180827682e+17
19481.0	6.116154194001919e+17
19482.0	6.121203520853331e+17
19483.0	6.125596776770217e+17
19484.0	6.129452987711487e+17
19485.0	6.133014360752127e+17
19486.0	6.136323748397055e+17
19487.0	6.139418012286976e+17
19488.0	6.142381185302528e+17
19489.0	6.145103747874813e+17
19490.0	6.147449152339967e+17
19491.0	6.150272788550996e+17
19492.0	6.152439573686954e+17
19493.0	6.154417678057471e+17
19494.0	6.156258402194772e+17
19495.0	6.158400275262122e+17
19496.0	6.160045723789994e+17
19497.0	6.161654772749652e+17
19498.0	6.162148065542143e+17
19499.0	6.160741950991018e+17
19500.0	6.165424927058602e+17
19501.0	6.166888330209962e+17
19502.0	6.167820065483434e+17
19503.0	6.168659681957204e+17
19504.0	6.169398643523583e+17
19505.0	6.170123267560788e+17
19506.0	6.170971351635284e+17
19507.0	6.171589006939476e+17
19508.0	6.171989828610729e+17
19509.0	6.17229127393826e+17
19510.0	6.172360761671679e+17
19511.0	6.166815788324178e+17
19512.0	6.17205859562291e+17
19513.0	6.172136117545641e+17
19514.0	6.172551830394195e+17
19515.0	6.173428872642559e+17
19516.0	6.173687684967082e+17
19517.0	6.173690459499178e+17
19518.0	6.173678933551785e+17
19519.0	6.173595393501866e+17
19520.0	6.17360999387409e+17
19521.0	6.173524174918995e+17
19522.0	6.173317939593215e+17
19523.0	6.173095245818538e+17
19524.0	6.172806605701119e+17
19525.0	6.172509176419668e+17
19526.0	6.17217717768465e+17
19527.0	6.17181126590464e+17
19528.0	6.171419880019284e+17
19529.0	6.171037560821076e+17
19530.0	6.170692140313257e+17
19531.0	6.170227544948735e+17
19532.0	6.169729484630697e+17
19533.0	6.169201770583379e+17
19534.0	6.168654718697471e+17
19535.0	6.168082596757503e+17
19536.0	6.167482749769044e+17
19537.0	6.166906296511146e+17
19538.0	6.166274867811668e+17
19539.0	6.165562492540244e+17
19540.0	6.165151285073236e+17
19541.0	6.164536610521087e+17
19542.0	6.16387226772002e+17
19543.0	6.163230834207402e+17
19544.0	6.162630053986303e+17
19545.0	6.161731014710612e+17
19546.0	6.160920863222441e+17
19547.0	6.160638040604671e+17
19548.0	6.159936578912255e+17
19549.0	6.159123632619519e+17
19550.0	6.158448857186303e+17
19551.0	6.157686171937449e+17
19552.0	6.156999315510612e+17
19553.0	6.156277271669418e+17
19554.0	6.155474540604073e+17
19555.0	6.154674022034089e+17
19556.0	6.15386898829585e+17
19557.0	6.153040827864403e+17
19558.0	6.152206447280127e+17
19559.0	6.151365058013865e+17
19560.0	6.150485741054633e+17
19561.0	6.149665813342889e+17
19562.0	6.148910057783295e+17
19563.0	6.148043816566783e+17
19564.0	6.147162765262847e+17
19565.0	6.146274947847508e+17
19566.0	6.145366684598272e+17
19567.0	6.144508337760937e+17
19568.0	6.143584872256852e+17
19569.0	6.142681872160084e+17
19570.0	6.141782428833108e+17
19571.0	6.140861275089577e+17
19572.0	6.139911913253545e+17
19573.0	6.139056461884073e+17
19574.0	6.138085583268521e+17
19575.0	6.137223601367721e+17
19576.0	6.136280621165225e+17
19577.0	6.135317176254463e+17
19578.0	6.134363341892266e+17
19579.0	6.133404837172563e+17
19580.0	6.132450259719508e+17
19581.0	6.131504997815636e+17
19582.0	6.130548381930835e+17
19583.0	6.129580774872403e+17
19584.0	6.12860816331025e+17
19585.0	6.127544235458559e+17
19586.0	6.126544822992895e+17
19587.0	6.125640296169471e+17
19588.0	6.124455176699903e+17
19589.0	6.123688015429631e+17
19590.0	6.122747814652586e+17
19591.0	6.121892521268564e+17
19592.0	6.120905591750655e+17
19593.0	6.119892867263146e+17
19594.0	6.118720130078035e+17
19595.0	6.117886661055827e+17
19596.0	6.116854123375273e+17
19597.0	6.115874482159615e+17
19598.0	6.114636426379263e+17
19599.0	6.113852640286036e+17
19600.0	6.112851077540521e+17
19601.0	6.111788437340159e+17
19602.0	6.110735455922857e+17
19603.0	6.109588050236756e+17
19604.0	6.108705789575168e+17
19605.0	6.1075531773597e+17
19606.0	6.106718373849769e+17
19607.0	6.105703962553002e+17
19608.0	6.104664669945855e+17
19609.0	6.103615216637268e+17
19610.0	6.102604450190676e+17
19611.0	6.101566861170004e+17
19612.0	6.100549199287635e+17
19613.0	6.09950468477201e+17
19614.0	6.098445044897108e+17
19615.0	6.097463672831999e+17
19616.0	6.09639199810082e+17
19617.0	6.095335628384937e+17
19618.0	6.093946734247933e+17
19619.0	6.092799088787455e+17
19620.0	6.091886058711721e+17
19621.0	6.09115462312482e+17
19622.0	6.090157334375081e+17
19623.0	6.089116438844756e+17
19624.0	6.088061364469759e+17
19625.0	6.087017298744659e+17
19626.0	6.085960108343295e+17
19627.0	6.084888648919721e+17
19628.0	6.08378634178833e+17
19629.0	6.082558929054377e+17
19630.0	6.081068317452969e+17
19631.0	6.079254755628372e+17
19632.0	6.079399663938217e+17
19633.0	6.078496193380351e+17
19634.0	6.077515815365289e+17
19635.0	6.076445163345235e+17
19636.0	6.075403680612351e+17
19637.0	6.074070858028372e+17
19638.0	6.073312199311359e+17
19639.0	6.072248008616618e+17
19640.0	6.071065381262676e+17
19641.0	6.069616155557888e+17
19642.0	6.069063726574249e+17
19643.0	6.0680057140893e+17
19644.0	6.066887790865065e+17
19645.0	6.065760686309375e+17
19646.0	6.064804131941033e+17
19647.0	6.063772578523818e+17
19648.0	6.06271145316625e+17
19649.0	6.061655126791507e+17
19650.0	6.060593091969024e+17
19651.0	6.059523186535082e+17
19652.0	6.058461539685716e+17
19653.0	6.057396794643796e+17
19654.0	6.056324426454356e+17
19655.0	6.055256545471146e+17
19656.0	6.054194979711657e+17
19657.0	6.053131184679593e+17
19658.0	6.052063856645459e+17
19659.0	6.050995626835967e+17
19660.0	6.04992812683537e+17
19661.0	6.048859217548628e+17
19662.0	6.047787496680106e+17
19663.0	6.046699220893695e+17
19664.0	6.04563957752354e+17
19665.0	6.044581736306004e+17
