# Flux units: erg / (cm m2 s)
# Wavelength units: Angstrom
wave	flux
19000.0	5.4537185170991776e+17
19001.0	5.452648943015252e+17
19002.0	5.451687909130239e+17
19003.0	5.4506701200206496e+17
19004.0	5.449652901336405e+17
19005.0	5.448637133881343e+17
19006.0	5.4476240780438176e+17
19007.0	5.446566564681045e+17
19008.0	5.44555916206626e+17
19009.0	5.4445687988114765e+17
19010.0	5.443265582421332e+17
19011.0	5.4425335575347194e+17
19012.0	5.4413822700202656e+17
19013.0	5.440517835849726e+17
19014.0	5.439474611082581e+17
19015.0	5.4384698417916576e+17
19016.0	5.437447940166996e+17
19017.0	5.436455921560234e+17
19018.0	5.435436986007551e+17
19019.0	5.4344322167166285e+17
19020.0	5.4334066506683725e+17
19021.0	5.432404799214932e+17
19022.0	5.431395525940564e+17
19023.0	5.430363860675242e+17
19024.0	5.429359334653951e+17
19025.0	5.4283531358044154e+17
19026.0	5.427322748403711e+17
19027.0	5.426237348511743e+17
19028.0	5.4253232523837434e+17
19029.0	5.424299894636543e+17
19030.0	5.423303671939071e+17
19031.0	5.42229503410176e+17
19032.0	5.4212814008483834e+17
19033.0	5.420221764468735e+17
19034.0	5.419251703742462e+17
19035.0	5.41823097442577e+17
19036.0	5.409727594190157e+17
19037.0	5.4162232128307194e+17
19038.0	5.41520613745186e+17
19039.0	5.414206522960553e+17
19040.0	5.413195412581034e+17
19041.0	5.409872246647467e+17
19042.0	5.408798966196905e+17
19043.0	5.407844052500479e+17
19044.0	5.4068289351625376e+17
19045.0	5.405823001253204e+17
19046.0	5.4047841700194976e+17
19047.0	5.4038098325012474e+17
19048.0	5.40267565425186e+17
19049.0	5.4017531758073165e+17
19050.0	5.4007612180179616e+17
19051.0	5.398795441405948e+17
19052.0	5.398717041475583e+17
19053.0	5.397756046737407e+17
19054.0	5.396760618860543e+17
19055.0	5.395614711240022e+17
19056.0	5.394730849053354e+17
19057.0	5.393736708128768e+17
19058.0	5.392714921148415e+17
19059.0	5.391725886089898e+17
19060.0	5.3907100913718605e+17
19061.0	5.389718785097726e+17
19062.0	5.3887107428515834e+17
19063.0	5.3877073751572474e+17
19064.0	5.386631178267305e+17
19065.0	5.3856040966772045e+17
19066.0	5.3846603978506234e+17
19067.0	5.383682160328703e+17
19068.0	5.382684808664405e+17
19069.0	5.381681633209002e+17
19070.0	5.380660841676799e+17
19071.0	5.3796669775762765e+17
19072.0	5.378668925463209e+17
19073.0	5.377664437889705e+17
19074.0	5.3766643529373005e+17
19075.0	5.375661445218302e+17
19076.0	5.3746458776917325e+17
19077.0	5.3736501618059936e+17
19078.0	5.372628497858558e+17
19079.0	5.371650567219883e+17
19080.0	5.370642819973119e+17
19081.0	5.3696223262365e+17
19082.0	5.368617366104745e+17
19083.0	5.367593419756883e+17
19084.0	5.3665220819681274e+17
19085.0	5.365634660215466e+17
19086.0	5.3644371535680845e+17
19087.0	5.3634336397721594e+17
19088.0	5.362601287133866e+17
19089.0	5.361437383152981e+17
19090.0	5.360623865036798e+17
19091.0	5.3596299513036794e+17
19092.0	5.3585631559461536e+17
19093.0	5.357641584170324e+17
19094.0	5.356640385630206e+17
19095.0	5.355640687951871e+17
19096.0	5.3546314020945914e+17
19097.0	5.353644834684928e+17
19098.0	5.352642967153321e+17
19099.0	5.35164346311202e+17
19100.0	5.3506348728101536e+17
19101.0	5.3496480845004794e+17
19102.0	5.3485926941545805e+17
19103.0	5.3476528142417914e+17
19104.0	5.346659244441598e+17
19105.0	5.3456570364723194e+17
19106.0	5.344626279972862e+17
19107.0	5.3436563611538765e+17
19108.0	5.3426697406163616e+17
19109.0	5.341085403796819e+17
19110.0	5.340676530459989e+17
19111.0	5.339678766355796e+17
19112.0	5.338685202148009e+17
19113.0	5.3376890032182605e+17
19114.0	5.336692630224894e+17
19115.0	5.3356584434838176e+17
19116.0	5.334692579857749e+17
19117.0	5.333700124344319e+17
19118.0	5.3326401062830074e+17
19119.0	5.328908512307877e+17
19120.0	5.330656076059989e+17
19121.0	5.3296929960536723e+17
19122.0	5.328737249787904e+17
19123.0	5.3277425153693005e+17
19124.0	5.3267131234167456e+17
19125.0	5.325754332086271e+17
19126.0	5.324756389025108e+17
19127.0	5.3227953729481363e+17
19128.0	5.3224874313427616e+17
19129.0	5.32173638668561e+17
19130.0	5.3207844586345805e+17
19131.0	5.3197887308649805e+17
19132.0	5.318804493391187e+17
19133.0	5.3176754293964794e+17
19134.0	5.3166781371514874e+17
19135.0	5.315826536153087e+17
19136.0	5.3148401099516576e+17
19137.0	5.31375767822882e+17
19138.0	5.312836542660607e+17
19139.0	5.311866633628329e+17
19140.0	5.310876263383039e+17
19141.0	5.3098857610171725e+17
19142.0	5.308881638348117e+17
19143.0	5.3078697247593805e+17
19144.0	5.306897877259604e+17
19145.0	5.3059224366394003e+17
19146.0	5.304601733496832e+17
19147.0	5.303893384058196e+17
19148.0	5.3029523360317434e+17
19149.0	5.301960903928489e+17
19150.0	5.30097391149602e+17
19151.0	5.2999875377233914e+17
19152.0	5.2989925320731296e+17
19153.0	5.297998895863124e+17
19154.0	5.2969551698766496e+17
19155.0	5.296035493227179e+17
19156.0	5.2950483197405856e+17
19157.0	5.294056285055657e+17
19158.0	5.2926765030440954e+17
19159.0	5.2920746910242125e+17
19160.0	5.2910853742482765e+17
19161.0	5.290087352194389e+17
19162.0	5.2882119824069965e+17
19163.0	5.288137254589781e+17
19164.0	5.287153807043242e+17
19165.0	5.286142347837438e+17
19166.0	5.2850944604023456e+17
19167.0	5.284109655299413e+17
19168.0	5.28318449529651e+17
19169.0	5.2821936825521485e+17
19170.0	5.2812384375057056e+17
19171.0	5.280194222882815e+17
19172.0	5.279264647675903e+17
19173.0	5.278281414038868e+17
19174.0	5.277265548716715e+17
19175.0	5.2763139520157005e+17
19176.0	5.2753278529699834e+17
19177.0	5.274264639548075e+17
19178.0	5.2733536548945914e+17
19179.0	5.272289785064106e+17
19180.0	5.27136295363106e+17
19181.0	5.270338226443604e+17
19182.0	5.269415234196821e+17
19183.0	5.268441805444436e+17
19184.0	5.267435361927168e+17
19185.0	5.266471484304041e+17
19186.0	5.2654950090888525e+17
19187.0	5.264474355968681e+17
19188.0	5.263525962317823e+17
19189.0	5.2625375298409805e+17
19190.0	5.261551977452885e+17
19191.0	5.2605577889928525e+17
19192.0	5.25960310039074e+17
19193.0	5.258608435178153e+17
19194.0	5.257627574119081e+17
19195.0	5.2566560915237536e+17
19196.0	5.255666985162069e+17
19197.0	5.2546903121155405e+17
19198.0	5.253710872925524e+17
19199.0	5.2473213324274323e+17
19200.0	5.248434467853654e+17
19201.0	5.250770179981311e+17
19202.0	5.249793304909141e+17
19203.0	5.248800189491881e+17
19204.0	5.247816534327296e+17
19205.0	5.246848410670421e+17
19206.0	5.245864117971625e+17
19207.0	5.244847736750079e+17
19208.0	5.243779346158932e+17
19209.0	5.242927615836159e+17
19210.0	5.2419495593683616e+17
19211.0	5.2409780271404365e+17
19212.0	5.239997554753535e+17
19213.0	5.2389294990076576e+17
19214.0	5.2379277936558074e+17
19215.0	5.2370453030065485e+17
19216.0	5.2360813904308896e+17
19217.0	5.235103157802325e+17
19218.0	5.233675669078015e+17
19219.0	5.2330694418541216e+17
19220.0	5.232155595287211e+17
19221.0	5.231007599602346e+17
19222.0	5.230216553867946e+17
19223.0	5.2292256404602874e+17
19224.0	5.228232145458517e+17
19225.0	5.227199198833321e+17
19226.0	5.2262908419112954e+17
19227.0	5.2253147211147936e+17
19228.0	5.2243522255148365e+17
19229.0	5.223374917730303e+17
19230.0	5.222382725059924e+17
19231.0	5.221405948553897e+17
19232.0	5.220436298170367e+17
19233.0	5.2194271507251194e+17
19234.0	5.2184755826851834e+17
19235.0	5.217494390276096e+17
19236.0	5.2165365335763616e+17
19237.0	5.2155494258005325e+17
19238.0	5.2145266895093766e+17
19239.0	5.213608638152703e+17
19240.0	5.212582291963904e+17
19241.0	5.211633220932949e+17
19242.0	5.210679606771711e+17
19243.0	5.20962206404881e+17
19244.0	5.208736397612372e+17
19245.0	5.207757584072704e+17
19246.0	5.206775259900585e+17
19247.0	5.2058042652426234e+17
19248.0	5.2048318675899725e+17
19249.0	5.2038536587291296e+17
19250.0	5.202869891716435e+17
19251.0	5.201862294765566e+17
19252.0	5.2007560352017056e+17
19253.0	5.199939774010709e+17
19254.0	5.1989706430218234e+17
19255.0	5.1978907635329696e+17
19256.0	5.1970121085747194e+17
19257.0	5.1960484008209056e+17
19258.0	5.195073806751059e+17
19259.0	5.19405679218961e+17
19260.0	5.1929833118105594e+17
19261.0	5.1921396142789965e+17
19262.0	5.191138415738879e+17
19263.0	5.190165363774804e+17
19264.0	5.188922888596138e+17
19265.0	5.188126868417193e+17
19266.0	5.187142373692757e+17
19267.0	5.186290064556032e+17
19268.0	5.1853096739580576e+17
19269.0	5.184335125326506e+17
19270.0	5.183360215984809e+17
19271.0	5.1821943553611085e+17
19272.0	5.1813878207610874e+17
19273.0	5.178978556619431e+17
19274.0	5.178665560178687e+17
19275.0	5.1784761635853645e+17
19276.0	5.177487955503786e+17
19277.0	5.17651318317602e+17
19278.0	5.175537927105193e+17
19279.0	5.174540239896574e+17
19280.0	5.17353435561984e+17
19281.0	5.172600994354517e+17
19282.0	5.1716318430931616e+17
19283.0	5.170570373103615e+17
19284.0	5.169573956070057e+17
19285.0	5.168587854927188e+17
19286.0	5.166242347701585e+17
19287.0	5.1642905241408845e+17
19288.0	5.16194420322031e+17
19289.0	5.1574010820252883e+17
19290.0	5.161350521159679e+17
19291.0	5.160232129571498e+17
19292.0	5.159388951434581e+17
19293.0	5.158403024355327e+17
19294.0	5.157419607567017e+17
19295.0	5.156443501450581e+17
19296.0	5.1554557638301005e+17
19297.0	5.15446207029794e+17
19298.0	5.153476682885802e+17
19299.0	5.1525086025700685e+17
19300.0	5.151523556294656e+17
19301.0	5.150535989941588e+17
19302.0	5.1495511100402336e+17
19303.0	5.148519048413183e+17
19304.0	5.1475577978224634e+17
19305.0	5.1465833400674976e+17
19306.0	5.1455978953332045e+17
19307.0	5.144581913269589e+17
19308.0	5.1436096568251725e+17
19309.0	5.142445752145236e+17
19310.0	5.1413715922889376e+17
19311.0	5.1406254857256954e+17
19312.0	5.139655478826323e+17
19313.0	5.138661147060906e+17
19314.0	5.130076571391296e+17
19315.0	5.129948243165202e+17
19316.0	5.135672539086847e+17
19317.0	5.134684219157162e+17
19318.0	5.133685075826004e+17
19319.0	5.1326954116218874e+17
19320.0	5.131694349396651e+17
19321.0	5.1306957072848205e+17
19322.0	5.129642776898217e+17
19323.0	5.1285984609129805e+17
19324.0	5.127681284767742e+17
19325.0	5.126501715760468e+17
19326.0	5.1256745144265376e+17
19327.0	5.124657655054336e+17
19328.0	5.123654875960659e+17
19329.0	5.12264632340753e+17
19330.0	5.121609929064446e+17
19331.0	5.1205943992866125e+17
19332.0	5.119602545655807e+17
19333.0	5.1185743588666016e+17
19334.0	5.117561567969279e+17
19335.0	5.114451242691239e+17
19336.0	5.112748949460308e+17
19337.0	5.111721300241065e+17
19338.0	5.110579809222656e+17
19339.0	5.1096569651746125e+17
19340.0	5.108555319345151e+17
19341.0	5.107578642104319e+17
19342.0	5.106323599392767e+17
19343.0	5.105501450797055e+17
19344.0	5.1044490293193376e+17
19345.0	5.1021248759944506e+17
19346.0	5.10207310500113e+17
19347.0	5.1012598734957216e+17
19348.0	5.1002394622470816e+17
19349.0	5.0991567404182176e+17
19350.0	5.098093817102335e+17
19351.0	5.0970167883421e+17
19352.0	5.095926202892286e+17
19353.0	5.094890206309034e+17
19354.0	5.093807587939669e+17
19355.0	5.091690282308949e+17
19356.0	5.0900600150644045e+17
19357.0	5.088960163698004e+17
19358.0	5.08784369869346e+17
19359.0	5.0866638976013645e+17
19360.0	5.0856019690345805e+17
19361.0	5.084477992730623e+17
19362.0	5.083374324547583e+17
19363.0	5.0822371103211514e+17
19364.0	5.081090453318313e+17
19365.0	5.0799427624195405e+17
19366.0	5.078784019529727e+17
19367.0	5.0776179023544314e+17
19368.0	5.0764434881467725e+17
19369.0	5.075218681473706e+17
19370.0	5.073901285539839e+17
19371.0	5.0728328096645114e+17
19372.0	5.071260677570559e+17
19373.0	5.0698085340282874e+17
19374.0	5.068582296398506e+17
19375.0	5.0673359806354765e+17
19376.0	5.0660770225411405e+17
19377.0	5.064796941232809e+17
19378.0	5.063511642210303e+17
19379.0	5.062210248245247e+17
19380.0	5.0608935961012896e+17
19381.0	5.0595561989297485e+17
19382.0	5.058162453381119e+17
19383.0	5.0567811970717e+17
19384.0	5.055449890728619e+17
19385.0	5.054041119784959e+17
19386.0	5.052613993867945e+17
19387.0	5.0511620523513165e+17
19388.0	5.0496865961683616e+17
19389.0	5.048186115369642e+17
19390.0	5.046657497082538e+17
19391.0	5.0382995669210336e+17
19392.0	5.043511239202132e+17
19393.0	5.0419052779492685e+17
19394.0	5.0402502055908685e+17
19395.0	5.038554792416598e+17
19396.0	5.0368382420473165e+17
19397.0	5.035094095254868e+17
19398.0	5.0332761343044256e+17
19399.0	5.0310260111441894e+17
19400.0	5.0295277407436794e+17
19401.0	5.027609280075092e+17
19402.0	5.025618620754602e+17
19403.0	5.023559187431423e+17
19404.0	5.021460681370281e+17
19405.0	5.019278018696534e+17
19406.0	5.017043145326591e+17
19407.0	5.0144393507635194e+17
19408.0	5.010932983922688e+17
19409.0	5.008887604314111e+17
19410.0	5.006360213192703e+17
19411.0	5.003711900286975e+17
19412.0	5.000964979294208e+17
19413.0	4.9981212719404365e+17
19414.0	4.9951468742683296e+17
19415.0	4.9918425030109875e+17
19416.0	4.9873721963315194e+17
19417.0	4.9840298722153805e+17
19418.0	4.9806487899340794e+17
19419.0	4.9769401080436064e+17
19420.0	4.971351409076906e+17
19421.0	4.9673451958435834e+17
19422.0	4.96213503700719e+17
19423.0	4.956287945845417e+17
19424.0	4.950012023450283e+17
19425.0	4.9432590947450874e+17
19426.0	4.934927721518421e+17
19427.0	4.925112400740351e+17
19428.0	4.9130874807691974e+17
19429.0	4.8989512152732986e+17
19430.0	4.879489825068371e+17
19431.0	4.861216233095166e+17
19432.0	4.851187380300457e+17
19433.0	4.839599894080171e+17
19434.0	4.8270777582441805e+17
19435.0	4.813499200962559e+17
19436.0	4.798514979318442e+17
19437.0	4.782925766372008e+17
19438.0	4.754714097527462e+17
19439.0	4.747566911935831e+17
19440.0	4.727175066419198e+17
19441.0	4.702863775935143e+17
19442.0	4.669589727565141e+17
19443.0	4.6124736502387974e+17
19444.0	4.550513606874449e+17
19445.0	4.5023463113140915e+17
19446.0	4.4459401499989325e+17
19447.0	4.3693545168568115e+17
19448.0	4.2338605719005946e+17
19449.0	4.0605892256727155e+17
19450.0	3.589438485910869e+17
19451.0	3.440866890525347e+17
19452.0	3.85855516433887e+17
19453.0	4.16412281671954e+17
19454.0	4.3031090810934464e+17
19455.0	4.4074452948527744e+17
19456.0	4.4683347749765146e+17
19457.0	4.518364263219197e+17
19458.0	4.5503299229232e+17
19459.0	4.633567008478549e+17
19460.0	4.673573766212265e+17
19461.0	4.6991811986937184e+17
19462.0	4.719558527025152e+17
19463.0	4.737278938535251e+17
19464.0	4.7527186350298445e+17
19465.0	4.7676667255412045e+17
19466.0	4.780878527288659e+17
19467.0	4.7931779085325645e+17
19468.0	4.804343345010005e+17
19469.0	4.814272950785364e+17
19470.0	4.823830241476607e+17
19471.0	4.835237773879977e+17
19472.0	4.853050899081901e+17
19473.0	4.86827487203601e+17
19474.0	4.8790699409844915e+17
19475.0	4.887266486211924e+17
19476.0	4.8944558644046483e+17
19477.0	4.899911044694015e+17
19478.0	4.905501435363324e+17
19479.0	4.908599975346175e+17
19480.0	4.913300911423488e+17
19481.0	4.91555109610018e+17
19482.0	4.918275624402943e+17
19483.0	4.9213038916184736e+17
19484.0	4.922995631980543e+17
19485.0	4.9245241426138445e+17
19486.0	4.926142056934058e+17
19487.0	4.928621670039551e+17
19488.0	4.9297808687103994e+17
19489.0	4.930811425980416e+17
19490.0	4.930915725737982e+17
19491.0	4.9325645772445e+17
19492.0	4.9333268388686496e+17
19493.0	4.9339553224676685e+17
19494.0	4.934522798516906e+17
19495.0	4.935593419079678e+17
19496.0	4.936147901874175e+17
19497.0	4.936703354950998e+17
19498.0	4.936807574317738e+17
19499.0	4.9257711063968275e+17
19500.0	4.937377154509481e+17
19501.0	4.937481833851562e+17
19502.0	4.937532407371093e+17
19503.0	4.937547319519913e+17
19504.0	4.937505870708735e+17
19505.0	4.937433212081491e+17
19506.0	4.9373184482344954e+17
19507.0	4.9371476086401696e+17
19508.0	4.9369688145483085e+17
19509.0	4.936741930663935e+17
19510.0	4.936374917180074e+17
19511.0	4.921648571831621e+17
19512.0	4.934683201284771e+17
19513.0	4.93230734757068e+17
19514.0	4.9331602718719974e+17
19515.0	4.934425046067884e+17
19516.0	4.9343622769104205e+17
19517.0	4.933887918604287e+17
19518.0	4.933473807979861e+17
19519.0	4.9329928401496736e+17
19520.0	4.9324864562353485e+17
19521.0	4.9319946754894496e+17
19522.0	4.931447049682943e+17
19523.0	4.930925051772927e+17
19524.0	4.930365960137387e+17
19525.0	4.929782059193685e+17
19526.0	4.929210558010708e+17
19527.0	4.928610999031123e+17
19528.0	4.9279994128848205e+17
19529.0	4.9273780057757e+17
19530.0	4.9267544099389434e+17
19531.0	4.92611287716113e+17
19532.0	4.925461489167017e+17
19533.0	4.9248008156829e+17
19534.0	4.9241303422074874e+17
19535.0	4.923440911177045e+17
19536.0	4.9227448566415354e+17
19537.0	4.9220732255382176e+17
19538.0	4.921355636047872e+17
19539.0	4.9203186076658355e+17
19540.0	4.9199328750032205e+17
19541.0	4.919225847469396e+17
19542.0	4.918531355312128e+17
19543.0	4.918319971478185e+17
19544.0	4.917582952573609e+17
19545.0	4.916655341000019e+17
19546.0	4.9155206356664314e+17
19547.0	4.915335473222996e+17
19548.0	4.914577435262975e+17
19549.0	4.913757954943658e+17
19550.0	4.913044804425044e+17
19551.0	4.9122741367166285e+17
19552.0	4.911497557136724e+17
19553.0	4.910708191920128e+17
19554.0	4.909908659710634e+17
19555.0	4.9105013302449485e+17
19556.0	4.909796042648234e+17
19557.0	4.9089977421660154e+17
19558.0	4.908198737040725e+17
19559.0	4.907394237377194e+17
19560.0	4.9065797622606496e+17
19561.0	4.9057728033368736e+17
19562.0	4.904974332286292e+17
19563.0	4.904167137782443e+17
19564.0	4.903353511313408e+17
19565.0	4.902535538846378e+17
19566.0	4.901701593770665e+17
19567.0	4.900897833003689e+17
19568.0	4.900062108844032e+17
19569.0	4.89923919548689e+17
19570.0	4.898425660593492e+17
19571.0	4.897596573220864e+17
19572.0	4.8967482060308474e+17
19573.0	4.895929654050815e+17
19574.0	4.895050996296361e+17
19575.0	4.894268744619349e+17
19576.0	4.893432589844479e+17
19577.0	4.8925678823451296e+17
19578.0	4.8917351081792845e+17
19579.0	4.890904072552447e+17
19580.0	4.8900667258961914e+17
19581.0	4.889227298166102e+17
19582.0	4.888395019627179e+17
19583.0	4.887550973269331e+17
19584.0	4.8867032128552954e+17
19585.0	4.8857979359505056e+17
19586.0	4.884935786277546e+17
19587.0	4.884127917189802e+17
19588.0	4.8830544773556896e+17
19589.0	4.8824516328379725e+17
19590.0	4.8815567871672314e+17
19591.0	4.8807593206524576e+17
19592.0	4.881834650719572e+17
19593.0	4.88152889224943e+17
19594.0	4.880538946327892e+17
19595.0	4.879816394975914e+17
19596.0	4.878360649225556e+17
19597.0	4.878103327277054e+17
19598.0	4.877040488546302e+17
19599.0	4.8763919918257485e+17
19600.0	4.8755377540082336e+17
19601.0	4.8746410257940474e+17
19602.0	4.87379526816017e+17
19603.0	4.872641214502228e+17
19604.0	4.8720720698190496e+17
19605.0	4.871065440354303e+17
19606.0	4.8703668091180365e+17
19607.0	4.869509893237419e+17
19608.0	4.868637819142143e+17
19609.0	4.8677532942554445e+17
19610.0	4.866919515553791e+17
19611.0	4.8660484893354656e+17
19612.0	4.865192629720405e+17
19613.0	4.864321253976745e+17
19614.0	4.863441619648511e+17
19615.0	4.8625983247701325e+17
19616.0	4.86167289213747e+17
19617.0	4.8608624463489696e+17
19618.0	4.859713058854229e+17
19619.0	4.858721293303807e+17
19620.0	4.857897151714644e+17
19621.0	4.8573985447389856e+17
19622.0	4.8565370661546656e+17
19623.0	4.855670243327998e+17
19624.0	4.854798632703317e+17
19625.0	4.853935951751849e+17
19626.0	4.8530654043832314e+17
19627.0	4.852201897153876e+17
19628.0	4.851203104047103e+17
19629.0	4.850414331625472e+17
19630.0	4.8495498100735994e+17
19631.0	4.842679078049104e+17
19632.0	4.847859829921109e+17
19633.0	4.846967202338134e+17
19634.0	4.846126471577598e+17
19635.0	4.8452381522438803e+17
19636.0	4.844383873881427e+17
19637.0	4.843326696762026e+17
19638.0	4.8426473250706765e+17
19639.0	4.841780520419328e+17
19640.0	4.840884288531114e+17
19641.0	4.839518525980674e+17
19642.0	4.839173633955157e+17
19643.0	4.8382993557531296e+17
19644.0	4.837407555846143e+17
19645.0	4.8364188549338445e+17
19646.0	4.835701540869461e+17
19647.0	4.834835071063381e+17
19648.0	4.833963922511189e+17
19649.0	4.8330933457824416e+17
19650.0	4.8322269298032634e+17
19651.0	4.831354864096596e+17
19652.0	4.8304856966539936e+17
19653.0	4.829617296069972e+17
19654.0	4.8287475826687994e+17
19655.0	4.827875579876693e+17
19656.0	4.8270105067738445e+17
