# Flux units: erg / (cm m2 s)
# Wavelength units: Angstrom
wave	flux
19000.0	6.30475241623825e+17
19001.0	6.303464439152637e+17
19002.0	6.302403691282431e+17
19003.0	6.301226469687295e+17
19004.0	6.300049969512445e+17
19005.0	6.298868023732905e+17
19006.0	6.297702918083924e+17
19007.0	6.296516528439295e+17
19008.0	6.295277226251603e+17
19009.0	6.294079393147561e+17
19010.0	6.29244236538402e+17
19011.0	6.291784732071252e+17
19012.0	6.290429567128916e+17
19013.0	6.289463390328148e+17
19014.0	6.288228381010601e+17
19015.0	6.287071213780991e+17
19016.0	6.28588300870178e+17
19017.0	6.284767144181759e+17
19018.0	6.283577178892969e+17
19019.0	6.282412754119338e+17
19020.0	6.281221843014996e+17
19021.0	6.280068663869439e+17
19022.0	6.278889429008383e+17
19023.0	6.277676419514367e+17
19024.0	6.276522392420351e+17
19025.0	6.275362793193471e+17
19026.0	6.274155441815551e+17
19027.0	6.272895003131901e+17
19028.0	6.27184711709491e+17
19029.0	6.270654960981332e+17
19030.0	6.269514252200618e+17
19031.0	6.268340295172095e+17
19032.0	6.267160267587583e+17
19033.0	6.265886616846333e+17
19034.0	6.264794538224297e+17
19035.0	6.26353802191394e+17
19036.0	6.253046455599099e+17
19037.0	6.261236068341076e+17
19038.0	6.260091432293716e+17
19039.0	6.258952271910227e+17
19040.0	6.257781740929023e+17
19041.0	6.256600759140351e+17
19042.0	6.255277024215037e+17
19043.0	6.25426649055232e+17
19044.0	6.253080432257705e+17
19045.0	6.251916115137876e+17
19046.0	6.250691375573674e+17
19047.0	6.249558025699327e+17
19048.0	6.248147467982164e+17
19049.0	6.247041550254077e+17
19050.0	6.245996493275135e+17
19051.0	6.24339565359923e+17
19052.0	6.243468325508436e+17
19053.0	6.242544844625236e+17
19054.0	6.241378188481875e+17
19055.0	6.239902025558698e+17
19056.0	6.238998397015379e+17
19057.0	6.237859036004351e+17
19058.0	6.236627016526505e+17
19059.0	6.235499189152425e+17
19060.0	6.23433103773969e+17
19061.0	6.233188223418367e+17
19062.0	6.232012790693887e+17
19063.0	6.230844995796991e+17
19064.0	6.229536034608468e+17
19065.0	6.22830953832994e+17
19066.0	6.227252284314963e+17
19067.0	6.226156118343679e+17
19068.0	6.225001711665151e+17
19069.0	6.223834558496765e+17
19070.0	6.222631502785194e+17
19071.0	6.221486101277353e+17
19072.0	6.220306981759657e+17
19073.0	6.219155922135722e+17
19074.0	6.217993820307455e+17
19075.0	6.21682594292258e+17
19076.0	6.215635198891348e+17
19077.0	6.214473726208682e+17
19078.0	6.21328373855027e+17
19079.0	6.212154963962538e+17
19080.0	6.210972951074131e+17
19081.0	6.209770751000575e+17
19082.0	6.208606666664618e+17
19083.0	6.207372690543956e+17
19084.0	6.206068365459456e+17
19085.0	6.205146333009236e+17
19086.0	6.203530981408765e+17
19087.0	6.202549022141097e+17
19088.0	6.201511054234963e+17
19089.0	6.200166731568468e+17
19090.0	6.199280932312403e+17
19091.0	6.198125210719572e+17
19092.0	6.196845521578666e+17
19093.0	6.195829637382143e+17
19094.0	6.194667631323818e+17
19095.0	6.193503517627734e+17
19096.0	6.192320877690879e+17
19097.0	6.191172766662655e+17
19098.0	6.189987075369642e+17
19099.0	6.18881869606639e+17
19100.0	6.187658718653098e+17
19101.0	6.186512038581588e+17
19102.0	6.185228836012031e+17
19103.0	6.184189655252991e+17
19104.0	6.183030625053353e+17
19105.0	6.181811710678356e+17
19106.0	6.180661621336745e+17
19107.0	6.179507463520255e+17
19108.0	6.178347435775315e+17
19109.0	6.176571197663913e+17
19110.0	6.176003051924138e+17
19111.0	6.174874228402857e+17
19112.0	6.173712806750889e+17
19113.0	6.172567148691455e+17
19114.0	6.171396614214995e+17
19115.0	6.170176754024447e+17
19116.0	6.169060974788607e+17
19117.0	6.167900784164863e+17
19118.0	6.166626014243497e+17
19119.0	6.159092179533812e+17
19120.0	6.16433951318562e+17
19121.0	6.163223308227924e+17
19122.0	6.162124060841299e+17
19123.0	6.160964719564116e+17
19124.0	6.159755769457321e+17
19125.0	6.158639676347732e+17
19126.0	6.157463495639039e+17
19127.0	6.154331647290025e+17
19128.0	6.155073748991999e+17
19129.0	6.153911024309587e+17
19130.0	6.152832352780287e+17
19131.0	6.15168923996433e+17
19132.0	6.150528987125076e+17
19133.0	6.149289300459519e+17
19134.0	6.148178045479594e+17
19135.0	6.147052412425558e+17
19136.0	6.14590133113105e+17
19137.0	6.1445639779997e+17
19138.0	6.143569580523519e+17
19139.0	6.142429794489684e+17
19140.0	6.141274723013972e+17
19141.0	6.140117936067924e+17
19142.0	6.138932102867625e+17
19143.0	6.137738444494164e+17
19144.0	6.136603745452031e+17
19145.0	6.135491414633129e+17
19146.0	6.133642759066964e+17
19147.0	6.133075008290815e+17
19148.0	6.13200016965632e+17
19149.0	6.130834917206697e+17
19150.0	6.129703101748564e+17
19151.0	6.128549262699178e+17
19152.0	6.127387990644052e+17
19153.0	6.126180598022141e+17
19154.0	6.124944833729876e+17
19155.0	6.123931531826516e+17
19156.0	6.1227723142813e+17
19157.0	6.12157320331264e+17
19158.0	6.120030244700159e+17
19159.0	6.119274145906687e+17
19160.0	6.118135937630208e+17
19161.0	6.116981221272233e+17
19162.0	6.1148431922845e+17
19163.0	6.114622857805823e+17
19164.0	6.113538688243028e+17
19165.0	6.112317241207465e+17
19166.0	6.111078137550164e+17
19167.0	6.109988769147561e+17
19168.0	6.108918530965503e+17
19169.0	6.107754833204564e+17
19170.0	6.106623883870208e+17
19171.0	6.105416801626794e+17
19172.0	6.104311292843348e+17
19173.0	6.103167318097919e+17
19174.0	6.101954772773546e+17
19175.0	6.100864097146196e+17
19176.0	6.099709514306899e+17
19177.0	6.09838917886498e+17
19178.0	6.097376054520489e+17
19179.0	6.096175625142272e+17
19180.0	6.095089951921492e+17
19181.0	6.093807714041855e+17
19182.0	6.092787961298943e+17
19183.0	6.091653553061887e+17
19184.0	6.09049452286225e+17
19185.0	6.089337580027904e+17
19186.0	6.088197372466516e+17
19187.0	6.086971240393386e+17
19188.0	6.08589295194385e+17
19189.0	6.084744650074794e+17
19190.0	6.083587698152788e+17
19191.0	6.082399293145087e+17
19192.0	6.081291940965033e+17
19193.0	6.080125853149866e+17
19194.0	6.078961031315455e+17
19195.0	6.077828195243348e+17
19196.0	6.076646223598931e+17
19197.0	6.075478538452991e+17
19198.0	6.074207182695082e+17
19199.0	6.066933139679912e+17
19200.0	6.067494678691841e+17
19201.0	6.070779090654548e+17
19202.0	6.069741873528831e+17
19203.0	6.068601097639252e+17
19204.0	6.067451012491946e+17
19205.0	6.066322376316244e+17
19206.0	6.065175337631743e+17
19207.0	6.063918462708393e+17
19208.0	6.062631392990548e+17
19209.0	6.061730249572352e+17
19210.0	6.060579970788009e+17
19211.0	6.059446668449107e+17
19212.0	6.058295861881514e+17
19213.0	6.057006848802815e+17
19214.0	6.055825155380564e+17
19215.0	6.054819844325375e+17
19216.0	6.053695995947689e+17
19217.0	6.052532177950038e+17
19218.0	6.050490711627091e+17
19219.0	6.050066686367059e+17
19220.0	6.049066829305172e+17
19221.0	6.047591141037398e+17
19222.0	6.0467844757149e+17
19223.0	6.045625069426003e+17
19224.0	6.044447940105556e+17
19225.0	6.043186935190867e+17
19226.0	6.04217496637713e+17
19227.0	6.041024378612393e+17
19228.0	6.03990467350801e+17
19229.0	6.038753341953364e+17
19230.0	6.037599095357439e+17
19231.0	6.036437764582058e+17
19232.0	6.035293878616064e+17
19233.0	6.034072783202986e+17
19234.0	6.03297197204002e+17
19235.0	6.031622872760319e+17
19236.0	6.030505403219967e+17
19237.0	6.029337230835712e+17
19238.0	6.028092968184489e+17
19239.0	6.027054728347647e+17
19240.0	6.025890426606931e+17
19241.0	6.024723568437929e+17
19242.0	6.023581818071721e+17
19243.0	6.022265364458153e+17
19244.0	6.021297634366804e+17
19245.0	6.020138371383295e+17
19246.0	6.018973232179882e+17
19247.0	6.01783382642961e+17
19248.0	6.016687614722047e+17
19249.0	6.015532060202324e+17
19250.0	6.014348240267946e+17
19251.0	6.013098292936701e+17
19252.0	6.0117433726621e+17
19253.0	6.010890015648428e+17
19254.0	6.009763028533247e+17
19255.0	6.008391907759444e+17
19256.0	6.0074268047005e+17
19257.0	6.006299951103999e+17
19258.0	6.005143389252265e+17
19259.0	6.003903048275284e+17
19260.0	6.0026252179101e+17
19261.0	6.001657118020948e+17
19262.0	6.000448645365759e+17
19263.0	5.999281376154963e+17
19264.0	5.997581197552297e+17
19265.0	5.996809135237802e+17
19266.0	5.99561039057169e+17
19267.0	5.994723360287402e+17
19268.0	5.993555447250944e+17
19269.0	5.992398446395391e+17
19270.0	5.991233927249919e+17
19271.0	5.989697931881132e+17
19272.0	5.988874385883135e+17
19273.0	5.987144064914771e+17
19274.0	5.985988538357075e+17
19275.0	5.985425989915987e+17
19276.0	5.98424023081506e+17
19277.0	5.983081058708137e+17
19278.0	5.981894771823956e+17
19279.0	5.980477508812799e+17
19280.0	5.979236273750015e+17
19281.0	5.978152113274879e+17
19282.0	5.977000426602495e+17
19283.0	5.975752264646655e+17
19284.0	5.974605404220074e+17
19285.0	5.97329653670434e+17
19286.0	5.972270751154176e+17
19287.0	5.971130345761449e+17
19288.0	5.967483453658451e+17
19289.0	5.962456260848287e+17
19290.0	5.967603103869609e+17
19291.0	5.96615349788126e+17
19292.0	5.96526709744162e+17
19293.0	5.964081339738793e+17
19294.0	5.962896636903423e+17
19295.0	5.961727971688447e+17
19296.0	5.960511583682559e+17
19297.0	5.959330352332799e+17
19298.0	5.958143300687188e+17
19299.0	5.956957892509695e+17
19300.0	5.955792000428714e+17
19301.0	5.954523784107347e+17
19302.0	5.95307210613282e+17
19303.0	5.95180575138338e+17
19304.0	5.950661098558804e+17
19305.0	5.949321743346345e+17
19306.0	5.947857488052223e+17
19307.0	5.946606130036735e+17
19308.0	5.945427355850068e+17
19309.0	5.944029836126889e+17
19310.0	5.94273042047522e+17
19311.0	5.94177959272994e+17
19312.0	5.940623162299732e+17
19313.0	5.939417555053225e+17
19314.0	5.926384327196664e+17
19315.0	5.92622674649636e+17
19316.0	5.935569687980714e+17
19317.0	5.9343372301981e+17
19318.0	5.933115061043199e+17
19319.0	5.931912727450964e+17
19320.0	5.930673003735721e+17
19321.0	5.929428521582592e+17
19322.0	5.928122441880916e+17
19323.0	5.92688441336354e+17
19324.0	5.925721444013396e+17
19325.0	5.924302349489491e+17
19326.0	5.92323644891682e+17
19327.0	5.921981724972372e+17
19328.0	5.920699623407615e+17
19329.0	5.919491273785344e+17
19330.0	5.918186526474239e+17
19331.0	5.916910299032233e+17
19332.0	5.91569278275857e+17
19333.0	5.914411796179625e+17
19334.0	5.913139977650173e+17
19335.0	5.911764064185002e+17
19336.0	5.910566561731924e+17
19337.0	5.909270365907625e+17
19338.0	5.907739059770707e+17
19339.0	5.90655575503667e+17
19340.0	5.904527337193471e+17
19341.0	5.903284998329683e+17
19342.0	5.901605908687529e+17
19343.0	5.900704922555732e+17
19344.0	5.899330599430826e+17
19345.0	5.895707003191291e+17
19346.0	5.895746851176447e+17
19347.0	5.895216994538836e+17
19348.0	5.893984686353066e+17
19349.0	5.892575303041023e+17
19350.0	5.891191581878954e+17
19351.0	5.889723345491284e+17
19352.0	5.888144271824211e+17
19353.0	5.886872258958676e+17
19354.0	5.885460351374676e+17
19355.0	5.883626747068415e+17
19356.0	5.881584460759039e+17
19357.0	5.880141504839679e+17
19358.0	5.878680006601386e+17
19359.0	5.877153988782762e+17
19360.0	5.875649032661674e+17
19361.0	5.87419774685457e+17
19362.0	5.872734753346899e+17
19363.0	5.871213641465855e+17
19364.0	5.869676934463488e+17
19365.0	5.867397089067008e+17
19366.0	5.865143063805951e+17
19367.0	5.86356130718242e+17
19368.0	5.861964311254356e+17
19369.0	5.860293493478739e+17
19370.0	5.858649309533524e+17
19371.0	5.856998427983871e+17
19372.0	5.853940858661546e+17
19373.0	5.851778480340991e+17
19374.0	5.850071009241769e+17
19375.0	5.848329788675412e+17
19376.0	5.846564143278761e+17
19377.0	5.843287607519916e+17
19378.0	5.840508516215466e+17
19379.0	5.838469307826175e+17
19380.0	5.836348658636116e+17
19381.0	5.83283027022097e+17
19382.0	5.829352890914131e+17
19383.0	5.827331608281087e+17
19384.0	5.824475134864038e+17
19385.0	5.819660576489471e+17
19386.0	5.817567037882367e+17
19387.0	5.813229626327043e+17
19388.0	5.80879734870289e+17
19389.0	5.805993398457683e+17
19390.0	5.801143827431423e+17
19391.0	5.790318502171976e+17
19392.0	5.795966050020009e+17
19393.0	5.793696119259135e+17
19394.0	5.791217714113193e+17
19395.0	5.788679294768468e+17
19396.0	5.785585341956096e+17
19397.0	5.782264387818836e+17
19398.0	5.779538090218835e+17
19399.0	5.776044029465939e+17
19400.0	5.773619645557418e+17
19401.0	5.769390226844329e+17
19402.0	5.766438449752745e+17
19403.0	5.763176176724652e+17
19404.0	5.7577606193261216e+17
19405.0	5.7544866840357536e+17
19406.0	5.7488943772685664e+17
19407.0	5.744319470239743e+17
19408.0	5.736784835816105e+17
19409.0	5.731652670761646e+17
19410.0	5.7232330843313485e+17
19411.0	5.713445347393537e+17
19412.0	5.702643346658648e+17
19413.0	5.689817966837763e+17
19414.0	5.677373113150119e+17
19415.0	5.6693588048390816e+17
19416.0	5.662749278688595e+17
19417.0	5.656223877693439e+17
19418.0	5.649162526436009e+17
19419.0	5.6416872896484685e+17
19420.0	5.633965524254719e+17
19421.0	5.6259968583598074e+17
19422.0	5.617743376154623e+17
19423.0	5.609224130265087e+17
19424.0	5.600517752007338e+17
19425.0	5.5915530968978765e+17
19426.0	5.582313526132734e+17
19427.0	5.572861429983915e+17
19428.0	5.563231737217023e+17
19429.0	5.5533537206818125e+17
19430.0	5.542716023417515e+17
19431.0	5.530939787924823e+17
19432.0	5.5213650733957094e+17
19433.0	5.50951968711202e+17
19434.0	5.4972347049137485e+17
19435.0	5.4837574750262566e+17
19436.0	5.4679289420840934e+17
19437.0	5.449671064070822e+17
19438.0	5.4114942643950854e+17
19439.0	5.388424128583002e+17
19440.0	5.3375771788793184e+17
19441.0	5.299768952968531e+17
19442.0	5.2676212178288646e+17
19443.0	5.232502633398271e+17
19444.0	5.192051983384575e+17
19445.0	5.140773639028737e+17
19446.0	5.071628572557308e+17
19447.0	4.972744215101431e+17
19448.0	4.842907822806365e+17
19449.0	4.663747715705516e+17
19450.0	4.286975659999286e+17
19451.0	4.082194214901115e+17
19452.0	4.51162630678118e+17
19453.0	4.764688653658803e+17
19454.0	4.9078462288581926e+17
19455.0	5.020877141835777e+17
19456.0	5.101197479029421e+17
19457.0	5.158112198306475e+17
19458.0	5.1730378737582566e+17
19459.0	5.235930515723611e+17
19460.0	5.267596927216297e+17
19461.0	5.297820602291537e+17
19462.0	5.3446571081072723e+17
19463.0	5.3855164308302483e+17
19464.0	5.4133984273803904e+17
19465.0	5.432643825609386e+17
19466.0	5.44752272688196e+17
19467.0	5.459539839855273e+17
19468.0	5.470525372148394e+17
19469.0	5.479865599918078e+17
19470.0	5.4896090855505914e+17
19471.0	5.4982024615690234e+17
19472.0	5.506701574100308e+17
19473.0	5.514705200218111e+17
19474.0	5.5223859551054496e+17
19475.0	5.529008430470483e+17
19476.0	5.5370252910155085e+17
19477.0	5.5440701866202445e+17
19478.0	5.550798066941951e+17
19479.0	5.557259423711231e+17
19480.0	5.5635105388953594e+17
19481.0	5.5694607952554656e+17
19482.0	5.5751739448142496e+17
19483.0	5.5806451732097696e+17
19484.0	5.585827574142292e+17
19485.0	5.5904838639506765e+17
19486.0	5.594804915623253e+17
19487.0	5.599095834716842e+17
19488.0	5.607391572437668e+17
19489.0	5.618800037374641e+17
19490.0	5.627421396391254e+17
19491.0	5.6361749200240685e+17
19492.0	5.642153666194096e+17
19493.0	5.647321271719252e+17
19494.0	5.652133516236115e+17
19495.0	5.65442932515362e+17
19496.0	5.6579306721116115e+17
19497.0	5.6599958823895034e+17
19498.0	5.661256685977597e+17
19499.0	5.651119982247924e+17
19500.0	5.6652577353236474e+17
19501.0	5.666504269889537e+17
19502.0	5.668465176215551e+17
19503.0	5.6690748665364474e+17
19504.0	5.669619339624447e+17
19505.0	5.670127118144853e+17
19506.0	5.6717319133812045e+17
19507.0	5.6721313621169485e+17
19508.0	5.672495886980436e+17
19509.0	5.672781150683135e+17
19510.0	5.672780083931817e+17
19511.0	5.6526867540213574e+17
19512.0	5.6724348647505856e+17
19513.0	5.672736393265145e+17
19514.0	5.674112964536997e+17
19515.0	5.6800581849361024e+17
19516.0	5.6809933154986643e+17
19517.0	5.6812629791866854e+17
19518.0	5.6843275515985914e+17
19519.0	5.684163141173247e+17
19520.0	5.683930105643007e+17
19521.0	5.685938546715308e+17
19522.0	5.686336863688021e+17
19523.0	5.68620318003473e+17
19524.0	5.6861392497541114e+17
19525.0	5.6871383427536186e+17
19526.0	5.687717699168937e+17
19527.0	5.687305466893652e+17
19528.0	5.686865730469887e+17
19529.0	5.686408330433877e+17
19530.0	5.686387242871463e+17
19531.0	5.6872222567956474e+17
19532.0	5.686703650679466e+17
19533.0	5.6861662093421216e+17
19534.0	5.6856082683439776e+17
19535.0	5.6850191496861e+17
19536.0	5.684405540487167e+17
19537.0	5.6841037547219616e+17
19538.0	5.6843989582260896e+17
19539.0	5.683269478995286e+17
19540.0	5.6832271277096954e+17
19541.0	5.6825901094010874e+17
19542.0	5.681916302153043e+17
19543.0	5.68119994159377e+17
19544.0	5.68053156946466e+17
19545.0	5.6792988152845626e+17
19546.0	5.6780715745170765e+17
19547.0	5.6783780900590925e+17
19548.0	5.6783711435926176e+17
19549.0	5.677710795866111e+17
19550.0	5.6770596777055565e+17
19551.0	5.6762931959125325e+17
19552.0	5.6755141081388365e+17
19553.0	5.674703350573739e+17
19554.0	5.673889924732245e+17
19555.0	5.673205551333374e+17
19556.0	5.672489592728234e+17
19557.0	5.6716715594437965e+17
19558.0	5.6708512822067194e+17
19559.0	5.6700253056095565e+17
19560.0	5.669147403528873e+17
19561.0	5.6683186670796794e+17
19562.0	5.667492949131264e+17
19563.0	5.666654916007252e+17
19564.0	5.665798432139945e+17
19565.0	5.6649706086509216e+17
19566.0	5.664650648267434e+17
19567.0	5.6638124900133536e+17
19568.0	5.6629081316611405e+17
19569.0	5.6620314207627936e+17
19570.0	5.661172065894398e+17
19571.0	5.660280321911466e+17
19572.0	5.659348677514581e+17
19573.0	5.658469109596158e+17
19574.0	5.6574844631777274e+17
19575.0	5.6566893140159136e+17
19576.0	5.6557771228009805e+17
19577.0	5.6548457076927136e+17
19578.0	5.65391108743714e+17
19579.0	5.653006812971007e+17
19580.0	5.652089663389694e+17
19581.0	5.65117799366656e+17
19582.0	5.6502722442035194e+17
19583.0	5.649344002785279e+17
19584.0	5.64841078272819e+17
19585.0	5.6473507017523194e+17
19586.0	5.6463965241562445e+17
19587.0	5.6456358759410336e+17
19588.0	5.644213295251456e+17
19589.0	5.6438501908589216e+17
19590.0	5.642908781423274e+17
19591.0	5.6420749097478816e+17
19592.0	5.6411328984296096e+17
19593.0	5.640157868851198e+17
19594.0	5.6389446321657165e+17
19595.0	5.6382462393057274e+17
19596.0	5.6371321454810445e+17
19597.0	5.6363454359579296e+17
19598.0	5.6349319303441043e+17
19599.0	5.634434269183999e+17
19600.0	5.633483038086484e+17
19601.0	5.6324419677934925e+17
19602.0	5.6314904906301434e+17
19603.0	5.6300402960411296e+17
19604.0	5.629553743495166e+17
19605.0	5.628308572078079e+17
19606.0	5.627725714817023e+17
19607.0	5.6269909133011616e+17
19608.0	5.6259982103237965e+17
19609.0	5.62500008620851e+17
19610.0	5.6244201537754445e+17
19611.0	5.623424171551402e+17
19612.0	5.622485332525056e+17
19613.0	5.621494744175956e+17
19614.0	5.620481690435584e+17
19615.0	5.619544706689705e+17
19616.0	5.6184737603693216e+17
19617.0	5.6175442781361485e+17
19618.0	5.615944430780413e+17
19619.0	5.614779005665278e+17
19620.0	5.6138605327810534e+17
19621.0	5.6136066578513914e+17
19622.0	5.6126599377278285e+17
19623.0	5.6116740141438285e+17
19624.0	5.610675723654484e+17
19625.0	5.609697642719913e+17
19626.0	5.608707127771135e+17
19627.0	5.607710145205589e+17
19628.0	5.6065681732403194e+17
19629.0	5.605515475637588e+17
19630.0	5.6041204305537683e+17
19631.0	5.5969648801218554e+17
19632.0	5.6026843421081594e+17
19633.0	5.601704322007039e+17
19634.0	5.6007723106085536e+17
19635.0	5.5997371172345165e+17
19636.0	5.5987455446220794e+17
19637.0	5.597553698886997e+17
19638.0	5.5970007588973216e+17
19639.0	5.596006326468607e+17
19640.0	5.594924032458751e+17
19641.0	5.592879985240748e+17
19642.0	5.5930202413684045e+17
19643.0	5.592021081260032e+17
19644.0	5.5909620474620576e+17
19645.0	5.589728071341396e+17
19646.0	5.58900110758161e+17
19647.0	5.588045639538004e+17
19648.0	5.587048706605056e+17
19649.0	5.5860420428868256e+17
19650.0	5.585051598542164e+17
19651.0	5.584045257785343e+17
19652.0	5.5830438893759136e+17
19653.0	5.582051584857428e+17
19654.0	5.581044434599936e+17
19655.0	5.5800405300346874e+17
19656.0	5.579045803305641e+17
19657.0	5.578053263906132e+17
19658.0	5.5770526399856634e+17
19659.0	5.576050055228074e+17
19660.0	5.575050972714326e+17
19661.0	5.574049737124522e+17
19662.0	5.573047787803989e+17
