# Flux units: erg / (cm m2 s)
# Wavelength units: Angstrom
wave	flux
19000.0	5.51984131351074e+17
19001.0	5.51872222077474e+17
19002.0	5.5177985895956474e+17
19003.0	5.516769834478249e+17
19004.0	5.515744615159124e+17
19005.0	5.514723732750336e+17
19006.0	5.513710834199209e+17
19007.0	5.512624495482195e+17
19008.0	5.5116001982109e+17
19009.0	5.510535404934484e+17
19010.0	5.50914680230161e+17
19011.0	5.5085462010374816e+17
19012.0	5.5071761022757536e+17
19013.0	5.506548198189737e+17
19014.0	5.5054759837914445e+17
19015.0	5.504467925467136e+17
19016.0	5.503428705561258e+17
19017.0	5.502461587139242e+17
19018.0	5.50142026518801e+17
19019.0	5.500416207530666e+17
19020.0	5.499379797109418e+17
19021.0	5.498377698192042e+17
19022.0	5.4973542628502176e+17
19023.0	5.496302586560511e+17
19024.0	5.495296032593236e+17
19025.0	5.4942725734836896e+17
19026.0	5.493220026176853e+17
19027.0	5.4919553330708474e+17
19028.0	5.491235603087358e+17
19029.0	5.4901962154093216e+17
19030.0	5.48920509997602e+17
19031.0	5.48818713190946e+17
19032.0	5.4871615015485434e+17
19033.0	5.48605769355537e+17
19034.0	5.485113833248085e+17
19035.0	5.484056918971732e+17
19036.0	5.460587424601428e+17
19037.0	5.482050883332779e+17
19038.0	5.481026250517161e+17
19039.0	5.4800311791561376e+17
19040.0	5.4790125826430285e+17
19041.0	5.4779843574060365e+17
19042.0	5.4768345707533645e+17
19043.0	5.4759575138249376e+17
19044.0	5.4749255745317536e+17
19045.0	5.473909739268777e+17
19046.0	5.4728450179945805e+17
19047.0	5.471862272294911e+17
19048.0	5.4706378528959136e+17
19049.0	5.4696805799034874e+17
19050.0	5.4687792945780045e+17
19051.0	5.464730150546086e+17
19052.0	5.466175242065236e+17
19053.0	5.465761749401599e+17
19054.0	5.464759552617129e+17
19055.0	5.4634806310338554e+17
19056.0	5.462692870837589e+17
19057.0	5.4617009864485536e+17
19058.0	5.4606145358834336e+17
19059.0	5.4596515034125645e+17
19060.0	5.458636455280639e+17
19061.0	5.4576452273001805e+17
19062.0	5.456623894003711e+17
19063.0	5.455609946876585e+17
19064.0	5.4544670661454496e+17
19065.0	5.453414575461717e+17
19066.0	5.452492577964031e+17
19067.0	5.451535443383636e+17
19068.0	5.450533493364052e+17
19069.0	5.4495197930018125e+17
19070.0	5.4484755860684794e+17
19071.0	5.447475731103742e+17
19072.0	5.4464522013900794e+17
19073.0	5.445456356179967e+17
19074.0	5.444447357632511e+17
19075.0	5.443433162342399e+17
19076.0	5.442398708563967e+17
19077.0	5.44138825179682e+17
19078.0	5.4403558210710176e+17
19079.0	5.439375258506581e+17
19080.0	5.438347575732906e+17
19081.0	5.43731074937651e+17
19082.0	5.436294244422996e+17
19083.0	5.435229096028841e+17
19084.0	5.434100156465151e+17
19085.0	5.433288954303828e+17
19086.0	5.431900464917161e+17
19087.0	5.430651983495168e+17
19088.0	5.4301432584601594e+17
19089.0	5.4287841208128845e+17
19090.0	5.428208296700586e+17
19091.0	5.427190769035945e+17
19092.0	5.425998336098302e+17
19093.0	5.4252022208484685e+17
19094.0	5.4241889189451085e+17
19095.0	5.423177157749417e+17
19096.0	5.422151144308736e+17
19097.0	5.421155094975828e+17
19098.0	5.4201241748985165e+17
19099.0	5.419109847487828e+17
19100.0	5.4180844079677434e+17
19101.0	5.417100121560404e+17
19102.0	5.4159896683915936e+17
19103.0	5.415093399453696e+17
19104.0	5.4140870384244045e+17
19105.0	5.4130278375533216e+17
19106.0	5.411958166301353e+17
19107.0	5.4110250741705376e+17
19108.0	5.410029059091113e+17
19109.0	5.4074666315502906e+17
19110.0	5.407984088427178e+17
19111.0	5.407001056116736e+17
19112.0	5.4059961449185274e+17
19113.0	5.4050024227252896e+17
19114.0	5.4039858352837965e+17
19115.0	5.402898089377792e+17
19116.0	5.4019606121021434e+17
19117.0	5.400952230117375e+17
19118.0	5.399792440748715e+17
19119.0	5.39229517967086e+17
19120.0	5.397768285716479e+17
19121.0	5.3968136998748154e+17
19122.0	5.395937702707199e+17
19123.0	5.394930472058879e+17
19124.0	5.393831339316564e+17
19125.0	5.3929020535166285e+17
19126.0	5.391903456843094e+17
19127.0	5.389087359893503e+17
19128.0	5.389492747763711e+17
19129.0	5.388819295633407e+17
19130.0	5.3878659806658554e+17
19131.0	5.3868699551006714e+17
19132.0	5.3858713626214394e+17
19133.0	5.38470235836689e+17
19134.0	5.3836836863563085e+17
19135.0	5.3828487395409914e+17
19136.0	5.3818558953553914e+17
19137.0	5.380687372047701e+17
19138.0	5.3798173300927136e+17
19139.0	5.3788406668328954e+17
19140.0	5.3778381359022074e+17
19141.0	5.376833648328703e+17
19142.0	5.375800095626581e+17
19143.0	5.374768206665045e+17
19144.0	5.373783323268435e+17
19145.0	5.3728151583675725e+17
19146.0	5.3712200988098554e+17
19147.0	5.3706987265501856e+17
19148.0	5.3697811449555616e+17
19149.0	5.368771852107775e+17
19150.0	5.367793915876692e+17
19151.0	5.366793624005289e+17
19152.0	5.365771692321451e+17
19153.0	5.3647420955470496e+17
19154.0	5.363643449343999e+17
19155.0	5.36276177588497e+17
19156.0	5.3617626199709e+17
19157.0	5.360730298297003e+17
19158.0	5.3586783483112083e+17
19159.0	5.358737676741289e+17
19160.0	5.3577264852718925e+17
19161.0	5.35672067928883e+17
19162.0	5.3533241955232435e+17
19163.0	5.354684588665513e+17
19164.0	5.353751572731221e+17
19165.0	5.352655358525439e+17
19166.0	5.3515631016454816e+17
19167.0	5.3505203543299405e+17
19168.0	5.349728701120511e+17
19169.0	5.3486900579314336e+17
19170.0	5.347747765594793e+17
19171.0	5.346593027566251e+17
19172.0	5.345736629682174e+17
19173.0	5.3447401133834234e+17
19174.0	5.343692076351487e+17
19175.0	5.342748767595177e+17
19176.0	5.341747649445887e+17
19177.0	5.3406026645722445e+17
19178.0	5.3396922901899936e+17
19179.0	5.338536899248128e+17
19180.0	5.337719661483349e+17
19181.0	5.336625375259305e+17
19182.0	5.3357245708806816e+17
19183.0	5.334755005082281e+17
19184.0	5.3337410320902816e+17
19185.0	5.332748601742676e+17
19186.0	5.331759218556926e+17
19187.0	5.330695350124543e+17
19188.0	5.329754715936083e+17
19189.0	5.3287488036973216e+17
19190.0	5.3277408984651085e+17
19191.0	5.326714854266196e+17
19192.0	5.325769487504724e+17
19193.0	5.324752765146452e+17
19194.0	5.3237518364398925e+17
19195.0	5.322775050147156e+17
19196.0	5.321759052005375e+17
19197.0	5.320764741910528e+17
19198.0	5.3197521614274554e+17
19199.0	5.304786226249722e+17
19200.0	5.3081105735789274e+17
19201.0	5.316764864173396e+17
19202.0	5.315788248449023e+17
19203.0	5.3147549432108365e+17
19204.0	5.3137672468343456e+17
19205.0	5.31279216972049e+17
19206.0	5.3117912976370336e+17
19207.0	5.31069302542609e+17
19208.0	5.3095891650041165e+17
19209.0	5.308805673211221e+17
19210.0	5.3078077077804365e+17
19211.0	5.3068234374512634e+17
19212.0	5.305827170713599e+17
19213.0	5.304634748960767e+17
19214.0	5.3035601319253325e+17
19215.0	5.3027800480044365e+17
19216.0	5.301837948605779e+17
19217.0	5.300837379211262e+17
19218.0	5.2990149254621843e+17
19219.0	5.2987084840195405e+17
19220.0	5.2978214006074016e+17
19221.0	5.296528509195606e+17
19222.0	5.2958473884794874e+17
19223.0	5.294841322449577e+17
19224.0	5.2938196109666976e+17
19225.0	5.2927169137650336e+17
19226.0	5.291850947974485e+17
19227.0	5.290852744167423e+17
19228.0	5.2898790267071136e+17
19229.0	5.288881562495658e+17
19230.0	5.287867358816938e+17
19231.0	5.2868651885963936e+17
19232.0	5.2858778564253005e+17
19233.0	5.2848232035778534e+17
19234.0	5.2838723723373216e+17
19235.0	5.282845129965568e+17
19236.0	5.281874745578836e+17
19237.0	5.2808614681422496e+17
19238.0	5.2797689001847456e+17
19239.0	5.278883256816981e+17
19240.0	5.2778535286210554e+17
19241.0	5.276857450627072e+17
19242.0	5.2758721338190496e+17
19243.0	5.274741161416021e+17
19244.0	5.273894664186538e+17
19245.0	5.272891779536212e+17
19246.0	5.2718803028541434e+17
19247.0	5.2708946749685754e+17
19248.0	5.269897270176426e+17
19249.0	5.26889062113826e+17
19250.0	5.267875634522794e+17
19251.0	5.2667658894923085e+17
19252.0	5.2656536991825914e+17
19253.0	5.264880033245866e+17
19254.0	5.263900543025151e+17
19255.0	5.262740494308691e+17
19256.0	5.2618520624278176e+17
19257.0	5.260903817674751e+17
19258.0	5.2599038445704525e+17
19259.0	5.2588392994570234e+17
19260.0	5.257451877520723e+17
19261.0	5.256885769513641e+17
19262.0	5.255842911748094e+17
19263.0	5.2548288562681165e+17
19264.0	5.2533349409532563e+17
19265.0	5.252682686136319e+17
19266.0	5.251631912321023e+17
19267.0	5.25088563868467e+17
19268.0	5.249875083351381e+17
19269.0	5.248873733117268e+17
19270.0	5.2478707995333965e+17
19271.0	5.2465214464983046e+17
19272.0	5.2458275450388474e+17
19273.0	5.243712548372478e+17
19274.0	5.24304471241523e+17
19275.0	5.24284399329826e+17
19276.0	5.24181728989457e+17
19277.0	5.240815081226239e+17
19278.0	5.239808799189674e+17
19279.0	5.238770491544917e+17
19280.0	5.237708181995518e+17
19281.0	5.236775091961855e+17
19282.0	5.235782258262015e+17
19283.0	5.234549901142698e+17
19284.0	5.233614219728212e+17
19285.0	5.232567653498879e+17
19286.0	5.2316993067417594e+17
19287.0	5.230718797305172e+17
19288.0	5.223064873380514e+17
19289.0	5.214424770718357e+17
19290.0	5.2276743267942394e+17
19291.0	5.226416464811349e+17
19292.0	5.225642829632853e+17
19293.0	5.224617659247273e+17
19294.0	5.223596116934655e+17
19295.0	5.2225862026308256e+17
19296.0	5.221537068788393e+17
19297.0	5.220509286050473e+17
19298.0	5.219494760109396e+17
19299.0	5.218470801178623e+17
19300.0	5.217463671892649e+17
19301.0	5.2164392620741965e+17
19302.0	5.215399824763562e+17
19303.0	5.214314105405438e+17
19304.0	5.213322144819883e+17
19305.0	5.2123077489022285e+17
19306.0	5.211275946622975e+17
19307.0	5.210198019582634e+17
19308.0	5.2091844394571085e+17
19309.0	5.207644191064062e+17
19310.0	5.206455388995583e+17
19311.0	5.2060153477857274e+17
19312.0	5.205059526721534e+17
19313.0	5.2040244766528845e+17
19314.0	5.173470539284503e+17
19315.0	5.174259257879235e+17
19316.0	5.200816100431188e+17
19317.0	5.19983477100817e+17
19318.0	5.1987810374123514e+17
19319.0	5.1977448450949114e+17
19320.0	5.1966781846541645e+17
19321.0	5.195613734611626e+17
19322.0	5.1944667560454816e+17
19323.0	5.1932854694707194e+17
19324.0	5.192435207853396e+17
19325.0	5.190874669514751e+17
19326.0	5.1903105656859296e+17
19327.0	5.189227081192788e+17
19328.0	5.1881273927051936e+17
19329.0	5.1870954981512525e+17
19330.0	5.185978010435582e+17
19331.0	5.184890207906473e+17
19332.0	5.183844549743955e+17
19333.0	5.1827444222525434e+17
19334.0	5.1816651775016954e+17
19335.0	5.180491623126357e+17
19336.0	5.1794639067982496e+17
19337.0	5.178370054684671e+17
19338.0	5.1770633821880314e+17
19339.0	5.176153360826367e+17
19340.0	5.1749084557475834e+17
19341.0	5.173851670795605e+17
19342.0	5.172396028504745e+17
19343.0	5.1716793456831136e+17
19344.0	5.170521118692693e+17
19345.0	5.16742742173286e+17
19346.0	5.1673257035694054e+17
19347.0	5.1670272830341114e+17
19348.0	5.1659911704084474e+17
19349.0	5.164794835369983e+17
19350.0	5.163627294927529e+17
19351.0	5.162472115098966e+17
19352.0	5.161219739964756e+17
19353.0	5.1601589955898016e+17
19354.0	5.158978176679934e+17
19355.0	5.157692787479894e+17
19356.0	5.1565877344774816e+17
19357.0	5.1553852058501114e+17
19358.0	5.154156973828779e+17
19359.0	5.1528712078404256e+17
19360.0	5.151654199077545e+17
19361.0	5.1504575599520403e+17
19362.0	5.149253519278079e+17
19363.0	5.1480003926644045e+17
19364.0	5.146737638025897e+17
19365.0	5.145470057141589e+17
19366.0	5.144190065311742e+17
19367.0	5.142900985823232e+17
19368.0	5.141602211900074e+17
19369.0	5.140226409583956e+17
19370.0	5.138837818135892e+17
19371.0	5.137585264743764e+17
19372.0	5.1362894722717005e+17
19373.0	5.1349112239773005e+17
19374.0	5.1335554921048736e+17
19375.0	5.13217477476352e+17
19376.0	5.130780544772779e+17
19377.0	5.1293580409787725e+17
19378.0	5.1279359482265594e+17
19379.0	5.126500341426858e+17
19380.0	5.125046441869311e+17
19381.0	5.123572453692757e+17
19382.0	5.12202162516787e+17
19383.0	5.1204735585921696e+17
19384.0	5.1190559684253005e+17
19385.0	5.117519758447955e+17
19386.0	5.115964256769366e+17
19387.0	5.114384453293396e+17
19388.0	5.112784126388907e+17
19389.0	5.1111622959868576e+17
19390.0	5.1095156814424736e+17
19391.0	5.087634149168442e+17
19392.0	5.105113598612816e+17
19393.0	5.103906909934932e+17
19394.0	5.102158359822335e+17
19395.0	5.1003608132485114e+17
19396.0	5.098587444740096e+17
19397.0	5.0968213540481696e+17
19398.0	5.094938184253439e+17
19399.0	5.092355958199637e+17
19400.0	5.0911236073717754e+17
19401.0	5.089276888175956e+17
19402.0	5.087327551138474e+17
19403.0	5.0853141642827085e+17
19404.0	5.0833024160017043e+17
19405.0	5.081227046420479e+17
19406.0	5.079150270349311e+17
19407.0	5.0767127296081914e+17
19408.0	5.0731452433694726e+17
19409.0	5.0717066614101325e+17
19410.0	5.0694623263894176e+17
19411.0	5.0671461848842234e+17
19412.0	5.0647722332869965e+17
19413.0	5.062340613505023e+17
19414.0	5.0586465627450016e+17
19415.0	5.055928178398549e+17
19416.0	5.0530516729855994e+17
19417.0	5.0500655137860256e+17
19418.0	5.0459534887485434e+17
19419.0	5.043033461839188e+17
19420.0	5.038602984270506e+17
19421.0	5.0345377215283194e+17
19422.0	5.0291332475781114e+17
19423.0	5.023890633916414e+17
19424.0	5.017184666735958e+17
19425.0	5.008703303800149e+17
19426.0	4.99817842142959e+17
19427.0	4.985237093569874e+17
19428.0	4.9688379129855994e+17
19429.0	4.957290992675497e+17
19430.0	4.9489981175671475e+17
19431.0	4.9373119897053894e+17
19432.0	4.9316871679945376e+17
19433.0	4.9219977560282445e+17
19434.0	4.9116405451543885e+17
19435.0	4.899811840316755e+17
19436.0	4.886508426581331e+17
19437.0	4.875118360657919e+17
19438.0	4.8256129996335904e+17
19439.0	4.8417548918237894e+17
19440.0	4.8201188976011885e+17
19441.0	4.781970024999597e+17
19442.0	4.7215996228512486e+17
19443.0	4.683401026076671e+17
19444.0	4.643731222648148e+17
19445.0	4.599364228655789e+17
19446.0	4.5511718826147834e+17
19447.0	4.4676496577877126e+17
19448.0	4.332551688683526e+17
19449.0	4.1676206299764256e+17
19450.0	3.6589956399540915e+17
19451.0	3.45931111936817e+17
19452.0	3.9632171294173875e+17
19453.0	4.269570585351515e+17
19454.0	4.395070466468507e+17
19455.0	4.5145861732870694e+17
19456.0	4.568949824596652e+17
19457.0	4.612870701230759e+17
19458.0	4.5798602669643974e+17
19459.0	4.6845727007047936e+17
19460.0	4.7369352341968006e+17
19461.0	4.787402834269529e+17
19462.0	4.814342586717519e+17
19463.0	4.831863389203112e+17
19464.0	4.845695144034303e+17
19465.0	4.8578614246331744e+17
19466.0	4.8679170140187296e+17
19467.0	4.8783265760979616e+17
19468.0	4.887190306466475e+17
19469.0	4.8949920544413e+17
19470.0	4.902855434218155e+17
19471.0	4.9098643378012154e+17
19472.0	4.916313050841087e+17
19473.0	4.9230113885825683e+17
19474.0	4.9360477558756685e+17
19475.0	4.949003222734167e+17
19476.0	4.958857946901161e+17
19477.0	4.966049407565824e+17
19478.0	4.9713691866344083e+17
19479.0	4.975739717113172e+17
19480.0	4.9796353768816634e+17
19481.0	4.981594647429119e+17
19482.0	4.984791520073047e+17
19483.0	4.986266215688874e+17
19484.0	4.987788207674708e+17
19485.0	4.989883458955946e+17
19486.0	4.9906854930677766e+17
19487.0	4.991513208902996e+17
19488.0	4.9928336652806816e+17
19489.0	4.993951031361534e+17
19490.0	4.9931701386390163e+17
19491.0	4.995065938182143e+17
19492.0	4.9955319162688845e+17
19493.0	4.9959104011741843e+17
19494.0	4.9962370759393274e+17
19495.0	4.9972103676777805e+17
19496.0	4.997192076318035e+17
19497.0	4.9978025495756794e+17
19498.0	4.994977755736745e+17
19499.0	4.9664104763228077e+17
19500.0	4.9982465047702176e+17
19501.0	4.9983165105001805e+17
19502.0	4.998340222997845e+17
19503.0	4.998371274129406e+17
19504.0	4.998343959423657e+17
19505.0	4.998294392537087e+17
19506.0	4.998223415126697e+17
19507.0	4.9980942899828045e+17
19508.0	4.997986408289621e+17
19509.0	4.9978283913816736e+17
19510.0	4.9974392746147834e+17
19511.0	4.945525610643438e+17
19512.0	4.991843892024656e+17
19513.0	4.988448675637916e+17
19514.0	4.990488841726624e+17
19515.0	4.9962658236989434e+17
19516.0	4.9966054588634445e+17
19517.0	4.9962345167148365e+17
19518.0	4.9959455067996154e+17
19519.0	4.995560306813609e+17
19520.0	4.9951417327506765e+17
19521.0	4.994801852918442e+17
19522.0	4.994349366509566e+17
19523.0	4.993939567629653e+17
19524.0	4.993477395873791e+17
19525.0	4.9930262215830176e+17
19526.0	4.9925635730746016e+17
19527.0	4.992068631221588e+17
19528.0	4.9915576482529274e+17
19529.0	4.991037104368298e+17
19530.0	4.9905274509940045e+17
19531.0	4.989986732507135e+17
19532.0	4.989434330786474e+17
19533.0	4.9888708064706554e+17
19534.0	4.988293019424085e+17
19535.0	4.9877012912100685e+17
19536.0	4.9870763245349536e+17
19537.0	4.9865117914890234e+17
19538.0	4.9857391713320954e+17
19539.0	4.9847252822261766e+17
19540.0	4.9846151670661114e+17
19541.0	4.983990723979946e+17
19542.0	4.983342982234111e+17
19543.0	4.982659429520724e+17
19544.0	4.9820256163594234e+17
19545.0	4.980842697501355e+17
19546.0	4.9797887891428685e+17
19547.0	4.9800019366816416e+17
19548.0	4.9793077318341965e+17
19549.0	4.978525587111936e+17
19550.0	4.9779109894553594e+17
19551.0	4.9772047986851834e+17
19552.0	4.97648943497216e+17
19553.0	4.9757443035845965e+17
19554.0	4.97500626826035e+17
19555.0	4.9742968464779936e+17
19556.0	4.973578555140779e+17
19557.0	4.9728370301556045e+17
19558.0	4.972094538383359e+17
19559.0	4.971345466447189e+17
19560.0	4.9705577398053536e+17
19561.0	4.969810597249023e+17
19562.0	4.9690662131466234e+17
19563.0	4.9683133160052045e+17
19564.0	4.9675451830545056e+17
19565.0	4.9667732948036256e+17
19566.0	4.9659674984011085e+17
19567.0	4.9652177735516154e+17
19568.0	4.9644129460333216e+17
19569.0	4.9636304203284474e+17
19570.0	4.962864145454421e+17
19571.0	4.962066132282026e+17
19572.0	4.9612475642238285e+17
19573.0	4.960454768066559e+17
19574.0	4.959598897266687e+17
19575.0	4.95888127631906e+17
19576.0	4.9580721671154336e+17
19577.0	4.957232238865066e+17
19578.0	4.956418038475434e+17
19579.0	4.955624679582378e+17
19580.0	4.9548110125684045e+17
19581.0	4.9540068854988794e+17
19582.0	4.953206753503914e+17
19583.0	4.9523876814301856e+17
19584.0	4.9515507276404045e+17
19585.0	4.950638888747007e+17
19586.0	4.949779020076373e+17
19587.0	4.949001852594858e+17
19588.0	4.9477851619000326e+17
19589.0	4.947410657389226e+17
19590.0	4.946486945120255e+17
19591.0	4.9457614388811085e+17
19592.0	4.944934392037374e+17
19593.0	4.9440790504188576e+17
19594.0	4.943027482482004e+17
19595.0	4.942379410085205e+17
19596.0	4.940753277026304e+17
19597.0	4.940699705977513e+17
19598.0	4.9394699185684474e+17
19599.0	4.939103000854528e+17
19600.0	4.9382671620505594e+17
19601.0	4.937354884153342e+17
19602.0	4.936520416886782e+17
19603.0	4.935093363671038e+17
19604.0	4.934801918962345e+17
19605.0	4.9337418037329914e+17
19606.0	4.933173875397972e+17
19607.0	4.932331519344639e+17
19608.0	4.9314609118576634e+17
19609.0	4.93057496580096e+17
19610.0	4.929756490017449e+17
19611.0	4.928886378157396e+17
19612.0	4.928065033469951e+17
19613.0	4.9271993654749856e+17
19614.0	4.9263153278266016e+17
19615.0	4.9254892701395616e+17
19616.0	4.9244474294927354e+17
19617.0	4.923749142189396e+17
19618.0	4.922318367926953e+17
19619.0	4.92133174878754e+17
19620.0	4.920503608628564e+17
19621.0	4.92031339274786e+17
19622.0	4.9194821502020256e+17
19623.0	4.918618871562239e+17
19624.0	4.917747734893909e+17
19625.0	4.9168952216343885e+17
19626.0	4.9160328182060365e+17
19627.0	4.915166742664532e+17
19628.0	4.9139481030164486e+17
19629.0	4.913274234950996e+17
19630.0	4.911510600723114e+17
19631.0	4.895949860809388e+17
19632.0	4.9108307872317434e+17
19633.0	4.9099172084012365e+17
19634.0	4.9091132267342496e+17
19635.0	4.9082070228882765e+17
19636.0	4.907342307000319e+17
19637.0	4.906155418233514e+17
19638.0	4.9056321424588794e+17
19639.0	4.90476507636258e+17
19640.0	4.90377033285632e+17
19641.0	4.9019831720782515e+17
19642.0	4.9021641905493325e+17
19643.0	4.901287499224404e+17
19644.0	4.9003742734144845e+17
19645.0	4.8992847693960525e+17
19646.0	4.898663784513536e+17
19647.0	4.897829020150442e+17
19648.0	4.8969617394455885e+17
19649.0	4.8960845545908896e+17
19650.0	4.895221841483093e+17
19651.0	4.894346119741439e+17
19652.0	4.8934785139780256e+17
19653.0	4.892600878934698e+17
19654.0	4.8917323140737696e+17
19655.0	4.890857475233109e+17
