# Flux units: erg / (cm m2 s)
# Wavelength units: Angstrom
wave	flux
19000.0	5.995636776938153e+17
19001.0	5.994521347926698e+17
19002.0	5.993428918381225e+17
19003.0	5.99232489787665e+17
19004.0	5.991221105961641e+17
19005.0	5.990117844626089e+17
19006.0	5.989014392449705e+17
19007.0	5.987910802560339e+17
19008.0	5.986801620964692e+17
19009.0	5.985692422591827e+17
19010.0	5.984550689701887e+17
19011.0	5.983496326960468e+17
19012.0	5.982382895835817e+17
19013.0	5.981295886030166e+17
19014.0	5.980193842440873e+17
19015.0	5.979091243106301e+17
19016.0	5.977983588237311e+17
19017.0	5.976887767597056e+17
19018.0	5.975786687299583e+17
19019.0	5.974685641954644e+17
19020.0	5.973581628440573e+17
19021.0	5.972476910283433e+17
19022.0	5.971376147354964e+17
19023.0	5.970275343182506e+17
19024.0	5.969173492531199e+17
19025.0	5.968073944552788e+17
19026.0	5.966970869863763e+17
19027.0	5.965865796588884e+17
19028.0	5.964774377870676e+17
19029.0	5.963674905389738e+17
19030.0	5.962575518892031e+17
19031.0	5.961476163851603e+17
19032.0	5.960376951417514e+17
19033.0	5.9592671232e+17
19034.0	5.958177608695808e+17
19035.0	5.957068766139734e+17
19036.0	5.955403993754282e+17
19037.0	5.954875115787603e+17
19038.0	5.953784733761535e+17
19039.0	5.952688079153833e+17
19040.0	5.951590705922047e+17
19041.0	5.950493487879508e+17
19042.0	5.949375944239786e+17
19043.0	5.94829930345267e+17
19044.0	5.947202209841151e+17
19045.0	5.946105600671743e+17
19046.0	5.94500348158498e+17
19047.0	5.943909204448596e+17
19048.0	5.94279395369506e+17
19049.0	5.941691467606698e+17
19050.0	5.940620789721769e+17
19051.0	5.939447634504361e+17
19052.0	5.938411261132799e+17
19053.0	5.937338079248383e+17
19054.0	5.936243953106944e+17
19055.0	5.935118145989289e+17
19056.0	5.934054311810388e+17
19057.0	5.932960626769919e+17
19058.0	5.931854634942464e+17
19059.0	5.930767153277609e+17
19060.0	5.92967637279266e+17
19061.0	5.928585051242495e+17
19062.0	5.927491120136192e+17
19063.0	5.926397969170431e+17
19064.0	5.925293437659818e+17
19065.0	5.924194096600404e+17
19066.0	5.923110146539519e+17
19067.0	5.92202660262707e+17
19068.0	5.920934464585727e+17
19069.0	5.919842508996608e+17
19070.0	5.918749888610304e+17
19071.0	5.917659271004159e+17
19072.0	5.916563022544895e+17
19073.0	5.915476234338303e+17
19074.0	5.914385641198931e+17
19075.0	5.913294974659242e+17
19076.0	5.912202424178006e+17
19077.0	5.911111896749395e+17
19078.0	5.910020792603988e+17
19079.0	5.908933852004351e+17
19080.0	5.90784424452642e+17
19081.0	5.906755626904233e+17
19082.0	5.905661014223529e+17
19083.0	5.904564573525331e+17
19084.0	5.90346207625216e+17
19085.0	5.90239805612578e+17
19086.0	5.901263940790954e+17
19087.0	5.900200633696255e+17
19088.0	5.899116019537236e+17
19089.0	5.898020322628948e+17
19090.0	5.896956034766164e+17
19091.0	5.895866377655636e+17
19092.0	5.89476656194082e+17
19093.0	5.893695563191638e+17
19094.0	5.892609007069865e+17
19095.0	5.891522411801257e+17
19096.0	5.890434398857897e+17
19097.0	5.889349382045695e+17
19098.0	5.8882589210269e+17
19099.0	5.887172174064297e+17
19100.0	5.8860927202973e+17
19101.0	5.88500603904546e+17
19102.0	5.883909136274772e+17
19103.0	5.882836555573929e+17
19104.0	5.8817517205149e+17
19105.0	5.880656374530047e+17
19106.0	5.879580462153727e+17
19107.0	5.878493443959465e+17
19108.0	5.877408216733012e+17
19109.0	5.876298763905705e+17
19110.0	5.875241223979007e+17
19111.0	5.874159814268244e+17
19112.0	5.873076429040298e+17
19113.0	5.871997805046441e+17
19114.0	5.870915989187242e+17
19115.0	5.869829126182228e+17
19116.0	5.868749564062377e+17
19117.0	5.867664444489727e+17
19118.0	5.866568219798186e+17
19119.0	5.864728150671357e+17
19120.0	5.864414162277716e+17
19121.0	5.863336967143423e+17
19122.0	5.862260280918015e+17
19123.0	5.861179561869311e+17
19124.0	5.860098774313641e+17
19125.0	5.859017621853524e+17
19126.0	5.857932514164735e+17
19127.0	5.856664730555732e+17
19128.0	5.855771276694868e+17
19129.0	5.854688420648276e+17
19130.0	5.853618868933972e+17
19131.0	5.852539982097065e+17
19132.0	5.851460784881664e+17
19133.0	5.850380204944041e+17
19134.0	5.849303973101567e+17
19135.0	5.84822546375202e+17
19136.0	5.847146901973674e+17
19137.0	5.846052504600575e+17
19138.0	5.84498940092962e+17
19139.0	5.843913912877055e+17
19140.0	5.842836868737706e+17
19141.0	5.841759759586643e+17
19142.0	5.840682463090004e+17
19143.0	5.839600322172244e+17
19144.0	5.838528079811924e+17
19145.0	5.837453184554324e+17
19146.0	5.836306537338195e+17
19147.0	5.835292321076564e+17
19148.0	5.83422134399795e+17
19149.0	5.833145392474793e+17
19150.0	5.832073798833491e+17
19151.0	5.830999211857236e+17
19152.0	5.829924265568938e+17
19153.0	5.828841566109695e+17
19154.0	5.827761108505942e+17
19155.0	5.82669972939298e+17
19156.0	5.825625461183828e+17
19157.0	5.824545929822207e+17
19158.0	5.823453447148884e+17
19159.0	5.822400646785706e+17
19160.0	5.821330274385919e+17
19161.0	5.820255642670419e+17
19162.0	5.819134494026409e+17
19163.0	5.818103759896576e+17
19164.0	5.817038963823956e+17
19165.0	5.815957736565418e+17
19166.0	5.814880389038079e+17
19167.0	5.813818267533311e+17
19168.0	5.812748829065215e+17
19169.0	5.81167696908561e+17
19170.0	5.810606493226324e+17
19171.0	5.809532999565311e+17
19172.0	5.808464134318761e+17
19173.0	5.807393625604095e+17
19174.0	5.806317706237267e+17
19175.0	5.80525487100177e+17
19176.0	5.804184804786175e+17
19177.0	5.803097034413395e+17
19178.0	5.802042333331455e+17
19179.0	5.800971143042388e+17
19180.0	5.799904509864618e+17
19181.0	5.798820410905939e+17
19182.0	5.797764204767913e+17
19183.0	5.796697697419263e+17
19184.0	5.795628465171113e+17
19185.0	5.794559676121087e+17
19186.0	5.79349156025685e+17
19187.0	5.792422581065044e+17
19188.0	5.791365501812735e+17
19189.0	5.790306038098601e+17
19190.0	5.78923791454481e+17
19191.0	5.788169860197034e+17
19192.0	5.787102898465449e+17
19193.0	5.786035914364244e+17
19194.0	5.78496364613905e+17
19195.0	5.783859245350912e+17
19196.0	5.782789840437248e+17
19197.0	5.781719475727017e+17
19198.0	5.780635632620884e+17
19199.0	5.779251803105961e+17
19200.0	5.778251555973802e+17
19201.0	5.777440679570089e+17
19202.0	5.776390839686484e+17
19203.0	5.775329286509908e+17
19204.0	5.774262821803348e+17
19205.0	5.773200937975808e+17
19206.0	5.772135291158527e+17
19207.0	5.771066303578111e+17
19208.0	5.769986637299711e+17
19209.0	5.768947615225172e+17
19210.0	5.767883479755434e+17
19211.0	5.766819288361641e+17
19212.0	5.765754967643476e+17
19213.0	5.764680834351103e+17
19214.0	5.7636145541939194e+17
19215.0	5.762562666091859e+17
19216.0	5.761500512430762e+17
19217.0	5.760434732793856e+17
19218.0	5.7592896926952096e+17
19219.0	5.758290605987156e+17
19220.0	5.757247331587414e+17
19221.0	5.7561536311678285e+17
19222.0	5.755119059948885e+17
19223.0	5.754054907701929e+17
19224.0	5.7529869847756794e+17
19225.0	5.751911543559508e+17
19226.0	5.7508628438275405e+17
19227.0	5.749801027108863e+17
19228.0	5.748739216681641e+17
19229.0	5.7476773489322643e+17
19230.0	5.746615414074026e+17
19231.0	5.7455545215003296e+17
19232.0	5.7444921574249805e+17
19233.0	5.7434266203586554e+17
19234.0	5.742369375431337e+17
19235.0	5.7413107463837e+17
19236.0	5.740249630812842e+17
19237.0	5.739187116441598e+17
19238.0	5.7381159750860794e+17
19239.0	5.737054470843049e+17
19240.0	5.735991089648981e+17
19241.0	5.7349308744553805e+17
19242.0	5.7338703383975245e+17
19243.0	5.7327920814052685e+17
19244.0	5.731749535416319e+17
19245.0	5.730689386632532e+17
19246.0	5.7296277048306336e+17
19247.0	5.728569010771284e+17
19248.0	5.7275093310504954e+17
19249.0	5.726449160596138e+17
19250.0	5.72538751164962e+17
19251.0	5.724317814532777e+17
19252.0	5.723236230758398e+17
19253.0	5.722208541693268e+17
19254.0	5.7211503341731834e+17
19255.0	5.7200685966076576e+17
19256.0	5.719023047497043e+17
19257.0	5.717959360118782e+17
19258.0	5.7169004731214496e+17
19259.0	5.7158097967950496e+17
19260.0	5.714741428573524e+17
19261.0	5.713694774263806e+17
19262.0	5.7126352063911245e+17
19263.0	5.711569077228885e+17
19264.0	5.7104394379154765e+17
19265.0	5.709404450761385e+17
19266.0	5.7083386550463136e+17
19267.0	5.707309328804522e+17
19268.0	5.706250047542611e+17
19269.0	5.705190372715177e+17
19270.0	5.70412883981107e+17
19271.0	5.703033817486676e+17
19272.0	5.702006184345598e+17
19273.0	5.7009131200621216e+17
19274.0	5.699841041279657e+17
19275.0	5.698832500610387e+17
19276.0	5.69777265521459e+17
19277.0	5.6967126783972685e+17
19278.0	5.6956407114629114e+17
19279.0	5.6945771184564896e+17
19280.0	5.6935092192979616e+17
19281.0	5.692455772312916e+17
19282.0	5.691399213154303e+17
19283.0	5.6903388574515194e+17
19284.0	5.689277539155966e+17
19285.0	5.688205015777279e+17
19286.0	5.68715637895987e+17
19287.0	5.6861095296150163e+17
19288.0	5.6848958602171725e+17
19289.0	5.683616885506046e+17
19290.0	5.6829387224733e+17
19291.0	5.6818511387470496e+17
19292.0	5.6808178453927245e+17
19293.0	5.679754652942335e+17
19294.0	5.6786921210948256e+17
19295.0	5.6776286539175245e+17
19296.0	5.6765589945494176e+17
19297.0	5.675499418288126e+17
19298.0	5.674436645967189e+17
19299.0	5.673369237542228e+17
19300.0	5.6723111740265805e+17
19301.0	5.6712459277653325e+17
19302.0	5.670175828694356e+17
19303.0	5.6690923560850765e+17
19304.0	5.668019817327273e+17
19305.0	5.6669554015382176e+17
19306.0	5.6658916631292576e+17
19307.0	5.664821772375381e+17
19308.0	5.6637543632513696e+17
19309.0	5.6626622895226874e+17
19310.0	5.661576670128809e+17
19311.0	5.6605175936887456e+17
19312.0	5.659452129323689e+17
19313.0	5.658361093685247e+17
19314.0	5.656324506036905e+17
19315.0	5.655352487269718e+17
19316.0	5.655142361027924e+17
19317.0	5.654081032246613e+17
19318.0	5.6530381584029e+17
19319.0	5.651947979800575e+17
19320.0	5.6508665435258874e+17
19321.0	5.649784918507519e+17
19322.0	5.6487031019492685e+17
19323.0	5.6476153008182605e+17
19324.0	5.646494735881556e+17
19325.0	5.645404772586836e+17
19326.0	5.6443291160630605e+17
19327.0	5.6432515175765325e+17
19328.0	5.6421604854333434e+17
19329.0	5.641080047403007e+17
19330.0	5.639956437401599e+17
19331.0	5.638866145553066e+17
19332.0	5.637778380772692e+17
19333.0	5.636685471678463e+17
19334.0	5.635597507668649e+17
19335.0	5.634538888407721e+17
19336.0	5.6334596121995936e+17
19337.0	5.6323580502562125e+17
19338.0	5.63120168833297e+17
19339.0	5.630096146694143e+17
19340.0	5.628973713894058e+17
19341.0	5.6278687671473485e+17
19342.0	5.6267373606338534e+17
19343.0	5.6256644185238176e+17
19344.0	5.6245465805837645e+17
19345.0	5.6232108904939494e+17
19346.0	5.622201168429056e+17
19347.0	5.6211716520454816e+17
19348.0	5.6200743682921805e+17
19349.0	5.6189470162725536e+17
19350.0	5.6178137425947296e+17
19351.0	5.616679189654186e+17
19352.0	5.615501209589077e+17
19353.0	5.614368909688831e+17
19354.0	5.613308401593002e+17
19355.0	5.612158793897301e+17
19356.0	5.6110229658883405e+17
19357.0	5.609866415920468e+17
19358.0	5.608592825297577e+17
19359.0	5.607482632874666e+17
19360.0	5.606414408657577e+17
19361.0	5.6052129894236154e+17
19362.0	5.6039592658206714e+17
19363.0	5.6027895016980474e+17
19364.0	5.6016542594935456e+17
19365.0	5.600506180621652e+17
19366.0	5.599173852266494e+17
19367.0	5.5978411932603725e+17
19368.0	5.596618054522196e+17
19369.0	5.595381265421652e+17
19370.0	5.594140149896532e+17
19371.0	5.592865813386579e+17
19372.0	5.591497019053396e+17
19373.0	5.5901576107130874e+17
19374.0	5.5889241253259936e+17
19375.0	5.587705196270932e+17
19376.0	5.586439085490175e+17
19377.0	5.584806976946175e+17
19378.0	5.583480041766911e+17
19379.0	5.582179296520873e+17
19380.0	5.5807514177262925e+17
19381.0	5.5791352943738874e+17
19382.0	5.5777085186812576e+17
19383.0	5.576367781445632e+17
19384.0	5.574790579836245e+17
19385.0	5.573273909723135e+17
19386.0	5.5718139976308045e+17
19387.0	5.570372521601705e+17
19388.0	5.568885787634345e+17
19389.0	5.5674360872741536e+17
19390.0	5.565958016641706e+17
19391.0	5.563799739651411e+17
19392.0	5.56258677699379e+17
19393.0	5.561164359183017e+17
19394.0	5.5593544408104954e+17
19395.0	5.557664125113685e+17
19396.0	5.555948110916266e+17
19397.0	5.554350871019519e+17
19398.0	5.5525667902586874e+17
19399.0	5.5506051268608e+17
19400.0	5.5490550777774074e+17
19401.0	5.547060226250069e+17
19402.0	5.5455457294854816e+17
19403.0	5.5433332474074445e+17
19404.0	5.5417120706177696e+17
19405.0	5.539765428420606e+17
19406.0	5.5377764524141216e+17
19407.0	5.535477513147732e+17
19408.0	5.533090678046719e+17
19409.0	5.5297153531467085e+17
19410.0	5.527113221625172e+17
19411.0	5.523454398125395e+17
19412.0	5.5200523736842234e+17
19413.0	5.5164530393961805e+17
19414.0	5.5122404726975136e+17
19415.0	5.508305930332842e+17
19416.0	5.504044800584362e+17
19417.0	5.500201912150697e+17
19418.0	5.496701806007637e+17
19419.0	5.492644305524054e+17
19420.0	5.489304964257109e+17
19421.0	5.4850397289840614e+17
19422.0	5.480130014434645e+17
19423.0	5.4755915230522016e+17
19424.0	5.470707509100543e+17
19425.0	5.4658929821832506e+17
19426.0	5.4607254186011315e+17
19427.0	5.4555670398457165e+17
19428.0	5.449639694871212e+17
19429.0	5.4411515238809555e+17
19430.0	5.429238895913646e+17
19431.0	5.415195016254798e+17
19432.0	5.400182355132412e+17
19433.0	5.384298915954684e+17
19434.0	5.368457856024575e+17
19435.0	5.357726729240574e+17
19436.0	5.3454689289284256e+17
19437.0	5.3309405281648614e+17
19438.0	5.313009003353428e+17
19439.0	5.2940020953470285e+17
19440.0	5.271115801471657e+17
19441.0	5.2401531319746605e+17
19442.0	5.196408401428487e+17
19443.0	5.154171248443389e+17
19444.0	5.117539927457788e+17
19445.0	5.073595305470635e+17
19446.0	5.0166564745379834e+17
19447.0	4.940570905892178e+17
19448.0	4.8353582119212384e+17
19449.0	4.674373560565757e+17
19450.0	4.3465250383243744e+17
19451.0	4.115015925060985e+17
19452.0	4.546213863664316e+17
19453.0	4.7639528021688346e+17
19454.0	4.8892447534612474e+17
19455.0	4.975575671592274e+17
19456.0	5.038913717185197e+17
19457.0	5.086689619170646e+17
19458.0	5.1213998056188634e+17
19459.0	5.1600683538841715e+17
19460.0	5.2030318051328115e+17
19461.0	5.239193090741586e+17
19462.0	5.2629449093065363e+17
19463.0	5.2818116192064864e+17
19464.0	5.298357179602262e+17
19465.0	5.312294921000277e+17
19466.0	5.323179154560341e+17
19467.0	5.332468831879167e+17
19468.0	5.3429683624782515e+17
19469.0	5.3583992292638726e+17
19470.0	5.3716000677997184e+17
19471.0	5.383844231730519e+17
19472.0	5.39484862930398e+17
19473.0	5.4030220555277645e+17
19474.0	5.407172833837055e+17
19475.0	5.4110019453801786e+17
19476.0	5.4145988721377286e+17
19477.0	5.4170396998150816e+17
19478.0	5.420028908972713e+17
19479.0	5.422675909061289e+17
19480.0	5.4256497419004576e+17
19481.0	5.427990840912554e+17
19482.0	5.429803608615594e+17
19483.0	5.431442440628906e+17
19484.0	5.4334240947787085e+17
19485.0	5.434622849930579e+17
19486.0	5.436691929453909e+17
19487.0	5.4392042567325005e+17
19488.0	5.441030112062122e+17
19489.0	5.4424183064494074e+17
19490.0	5.444441390536019e+17
19491.0	5.445581683381587e+17
19492.0	5.4468940748117325e+17
19493.0	5.4476529006018554e+17
19494.0	5.448836131935572e+17
19495.0	5.4486897227639456e+17
19496.0	5.449035518661972e+17
19497.0	5.448925475504128e+17
19498.0	5.448578621942442e+17
19499.0	5.4477333662269434e+17
19500.0	5.448429968818175e+17
19501.0	5.448132886265855e+17
19502.0	5.448084226047999e+17
19503.0	5.447582265726292e+17
19504.0	5.4475411000306336e+17
19505.0	5.44721035329536e+17
19506.0	5.446786260926462e+17
19507.0	5.4464808254177274e+17
19508.0	5.446226576495956e+17
19509.0	5.445842792786602e+17
19510.0	5.4453097799352314e+17
19511.0	5.44344334681156e+17
19512.0	5.4444417882958496e+17
19513.0	5.443733468916393e+17
19514.0	5.443296212724393e+17
19515.0	5.4428636115107834e+17
19516.0	5.44232693703202e+17
19517.0	5.441794475731626e+17
19518.0	5.4413026817037645e+17
19519.0	5.440808278818815e+17
19520.0	5.4400968458676896e+17
19521.0	5.439517084702036e+17
19522.0	5.439175513866238e+17
19523.0	5.438458734575615e+17
19524.0	5.4377535972747936e+17
19525.0	5.4371229550073165e+17
19526.0	5.4366415320951456e+17
19527.0	5.435896791476905e+17
19528.0	5.435126650153641e+17
19529.0	5.43431429525777e+17
19530.0	5.4336300386003616e+17
19531.0	5.4329649184549536e+17
19532.0	5.4322186657901216e+17
19533.0	5.431444483954005e+17
19534.0	5.4306370475786214e+17
19535.0	5.4298639192118605e+17
19536.0	5.429085920559102e+17
19537.0	5.428407068961451e+17
19538.0	5.4275686856130554e+17
19539.0	5.4266696791927456e+17
19540.0	5.425878940341588e+17
19541.0	5.425048486324907e+17
19542.0	5.424291865340586e+17
19543.0	5.4233591003654816e+17
19544.0	5.4224577458339834e+17
19545.0	5.421575075528703e+17
19546.0	5.4207274360504314e+17
19547.0	5.419962812334079e+17
19548.0	5.4190832101621754e+17
19549.0	5.418171483815934e+17
19550.0	5.4172376038550176e+17
19551.0	5.4163647971546445e+17
19552.0	5.415529577709567e+17
19553.0	5.414664889084585e+17
19554.0	5.4137770534939296e+17
19555.0	5.412889775745706e+17
19556.0	5.412000328843264e+17
19557.0	5.411108380038483e+17
19558.0	5.4101518012033696e+17
19559.0	5.4092984204219725e+17
19560.0	5.408403825710421e+17
19561.0	5.407498443248979e+17
19562.0	5.406590507854505e+17
19563.0	5.405683969163262e+17
19564.0	5.404774039377236e+17
19565.0	5.403868161288874e+17
19566.0	5.402966206272852e+17
19567.0	5.402054136692734e+17
19568.0	5.401168823975935e+17
19569.0	5.400250028130302e+17
19570.0	5.399281447993343e+17
19571.0	5.3983897767116794e+17
19572.0	5.3974675967617696e+17
19573.0	5.3965418914993485e+17
19574.0	5.395624037974015e+17
19575.0	5.394723640442879e+17
19576.0	5.393795522756607e+17
19577.0	5.3928656092091725e+17
19578.0	5.391932125609983e+17
19579.0	5.3909884183947936e+17
19580.0	5.390048874026325e+17
19581.0	5.3891170017389216e+17
19582.0	5.388187813806078e+17
19583.0	5.387253569639763e+17
19584.0	5.386325205188607e+17
19585.0	5.3854143372765856e+17
19586.0	5.38448360444177e+17
19587.0	5.383574607888383e+17
19588.0	5.3825844704269645e+17
19589.0	5.38166310277393e+17
19590.0	5.38071649100322e+17
19591.0	5.3797852891054074e+17
19592.0	5.378845137960958e+17
19593.0	5.3779045562013e+17
19594.0	5.3769338970876576e+17
19595.0	5.3760183245646496e+17
19596.0	5.375069863804926e+17
19597.0	5.3741322746811725e+17
19598.0	5.373143984111616e+17
19599.0	5.372244516317866e+17
19600.0	5.371300490335572e+17
19601.0	5.370350944649215e+17
19602.0	5.3694210101302605e+17
19603.0	5.368430100916905e+17
19604.0	5.367546957354324e+17
19605.0	5.3665721102281376e+17
19606.0	5.365659080851455e+17
19607.0	5.3647082475137696e+17
19608.0	5.363759946137599e+17
19609.0	5.362810644419925e+17
19610.0	5.36186195087633e+17
19611.0	5.360911969681407e+17
19612.0	5.3599694816105805e+17
19613.0	5.3590210669882016e+17
19614.0	5.358069884824234e+17
19615.0	5.357123016501929e+17
19616.0	5.3561662978566816e+17
19617.0	5.355220025824596e+17
19618.0	5.354207890636799e+17
19619.0	5.3532408407217485e+17
19620.0	5.352301068462762e+17
19621.0	5.35141906854707e+17
19622.0	5.3504773515291296e+17
19623.0	5.349527550689279e+17
19624.0	5.348577460442452e+17
19625.0	5.3476269046278816e+17
19626.0	5.3466691367075834e+17
19627.0	5.3457147347162445e+17
19628.0	5.3447557455544314e+17
19629.0	5.3437786418926925e+17
19630.0	5.342772222143145e+17
19631.0	5.341539343532032e+17
19632.0	5.3409273050999456e+17
19633.0	5.3399853783668045e+17
19634.0	5.339032943504042e+17
19635.0	5.3380819843372365e+17
19636.0	5.337133097156607e+17
19637.0	5.336147811805866e+17
19638.0	5.3352408977244154e+17
19639.0	5.334291012998485e+17
19640.0	5.333332050400596e+17
19641.0	5.3322621624429216e+17
19642.0	5.331438029242367e+17
19643.0	5.3304873175394976e+17
19644.0	5.32953123922466e+17
19645.0	5.3285557098250234e+17
19646.0	5.3276263974611616e+17
19647.0	5.326684066676735e+17
19648.0	5.325733582165332e+17
19649.0	5.32478251115042e+17
19650.0	5.323831958132052e+17
19651.0	5.322886289380692e+17
19652.0	5.321939284044458e+17
19653.0	5.320988505931774e+17
19654.0	5.320038187095381e+17
19655.0	5.319087188781739e+17
19656.0	5.3181366350643194e+17
19657.0	5.317186974733653e+17
19658.0	5.3162365880893434e+17
19659.0	5.3152842462003194e+17
