# Flux units: erg / (cm m2 s)
# Wavelength units: Angstrom
wave	flux
19000.0	6.585459858385577e+17
19001.0	6.584172089617065e+17
19002.0	6.582971858070185e+17
19003.0	6.581725709380265e+17
19004.0	6.580481576053417e+17
19005.0	6.579237754503167e+17
19006.0	6.57799521640994e+17
19007.0	6.57666657554705e+17
19008.0	6.575471856014676e+17
19009.0	6.574254508212223e+17
19010.0	6.572810340838057e+17
19011.0	6.571768432383316e+17
19012.0	6.570425007996927e+17
19013.0	6.569283426101929e+17
19014.0	6.568014006714367e+17
19015.0	6.566784311579988e+17
19016.0	6.565539392520191e+17
19017.0	6.564109225732777e+17
19018.0	6.563065673110868e+17
19019.0	6.561831004230998e+17
19020.0	6.560554561481386e+17
19021.0	6.559331147317247e+17
19022.0	6.558112509766314e+17
19023.0	6.556853807524521e+17
19024.0	6.555623345531561e+17
19025.0	6.554382676699817e+17
19026.0	6.553135495512064e+17
19027.0	6.551870043936084e+17
19028.0	6.550674015081812e+17
19029.0	6.549427502885546e+17
19030.0	6.548201177874431e+17
19031.0	6.546965301734057e+17
19032.0	6.545726205067263e+17
19033.0	6.544448032167252e+17
19034.0	6.543239699322196e+17
19035.0	6.541996249666899e+17
19036.0	6.535721210172751e+17
19037.0	6.539531406103891e+17
19038.0	6.538289825011027e+17
19039.0	6.537061332243795e+17
19040.0	6.535827526691497e+17
19041.0	6.534587666661376e+17
19042.0	6.533314241713492e+17
19043.0	6.532119727002964e+17
19044.0	6.530877470627156e+17
19045.0	6.529645251220819e+17
19046.0	6.528381335459156e+17
19047.0	6.527176563578195e+17
19048.0	6.525847977940308e+17
19049.0	6.524676196357459e+17
19050.0	6.523450940194815e+17
19051.0	6.521651538340521e+17
19052.0	6.520967192204627e+17
19053.0	6.519748202332159e+17
19054.0	6.518537013865129e+17
19055.0	6.517192554883753e+17
19056.0	6.516059235068585e+17
19057.0	6.514834271808169e+17
19058.0	6.513575933771775e+17
19059.0	6.512372693510825e+17
19060.0	6.511131413009748e+17
19061.0	6.509910549681492e+17
19062.0	6.508676202364927e+17
19063.0	6.507447165037225e+17
19064.0	6.506158014245546e+17
19065.0	6.504901547567785e+17
19066.0	6.503725213067946e+17
19067.0	6.502517909924521e+17
19068.0	6.501293849138516e+17
19069.0	6.500063763234813e+17
19070.0	6.498819169932628e+17
19071.0	6.497599322324991e+17
19072.0	6.496375404145321e+17
19073.0	6.495142491280723e+17
19074.0	6.493918103339005e+17
19075.0	6.492689493830314e+17
19076.0	6.491450877411327e+17
19077.0	6.490229505873236e+17
19078.0	6.48895467163921e+17
19079.0	6.487775596161704e+17
19080.0	6.486543774515199e+17
19081.0	6.485300263343444e+17
19082.0	6.484055747635881e+17
19083.0	6.482816261597866e+17
19084.0	6.481530443180713e+17
19085.0	6.480410177437695e+17
19086.0	6.479009820267859e+17
19087.0	6.477848137869993e+17
19088.0	6.476706079921491e+17
19089.0	6.475368864503123e+17
19090.0	6.474274425886036e+17
19091.0	6.473049801665193e+17
19092.0	6.471784645088595e+17
19093.0	6.470616089624575e+17
19094.0	6.469374316292777e+17
19095.0	6.468146788215465e+17
19096.0	6.466916301056682e+17
19097.0	6.465718786020692e+17
19098.0	6.464496128928426e+17
19099.0	6.463267908091901e+17
19100.0	6.462042912675156e+17
19101.0	6.460827999666176e+17
19102.0	6.459570034223785e+17
19103.0	6.45838372217378e+17
19104.0	6.457165604716543e+17
19105.0	6.455942712044202e+17
19106.0	6.454700914944682e+17
19107.0	6.45349353071138e+17
19108.0	6.452281461440511e+17
19109.0	6.450514104068776e+17
19110.0	6.449839083967827e+17
19111.0	6.448619408326653e+17
19112.0	6.447401669754877e+17
19113.0	6.446181645287423e+17
19114.0	6.444961029423103e+17
19115.0	6.44371596705792e+17
19116.0	6.442515058130943e+17
19117.0	6.441298332483583e+17
19118.0	6.440026543314259e+17
19119.0	6.437851491904169e+17
19120.0	6.437615370764287e+17
19121.0	6.4364165988352e+17
19122.0	6.435218718195711e+17
19123.0	6.433984881885183e+17
19124.0	6.432761803964415e+17
19125.0	6.431558133088255e+17
19126.0	6.430313152511999e+17
19127.0	6.428413143984808e+17
19128.0	6.427396930535423e+17
19129.0	6.42666219053602e+17
19130.0	6.425483100378452e+17
19131.0	6.424255152171689e+17
19132.0	6.423057772052479e+17
19133.0	6.421447648651948e+17
19134.0	6.420372088597164e+17
19135.0	6.419413220371114e+17
19136.0	6.418203092363946e+17
19137.0	6.416919067710804e+17
19138.0	6.415655983120383e+17
19139.0	6.414561957642239e+17
19140.0	6.413350076415999e+17
19141.0	6.412137641541631e+17
19142.0	6.410912221102079e+17
19143.0	6.409684307148797e+17
19144.0	6.408463622078463e+17
19145.0	6.407269233896106e+17
19146.0	6.405788590058154e+17
19147.0	6.404812122532522e+17
19148.0	6.403635040747517e+17
19149.0	6.402423744626687e+17
19150.0	6.401207063019519e+17
19151.0	6.40000561652258e+17
19152.0	6.398769474742953e+17
19153.0	6.397578673389567e+17
19154.0	6.396323323095721e+17
19155.0	6.395168037011455e+17
19156.0	6.39395919176226e+17
19157.0	6.392744903005524e+17
19158.0	6.391159094684329e+17
19159.0	6.390324974845951e+17
19160.0	6.389088765957459e+17
19161.0	6.387861641931433e+17
19162.0	6.38586481278976e+17
19163.0	6.38549824180497e+17
19164.0	6.384295743236777e+17
19165.0	6.383074758273705e+17
19166.0	6.381826992679593e+17
19167.0	6.380595795984383e+17
19168.0	6.3793730172573e+17
19169.0	6.378207081136127e+17
19170.0	6.377056000540672e+17
19171.0	6.375813844828159e+17
19172.0	6.374641041932287e+17
19173.0	6.373438737001129e+17
19174.0	6.372209678701908e+17
19175.0	6.371029960796842e+17
19176.0	6.369822774394879e+17
19177.0	6.368555762537812e+17
19178.0	6.367409936007167e+17
19179.0	6.366161365805738e+17
19180.0	6.364799390012756e+17
19181.0	6.363760567167657e+17
19182.0	6.362490921287679e+17
19183.0	6.361375422371156e+17
19184.0	6.360103200489471e+17
19185.0	6.358983208075263e+17
19186.0	6.357789964238847e+17
19187.0	6.356549740003327e+17
19188.0	6.355379065017684e+17
19189.0	6.354161476741802e+17
19190.0	6.352955432588628e+17
19191.0	6.351756683728211e+17
19192.0	6.350559572743507e+17
19193.0	6.349148130028201e+17
19194.0	6.348072296644607e+17
19195.0	6.346952360154452e+17
19196.0	6.345767621667497e+17
19197.0	6.344570593869823e+17
19198.0	6.343371458434388e+17
19199.0	6.337083350887081e+17
19200.0	6.337769654364844e+17
19201.0	6.339773260802729e+17
19202.0	6.33857743327505e+17
19203.0	6.33736891797777e+17
19204.0	6.336167346350761e+17
19205.0	6.33497593123089e+17
19206.0	6.333774325350399e+17
19207.0	6.332546798671187e+17
19208.0	6.331286998220799e+17
19209.0	6.330175944567466e+17
19210.0	6.32898177868322e+17
19211.0	6.327783366765226e+17
19212.0	6.326594218666665e+17
19213.0	6.325316811926185e+17
19214.0	6.324095733989375e+17
19215.0	6.322986181896872e+17
19216.0	6.321760260937043e+17
19217.0	6.320605608891732e+17
19218.0	6.319060441978195e+17
19219.0	6.3181436237469e+17
19220.0	6.317006057198931e+17
19221.0	6.315674687242239e+17
19222.0	6.314629641448105e+17
19223.0	6.313421270854313e+17
19224.0	6.31214393331985e+17
19225.0	6.310956838333097e+17
19226.0	6.309833196175359e+17
19227.0	6.308637430164137e+17
19228.0	6.307457227117908e+17
19229.0	6.306262043415892e+17
19230.0	6.305036997667497e+17
19231.0	6.303840368328704e+17
19232.0	6.302610988466175e+17
19233.0	6.30144928649489e+17
19234.0	6.300275527996756e+17
19235.0	6.299076192632831e+17
19236.0	6.297899524685823e+17
19237.0	6.296697439256575e+17
19238.0	6.29546595525154e+17
19239.0	6.294319489089535e+17
19240.0	6.292940301970089e+17
19241.0	6.291871921165652e+17
19242.0	6.290713782255615e+17
19243.0	6.289457968491177e+17
19244.0	6.28834695258658e+17
19245.0	6.287154044993535e+17
19246.0	6.285957066828458e+17
19247.0	6.284758907966803e+17
19248.0	6.283578205798399e+17
19249.0	6.282383819713193e+17
19250.0	6.281183617526442e+17
19251.0	6.279959609868287e+17
19252.0	6.278636599858516e+17
19253.0	6.277604467627348e+17
19254.0	6.276393785273001e+17
19255.0	6.275133882761215e+17
19256.0	6.274014251057151e+17
19257.0	6.272840874240681e+17
19258.0	6.271646400075092e+17
19259.0	6.270421617169748e+17
19260.0	6.269208976075434e+17
19261.0	6.268066325331965e+17
19262.0	6.266852410567338e+17
19263.0	6.26566562456098e+17
19264.0	6.264266585800704e+17
19265.0	6.26322020831505e+17
19266.0	6.262051169107967e+17
19267.0	6.260915896145236e+17
19268.0	6.259717626833578e+17
19269.0	6.258528136899242e+17
19270.0	6.257332787522218e+17
19271.0	6.256000673076564e+17
19272.0	6.254934062268415e+17
19273.0	6.249014687869603e+17
19274.0	6.2503213624634e+17
19275.0	6.251370215287466e+17
19276.0	6.250167800605353e+17
19277.0	6.248974305110698e+17
19278.0	6.247782021769898e+17
19279.0	6.246540543437482e+17
19280.0	6.245357172992682e+17
19281.0	6.244197099809449e+17
19282.0	6.243009109338793e+17
19283.0	6.241730971391316e+17
19284.0	6.240423680933887e+17
19285.0	6.239319491259049e+17
19286.0	6.238213361718612e+17
19287.0	6.237032553993558e+17
19288.0	6.234714372658516e+17
19289.0	6.231105180357965e+17
19290.0	6.233443152516435e+17
19291.0	6.232119084143956e+17
19292.0	6.231039081622185e+17
19293.0	6.229837635125247e+17
19294.0	6.228637440628052e+17
19295.0	6.227444288367274e+17
19296.0	6.226242171480746e+17
19297.0	6.225032760699561e+17
19298.0	6.223831044369065e+17
19299.0	6.222645251014655e+17
19300.0	6.221443301201236e+17
19301.0	6.22023623643409e+17
19302.0	6.219033330319359e+17
19303.0	6.21778655388194e+17
19304.0	6.216597927974227e+17
19305.0	6.215419852139178e+17
19306.0	6.214214928564223e+17
19307.0	6.212986221188435e+17
19308.0	6.211794961257812e+17
19309.0	6.210453746570579e+17
19310.0	6.209149605336403e+17
19311.0	6.208162728946345e+17
19312.0	6.206958788935679e+17
19313.0	6.205618801082368e+17
19314.0	6.203060780356945e+17
19315.0	6.201961844746925e+17
19316.0	6.202128443899903e+17
19317.0	6.200916195672063e+17
19318.0	6.199698857656317e+17
19319.0	6.198490195558399e+17
19320.0	6.197237625389055e+17
19321.0	6.196054481436671e+17
19322.0	6.194757028020224e+17
19323.0	6.193526393361748e+17
19324.0	6.192387395857065e+17
19325.0	6.191065323274239e+17
19326.0	6.189941446235475e+17
19327.0	6.188707955255978e+17
19328.0	6.187487080043859e+17
19329.0	6.186256713121791e+17
19330.0	6.185005999631017e+17
19331.0	6.18377100848879e+17
19332.0	6.182551575418196e+17
19333.0	6.181306160731475e+17
19334.0	6.180028893102077e+17
19335.0	6.178834144209577e+17
19336.0	6.177586406577491e+17
19337.0	6.17633714082065e+17
19338.0	6.17500008129058e+17
19339.0	6.173837882294271e+17
19340.0	6.172560766358868e+17
19341.0	6.17132488392704e+17
19342.0	6.169868460796585e+17
19343.0	6.168802467250173e+17
19344.0	6.167530320166911e+17
19345.0	6.165354889871356e+17
19346.0	6.164765145563136e+17
19347.0	6.163683512855209e+17
19348.0	6.162433518687572e+17
19349.0	6.161132040836436e+17
19350.0	6.159846318189226e+17
19351.0	6.158547463176191e+17
19352.0	6.157236565617321e+17
19353.0	6.155967786560169e+17
19354.0	6.154656821193385e+17
19355.0	6.153298945332566e+17
19356.0	6.152008902552233e+17
19357.0	6.150679573823487e+17
19358.0	6.149303955357695e+17
19359.0	6.147750591376042e+17
19360.0	6.146644667356499e+17
19361.0	6.145283586348371e+17
19362.0	6.143958119175508e+17
19363.0	6.142590828500307e+17
19364.0	6.141211188396031e+17
19365.0	6.13983118828066e+17
19366.0	6.138444741520042e+17
19367.0	6.137044596861609e+17
19368.0	6.135634508207443e+17
19369.0	6.134122695098368e+17
19370.0	6.132167527978324e+17
19371.0	6.131275833627988e+17
19372.0	6.129845227836756e+17
19373.0	6.12833767264529e+17
19374.0	6.126849417543679e+17
19375.0	6.125353398785363e+17
19376.0	6.123839123619837e+17
19377.0	6.122310030677332e+17
19378.0	6.120763921443497e+17
19379.0	6.119190420608339e+17
19380.0	6.117612264794793e+17
19381.0	6.116006361563136e+17
19382.0	6.114343810061652e+17
19383.0	6.11266993324032e+17
19384.0	6.111050867583657e+17
19385.0	6.109352483444052e+17
19386.0	6.107629276714324e+17
19387.0	6.105873387967828e+17
19388.0	6.104089317692756e+17
19389.0	6.102261990861481e+17
19390.0	6.100393729720319e+17
19391.0	6.093985317650424e+17
19392.0	6.096564705558527e+17
19393.0	6.094598742999039e+17
19394.0	6.092557851994793e+17
19395.0	6.090467522729302e+17
19396.0	6.088332092112895e+17
19397.0	6.08613573992994e+17
19398.0	6.083862015421098e+17
19399.0	6.081258213867519e+17
19400.0	6.079136111351124e+17
19401.0	6.076668915482623e+17
19402.0	6.074133369236137e+17
19403.0	6.07149875073297e+17
19404.0	6.068784740346537e+17
19405.0	6.065931806223018e+17
19406.0	6.062946309024426e+17
19407.0	6.059855671110314e+17
19408.0	6.056347939023532e+17
19409.0	6.053231394291711e+17
19410.0	6.049801930014717e+17
19411.0	6.046102688104447e+17
19412.0	6.042159868280831e+17
19413.0	6.038038320076116e+17
19414.0	6.033714969225898e+17
19415.0	6.029098528101715e+17
19416.0	6.024180961815209e+17
19417.0	6.019071950716927e+17
19418.0	6.013624861939028e+17
19419.0	6.007805310577321e+17
19420.0	6.001596007710719e+17
19421.0	5.994893050642432e+17
19422.0	5.987762391307604e+17
19423.0	5.980128650373802e+17
19424.0	5.971863419224063e+17
19425.0	5.962734548025344e+17
19426.0	5.952926583357437e+17
19427.0	5.942009606264148e+17
19428.0	5.930316429175465e+17
19429.0	5.91777242493747e+17
19430.0	5.904725146162516e+17
19431.0	5.889692157345793e+17
19432.0	5.874748526078633e+17
19433.0	5.857397675393025e+17
19434.0	5.837662345407146e+17
19435.0	5.814875764118867e+17
19436.0	5.788364448639657e+17
19437.0	5.7628188681611936e+17
19438.0	5.7302953751128723e+17
19439.0	5.706190786920448e+17
19440.0	5.671708804863317e+17
19441.0	5.631169423649446e+17
19442.0	5.5819814714736634e+17
19443.0	5.532102409846782e+17
19444.0	5.4790980548689894e+17
19445.0	5.415441382681258e+17
19446.0	5.336902968279039e+17
19447.0	5.253668504163665e+17
19448.0	5.149754259756377e+17
19449.0	5.0078158170357754e+17
19450.0	4.6837545143282157e+17
19451.0	4.5622253787108646e+17
19452.0	4.8690470238289965e+17
19453.0	5.08805784237944e+17
19454.0	5.200320944668669e+17
19455.0	5.290391692989781e+17
19456.0	5.3691056606849754e+17
19457.0	5.4382555436154835e+17
19458.0	5.491601885364227e+17
19459.0	5.541389584564225e+17
19460.0	5.590570486814033e+17
19461.0	5.632770255268525e+17
19462.0	5.667817164636161e+17
19463.0	5.697469602769576e+17
19464.0	5.7234388624779936e+17
19465.0	5.746803432139434e+17
19466.0	5.771211255928148e+17
19467.0	5.793441717944319e+17
19468.0	5.812207418518186e+17
19469.0	5.827682687604052e+17
19470.0	5.84267016123187e+17
19471.0	5.85535486759185e+17
19472.0	5.866607086316202e+17
19473.0	5.876794715886932e+17
19474.0	5.886777044762623e+17
19475.0	5.895541326785193e+17
19476.0	5.903703801681235e+17
19477.0	5.910869523300351e+17
19478.0	5.917231739305983e+17
19479.0	5.92282796565026e+17
19480.0	5.927877900675754e+17
19481.0	5.932516131908265e+17
19482.0	5.93659823268386e+17
19483.0	5.940349625171968e+17
19484.0	5.943649697966762e+17
19485.0	5.946668068022954e+17
19486.0	5.949324872297129e+17
19487.0	5.951762203323048e+17
19488.0	5.953904095963818e+17
19489.0	5.955818701367976e+17
19490.0	5.956948460918099e+17
19491.0	5.959061364626772e+17
19492.0	5.960375211480404e+17
19493.0	5.96148570239795e+17
19494.0	5.962488471704916e+17
19495.0	5.963259069508265e+17
19496.0	5.963878242451455e+17
19497.0	5.964686336633514e+17
19498.0	5.96501104357103e+17
19499.0	5.958000448285344e+17
19500.0	5.965881398001663e+17
19501.0	5.966081763398995e+17
19502.0	5.966237081272319e+17
19503.0	5.966311976861695e+17
19504.0	5.966280307769343e+17
19505.0	5.966238723342335e+17
19506.0	5.966165994110976e+17
19507.0	5.965996609241087e+17
19508.0	5.965776104893097e+17
19509.0	5.965506462176596e+17
19510.0	5.965121002143744e+17
19511.0	5.959887953592315e+17
19512.0	5.963564413441361e+17
19513.0	5.961863649733285e+17
19514.0	5.96216381789525e+17
19515.0	5.962745494459734e+17
19516.0	5.962489836950868e+17
19517.0	5.961907861192701e+17
19518.0	5.961351095298729e+17
19519.0	5.960736320083284e+17
19520.0	5.96009009877265e+17
19521.0	5.959447590819156e+17
19522.0	5.958749279748095e+17
19523.0	5.958086755876863e+17
19524.0	5.9573817325213e+17
19525.0	5.956615061285545e+17
19526.0	5.955895961146708e+17
19527.0	5.955131138899967e+17
19528.0	5.954357313579689e+17
19529.0	5.953565440868352e+17
19530.0	5.952765427012948e+17
19531.0	5.951960457587369e+17
19532.0	5.951133801512959e+17
19533.0	5.950301332832255e+17
19534.0	5.949451285823487e+17
19535.0	5.948581845052074e+17
19536.0	5.947707009007615e+17
19537.0	5.946845699593556e+17
19538.0	5.945947144759978e+17
19539.0	5.944822029003436e+17
19540.0	5.944153349991081e+17
19541.0	5.943256824501588e+17
19542.0	5.942338181049002e+17
19543.0	5.941433489948671e+17
19544.0	5.940550558897492e+17
19545.0	5.939483396538367e+17
19546.0	5.938279262890666e+17
19547.0	5.937722980739754e+17
19548.0	5.936789525102591e+17
19549.0	5.935785579992404e+17
19550.0	5.934874679225001e+17
19551.0	5.933911008520873e+17
19552.0	5.932941157509801e+17
19553.0	5.931960057375401e+17
19554.0	5.930972026153641e+17
19555.0	5.930003345353386e+17
19556.0	5.929025035829245e+17
19557.0	5.928033863772841e+17
19558.0	5.927043155187027e+17
19559.0	5.926030240557738e+17
19560.0	5.925039750075731e+17
19561.0	5.924038673170431e+17
19562.0	5.923044696522751e+17
19563.0	5.922034603961001e+17
19564.0	5.921033487209812e+17
19565.0	5.920019528897876e+17
19566.0	5.918997825104554e+17
19567.0	5.917989035573247e+17
19568.0	5.916964090981033e+17
19569.0	5.915947989379754e+17
19570.0	5.914936629439146e+17
19571.0	5.913913528942592e+17
19572.0	5.912871528213161e+17
19573.0	5.911855609763156e+17
19574.0	5.91078539604787e+17
19575.0	5.909798374954324e+17
19576.0	5.908768372730537e+17
19577.0	5.907661274305875e+17
19578.0	5.906695988794708e+17
19579.0	5.90566988587554e+17
19580.0	5.904634979112275e+17
19581.0	5.903600990202538e+17
19582.0	5.902568999878655e+17
19583.0	5.901528248352767e+17
19584.0	5.900484147675135e+17
19585.0	5.899392062062591e+17
19586.0	5.898301241731754e+17
19587.0	5.897279396031145e+17
19588.0	5.896094977010346e+17
19589.0	5.895180376167764e+17
19590.0	5.894184008067754e+17
19591.0	5.893170915180543e+17
19592.0	5.89212369883409e+17
19593.0	5.891061773063508e+17
19594.0	5.889903174877181e+17
19595.0	5.8889621471232e+17
19596.0	5.886676315056812e+17
19597.0	5.88685771940386e+17
19598.0	5.885703193187668e+17
19599.0	5.884758976364543e+17
19600.0	5.883707257432746e+17
19601.0	5.882624182583295e+17
19602.0	5.881580467781631e+17
19603.0	5.880299137269759e+17
19604.0	5.87946130547234e+17
19605.0	5.87829305549346e+17
19606.0	5.877356377232724e+17
19607.0	5.876313402725716e+17
19608.0	5.875248785610068e+17
19609.0	5.874170096604499e+17
19610.0	5.873138600509437e+17
19611.0	5.872075769468244e+17
19612.0	5.871021050210986e+17
19613.0	5.869952816207188e+17
19614.0	5.868882174672895e+17
19615.0	5.867840838740649e+17
19616.0	5.86674248753698e+17
19617.0	5.86571673833745e+17
19618.0	5.864449357381631e+17
19619.0	5.863306989753684e+17
19620.0	5.862265755882835e+17
19621.0	5.861471545546068e+17
19622.0	5.860411475755007e+17
19623.0	5.859350641202515e+17
19624.0	5.858284052064937e+17
19625.0	5.857224811347967e+17
19626.0	5.856158656320852e+17
19627.0	5.855101204474538e+17
19628.0	5.85392270012143e+17
19629.0	5.852937397993471e+17
19630.0	5.851849759042218e+17
19631.0	5.845537083359228e+17
19632.0	5.849782469088595e+17
19633.0	5.848701258607274e+17
19634.0	5.847658989442388e+17
19635.0	5.846577719541759e+17
19636.0	5.845528240368297e+17
19637.0	5.844286607545684e+17
19638.0	5.843401377316863e+17
19639.0	5.842333034261161e+17
19640.0	5.841250469718697e+17
19641.0	5.839975257997312e+17
19642.0	5.839145324074324e+17
19643.0	5.838065775935487e+17
19644.0	5.83699368387106e+17
19645.0	5.835846014642857e+17
19646.0	5.83489393140258e+17
19647.0	5.833830411796479e+17
19648.0	5.832764765678249e+17
19649.0	5.831699926963542e+17
19650.0	5.830639970418685e+17
19651.0	5.829573250558633e+17
19652.0	5.828509166818644e+17
19653.0	5.827447064887295e+17
19654.0	5.826381974514346e+17
19655.0	5.825316376630612e+17
19656.0	5.824255463784447e+17
19657.0	5.823192927742633e+17
19658.0	5.82213103133218e+17
19659.0	5.821069095075839e+17
19660.0	5.820008121412268e+17
19661.0	5.818943993632084e+17
19662.0	5.817882587955199e+17
19663.0	5.816799483046569e+17
19664.0	5.815731678958931e+17
19665.0	5.8146949169152e+17
