# Flux units: erg / (cm m2 s)
# Wavelength units: Angstrom
wave	flux
19000.0	6.593094591971327e+17
19001.0	6.591391987662847e+17
19002.0	6.590654659078826e+17
19003.0	6.589402938955091e+17
19004.0	6.588167083087188e+17
19005.0	6.586924566664531e+17
19006.0	6.585704418465108e+17
19007.0	6.58422808846882e+17
19008.0	6.582940994983252e+17
19009.0	6.581493855245652e+17
19010.0	6.578583053008892e+17
19011.0	6.579362475627859e+17
19012.0	6.577448483990185e+17
19013.0	6.577067678236671e+17
19014.0	6.575553541483177e+17
19015.0	6.574435122632022e+17
19016.0	6.573139434318506e+17
19017.0	6.57200573911313e+17
19018.0	6.570838936169129e+17
19019.0	6.569630231429119e+17
19020.0	6.568301368967167e+17
19021.0	6.567176714584064e+17
19022.0	6.565980650078208e+17
19023.0	6.564573645635583e+17
19024.0	6.563436997640191e+17
19025.0	6.562238039763625e+17
19026.0	6.56090444472866e+17
19027.0	6.559328070795263e+17
19028.0	6.558606396751871e+17
19029.0	6.557293198617257e+17
19030.0	6.556197091366227e+17
19031.0	6.554997228918102e+17
19032.0	6.553748194547027e+17
19033.0	6.552056866624852e+17
19034.0	6.551215797523796e+17
19035.0	6.549858893343401e+17
19036.0	6.509512273952768e+17
19037.0	6.547540227566249e+17
19038.0	6.546261104656383e+17
19039.0	6.545130340570452e+17
19040.0	6.543921384871252e+17
19041.0	6.5426540213917e+17
19042.0	6.541013627000148e+17
19043.0	6.540230496616447e+17
19044.0	6.538954764801363e+17
19045.0	6.537768480713386e+17
19046.0	6.5362405635741e+17
19047.0	6.535210099976874e+17
19048.0	6.533073659232253e+17
19049.0	6.532502856400895e+17
19050.0	6.531393053349204e+17
19051.0	6.524503449053859e+17
19052.0	6.527918987542527e+17
19053.0	6.527889097534121e+17
19054.0	6.526675430233427e+17
19055.0	6.524221205250049e+17
19056.0	6.524140260076202e+17
19057.0	6.522996006409556e+17
19058.0	6.521685483541843e+17
19059.0	6.520567814073002e+17
19060.0	6.519251955351551e+17
19061.0	6.518142282323284e+17
19062.0	6.516886760762025e+17
19063.0	6.515674421657597e+17
19064.0	6.5137934349981e+17
19065.0	6.512348880349866e+17
19066.0	6.511712435961855e+17
19067.0	6.510699866663593e+17
19068.0	6.50953723285777e+17
19069.0	6.508324227558057e+17
19070.0	6.506956836219561e+17
19071.0	6.505840597707434e+17
19072.0	6.504641769155242e+17
19073.0	6.503392403434152e+17
19074.0	6.502213168573097e+17
19075.0	6.500988620548778e+17
19076.0	6.499662511647402e+17
19077.0	6.498465272037375e+17
19078.0	6.49709163258402e+17
19079.0	6.496063633839444e+17
19080.0	6.494767765869908e+17
19081.0	6.493430080689491e+17
19082.0	6.492184498929663e+17
19083.0	6.490633283829759e+17
19084.0	6.488797852205056e+17
19085.0	6.488670571855871e+17
19086.0	6.48563278287121e+17
19087.0	6.485045690062166e+17
19088.0	6.484624226822826e+17
19089.0	6.482357680865279e+17
19090.0	6.482468468512083e+17
19091.0	6.481238435736234e+17
19092.0	6.479633253225812e+17
19093.0	6.478935464345599e+17
19094.0	6.477712433960276e+17
19095.0	6.476508390490111e+17
19096.0	6.475203419482793e+17
19097.0	6.474053126018388e+17
19098.0	6.472823170837162e+17
19099.0	6.471592955609087e+17
19100.0	6.470318552689322e+17
19101.0	6.46914194416162e+17
19102.0	6.467470495842301e+17
19103.0	6.466709324038143e+17
19104.0	6.465524010931539e+17
19105.0	6.464267738589865e+17
19106.0	6.462854319658323e+17
19107.0	6.46175930921779e+17
19108.0	6.460632526924457e+17
19109.0	6.45598934501512e+17
19110.0	6.458076075567785e+17
19111.0	6.456965089722368e+17
19112.0	6.455756416439635e+17
19113.0	6.454531262338388e+17
19114.0	6.453292237673811e+17
19115.0	6.451798316766548e+17
19116.0	6.450769670701055e+17
19117.0	6.449526441945769e+17
19118.0	6.447860061743788e+17
19119.0	6.428221083309373e+17
19120.0	6.445608231501823e+17
19121.0	6.444536809127935e+17
19122.0	6.44357389759283e+17
19123.0	6.442334967300096e+17
19124.0	6.44093819556113e+17
19125.0	6.439860859218601e+17
19126.0	6.438660170492585e+17
19127.0	6.42889028800785e+17
19128.0	6.434491472718504e+17
19129.0	6.434648501168809e+17
19130.0	6.433712694624255e+17
19131.0	6.432541181476864e+17
19132.0	6.431370247143423e+17
19133.0	6.428835972470102e+17
19134.0	6.428170781720576e+17
19135.0	6.427706735110826e+17
19136.0	6.426533277903529e+17
19137.0	6.424520866922495e+17
19138.0	6.423936540955988e+17
19139.0	6.422872400592895e+17
19140.0	6.421670978562729e+17
19141.0	6.42045324698146e+17
19142.0	6.419098678329344e+17
19143.0	6.417737907699711e+17
19144.0	6.416594582372352e+17
19145.0	6.415556412440576e+17
19146.0	6.41146837322957e+17
19147.0	6.41261501415424e+17
19148.0	6.411910475240788e+17
19149.0	6.410681902082729e+17
19150.0	6.409461694464e+17
19151.0	6.40827358585378e+17
19152.0	6.407010965433001e+17
19153.0	6.40577022459904e+17
19154.0	6.404021202627241e+17
19155.0	6.403436499173375e+17
19156.0	6.402212476835156e+17
19157.0	6.400937848821078e+17
19158.0	6.397390584020988e+17
19159.0	6.398490207496874e+17
19160.0	6.397256498413567e+17
19161.0	6.395992220543658e+17
19162.0	6.389610438808922e+17
19163.0	6.393540060555946e+17
19164.0	6.392523115200511e+17
19165.0	6.3911614232221e+17
19166.0	6.38942631235857e+17
19167.0	6.388375415510356e+17
19168.0	6.387414299836413e+17
19169.0	6.386210101177001e+17
19170.0	6.385241692307455e+17
19171.0	6.383691600581972e+17
19172.0	6.382774050444628e+17
19173.0	6.381428238101161e+17
19174.0	6.379640889278464e+17
19175.0	6.378722740753748e+17
19176.0	6.377494456303615e+17
19177.0	6.375552167094953e+17
19178.0	6.374955785999702e+17
19179.0	6.373430185514324e+17
19180.0	6.372468723111251e+17
19181.0	6.370931847637673e+17
19182.0	6.370056752245417e+17
19183.0	6.369006701947562e+17
19184.0	6.367583402633898e+17
19185.0	6.366533992666452e+17
19186.0	6.365389967589376e+17
19187.0	6.363800612285097e+17
19188.0	6.362935496540159e+17
19189.0	6.361687564571988e+17
19190.0	6.360462381809663e+17
19191.0	6.359144423140009e+17
19192.0	6.358118121690451e+17
19193.0	6.356818142603946e+17
19194.0	6.35558591131375e+17
19195.0	6.354466525675519e+17
19196.0	6.353189922843305e+17
19197.0	6.352006363654825e+17
19198.0	6.350766040853162e+17
19199.0	6.319311926853623e+17
19200.0	6.327085338110644e+17
19201.0	6.347155479811412e+17
19202.0	6.346007310761983e+17
19203.0	6.344732183625727e+17
19204.0	6.343455565414399e+17
19205.0	6.342322500053674e+17
19206.0	6.341067390932308e+17
19207.0	6.339390756356095e+17
19208.0	6.337765820071935e+17
19209.0	6.337463726025385e+17
19210.0	6.33627410047522e+17
19211.0	6.335127637109417e+17
19212.0	6.333906538201087e+17
19213.0	6.3320838125213e+17
19214.0	6.330591979678378e+17
19215.0	6.330160378806271e+17
19216.0	6.329043273471315e+17
19217.0	6.327824450671956e+17
19218.0	6.322576355054926e+17
19219.0	6.324675990082899e+17
19220.0	6.324087808152916e+17
19221.0	6.321399966728192e+17
19222.0	6.32173727125777e+17
19223.0	6.32046584209954e+17
19224.0	6.319098466839209e+17
19225.0	6.317393276043263e+17
19226.0	6.316820665466879e+17
19227.0	6.31560635294242e+17
19228.0	6.314506849004202e+17
19229.0	6.313295954837504e+17
19230.0	6.311979932538195e+17
19231.0	6.310768658786985e+17
19232.0	6.309577424721236e+17
19233.0	6.308089909215232e+17
19234.0	6.307104401566378e+17
19235.0	6.305838992632489e+17
19236.0	6.304805257478143e+17
19237.0	6.303497806239059e+17
19238.0	6.301897385661779e+17
19239.0	6.301164973501097e+17
19240.0	6.299497252519933e+17
19241.0	6.298471231389695e+17
19242.0	6.297403509790036e+17
19243.0	6.295451865885353e+17
19244.0	6.295083529797631e+17
19245.0	6.29384295813393e+17
19246.0	6.292557664703828e+17
19247.0	6.291370621446825e+17
19248.0	6.290208480471722e+17
19249.0	6.288966152792746e+17
19250.0	6.287676300154196e+17
19251.0	6.285852046349652e+17
19252.0	6.283996091995476e+17
19253.0	6.283991456590506e+17
19254.0	6.282822686517929e+17
19255.0	6.280806612511401e+17
19256.0	6.280166824564051e+17
19257.0	6.279206217798996e+17
19258.0	6.27799315587618e+17
19259.0	6.276432660179625e+17
19260.0	6.274760153497597e+17
19261.0	6.274247829050708e+17
19262.0	6.272808953490089e+17
19263.0	6.27154367947298e+17
19264.0	6.268005159796731e+17
19265.0	6.268449414184959e+17
19266.0	6.267302902584662e+17
19267.0	6.266963737881257e+17
19268.0	6.265697555098281e+17
19269.0	6.264465112694783e+17
19270.0	6.263243397223764e+17
19271.0	6.260363033750189e+17
19272.0	6.260608799692115e+17
19273.0	6.246637965934579e+17
19274.0	6.250506094291615e+17
19275.0	6.257093397621418e+17
19276.0	6.255759994825386e+17
19277.0	6.254531251798015e+17
19278.0	6.253310141005823e+17
19279.0	6.251914870128639e+17
19280.0	6.250405840639316e+17
19281.0	6.249558120770218e+17
19282.0	6.248402350243839e+17
19283.0	6.246648707547136e+17
19284.0	6.245236562285908e+17
19285.0	6.243663552883369e+17
19286.0	6.243236947427327e+17
19287.0	6.242169986394793e+17
19288.0	6.229032669893957e+17
19289.0	6.215157274727731e+17
19290.0	6.238424314238294e+17
19291.0	6.235910542021975e+17
19292.0	6.235926207747412e+17
19293.0	6.234640751438506e+17
19294.0	6.233365818638333e+17
19295.0	6.232157710188543e+17
19296.0	6.230857787026089e+17
19297.0	6.22946881249826e+17
19298.0	6.22820990263842e+17
19299.0	6.227079373433514e+17
19300.0	6.225801301196799e+17
19301.0	6.22450837692962e+17
19302.0	6.223156640131753e+17
19303.0	6.221596194766847e+17
19304.0	6.220485424229034e+17
19305.0	6.219315890793129e+17
19306.0	6.218063471618729e+17
19307.0	6.216559274666665e+17
19308.0	6.215357845645993e+17
19309.0	6.213065104861865e+17
19310.0	6.211358536936104e+17
19311.0	6.211363935005353e+17
19312.0	6.210289440303785e+17
19313.0	6.208967694876671e+17
19314.0	6.178829885592941e+17
19315.0	6.178847140260544e+17
19316.0	6.20503260725248e+17
19317.0	6.203774049015124e+17
19318.0	6.202435855624874e+17
19319.0	6.201181093931689e+17
19320.0	6.199842078457855e+17
19321.0	6.198531412284756e+17
19322.0	6.196681878710954e+17
19323.0	6.195339785317034e+17
19324.0	6.194478048783018e+17
19325.0	6.19214341529054e+17
19326.0	6.191803106940244e+17
19327.0	6.190395574714367e+17
19328.0	6.18910875525666e+17
19329.0	6.187763073635667e+17
19330.0	6.186198174618963e+17
19331.0	6.184798336843775e+17
19332.0	6.183599490116265e+17
19333.0	6.18215266984482e+17
19334.0	6.180813611728896e+17
19335.0	6.179428732938921e+17
19336.0	6.178022196860244e+17
19337.0	6.176617713194324e+17
19338.0	6.17418653381427e+17
19339.0	6.173780039346858e+17
19340.0	6.171978500494675e+17
19341.0	6.170770765337939e+17
19342.0	6.167528683689298e+17
19343.0	6.168006737177257e+17
19344.0	6.166495274991615e+17
19345.0	6.156035091158341e+17
19346.0	6.159108524037455e+17
19347.0	6.161794132694355e+17
19348.0	6.160646195729748e+17
19349.0	6.1589647537821e+17
19350.0	6.157481847117139e+17
19351.0	6.155922948052308e+17
19352.0	6.154196478154068e+17
19353.0	6.153035690541055e+17
19354.0	6.151487009499818e+17
19355.0	6.149434972831744e+17
19356.0	6.14833331511842e+17
19357.0	6.146728751966889e+17
19358.0	6.144971028212393e+17
19359.0	6.14280868274722e+17
19360.0	6.141643314954237e+17
19361.0	6.140046774807209e+17
19362.0	6.138586302076243e+17
19363.0	6.136824175001599e+17
19364.0	6.134471812885161e+17
19365.0	6.132746581005652e+17
19366.0	6.131033047039999e+17
19367.0	6.129282766777001e+17
19368.0	6.127532096443732e+17
19369.0	6.125259413520383e+17
19370.0	6.122458525816148e+17
19371.0	6.121863906328576e+17
19372.0	6.120267624131241e+17
19373.0	6.11827579879424e+17
19374.0	6.116471652483072e+17
19375.0	6.114575499919359e+17
19376.0	6.11264526024704e+17
19377.0	6.110620002811904e+17
19378.0	6.108641383940095e+17
19379.0	6.106620889137151e+17
19380.0	6.104567211098111e+17
19381.0	6.102454569533439e+17
19382.0	6.100006673055744e+17
19383.0	6.097653564353193e+17
19384.0	6.095419632604499e+17
19385.0	6.092725623455744e+17
19386.0	6.090477344391167e+17
19387.0	6.088155719532543e+17
19388.0	6.085800721296042e+17
19389.0	6.083440366933331e+17
19390.0	6.080993003831295e+17
19391.0	6.044614287600255e+17
19392.0	6.074916304584698e+17
19393.0	6.073098922448212e+17
19394.0	6.069202238570495e+17
19395.0	6.066452138994346e+17
19396.0	6.063688793806164e+17
19397.0	6.060958805218644e+17
19398.0	6.057958353928191e+17
19399.0	6.050709055908522e+17
19400.0	6.049669997483348e+17
19401.0	6.046881004825257e+17
19402.0	6.043711012077567e+17
19403.0	6.038913432944637e+17
19404.0	6.034486636576768e+17
19405.0	6.030858251141119e+17
19406.0	6.025418584184145e+17
19407.0	6.020425867853823e+17
19408.0	6.012069934181038e+17
19409.0	6.008472126619647e+17
19410.0	6.00278012194543e+17
19411.0	5.995511071550121e+17
19412.0	5.986882773057537e+17
19413.0	5.978163660892845e+17
19414.0	5.967790409602386e+17
19415.0	5.956533568755031e+17
19416.0	5.946679907844095e+17
19417.0	5.940526937975465e+17
19418.0	5.934252959640234e+17
19419.0	5.927128566595583e+17
19420.0	5.919799386658132e+17
19421.0	5.912057051698516e+17
19422.0	5.903766985375741e+17
19423.0	5.894668611660457e+17
19424.0	5.885797040739668e+17
19425.0	5.876504618248874e+17
19426.0	5.866212651171837e+17
19427.0	5.854854229174954e+17
19428.0	5.844052245217281e+17
19429.0	5.831122824287572e+17
19430.0	5.816418444509188e+17
19431.0	5.796058005940913e+17
19432.0	5.784720714847574e+17
19433.0	5.762932486963198e+17
19434.0	5.736196865698473e+17
19435.0	5.699082120418641e+17
19436.0	5.6589967166887264e+17
19437.0	5.635185102727849e+17
19438.0	5.564012443992082e+17
19439.0	5.574825196825259e+17
19440.0	5.544572139252394e+17
19441.0	5.5084717689186944e+17
19442.0	5.4679150554426054e+17
19443.0	5.415741472549549e+17
19444.0	5.3386596420594285e+17
19445.0	5.255267363760812e+17
19446.0	5.176155044839424e+17
19447.0	5.0725068465329414e+17
19448.0	4.920309099178675e+17
19449.0	4.715419341073067e+17
19450.0	4.323284563438225e+17
19451.0	4.210568869183477e+17
19452.0	4.5329547131180435e+17
19453.0	4.8332194852809466e+17
19454.0	4.9978115889998374e+17
19455.0	5.1237394261387923e+17
19456.0	5.209342696139438e+17
19457.0	5.2842322974474157e+17
19458.0	5.3203861780125574e+17
19459.0	5.4262489464613754e+17
19460.0	5.472151321356965e+17
19461.0	5.508104963052884e+17
19462.0	5.540319657459712e+17
19463.0	5.569457839669247e+17
19464.0	5.596128863059968e+17
19465.0	5.6206137627770874e+17
19466.0	5.648171694118216e+17
19467.0	5.687799304246614e+17
19468.0	5.7159924845991264e+17
19469.0	5.735314747643223e+17
19470.0	5.754368740906329e+17
19471.0	5.768917198132566e+17
19472.0	5.781131891485352e+17
19473.0	5.791503452471295e+17
19474.0	5.801658052597076e+17
19475.0	5.806708936933373e+17
19476.0	5.818664915129683e+17
19477.0	5.826327826049706e+17
19478.0	5.833177463521279e+17
19479.0	5.839938885692073e+17
19480.0	5.846274544063828e+17
19481.0	5.851998300318377e+17
19482.0	5.857337360602452e+17
19483.0	5.862429521084415e+17
19484.0	5.867012405679444e+17
19485.0	5.871175476095657e+17
19486.0	5.876474164805636e+17
19487.0	5.884257106220369e+17
19488.0	5.892547149474477e+17
19489.0	5.900221011722239e+17
19490.0	5.901317485974865e+17
19491.0	5.91102953040555e+17
19492.0	5.917148484468736e+17
19493.0	5.919736553188008e+17
19494.0	5.924417982955519e+17
19495.0	5.925998718965076e+17
19496.0	5.928045560987645e+17
19497.0	5.931662346376532e+17
19498.0	5.927434613074601e+17
19499.0	5.884042985603064e+17
19500.0	5.937490767992148e+17
19501.0	5.938398314015402e+17
19502.0	5.93919461101841e+17
19503.0	5.941320584877396e+17
19504.0	5.942477657735168e+17
19505.0	5.943076684038143e+17
19506.0	5.943656373900628e+17
19507.0	5.94401582715153e+17
19508.0	5.94452803555601e+17
19509.0	5.94601222218274e+17
19510.0	5.945625136857087e+17
19511.0	5.888013240369135e+17
19512.0	5.937515566115493e+17
19513.0	5.930783635494208e+17
19514.0	5.935436697785669e+17
19515.0	5.944771796620632e+17
19516.0	5.947202269959508e+17
19517.0	5.946986421988009e+17
19518.0	5.947205133271039e+17
19519.0	5.947896194487638e+17
19520.0	5.947807728227668e+17
19521.0	5.947794686039379e+17
19522.0	5.947400427754835e+17
19523.0	5.947358737771178e+17
19524.0	5.947083041275904e+17
19525.0	5.94667690402338e+17
19526.0	5.946461502046207e+17
19527.0	5.94607008050927e+17
19528.0	5.945712798509738e+17
19529.0	5.945295667986431e+17
19530.0	5.94492755419682e+17
19531.0	5.944514653629097e+17
19532.0	5.944044099556692e+17
19533.0	5.943579360187734e+17
19534.0	5.943060856132948e+17
19535.0	5.942464470843391e+17
19536.0	5.941825036615679e+17
19537.0	5.941451655479295e+17
19538.0	5.940261351150934e+17
19539.0	5.937803497395546e+17
19540.0	5.939559864292692e+17
19541.0	5.939075931788628e+17
19542.0	5.938425257525245e+17
19543.0	5.938391045286569e+17
19544.0	5.93778846011665e+17
19545.0	5.934682064202409e+17
19546.0	5.932305280051882e+17
19547.0	5.935753807440554e+17
19548.0	5.935031075733504e+17
19549.0	5.933843235558739e+17
19550.0	5.933593273215657e+17
19551.0	5.93286499803682e+17
19552.0	5.932104154087423e+17
19553.0	5.931219095126016e+17
19554.0	5.930379877111124e+17
19555.0	5.929722245196457e+17
19556.0	5.928995642146813e+17
19557.0	5.92818762416128e+17
19558.0	5.927376240246783e+17
19559.0	5.926525731165524e+17
19560.0	5.925624389216937e+17
19561.0	5.924786626625535e+17
19562.0	5.924057882383702e+17
19563.0	5.923254388654077e+17
19564.0	5.922396649990828e+17
19565.0	5.921532013794644e+17
19566.0	5.92052978065954e+17
19567.0	5.919813200598356e+17
19568.0	5.918796705431551e+17
19569.0	5.917952863895551e+17
19570.0	5.917174730326015e+17
19571.0	5.916260990713855e+17
19572.0	5.915225006014463e+17
19573.0	5.91437477655347e+17
19574.0	5.913152478773245e+17
19575.0	5.912664451230377e+17
19576.0	5.91175712121378e+17
19577.0	5.91065120837905e+17
19578.0	5.909696841340244e+17
19579.0	5.90886420348928e+17
19580.0	5.907932101214205e+17
19581.0	5.90706852897314e+17
19582.0	5.906210054908586e+17
19583.0	5.905269264132777e+17
19584.0	5.904262556374356e+17
19585.0	5.902842892124159e+17
19586.0	5.901715509346304e+17
19587.0	5.90125299924992e+17
19588.0	5.898198258286595e+17
19589.0	5.899409302050131e+17
19590.0	5.898136536307027e+17
19591.0	5.897582829458772e+17
19592.0	5.896646969786367e+17
19593.0	5.895581880811519e+17
19594.0	5.893560471650303e+17
19595.0	5.893472895281833e+17
19596.0	5.889036917582509e+17
19597.0	5.891530127223466e+17
19598.0	5.889124229709823e+17
19599.0	5.889779428928169e+17
19600.0	5.888825793795412e+17
19601.0	5.887509022812842e+17
19602.0	5.886571754553341e+17
19603.0	5.88347880068437e+17
19604.0	5.884520066012502e+17
19605.0	5.882405427260074e+17
19606.0	5.882817850376191e+17
19607.0	5.881838192383316e+17
19608.0	5.880780331592361e+17
19609.0	5.8795834212352e+17
19610.0	5.878854282029738e+17
19611.0	5.877802319828307e+17
19612.0	5.87685975556096e+17
19613.0	5.875796506487465e+17
19614.0	5.874640383639551e+17
19615.0	5.87381049795106e+17
19616.0	5.872520871804927e+17
19617.0	5.871782197548372e+17
19618.0	5.867977113774758e+17
19619.0	5.866429526747813e+17
19620.0	5.865508141618514e+17
19621.0	5.867692932202496e+17
19622.0	5.866717138561706e+17
19623.0	5.865708666399401e+17
19624.0	5.864639819328169e+17
19625.0	5.86366358598451e+17
19626.0	5.862589350630742e+17
19627.0	5.861613654157994e+17
19628.0	5.859782209219244e+17
19629.0	5.859103710642175e+17
19630.0	5.856002089243988e+17
19631.0	5.824670430046895e+17
19632.0	5.856435026001919e+17
19633.0	5.85520871776802e+17
19634.0	5.854426421351763e+17
19635.0	5.853205664279209e+17
19636.0	5.852306700500991e+17
19637.0	5.849462946310828e+17
19638.0	5.850241635625642e+17
19639.0	5.849179178576554e+17
19640.0	5.847634292681388e+17
19641.0	5.843626530351791e+17
19642.0	5.846123816856233e+17
19643.0	5.845044014262954e+17
19644.0	5.843788043911165e+17
19645.0	5.841737714324818e+17
19646.0	5.842028845159764e+17
19647.0	5.841005153965395e+17
19648.0	5.839946245297492e+17
19649.0	5.838892733999786e+17
19650.0	5.837889027964927e+17
19651.0	5.836826125620563e+17
19652.0	5.835770203996159e+17
19653.0	5.834753821376511e+17
19654.0	5.833680482205695e+17
19655.0	5.832612887833257e+17
19656.0	5.831616635076608e+17
19657.0	5.830577040479574e+17
19658.0	5.829560251012436e+17
19659.0	5.828516550191786e+17
19660.0	5.827496213741567e+17
19661.0	5.826432589976918e+17
19662.0	5.825412500291583e+17
19663.0	5.824117757094569e+17
19664.0	5.823163643112106e+17
19665.0	5.822285773187754e+17
