# Flux units: erg / (cm m2 s)
# Wavelength units: Angstrom
wave	flux
19000.0	7.375072714380628e+17
19001.0	7.373669561707178e+17
19002.0	7.372290948508329e+17
19003.0	7.370899781757609e+17
19004.0	7.36950852972271e+17
19005.0	7.368117797781501e+17
19006.0	7.366726675770025e+17
19007.0	7.365302708163923e+17
19008.0	7.363936027759956e+17
19009.0	7.362548581356884e+17
19010.0	7.361104576162472e+17
19011.0	7.359767053161811e+17
19012.0	7.358338010447871e+17
19013.0	7.356988909770066e+17
19014.0	7.3555909804032e+17
19015.0	7.354206627998377e+17
19016.0	7.352808515480233e+17
19017.0	7.35140216115473e+17
19018.0	7.350030766353062e+17
19019.0	7.348642387416403e+17
19020.0	7.347245453497684e+17
19021.0	7.345855863805267e+17
19022.0	7.344469851854163e+17
19023.0	7.343078897614847e+17
19024.0	7.341686961908393e+17
19025.0	7.340295880441853e+17
19026.0	7.338899740644692e+17
19027.0	7.337487087872681e+17
19028.0	7.336126026437972e+17
19029.0	7.334735588098045e+17
19030.0	7.3333453385018e+17
19031.0	7.331956611437908e+17
19032.0	7.330566777077756e+17
19033.0	7.32916435980561e+17
19034.0	7.327781626402131e+17
19035.0	7.326386981175293e+17
19036.0	7.322760567761577e+17
19037.0	7.32361222398498e+17
19038.0	7.322222985215999e+17
19039.0	7.320833545120425e+17
19040.0	7.319444188910931e+17
19041.0	7.318054937559037e+17
19042.0	7.316655707957929e+17
19043.0	7.315276918598313e+17
19044.0	7.313887711985663e+17
19045.0	7.312499285513555e+17
19046.0	7.31110413836834e+17
19047.0	7.309721623068671e+17
19048.0	7.308308543875753e+17
19049.0	7.306937272107007e+17
19050.0	7.305551999751506e+17
19051.0	7.303847758965417e+17
19052.0	7.302754115168936e+17
19053.0	7.301385208987647e+17
19054.0	7.300006110647635e+17
19055.0	7.298587144050003e+17
19056.0	7.29723136324403e+17
19057.0	7.29584420065553e+17
19058.0	7.294457140128425e+17
19059.0	7.293070301899433e+17
19060.0	7.291680498297513e+17
19061.0	7.290297028094633e+17
19062.0	7.288910023491583e+17
19063.0	7.287524126184787e+17
19064.0	7.28612401717794e+17
19065.0	7.284729342590973e+17
19066.0	7.28333624086801e+17
19067.0	7.28188288377378e+17
19068.0	7.280497442248019e+17
19069.0	7.279112348849492e+17
19070.0	7.277725921662292e+17
19071.0	7.276342332620799e+17
19072.0	7.274957611117226e+17
19073.0	7.27357243662882e+17
19074.0	7.272188500858195e+17
19075.0	7.2708043847325e+17
19076.0	7.269417546503508e+17
19077.0	7.268035278667773e+17
19078.0	7.266646329305769e+17
19079.0	7.265269040108883e+17
19080.0	7.263885202205356e+17
19081.0	7.262496888979455e+17
19082.0	7.261113204867071e+17
19083.0	7.259723869629097e+17
19084.0	7.25832247157282e+17
19085.0	7.256971206634153e+17
19086.0	7.255539384494761e+17
19087.0	7.254141565577897e+17
19088.0	7.252814511560019e+17
19089.0	7.251386667018922e+17
19090.0	7.250060559515647e+17
19091.0	7.248676219693736e+17
19092.0	7.247276594429951e+17
19093.0	7.245917435811156e+17
19094.0	7.244523215607122e+17
19095.0	7.243138868794708e+17
19096.0	7.241769919272276e+17
19097.0	7.240394167986857e+17
19098.0	7.239014879505066e+17
19099.0	7.237634462755497e+17
19100.0	7.236255126738262e+17
19101.0	7.234875730602666e+17
19102.0	7.233485869678591e+17
19103.0	7.232117013828948e+17
19104.0	7.230737922479444e+17
19105.0	7.229358940181844e+17
19106.0	7.227968431936851e+17
19107.0	7.226599759238484e+17
19108.0	7.225223180277076e+17
19109.0	7.223607124732585e+17
19110.0	7.222464870350847e+17
19111.0	7.221089567855956e+17
19112.0	7.219712050768553e+17
19113.0	7.218334676287487e+17
19114.0	7.216957452801364e+17
19115.0	7.21557384139025e+17
19116.0	7.21420354270003e+17
19117.0	7.212824599549268e+17
19118.0	7.211429098684415e+17
19119.0	7.209785662723411e+17
19120.0	7.208680909613738e+17
19121.0	7.207310595544404e+17
19122.0	7.205946129732948e+17
19123.0	7.20456876224239e+17
19124.0	7.203183074650794e+17
19125.0	7.201816946496851e+17
19126.0	7.200438193487871e+17
19127.0	7.198868339600041e+17
19128.0	7.197518102265853e+17
19129.0	7.196309271696726e+17
19130.0	7.194946027825833e+17
19131.0	7.193572017176573e+17
19132.0	7.192197717120339e+17
19133.0	7.190733054978729e+17
19134.0	7.189358520041471e+17
19135.0	7.188076708582739e+17
19136.0	7.186704107219625e+17
19137.0	7.185311002700457e+17
19138.0	7.18389592002833e+17
19139.0	7.182547249965738e+17
19140.0	7.181175277748223e+17
19141.0	7.179802902877526e+17
19142.0	7.178430500044797e+17
19143.0	7.177051734452905e+17
19144.0	7.175686034117972e+17
19145.0	7.174313723559935e+17
19146.0	7.172866273443839e+17
19147.0	7.171561513549823e+17
19148.0	7.170198910009343e+17
19149.0	7.168828298144425e+17
19150.0	7.1674561050269e+17
19151.0	7.166087635053225e+17
19152.0	7.164714513596416e+17
19153.0	7.1633465259677e+17
19154.0	7.161960360225449e+17
19155.0	7.160605546905599e+17
19156.0	7.159235067860308e+17
19157.0	7.157861946403497e+17
19158.0	7.15633079895108e+17
19159.0	7.155122696792745e+17
19160.0	7.153750576376488e+17
19161.0	7.152366506388138e+17
19162.0	7.150650528541353e+17
19163.0	7.149645325839017e+17
19164.0	7.148279808655357e+17
19165.0	7.146905219192147e+17
19166.0	7.14552336659251e+17
19167.0	7.144139123239594e+17
19168.0	7.142786706265427e+17
19169.0	7.141422254434986e+17
19170.0	7.140068458932906e+17
19171.0	7.138681952053929e+17
19172.0	7.137332325690025e+17
19173.0	7.135964249980927e+17
19174.0	7.134590524544339e+17
19175.0	7.133229576355839e+17
19176.0	7.131861976001194e+17
19177.0	7.130476134618454e+17
19178.0	7.129121465303039e+17
19179.0	7.127732627789139e+17
19180.0	7.126349058321066e+17
19181.0	7.125012321053353e+17
19182.0	7.123646617922217e+17
19183.0	7.122286870702761e+17
19184.0	7.120908303641257e+17
19185.0	7.119556657020927e+17
19186.0	7.118191106282836e+17
19187.0	7.116816051251881e+17
19188.0	7.115457811185663e+17
19189.0	7.114084018640212e+17
19190.0	7.11271448191522e+17
19191.0	7.111354390762836e+17
19192.0	7.109988708603219e+17
19193.0	7.108591086818644e+17
19194.0	7.107244087487148e+17
19195.0	7.105889706180607e+17
19196.0	7.104525524183721e+17
19197.0	7.103158312501245e+17
19198.0	7.101788521321812e+17
19199.0	7.098220660391933e+17
19200.0	7.097627478152532e+17
19201.0	7.097691358800553e+17
19202.0	7.096329707367081e+17
19203.0	7.094960159457279e+17
19204.0	7.093596135445844e+17
19205.0	7.092233352948393e+17
19206.0	7.090866012640595e+17
19207.0	7.089495119757311e+17
19208.0	7.088111358749353e+17
19209.0	7.086769451302911e+17
19210.0	7.085403057509716e+17
19211.0	7.084036076513961e+17
19212.0	7.082670852931583e+17
19213.0	7.081277405877587e+17
19214.0	7.079903831435945e+17
19215.0	7.078563618488319e+17
19216.0	7.077200756299092e+17
19217.0	7.07583868263902e+17
19218.0	7.074374037274623e+17
19219.0	7.073084923532628e+17
19220.0	7.071738758867625e+17
19221.0	7.070332415726931e+17
19222.0	7.069004623511551e+17
19223.0	7.067637090265769e+17
19224.0	7.066262786015232e+17
19225.0	7.064883322770772e+17
19226.0	7.063535077730986e+17
19227.0	7.062167517921279e+17
19228.0	7.060799593207123e+17
19229.0	7.059431453185364e+17
19230.0	7.058054790337876e+17
19231.0	7.056694481081683e+17
19232.0	7.055318715815254e+17
19233.0	7.053947891438931e+17
19234.0	7.052584776193363e+17
19235.0	7.051218504034986e+17
19236.0	7.04984879674163e+17
19237.0	7.048476849689939e+17
19238.0	7.04709460562193e+17
19239.0	7.045738659839999e+17
19240.0	7.044332130751827e+17
19241.0	7.042986561677994e+17
19242.0	7.04162555896354e+17
19243.0	7.040231609991165e+17
19244.0	7.038881428581033e+17
19245.0	7.037509512287571e+17
19246.0	7.036134861307903e+17
19247.0	7.034762800310953e+17
19248.0	7.033390259765247e+17
19249.0	7.032016140064084e+17
19250.0	7.030641191987881e+17
19251.0	7.02925459563042e+17
19252.0	7.027850228006911e+17
19253.0	7.026514900724394e+17
19254.0	7.025134333678932e+17
19255.0	7.023737417236477e+17
19256.0	7.022377122660351e+17
19257.0	7.021007483174911e+17
19258.0	7.019628991610879e+17
19259.0	7.018240464475478e+17
19260.0	7.016841651508564e+17
19261.0	7.015490511000916e+17
19262.0	7.01410953081651e+17
19263.0	7.012725083340799e+17
19264.0	7.011287372398591e+17
19265.0	7.00994039194146e+17
19266.0	7.008562593835689e+17
19267.0	7.007194281148415e+17
19268.0	7.005808902537215e+17
19269.0	7.00442273120256e+17
19270.0	7.003035528069119e+17
19271.0	7.001609518536019e+17
19272.0	7.000254498996223e+17
19273.0	6.99793673569348e+17
19274.0	6.997012411056125e+17
19275.0	6.996086496777556e+17
19276.0	6.994693852932777e+17
19277.0	6.993300051460095e+17
19278.0	6.991905121719636e+17
19279.0	6.990506582780585e+17
19280.0	6.989102322111827e+17
19281.0	6.987712942833661e+17
19282.0	6.986313138612905e+17
19283.0	6.984878179134121e+17
19284.0	6.98344198443281e+17
19285.0	6.9820806622522e+17
19286.0	6.980701082965332e+17
19287.0	6.979294643355647e+17
19288.0	6.977354530990761e+17
19289.0	6.974857706558801e+17
19290.0	6.974944929207636e+17
19291.0	6.973498970166612e+17
19292.0	6.972117650942633e+17
19293.0	6.970700346687487e+17
19294.0	6.969283300382036e+17
19295.0	6.967863367696381e+17
19296.0	6.966441490251775e+17
19297.0	6.965017385631743e+17
19298.0	6.963591608882516e+17
19299.0	6.962163428797097e+17
19300.0	6.960732956524541e+17
19301.0	6.959299423109119e+17
19302.0	6.957864016237907e+17
19303.0	6.956415594441385e+17
19304.0	6.954979708021417e+17
19305.0	6.953545125330943e+17
19306.0	6.952099350140244e+17
19307.0	6.950647069584042e+17
19308.0	6.949199329361919e+17
19309.0	6.947678016853332e+17
19310.0	6.946186767018665e+17
19311.0	6.944819814683987e+17
19312.0	6.943366155599871e+17
19313.0	6.94188551316002e+17
19314.0	6.939572744574291e+17
19315.0	6.938154969158998e+17
19316.0	6.937474600621395e+17
19317.0	6.935998491525119e+17
19318.0	6.934423644318378e+17
19319.0	6.932902147959465e+17
19320.0	6.931404814286847e+17
19321.0	6.92991041872418e+17
19322.0	6.928387973054463e+17
19323.0	6.926885525127165e+17
19324.0	6.925414138118143e+17
19325.0	6.923840518444372e+17
19326.0	6.922374024790015e+17
19327.0	6.920844786444969e+17
19328.0	6.919313087441577e+17
19329.0	6.917638154354687e+17
19330.0	6.91606302892578e+17
19331.0	6.914511121765716e+17
19332.0	6.912958200283136e+17
19333.0	6.911393696230058e+17
19334.0	6.90981738451217e+17
19335.0	6.908243051806719e+17
19336.0	6.906656243144019e+17
19337.0	6.905061131157504e+17
19338.0	6.903434082342227e+17
19339.0	6.901849144339113e+17
19340.0	6.90022402700083e+17
19341.0	6.8985999079069e+17
19342.0	6.896917035002537e+17
19343.0	6.89531530650146e+17
19344.0	6.893657457513812e+17
19345.0	6.891749663659347e+17
19346.0	6.890237866628436e+17
19347.0	6.888528180936703e+17
19348.0	6.886708476553898e+17
19349.0	6.88499381571857e+17
19350.0	6.883265737304745e+17
19351.0	6.881522538425001e+17
19352.0	6.879762068100435e+17
19353.0	6.878002280748372e+17
19354.0	6.876217807820116e+17
19355.0	6.874407569282388e+17
19356.0	6.872600603699881e+17
19357.0	6.870766463221759e+17
19358.0	6.868861289409194e+17
19359.0	6.866734839496704e+17
19360.0	6.864891039536467e+17
19361.0	6.862979471507455e+17
19362.0	6.861055870020266e+17
19363.0	6.859103545939284e+17
19364.0	6.856992010971817e+17
19365.0	6.854930609121961e+17
19366.0	6.85277408465169e+17
19367.0	6.850530289298089e+17
19368.0	6.848453215431337e+17
19369.0	6.846329236662953e+17
19370.0	6.84410034856482e+17
19371.0	6.842039847092223e+17
19372.0	6.839610219604649e+17
19373.0	6.837211750203391e+17
19374.0	6.834941660758015e+17
19375.0	6.832632910315519e+17
19376.0	6.830272777551872e+17
19377.0	6.827421337299625e+17
19378.0	6.824990214542676e+17
19379.0	6.822398791079252e+17
19380.0	6.819597355319295e+17
19381.0	6.816835562023593e+17
19382.0	6.814195435001172e+17
19383.0	6.811506641469439e+17
19384.0	6.808774908750505e+17
19385.0	6.805966325197481e+17
19386.0	6.803092822906195e+17
19387.0	6.800149242183679e+17
19388.0	6.796727890389674e+17
19389.0	6.793626797473791e+17
19390.0	6.7904480491165e+17
19391.0	6.785271450304507e+17
19392.0	6.783823401801044e+17
19393.0	6.780126222789289e+17
19394.0	6.776287139987455e+17
19395.0	6.772621737721855e+17
19396.0	6.768841937911807e+17
19397.0	6.764660109869055e+17
19398.0	6.760178780558676e+17
19399.0	6.755810252860073e+17
19400.0	6.75129466237747e+17
19401.0	6.746243731903828e+17
19402.0	6.741609316788905e+17
19403.0	6.73593539096303e+17
19404.0	6.730770067838292e+17
19405.0	6.724636321862995e+17
19406.0	6.718911779176448e+17
19407.0	6.711887472011946e+17
19408.0	6.705129511540054e+17
19409.0	6.697958195418452e+17
19410.0	6.689669426533715e+17
19411.0	6.681968162198867e+17
19412.0	6.674979939330729e+17
19413.0	6.667698142445567e+17
19414.0	6.660074373469523e+17
19415.0	6.651716550961834e+17
19416.0	6.643235285194068e+17
19417.0	6.634426960183293e+17
19418.0	6.624733883094356e+17
19419.0	6.614723885793279e+17
19420.0	6.604062250937004e+17
19421.0	6.592621101886122e+17
19422.0	6.580286429768361e+17
19423.0	6.567318262557352e+17
19424.0	6.553033337645738e+17
19425.0	6.53749161890065e+17
19426.0	6.520424956078761e+17
19427.0	6.50169849671407e+17
19428.0	6.48031894922854e+17
19429.0	6.456809920047785e+17
19430.0	6.436171857701546e+17
19431.0	6.415460421599232e+17
19432.0	6.393542642849108e+17
19433.0	6.36979725345314e+17
19434.0	6.343808348323839e+17
19435.0	6.315360855435944e+17
19436.0	6.283989871842646e+17
19437.0	6.248334691926013e+17
19438.0	6.205148595137196e+17
19439.0	6.158786585340586e+17
19440.0	6.113466869874687e+17
19441.0	6.066115095909714e+17
19442.0	6.012679962842455e+17
19443.0	5.95168704978398e+17
19444.0	5.878560212385791e+17
19445.0	5.799222572657325e+17
19446.0	5.713198295897427e+17
19447.0	5.609501138878459e+17
19448.0	5.491056160276484e+17
19449.0	5.338183838815572e+17
19450.0	5.053526850579077e+17
19451.0	4.946145473549654e+17
19452.0	5.21324237125496e+17
19453.0	5.420698050756613e+17
19454.0	5.5484820897136576e+17
19455.0	5.6570958434358586e+17
19456.0	5.749186795055788e+17
19457.0	5.827683650895868e+17
19458.0	5.902540688326661e+17
19459.0	5.967411404603395e+17
19460.0	6.02185372288068e+17
19461.0	6.06963035677218e+17
19462.0	6.11226923879629e+17
19463.0	6.158055901233147e+17
19464.0	6.200354676932607e+17
19465.0	6.23613525884928e+17
19466.0	6.2670606200122e+17
19467.0	6.294209976511146e+17
19468.0	6.318798047718058e+17
19469.0	6.340986739359741e+17
19470.0	6.361699628788393e+17
19471.0	6.380392298141012e+17
19472.0	6.397858848702463e+17
19473.0	6.417742221541376e+17
19474.0	6.437966842953728e+17
19475.0	6.455073976614907e+17
19476.0	6.470616539114153e+17
19477.0	6.48413337022191e+17
19478.0	6.49631226868531e+17
19479.0	6.507458237300736e+17
19480.0	6.517602442543104e+17
19481.0	6.526527805412691e+17
19482.0	6.535364249736532e+17
19483.0	6.54280698765858e+17
19484.0	6.550292492801363e+17
19485.0	6.556844634581674e+17
19486.0	6.56285912530944e+17
19487.0	6.56873141445154e+17
19488.0	6.574107391601321e+17
19489.0	6.57896603910144e+17
19490.0	6.583354882610516e+17
19491.0	6.588246408560637e+17
19492.0	6.593363671952042e+17
19493.0	6.598471328290132e+17
19494.0	6.603409141181097e+17
19495.0	6.607208720629759e+17
19496.0	6.610872504593065e+17
19497.0	6.614397239689215e+17
19498.0	6.617184219780436e+17
19499.0	6.61707504903782e+17
19500.0	6.622721461627561e+17
19501.0	6.624713473611091e+17
19502.0	6.627298298036223e+17
19503.0	6.628948469350397e+17
19504.0	6.630571889393663e+17
19505.0	6.63257924623838e+17
19506.0	6.633895776048467e+17
19507.0	6.635024394747903e+17
19508.0	6.636040857059327e+17
19509.0	6.637309853521236e+17
19510.0	6.638261938858665e+17
19511.0	6.636669270753277e+17
19512.0	6.639235530489853e+17
19513.0	6.639312858775551e+17
19514.0	6.640065837006847e+17
19515.0	6.641341236073812e+17
19516.0	6.641764384025257e+17
19517.0	6.642017081054547e+17
19518.0	6.642218771851945e+17
19519.0	6.642353028726783e+17
19520.0	6.64242809348642e+17
19521.0	6.642453118102185e+17
19522.0	6.642584277483519e+17
19523.0	6.642624716865536e+17
19524.0	6.642760515846143e+17
19525.0	6.642586473201664e+17
19526.0	6.642696936488959e+17
19527.0	6.642575061199529e+17
19528.0	6.64228964999714e+17
19529.0	6.64196689760529e+17
19530.0	6.64160911298833e+17
19531.0	6.641542293531306e+17
19532.0	6.641163052952233e+17
19533.0	6.640711485794985e+17
19534.0	6.640230931802793e+17
19535.0	6.639722841505791e+17
19536.0	6.639183377814867e+17
19537.0	6.638812313332393e+17
19538.0	6.638338407312041e+17
19539.0	6.63767300055586e+17
19540.0	6.637110209544191e+17
19541.0	6.63661714813747e+17
19542.0	6.635971993578153e+17
19543.0	6.635283287463251e+17
19544.0	6.634576010368339e+17
19545.0	6.633806786898601e+17
19546.0	6.633233804427263e+17
19547.0	6.632587830580564e+17
19548.0	6.631814622522025e+17
19549.0	6.631014182944767e+17
19550.0	6.630225421707946e+17
19551.0	6.629409289142272e+17
19552.0	6.628579491534164e+17
19553.0	6.62773482581743e+17
19554.0	6.626878275540308e+17
19555.0	6.626016518034772e+17
19556.0	6.62513901511202e+17
19557.0	6.624250123255808e+17
19558.0	6.623351662095017e+17
19559.0	6.622594479073961e+17
19560.0	6.62171029742114e+17
19561.0	6.620783052849152e+17
19562.0	6.619846796815017e+17
19563.0	6.618901405586772e+17
19564.0	6.617949165060095e+17
19565.0	6.616988344385536e+17
19566.0	6.616017499324415e+17
19567.0	6.615043231711231e+17
19568.0	6.614061052242601e+17
19569.0	6.613070354841599e+17
19570.0	6.612074863351124e+17
19571.0	6.611071899708074e+17
19572.0	6.6100592653981e+17
19573.0	6.609046400401408e+17
19574.0	6.608015492207955e+17
19575.0	6.607001930257748e+17
19576.0	6.605971125523798e+17
19577.0	6.604927260426239e+17
19578.0	6.603888593469437e+17
19579.0	6.602844371156991e+17
19580.0	6.601794379579391e+17
19581.0	6.600740039906644e+17
19582.0	6.599682764221098e+17
19583.0	6.59868513083938e+17
19584.0	6.597690247522986e+17
19585.0	6.596604941303808e+17
19586.0	6.595521266668884e+17
19587.0	6.594445493403647e+17
19588.0	6.593324283243178e+17
19589.0	6.592284497106259e+17
19590.0	6.591200033942185e+17
19591.0	6.590117714067455e+17
19592.0	6.589022769337684e+17
19593.0	6.587925317812223e+17
19594.0	6.586795062635177e+17
19595.0	6.585720373597523e+17
19596.0	6.584138953916416e+17
19597.0	6.583503209278121e+17
19598.0	6.582366416579242e+17
19599.0	6.581282060369919e+17
19600.0	6.58016617767458e+17
19601.0	6.579043270918143e+17
19602.0	6.577922600424788e+17
19603.0	6.576725107059369e+17
19604.0	6.575672811410772e+17
19605.0	6.57451722543377e+17
19606.0	6.573424350593023e+17
19607.0	6.572295587889151e+17
19608.0	6.571162991591423e+17
19609.0	6.570026551214079e+17
19610.0	6.568894196088831e+17
19611.0	6.567756390465533e+17
19612.0	6.566618295435264e+17
19613.0	6.565477719474176e+17
19614.0	6.564330975090004e+17
19615.0	6.563192959052457e+17
19616.0	6.56203178766063e+17
19617.0	6.560924578086911e+17
19618.0	6.559798078909097e+17
19619.0	6.558629587757738e+17
19620.0	6.557484284116991e+17
19621.0	6.556408274572628e+17
19622.0	6.555256171965097e+17
19623.0	6.55410295996416e+17
19624.0	6.552948665832788e+17
19625.0	6.551792849169065e+17
19626.0	6.550636785041407e+17
19627.0	6.549479405999444e+17
19628.0	6.548271498177196e+17
19629.0	6.547150827683839e+17
19630.0	6.545951350412628e+17
19631.0	6.542516269962579e+17
19632.0	6.543677323913897e+17
19633.0	6.542516149026816e+17
19634.0	6.541353232804521e+17
19635.0	6.54018392236578e+17
19636.0	6.539024491610111e+17
19637.0	6.537808336388095e+17
19638.0	6.536691867888298e+17
19639.0	6.535524342125907e+17
19640.0	6.534352011089235e+17
19641.0	6.53312322052642e+17
19642.0	6.53202163900962e+17
19643.0	6.5308500965021e+17
19644.0	6.529678809148073e+17
19645.0	6.528481020084223e+17
19646.0	6.527341232652288e+17
19647.0	6.526169836945407e+17
19648.0	6.52499798196224e+17
19649.0	6.523825317478399e+17
19650.0	6.522652900458495e+17
19651.0	6.521479671840765e+17
19652.0	6.520306038472701e+17
19653.0	6.519131809513471e+17
19654.0	6.517957643468799e+17
19655.0	6.516782286940841e+17
19656.0	6.515606806680916e+17
19657.0	6.514432127533055e+17
19658.0	6.513256403304447e+17
19659.0	6.512080039444479e+17
19660.0	6.510903845453823e+17
19661.0	6.509727122980864e+17
19662.0	6.508550123683839e+17
19663.0	6.507367317372927e+17
19664.0	6.506186360051027e+17
19665.0	6.505017530559145e+17
19666.0	6.503837764419583e+17
