# Flux units: erg / (cm m2 s)
# Wavelength units: Angstrom
wave	flux
19000.0	4.754690447944362e+17
19001.0	4.753757164972714e+17
19002.0	4.753052582019071e+17
19003.0	4.7522233024075085e+17
19004.0	4.751328939081728e+17
19005.0	4.750508854083583e+17
19006.0	4.749699892379647e+17
19007.0	4.7488955458082125e+17
19008.0	4.748035112304639e+17
19009.0	4.747061722000042e+17
19010.0	4.746221353347753e+17
19011.0	4.7454740653888845e+17
19012.0	4.744495442690047e+17
19013.0	4.743959623849302e+17
19014.0	4.743031819337727e+17
19015.0	4.7421928376019616e+17
19016.0	4.7414480857989114e+17
19017.0	4.740665186800981e+17
19018.0	4.7398104792214176e+17
19019.0	4.7390133846015994e+17
19020.0	4.7381672620632736e+17
19021.0	4.737358735168853e+17
19022.0	4.7365530422258336e+17
19023.0	4.735608868743849e+17
19024.0	4.734770716781225e+17
19025.0	4.7340227619280205e+17
19026.0	4.733189592099498e+17
19027.0	4.732366008352766e+17
19028.0	4.731519353836885e+17
19029.0	4.7306699527509325e+17
19030.0	4.7298475629827405e+17
19031.0	4.729069372091049e+17
19032.0	4.7282439239761914e+17
19033.0	4.727207460427091e+17
19034.0	4.726345578490538e+17
19035.0	4.724761710733993e+17
19036.0	4.721417510365866e+17
19037.0	4.7232509692695885e+17
19038.0	4.7230572064058016e+17
19039.0	4.722399647891455e+17
19040.0	4.721618813190143e+17
19041.0	4.720822045726037e+17
19042.0	4.716171436403366e+17
19043.0	4.719225407711914e+17
19044.0	4.7184285263025485e+17
19045.0	4.717554727649278e+17
19046.0	4.716700440898217e+17
19047.0	4.715856309256192e+17
19048.0	4.7145157691528525e+17
19049.0	4.706245135040502e+17
19050.0	4.7132407105235616e+17
19051.0	4.7121025008489805e+17
19052.0	4.711427756873045e+17
19053.0	4.7108958058796365e+17
19054.0	4.7101302174733645e+17
19055.0	4.7079849889628166e+17
19056.0	4.708226090838697e+17
19057.0	4.707775231120724e+17
19058.0	4.702913767844516e+17
19059.0	4.704518205166932e+17
19060.0	4.7053248879656954e+17
19061.0	4.704476380266495e+17
19062.0	4.70362259263761e+17
19063.0	4.702864382711125e+17
19064.0	4.702010674774015e+17
19065.0	4.7011028931706874e+17
19066.0	4.6989022865653766e+17
19067.0	4.699494645323092e+17
19068.0	4.6988030164773536e+17
19069.0	4.6979789566771194e+17
19070.0	4.6970790687539194e+17
19071.0	4.6962966772667725e+17
19072.0	4.6940043636026e+17
19073.0	4.694735074973012e+17
19074.0	4.693831759604394e+17
19075.0	4.693079367876608e+17
19076.0	4.692237369038163e+17
19077.0	4.691414952006996e+17
19078.0	4.6905846161298765e+17
19079.0	4.689774661074943e+17
19080.0	4.688979867729919e+17
19081.0	4.6881259158241274e+17
19082.0	4.6873802363808416e+17
19083.0	4.686453595089579e+17
19084.0	4.685526108646057e+17
19085.0	4.684881764985514e+17
19086.0	4.6816785827102694e+17
19087.0	4.6799416557131046e+17
19088.0	4.6803750237852966e+17
19089.0	4.681473711232341e+17
19090.0	4.6808150964524365e+17
19091.0	4.679782553179479e+17
19092.0	4.676042057493171e+17
19093.0	4.678390657318911e+17
19094.0	4.6775935375332685e+17
19095.0	4.6767430948618234e+17
19096.0	4.6759714275109536e+17
19097.0	4.675151810177706e+17
19098.0	4.6727440867437203e+17
19099.0	4.671562157042348e+17
19100.0	4.672698731637417e+17
19101.0	4.6718628970277536e+17
19102.0	4.6710304451242656e+17
19103.0	4.670236914264746e+17
19104.0	4.669492811180713e+17
19105.0	4.665095213460149e+17
19106.0	4.667818785461589e+17
19107.0	4.6661557935581843e+17
19108.0	4.664811958829057e+17
19109.0	4.6653418706916685e+17
19110.0	4.6645424027948365e+17
19111.0	4.662701254333778e+17
19112.0	4.66171819545941e+17
19113.0	4.662154015102293e+17
19114.0	4.660614470653267e+17
19115.0	4.6603599358197766e+17
19116.0	4.6595945172828154e+17
19117.0	4.658683048886271e+17
19118.0	4.656814289321984e+17
19119.0	4.6478754920966765e+17
19120.0	4.655724360979797e+17
19121.0	4.6554583001989114e+17
19122.0	4.6548277369241594e+17
19123.0	4.65406503419904e+17
19124.0	4.6531821297117856e+17
19125.0	4.652370397670058e+17
19126.0	4.651376400050858e+17
19127.0	4.650146959370923e+17
19128.0	4.649707080340821e+17
19129.0	4.649083964751872e+17
19130.0	4.648411234041855e+17
19131.0	4.647632711800149e+17
19132.0	4.646805797776042e+17
19133.0	4.6460012065368736e+17
19134.0	4.64521808244463e+17
19135.0	4.6444309024604154e+17
19136.0	4.6435893349362336e+17
19137.0	4.642723662047914e+17
19138.0	4.641990403336874e+17
19139.0	4.641219551079082e+17
19140.0	4.640427751768063e+17
19141.0	4.6396085720405325e+17
19142.0	4.6387655029555194e+17
19143.0	4.637962130860714e+17
19144.0	4.637122077480276e+17
19145.0	4.636363107685717e+17
19146.0	4.6349342243553274e+17
19147.0	4.6347336156883616e+17
19148.0	4.6326770114232346e+17
19149.0	4.6315952577795405e+17
19150.0	4.632379961027242e+17
19151.0	4.631543180602026e+17
19152.0	4.6307568464691194e+17
19153.0	4.627154777494864e+17
19154.0	4.6289046942515194e+17
19155.0	4.628336442256042e+17
19156.0	4.6275211918923085e+17
19157.0	4.625853854689964e+17
19158.0	4.62393705356766e+17
19159.0	4.625042735016619e+17
19160.0	4.624255243954858e+17
19161.0	4.623450984065706e+17
19162.0	4.622610137262761e+17
19163.0	4.6218411458778445e+17
19164.0	4.6210658238900896e+17
19165.0	4.617262698856443e+17
19166.0	4.6193978155991034e+17
19167.0	4.618698530051413e+17
19168.0	4.6178936004717216e+17
19169.0	4.6171014914812576e+17
19170.0	4.616324075137706e+17
19171.0	4.61548234543377e+17
19172.0	4.614701028387498e+17
19173.0	4.613935660182185e+17
19174.0	4.61309918384401e+17
19175.0	4.612294036160511e+17
19176.0	4.6115283442947405e+17
19177.0	4.6105643918731936e+17
19178.0	4.609898286066346e+17
19179.0	4.609113689074346e+17
19180.0	4.608296481368745e+17
19181.0	4.607446753826132e+17
19182.0	4.6066195517931514e+17
19183.0	4.6059085718268576e+17
19184.0	4.605132347364692e+17
19185.0	4.6042996116466336e+17
19186.0	4.603519533318143e+17
19187.0	4.602666469905749e+17
19188.0	4.60193343419187e+17
19189.0	4.6011205284440736e+17
19190.0	4.600311827486036e+17
19191.0	4.5994669261892256e+17
19192.0	4.598665427550207e+17
19193.0	4.597470511584597e+17
19194.0	4.5964114910685856e+17
19195.0	4.596125738729471e+17
19196.0	4.595193133137919e+17
19197.0	4.5941956353720314e+17
19198.0	4.593080191680511e+17
19199.0	4.591844723086677e+17
19200.0	4.5910939573507405e+17
19201.0	4.590738183902549e+17
19202.0	4.5902650426436256e+17
19203.0	4.5896205885330765e+17
19204.0	4.588981358428159e+17
19205.0	4.588226552878421e+17
19206.0	4.587486421800276e+17
19207.0	4.586512011580755e+17
19208.0	4.585855638656341e+17
19209.0	4.5851625487947085e+17
19210.0	4.58436154368546e+17
19211.0	4.583626822560426e+17
19212.0	4.582829190370645e+17
19213.0	4.581952168394751e+17
19214.0	4.5812104609573536e+17
19215.0	4.5804472542167034e+17
19216.0	4.5796440401073485e+17
19217.0	4.5788069157492045e+17
19218.0	4.577842448127317e+17
19219.0	4.577021654291796e+17
19220.0	4.576436284642644e+17
19221.0	4.5756280576409594e+17
19222.0	4.5748320612297376e+17
19223.0	4.5741028807802874e+17
19224.0	4.573274496652628e+17
19225.0	4.5725517292939936e+17
19226.0	4.5717852621810336e+17
19227.0	4.5709942905460045e+17
19228.0	4.570238433624063e+17
19229.0	4.5693594137613645e+17
19230.0	4.5686404939775994e+17
19231.0	4.5678842029451936e+17
19232.0	4.567097601774932e+17
19233.0	4.5662424398124365e+17
19234.0	4.5654753854969165e+17
19235.0	4.564676297184596e+17
19236.0	4.563924572351145e+17
19237.0	4.5630831040921594e+17
19238.0	4.562263913878868e+17
19239.0	4.561559015653375e+17
19240.0	4.560739084446378e+17
19241.0	4.559977829455189e+17
19242.0	4.559125899203926e+17
19243.0	4.5582749902656845e+17
19244.0	4.557608602741418e+17
19245.0	4.556836075558229e+17
19246.0	4.5560626193367034e+17
19247.0	4.555273628811263e+17
19248.0	4.5544760525455354e+17
19249.0	4.553582185545727e+17
19250.0	4.552309902846634e+17
19251.0	4.551493306111316e+17
19252.0	4.551047234191359e+17
19253.0	4.5505138445516794e+17
19254.0	4.5497675156903245e+17
19255.0	4.5487776969960096e+17
19256.0	4.5481455433809914e+17
19257.0	4.547382214306474e+17
19258.0	4.5465802032633165e+17
19259.0	4.5457337507730765e+17
19260.0	4.544822478110719e+17
19261.0	4.5442064760613536e+17
19262.0	4.543327116460031e+17
19263.0	4.54245940793617e+17
19264.0	4.541583751206229e+17
19265.0	4.540832272438612e+17
19266.0	4.540028508875434e+17
19267.0	4.539505486856191e+17
19268.0	4.538699642219178e+17
19269.0	4.537931249920683e+17
19270.0	4.5371064966621856e+17
19271.0	4.5362318290889376e+17
19272.0	4.5355702894810445e+17
19273.0	4.5346732061491194e+17
19274.0	4.5336592967707296e+17
19275.0	4.5332818038183245e+17
19276.0	4.532483326476288e+17
19277.0	4.531721431853738e+17
19278.0	4.5308637714841594e+17
19279.0	4.5301128267912525e+17
19280.0	4.52934324400947e+17
19281.0	4.528558761661781e+17
19282.0	4.527788569307817e+17
19283.0	4.52698009833745e+17
19284.0	4.526166320873472e+17
19285.0	4.5253437668283725e+17
19286.0	4.5244588232103245e+17
19287.0	4.523450541888852e+17
19288.0	4.521071039829332e+17
19289.0	4.519797163294718e+17
19290.0	4.5210816472241485e+17
19291.0	4.520360750525098e+17
19292.0	4.5199139949335885e+17
19293.0	4.5191695346346656e+17
19294.0	4.5183973269176314e+17
19295.0	4.517625635099989e+17
19296.0	4.515102016055983e+17
19297.0	4.515798903160833e+17
19298.0	4.515259036117674e+17
19299.0	4.5125880557950304e+17
19300.0	4.513746466635776e+17
19301.0	4.512970303690068e+17
19302.0	4.512181914348202e+17
19303.0	4.5113301553643514e+17
19304.0	4.51060778017314e+17
19305.0	4.5097983284346874e+17
19306.0	4.509034238093993e+17
19307.0	4.508190680372565e+17
19308.0	4.507407150830932e+17
19309.0	4.50656808870434e+17
19310.0	4.505733376770047e+17
19311.0	4.504857457197055e+17
19312.0	4.503865013567487e+17
19313.0	4.5021224081817594e+17
19314.0	4.475974466928644e+17
19315.0	4.476570838237194e+17
19316.0	4.497613241275737e+17
19317.0	4.5000067970498554e+17
19318.0	4.499505377094313e+17
19319.0	4.498792481030143e+17
19320.0	4.497464558791337e+17
19321.0	4.4957995445343565e+17
19322.0	4.496598850251434e+17
19323.0	4.495847329540779e+17
19324.0	4.4950709806475936e+17
19325.0	4.4943241226048845e+17
19326.0	4.493529939531093e+17
19327.0	4.492782919308629e+17
19328.0	4.488776515933528e+17
19329.0	4.491246456274943e+17
19330.0	4.49048323625233e+17
19331.0	4.489675165138943e+17
19332.0	4.488927365474987e+17
19333.0	4.488169705002325e+17
19334.0	4.4872710634864634e+17
19335.0	4.480056519469746e+17
19336.0	4.485776596620629e+17
19337.0	4.4850534098315936e+17
19338.0	4.484071723193685e+17
19339.0	4.483446279766015e+17
19340.0	4.482444854733482e+17
19341.0	4.479370737483781e+17
19342.0	4.4803539550426477e+17
19343.0	4.480252773051051e+17
19344.0	4.476919119959385e+17
19345.0	4.476861461561346e+17
19346.0	4.4771671564178765e+17
19347.0	4.474046161529513e+17
19348.0	4.476455159332863e+17
19349.0	4.4757049067001165e+17
19350.0	4.473799861512875e+17
19351.0	4.474167564959744e+17
19352.0	4.4701879387204205e+17
19353.0	4.472690839999829e+17
19354.0	4.4719513534463994e+17
19355.0	4.4710808585065805e+17
19356.0	4.4703966745504416e+17
19357.0	4.469638154944511e+17
19358.0	4.468855407640575e+17
19359.0	4.4673984182790784e+17
19360.0	4.464738047448404e+17
19361.0	4.466536638403925e+17
19362.0	4.465774918544042e+17
19363.0	4.465011724386304e+17
19364.0	4.4642525253031245e+17
19365.0	4.4634634753583776e+17
19366.0	4.4626444193628154e+17
19367.0	4.461913090031615e+17
19368.0	4.461158589967017e+17
19369.0	4.4603833197090125e+17
19370.0	4.4596231964808525e+17
19371.0	4.4587707622140576e+17
19372.0	4.458058763730943e+17
19373.0	4.4572547408199674e+17
19374.0	4.456490049295702e+17
19375.0	4.4557726401604256e+17
19376.0	4.4550005435924474e+17
19377.0	4.454228719654229e+17
19378.0	4.4534598485060256e+17
19379.0	4.4526893415792634e+17
19380.0	4.4518387835644576e+17
19381.0	4.451075322369364e+17
19382.0	4.45026403492386e+17
19383.0	4.449515104195925e+17
19384.0	4.4486996748752205e+17
19385.0	4.4480093490599245e+17
19386.0	4.447233381848406e+17
19387.0	4.4464251541476685e+17
19388.0	4.445606444881236e+17
19389.0	4.444739720620714e+17
19390.0	4.443514091864064e+17
19391.0	4.440211071172606e+17
19392.0	4.441202982824619e+17
19393.0	4.4414886827349325e+17
19394.0	4.4409219924186445e+17
19395.0	4.439266139919703e+17
19396.0	4.4392438283195725e+17
19397.0	4.438650856494421e+17
19398.0	4.437004289485482e+17
19399.0	4.4357229582745594e+17
19400.0	4.435450237637973e+17
19401.0	4.4355128061678925e+17
19402.0	4.4347983882704205e+17
19403.0	4.434019026468863e+17
19404.0	4.4332049498111994e+17
19405.0	4.432384481034239e+17
19406.0	4.431620187269802e+17
19407.0	4.429629395129682e+17
19408.0	4.4297609019392e+17
19409.0	4.429093000271189e+17
19410.0	4.4284267679361696e+17
19411.0	4.427647538954239e+17
19412.0	4.426838851278165e+17
19413.0	4.4248749460247885e+17
19414.0	4.4252277520029005e+17
19415.0	4.424381716845908e+17
19416.0	4.4234073227045536e+17
19417.0	4.422738219368447e+17
19418.0	4.421894043686229e+17
19419.0	4.421036347665066e+17
19420.0	4.4201734402211834e+17
19421.0	4.4193051885349536e+17
19422.0	4.4183463321927674e+17
19423.0	4.417506157876564e+17
19424.0	4.416589203330389e+17
19425.0	4.4156014573213e+17
19426.0	4.4146386779067725e+17
19427.0	4.4136201170452486e+17
19428.0	4.412490826558121e+17
19429.0	4.4113717575898445e+17
19430.0	4.40998912135441e+17
19431.0	4.408616798213461e+17
19432.0	4.407646035640319e+17
19433.0	4.4063331066402125e+17
19434.0	4.404834570600447e+17
19435.0	4.4029961260673696e+17
19436.0	4.4009347423928314e+17
19437.0	4.3982077387516576e+17
19438.0	4.3906679453341005e+17
19439.0	4.391600585179134e+17
19440.0	4.391102070478165e+17
19441.0	4.3879497462360736e+17
19442.0	4.3838024450047994e+17
19443.0	4.3784065819607034e+17
19444.0	4.3715136480870394e+17
19445.0	4.362591567959382e+17
19446.0	4.350544948057429e+17
19447.0	4.333712998487378e+17
19448.0	4.308995478476117e+17
19449.0	4.268710518150484e+17
19450.0	4.1836988945749286e+17
19451.0	4.106583513847132e+17
19452.0	4.2352992027934694e+17
19453.0	4.288978684127916e+17
19454.0	4.3181679242990906e+17
19455.0	4.336565446770687e+17
19456.0	4.348231067282091e+17
19457.0	4.354124065101141e+17
19458.0	4.281191421182008e+17
19459.0	4.348953739569851e+17
19460.0	4.3701522657880736e+17
19461.0	4.3740774268927994e+17
19462.0	4.376273815426389e+17
19463.0	4.377747850439338e+17
19464.0	4.3786707210513056e+17
19465.0	4.3793400438893216e+17
19466.0	4.379698744262655e+17
19467.0	4.379890096799744e+17
19468.0	4.3799115863162874e+17
19469.0	4.377481532407804e+17
19470.0	4.3795917154112845e+17
19471.0	4.379346788330155e+17
19472.0	4.3789654177437005e+17
19473.0	4.3785484514973e+17
19474.0	4.3756364846421286e+17
19475.0	4.3771129628371616e+17
19476.0	4.376944321757183e+17
19477.0	4.3765032354665805e+17
19478.0	4.3760143187312634e+17
19479.0	4.373150952674641e+17
19480.0	4.3747941271906976e+17
19481.0	4.374078265054548e+17
19482.0	4.37350055350545e+17
19483.0	4.372883354681343e+17
19484.0	4.372185379853652e+17
19485.0	4.371524683999914e+17
19486.0	4.368420472619015e+17
19487.0	4.3701039180458656e+17
19488.0	4.369376218185727e+17
19489.0	4.36838765568546e+17
19490.0	4.3674477324315296e+17
19491.0	4.3671399606954656e+17
19492.0	4.366599541402281e+17
19493.0	4.365885795292502e+17
19494.0	4.365141403500543e+17
19495.0	4.3643606093441696e+17
19496.0	4.363278517359957e+17
19497.0	4.362402174861312e+17
19498.0	4.359655766272682e+17
19499.0	4.3566735063777274e+17
19500.0	4.359929836077055e+17
19501.0	4.359891053445119e+17
19502.0	4.359314927342933e+17
19503.0	4.358658158056789e+17
19504.0	4.357927308973396e+17
19505.0	4.3571390783160314e+17
19506.0	4.3564633263090336e+17
19507.0	4.3556597549847885e+17
19508.0	4.3547825973930656e+17
19509.0	4.353637153942185e+17
19510.0	4.350410192759465e+17
19511.0	4.317407321522166e+17
19512.0	4.346753788674046e+17
19513.0	4.3483661902807034e+17
19514.0	4.348270691571028e+17
19515.0	4.3492783255715834e+17
19516.0	4.3485910790744736e+17
19517.0	4.348293932209493e+17
19518.0	4.347003706976937e+17
19519.0	4.346284555108351e+17
19520.0	4.343967043463847e+17
19521.0	4.3455899273352525e+17
19522.0	4.3444750484766714e+17
19523.0	4.34359032925389e+17
19524.0	4.3416208469742976e+17
19525.0	4.342620801903274e+17
19526.0	4.341901566847657e+17
19527.0	4.341184695282347e+17
19528.0	4.3402622860438163e+17
19529.0	4.339442823899819e+17
19530.0	4.338985040784042e+17
19531.0	4.3382420449962656e+17
19532.0	4.337495715435861e+17
19533.0	4.336731241316351e+17
19534.0	4.336036665273001e+17
19535.0	4.335284137230336e+17
19536.0	4.334490891583487e+17
19537.0	4.333747191152638e+17
19538.0	4.330761059216045e+17
19539.0	4.3321320415778125e+17
19540.0	4.331525420089344e+17
19541.0	4.330332927033343e+17
19542.0	4.329881185113428e+17
19543.0	4.327043674843819e+17
19544.0	4.328378219189589e+17
19545.0	4.327485802020863e+17
19546.0	4.326747355654826e+17
19547.0	4.3263400041512954e+17
19548.0	4.3256796081902925e+17
19549.0	4.3248479797684896e+17
19550.0	4.324190203849385e+17
19551.0	4.3235299106488314e+17
19552.0	4.3227514135729485e+17
19553.0	4.322037336812202e+17
19554.0	4.3212632738146976e+17
19555.0	4.320262779218602e+17
19556.0	4.319632930373631e+17
19557.0	4.319076081292629e+17
19558.0	4.3183652257573536e+17
19559.0	4.317630593411753e+17
19560.0	4.3160594637564563e+17
19561.0	4.316134151727787e+17
19562.0	4.3146501461551763e+17
19563.0	4.314708416222549e+17
19564.0	4.31388646965248e+17
19565.0	4.313201542605482e+17
19566.0	4.312424584140116e+17
19567.0	4.3117585461411834e+17
19568.0	4.3110003508947616e+17
19569.0	4.3102768390471674e+17
19570.0	4.309542172448085e+17
19571.0	4.308800087523328e+17
19572.0	4.308051353228628e+17
19573.0	4.307082986302121e+17
19574.0	4.3064304511658656e+17
19575.0	4.305890842072406e+17
19576.0	4.305025897594879e+17
19577.0	4.3040182775753376e+17
19578.0	4.303669577121791e+17
19579.0	4.3029352481641805e+17
19580.0	4.3021752612509005e+17
19581.0	4.3014260914476365e+17
19582.0	4.3007542016955725e+17
19583.0	4.300036828910933e+17
19584.0	4.299259669118975e+17
19585.0	4.2984376386628256e+17
19586.0	4.2976772078523725e+17
19587.0	4.29703108231168e+17
19588.0	4.296168436312746e+17
19589.0	4.295532418345642e+17
19590.0	4.294761287865685e+17
19591.0	4.2941293894041594e+17
19592.0	4.2934191637135354e+17
19593.0	4.292473597023572e+17
19594.0	4.2915224393263776e+17
19595.0	4.2912125788269216e+17
19596.0	4.290442920547668e+17
19597.0	4.2897107991920634e+17
19598.0	4.288521286888106e+17
19599.0	4.288212722428587e+17
19600.0	4.287512663730857e+17
19601.0	4.2867629822225056e+17
19602.0	4.285986531966975e+17
19603.0	4.285195472950613e+17
19604.0	4.2845422883962874e+17
19605.0	4.2836755983892486e+17
19606.0	4.2831352210391034e+17
19607.0	4.282462131017045e+17
19608.0	4.2816523241608525e+17
19609.0	4.280969946551636e+17
19610.0	4.279198716439213e+17
19611.0	4.2778951959620275e+17
19612.0	4.278820943866538e+17
19613.0	4.278024788770815e+17
19614.0	4.277299664912383e+17
19615.0	4.276603890696191e+17
19616.0	4.274775843842732e+17
19617.0	4.2733873299892915e+17
19618.0	4.2738614436276896e+17
19619.0	4.272892784498004e+17
19620.0	4.272023759661735e+17
19621.0	4.269693793730559e+17
19622.0	4.2714647274455034e+17
19623.0	4.2706666562519034e+17
19624.0	4.2697253663539194e+17
19625.0	4.2693091942290765e+17
19626.0	4.268518030355114e+17
19627.0	4.267786809376768e+17
19628.0	4.266949019522389e+17
19629.0	4.260457951701671e+17
19630.0	4.265018107363327e+17
19631.0	4.2639549037281274e+17
19632.0	4.2637987714607776e+17
19633.0	4.263259204310357e+17
19634.0	4.26268883489041e+17
19635.0	4.261755723885224e+17
19636.0	4.2586296545880704e+17
19637.0	4.257715153010684e+17
19638.0	4.259695546772137e+17
19639.0	4.259092213618004e+17
19640.0	4.257977496939178e+17
19641.0	4.256710246705835e+17
19642.0	4.256757745101482e+17
19643.0	4.2560860168301216e+17
19644.0	4.2554753170800634e+17
19645.0	4.254767231882581e+17
19646.0	4.251279914871462e+17
19647.0	4.253304535471444e+17
19648.0	4.2526994113495034e+17
19649.0	4.25195532853794e+17
19650.0	4.251247265011028e+17
19651.0	4.2505283759854925e+17
19652.0	4.249815994422612e+17
19653.0	4.249070529587882e+17
19654.0	4.248376142987264e+17
19655.0	4.247617450715818e+17
