# Flux units: erg / (cm m2 s)
# Wavelength units: Angstrom
wave	flux
19000.0	5.7530020262488723e+17
19001.0	5.75189356257826e+17
19002.0	5.750856512525653e+17
19003.0	5.74977762009634e+17
19004.0	5.7487011170222074e+17
19005.0	5.7476350752413e+17
19006.0	5.746565657045673e+17
19007.0	5.7452368987422714e+17
19008.0	5.744396201536169e+17
19009.0	5.743346411984213e+17
19010.0	5.74208083108386e+17
19011.0	5.7411869312286714e+17
19012.0	5.7396436084107936e+17
19013.0	5.7390539333085856e+17
19014.0	5.737968153832106e+17
19015.0	5.7369027125357216e+17
19016.0	5.7358282031540896e+17
19017.0	5.734761690912084e+17
19018.0	5.7336687063203834e+17
19019.0	5.732632217605459e+17
19020.0	5.7315494622221645e+17
19021.0	5.73048526873122e+17
19022.0	5.729418301407232e+17
19023.0	5.728336209423017e+17
19024.0	5.727274027799892e+17
19025.0	5.7261737535078394e+17
19026.0	5.725081518298451e+17
19027.0	5.723663343725225e+17
19028.0	5.723000642994175e+17
19029.0	5.7217985051361274e+17
19030.0	5.720670379966464e+17
19031.0	5.719603495130452e+17
19032.0	5.7185326781344403e+17
19033.0	5.7174339123937274e+17
19034.0	5.7163926666390176e+17
19035.0	5.715263811660458e+17
19036.0	5.686273247980164e+17
19037.0	5.713172514908841e+17
19038.0	5.712118298968063e+17
19039.0	5.7110596035106125e+17
19040.0	5.7099929207002445e+17
19041.0	5.708921303990271e+17
19042.0	5.707817707809449e+17
19043.0	5.706793802006528e+17
19044.0	5.705717972118185e+17
19045.0	5.704643153057108e+17
19046.0	5.703574769456468e+17
19047.0	5.702528199731881e+17
19048.0	5.701378473197566e+17
19049.0	5.700364182836564e+17
19050.0	5.6993154886970016e+17
19051.0	5.6938232629165984e+17
19052.0	5.697070863570262e+17
19053.0	5.696078101173587e+17
19054.0	5.69507500401186e+17
19055.0	5.69391894757376e+17
19056.0	5.6929338418790394e+17
19057.0	5.6918778251837434e+17
19058.0	5.6907465962291194e+17
19059.0	5.6897504140765856e+17
19060.0	5.688678455530836e+17
19061.0	5.6876282787048096e+17
19062.0	5.6869231169372154e+17
19063.0	5.685959728649556e+17
19064.0	5.684844106001066e+17
19065.0	5.683770806676137e+17
19066.0	5.6828089961458336e+17
19067.0	5.6830573199141536e+17
19068.0	5.6820008942742176e+17
19069.0	5.6809386154830496e+17
19070.0	5.679864583553023e+17
19071.0	5.678789506542249e+17
19072.0	5.677749294683477e+17
19073.0	5.6766889893123405e+17
19074.0	5.67562935013649e+17
19075.0	5.6745679661301754e+17
19076.0	5.67349806698769e+17
19077.0	5.6724415980066125e+17
19078.0	5.671368383266816e+17
19079.0	5.670323592626175e+17
19080.0	5.669257283108863e+17
19081.0	5.6681858271805434e+17
19082.0	5.667122833959594e+17
19083.0	5.666048393783977e+17
19084.0	5.664940443216554e+17
19085.0	5.663959902322687e+17
19086.0	5.662744740451668e+17
19087.0	5.66100265865489e+17
19088.0	5.660741731003049e+17
19089.0	5.659184357965823e+17
19090.0	5.658609464989011e+17
19091.0	5.6575599606497274e+17
19092.0	5.6562840379938125e+17
19093.0	5.655451595877034e+17
19094.0	5.6543914058492576e+17
19095.0	5.6533327110908576e+17
19096.0	5.652255020329642e+17
19097.0	5.6512208042284365e+17
19098.0	5.6501616348146336e+17
19099.0	5.6491056845291514e+17
19100.0	5.648006797153621e+17
19101.0	5.6469785250802323e+17
19102.0	5.645901076889598e+17
19103.0	5.6448803056298656e+17
19104.0	5.6438288628230816e+17
19105.0	5.6427689747851936e+17
19106.0	5.641559175331838e+17
19107.0	5.64065504137489e+17
19108.0	5.639605081953619e+17
19109.0	5.636045385236475e+17
19110.0	5.637467743627947e+17
19111.0	5.636431908525396e+17
19112.0	5.6353887466728096e+17
19113.0	5.634335401050111e+17
19114.0	5.633279985538389e+17
19115.0	5.632150121829717e+17
19116.0	5.6311681919221754e+17
19117.0	5.630118521907881e+17
19118.0	5.628890715608406e+17
19119.0	5.626498175554897e+17
19120.0	5.626699353249108e+17
19121.0	5.625769977970687e+17
19122.0	5.624860745138175e+17
19123.0	5.6238076392898554e+17
19124.0	5.622603762193749e+17
19125.0	5.621698072849067e+17
19126.0	5.620618976296958e+17
19127.0	5.618965953555112e+17
19128.0	5.616985531132582e+17
19129.0	5.6174678718982803e+17
19130.0	5.616444343582719e+17
19131.0	5.6153468333370016e+17
19132.0	5.614349292229972e+17
19133.0	5.6130745544649395e+17
19134.0	5.611422485927254e+17
19135.0	5.6111885388349434e+17
19136.0	5.6101519669329914e+17
19137.0	5.6090426930626554e+17
19138.0	5.607942598426623e+17
19139.0	5.607004113818964e+17
19140.0	5.6059566248427514e+17
19141.0	5.6049082550626976e+17
19142.0	5.6038418651545594e+17
19143.0	5.6027884104799565e+17
19144.0	5.601747138161321e+17
19145.0	5.600713835719338e+17
19146.0	5.599402778077866e+17
19147.0	5.5985831250930336e+17
19148.0	5.597556079853568e+17
19149.0	5.5965131563772576e+17
19150.0	5.595475742119251e+17
19151.0	5.594431501631488e+17
19152.0	5.5933567447859194e+17
19153.0	5.5923313129553914e+17
19154.0	5.591249174134784e+17
19155.0	5.590241306651305e+17
19156.0	5.5892031688758605e+17
19157.0	5.5881313033038496e+17
19158.0	5.585414795209383e+17
19159.0	5.586057048009386e+17
19160.0	5.584980683347284e+17
19161.0	5.583823233701205e+17
19162.0	5.579109320447319e+17
19163.0	5.581672543507796e+17
19164.0	5.5804302137316685e+17
19165.0	5.5793109217662285e+17
19166.0	5.5782114639653536e+17
19167.0	5.576937688094036e+17
19168.0	5.576229925158911e+17
19169.0	5.575135492134228e+17
19170.0	5.574174939196073e+17
19171.0	5.5728953947586554e+17
19172.0	5.57207077991219e+17
19173.0	5.5710399437209594e+17
19174.0	5.569988817584128e+17
19175.0	5.5689662441717754e+17
19176.0	5.567923445825534e+17
19177.0	5.56683007046451e+17
19178.0	5.5658211648907936e+17
19179.0	5.564443380766038e+17
19180.0	5.5635921055252474e+17
19181.0	5.562678500130815e+17
19182.0	5.561659449234772e+17
19183.0	5.5606458865855136e+17
19184.0	5.559616251363328e+17
19185.0	5.5586181104708256e+17
19186.0	5.557583030342996e+17
19187.0	5.556508360179711e+17
19188.0	5.5554805005462176e+17
19189.0	5.5543982743442765e+17
19190.0	5.5533390133548365e+17
19191.0	5.5523218981300896e+17
19192.0	5.551343278227455e+17
19193.0	5.550212686807039e+17
19194.0	5.549223892921002e+17
19195.0	5.5482094970033485e+17
19196.0	5.5471815290170016e+17
19197.0	5.546143640802645e+17
19198.0	5.545092479713279e+17
19199.0	5.520965239483044e+17
19200.0	5.52908786499585e+17
19201.0	5.54198213206562e+17
19202.0	5.5409587645317114e+17
19203.0	5.539868482469887e+17
19204.0	5.538975569674238e+17
19205.0	5.538028243473749e+17
19206.0	5.5369936799443616e+17
19207.0	5.5359312431677434e+17
19208.0	5.534837347013972e+17
19209.0	5.5338684201478816e+17
19210.0	5.532846385004543e+17
19211.0	5.531022662478507e+17
19212.0	5.529922478363988e+17
19213.0	5.5286481803018234e+17
19214.0	5.52751325966063e+17
19215.0	5.526742622710441e+17
19216.0	5.5257788548382714e+17
19217.0	5.524741945993898e+17
19218.0	5.5234073345392634e+17
19219.0	5.522622621504852e+17
19220.0	5.521618475767124e+17
19221.0	5.52046843535906e+17
19222.0	5.5195697155495245e+17
19223.0	5.5185259539114656e+17
19224.0	5.517481934323711e+17
19225.0	5.516412635665749e+17
19226.0	5.515424979834196e+17
19227.0	5.5143902806889805e+17
19228.0	5.513367594030419e+17
19229.0	5.5123335450023245e+17
19230.0	5.5112422870657696e+17
19231.0	5.5102192138321914e+17
19232.0	5.50922200617233e+17
19233.0	5.5081659132805114e+17
19234.0	5.507153137063253e+17
19235.0	5.506111314591743e+17
19236.0	5.5050901057262925e+17
19237.0	5.5040505216150176e+17
19238.0	5.5029556544798714e+17
19239.0	5.5020250992039245e+17
19240.0	5.500945727924906e+17
19241.0	5.4999450830329165e+17
19242.0	5.4989285277477536e+17
19243.0	5.4978486028206074e+17
19244.0	5.496874489697621e+17
19245.0	5.495838924428628e+17
19246.0	5.494802455287124e+17
19247.0	5.493774690724522e+17
19248.0	5.4927368472494074e+17
19249.0	5.4916982928397645e+17
19250.0	5.4906685199045965e+17
19251.0	5.4896218655948794e+17
19252.0	5.488484312328874e+17
19253.0	5.487568692270421e+17
19254.0	5.486533332522324e+17
19255.0	5.485432965256532e+17
19256.0	5.4844336240940365e+17
19257.0	5.4834452706099194e+17
19258.0	5.4824115305622163e+17
19259.0	5.4813491189514234e+17
19260.0	5.4798468394953376e+17
19261.0	5.4793044390925645e+17
19262.0	5.478254762786815e+17
19263.0	5.4772246941532154e+17
19264.0	5.476025825755134e+17
19265.0	5.4750999051851085e+17
19266.0	5.4740749640881485e+17
19267.0	5.4731009544246605e+17
19268.0	5.472050370751145e+17
19269.0	5.471018171411113e+17
19270.0	5.4699826355022496e+17
19271.0	5.4688290928503456e+17
19272.0	5.467904431969621e+17
19273.0	5.465385065250812e+17
19274.0	5.465109632996691e+17
19275.0	5.464813166308009e+17
19276.0	5.463771046739967e+17
19277.0	5.4627347230010016e+17
19278.0	5.459781168922621e+17
19279.0	5.458340867298644e+17
19280.0	5.4573303574036474e+17
19281.0	5.456326321416873e+17
19282.0	5.455295003579732e+17
19283.0	5.453893476199081e+17
19284.0	5.4526929147002854e+17
19285.0	5.4521089473467725e+17
19286.0	5.451138769879039e+17
19287.0	5.4501229129454925e+17
19288.0	5.443784436001458e+17
19289.0	5.427187628201255e+17
19290.0	5.447007984418815e+17
19291.0	5.445877515332267e+17
19292.0	5.4449295131497805e+17
19293.0	5.4438871873617914e+17
19294.0	5.442843093674666e+17
19295.0	5.441809022975999e+17
19296.0	5.440761956226388e+17
19297.0	5.439701471898283e+17
19298.0	5.4387500436684794e+17
19299.0	5.4378607142065485e+17
19300.0	5.436818051476138e+17
19301.0	5.43573536739601e+17
19302.0	5.434688527138815e+17
19303.0	5.4336018305078605e+17
19304.0	5.432572844004692e+17
19305.0	5.431535299024211e+17
19306.0	5.430472143623508e+17
19307.0	5.4293952211189754e+17
19308.0	5.428370103861247e+17
19309.0	5.426573264027646e+17
19310.0	5.425141629932883e+17
19311.0	5.425193014351188e+17
19312.0	5.424180226250068e+17
19313.0	5.423120121506474e+17
19314.0	5.3989327426463456e+17
19315.0	5.400565302078182e+17
19316.0	5.419899004387326e+17
19317.0	5.4189030983598074e+17
19318.0	5.4186220527288314e+17
19319.0	5.418269233468757e+17
19320.0	5.417205895615828e+17
19321.0	5.4161464479798605e+17
19322.0	5.4149893010227194e+17
19323.0	5.413546090648918e+17
19324.0	5.412865557834409e+17
19325.0	5.4110642133183123e+17
19326.0	5.4107403102890656e+17
19327.0	5.409666734140074e+17
19328.0	5.4086010943133e+17
19329.0	5.407531007825236e+17
19330.0	5.406439652021588e+17
19331.0	5.405362200335701e+17
19332.0	5.403356748404053e+17
19333.0	5.400639816684883e+17
19334.0	5.399566843117568e+17
19335.0	5.398478148599807e+17
19336.0	5.397594731708415e+17
19337.0	5.3968270279748256e+17
19338.0	5.3956592715257165e+17
19339.0	5.3946290609848314e+17
19340.0	5.393497608333994e+17
19341.0	5.3924286626966176e+17
19342.0	5.391153738984106e+17
19343.0	5.3902183728414714e+17
19344.0	5.3891021266397856e+17
19345.0	5.387109308650834e+17
19346.0	5.386744562887339e+17
19347.0	5.385542161487188e+17
19348.0	5.384301472382975e+17
19349.0	5.3831480597544954e+17
19350.0	5.3820146329845754e+17
19351.0	5.3808792747376634e+17
19352.0	5.3797281361210016e+17
19353.0	5.378608974178985e+17
19354.0	5.375184331254442e+17
19355.0	5.3737538443018234e+17
19356.0	5.3726198233388365e+17
19357.0	5.3726196003416723e+17
19358.0	5.37198944391441e+17
19359.0	5.370744257817258e+17
19360.0	5.3696198655781536e+17
19361.0	5.3681880944694605e+17
19362.0	5.3669609830263456e+17
19363.0	5.365703506919423e+17
19364.0	5.364482893851305e+17
19365.0	5.3627800588561043e+17
19366.0	5.36147742757137e+17
19367.0	5.360226250610003e+17
19368.0	5.3589838208696314e+17
19369.0	5.358145982081705e+17
19370.0	5.3569301749869216e+17
19371.0	5.355808437742249e+17
19372.0	5.354534791195307e+17
19373.0	5.3549535714781856e+17
19374.0	5.3539245989560314e+17
19375.0	5.35259781407266e+17
19376.0	5.3512660002187936e+17
19377.0	5.349609168349865e+17
19378.0	5.347103031863977e+17
19379.0	5.3457166654941856e+17
19380.0	5.344313617678336e+17
19381.0	5.3428886189725e+17
19382.0	5.343383099452071e+17
19383.0	5.343148753201834e+17
19384.0	5.341720877902506e+17
19385.0	5.3402348779383456e+17
19386.0	5.3385836007260154e+17
19387.0	5.3367469143053645e+17
19388.0	5.336212334182399e+17
19389.0	5.3346241826433696e+17
19390.0	5.333523050616147e+17
19391.0	5.306101526429655e+17
19392.0	5.330481512622761e+17
19393.0	5.3303406664963405e+17
19394.0	5.328604982411262e+17
19395.0	5.325533174824957e+17
19396.0	5.324142318452735e+17
19397.0	5.3219046901241165e+17
19398.0	5.3199639989452794e+17
19399.0	5.31777049818999e+17
19400.0	5.3149328544017056e+17
19401.0	5.3128531297348256e+17
19402.0	5.3113048862993056e+17
19403.0	5.307093682749439e+17
19404.0	5.304452656747862e+17
19405.0	5.303026733197993e+17
19406.0	5.2981376511290016e+17
19407.0	5.2969750257117824e+17
19408.0	5.291314887961258e+17
19409.0	5.288649419653122e+17
19410.0	5.282412019843072e+17
19411.0	5.2778755717857254e+17
19412.0	5.273713401746772e+17
19413.0	5.269404906422271e+17
19414.0	5.265432909621928e+17
19415.0	5.2604697966892365e+17
19416.0	5.256157747391145e+17
19417.0	5.251481118703615e+17
19418.0	5.2480040560667296e+17
19419.0	5.243640703440213e+17
19420.0	5.238609873469438e+17
19421.0	5.233585274137257e+17
19422.0	5.2269374344178336e+17
19423.0	5.222787174804136e+17
19424.0	5.214308146697555e+17
19425.0	5.206694341290663e+17
19426.0	5.1990529205862394e+17
19427.0	5.18780861651353e+17
19428.0	5.1763553424288454e+17
19429.0	5.162529331696982e+17
19430.0	5.1440453254731066e+17
19431.0	5.127058327164264e+17
19432.0	5.127043382859086e+17
19433.0	5.116144389543255e+17
19434.0	5.09294056518452e+17
19435.0	5.0677070101654176e+17
19436.0	5.0465548792408704e+17
19437.0	5.030241877622782e+17
19438.0	4.971874751960382e+17
19439.0	4.991128431143593e+17
19440.0	4.9681708466831366e+17
19441.0	4.9403314069394797e+17
19442.0	4.909310832279559e+17
19443.0	4.843363332609376e+17
19444.0	4.7610066482408115e+17
19445.0	4.729054781505534e+17
19446.0	4.6626092795385197e+17
19447.0	4.57980830932446e+17
19448.0	4.431468042387461e+17
19449.0	4.262230825282224e+17
19450.0	3.8586319061210323e+17
19451.0	3.745251866269005e+17
19452.0	4.0759144414358374e+17
19453.0	4.370837373190152e+17
19454.0	4.4984324496643635e+17
19455.0	4.6244132888248416e+17
19456.0	4.69015875306564e+17
19457.0	4.738290512385357e+17
19458.0	4.743086717184733e+17
19459.0	4.871415331291136e+17
19460.0	4.9100146190144794e+17
19461.0	4.9374178245782214e+17
19462.0	4.961458565677059e+17
19463.0	4.9816017127342054e+17
19464.0	4.998093023302996e+17
19465.0	5.014997514758826e+17
19466.0	5.0308437378771616e+17
19467.0	5.0500512209960915e+17
19468.0	5.0763659983803654e+17
19469.0	5.0897045862481894e+17
19470.0	5.094518255430325e+17
19471.0	5.099918500123984e+17
19472.0	5.115573009995099e+17
19473.0	5.128809228883287e+17
19474.0	5.14045283069679e+17
19475.0	5.1483536495301965e+17
19476.0	5.1559484834010464e+17
19477.0	5.161622902756693e+17
19478.0	5.168658970749609e+17
19479.0	5.1715615905983123e+17
19480.0	5.175704078166696e+17
19481.0	5.179415244483242e+17
19482.0	5.182006285565951e+17
19483.0	5.185693688354133e+17
19484.0	5.1872269462405114e+17
19485.0	5.189533370242388e+17
19486.0	5.1916093843483296e+17
19487.0	5.1942560684660064e+17
19488.0	5.196851987524266e+17
19489.0	5.19859304660992e+17
19490.0	5.2004317945309843e+17
19491.0	5.2036261121447264e+17
19492.0	5.205834988519423e+17
19493.0	5.210303423840255e+17
19494.0	5.2107720324546515e+17
19495.0	5.2133940680458214e+17
19496.0	5.212633785434111e+17
19497.0	5.2157476094607366e+17
19498.0	5.214026990616577e+17
19499.0	5.173454713476369e+17
19500.0	5.217471741733545e+17
19501.0	5.217276617818111e+17
19502.0	5.217318597208745e+17
19503.0	5.218404362005162e+17
19504.0	5.2183659799292576e+17
19505.0	5.2182763916929696e+17
19506.0	5.218460358060715e+17
19507.0	5.217864351656617e+17
19508.0	5.218814169972735e+17
19509.0	5.218739499477673e+17
19510.0	5.2175721519732045e+17
19511.0	5.1677089979432454e+17
19512.0	5.21212431521106e+17
19513.0	5.202895346248339e+17
19514.0	5.206846842688846e+17
19515.0	5.213074857743701e+17
19516.0	5.21295564513826e+17
19517.0	5.2125509598139725e+17
19518.0	5.212419257270271e+17
19519.0	5.211895301319338e+17
19520.0	5.211371527121577e+17
19521.0	5.210700234358783e+17
19522.0	5.207702744946004e+17
19523.0	5.206722114573653e+17
19524.0	5.206126141723989e+17
19525.0	5.2055194377475405e+17
19526.0	5.2049194495508474e+17
19527.0	5.2044863422245555e+17
19528.0	5.204990275966292e+17
19529.0	5.2043345874124794e+17
19530.0	5.203674226404009e+17
19531.0	5.2029954670810445e+17
19532.0	5.202304556160341e+17
19533.0	5.199738496352256e+17
19534.0	5.1990258491501216e+17
19535.0	5.198308721033215e+17
19536.0	5.1975802305467725e+17
19537.0	5.1968663383354003e+17
19538.0	5.1956702563532794e+17
19539.0	5.1945523890530995e+17
19540.0	5.1940160829740365e+17
19541.0	5.193267888346453e+17
19542.0	5.1925009815306234e+17
19543.0	5.191728871680683e+17
19544.0	5.190954663280638e+17
19545.0	5.1900792819766586e+17
19546.0	5.188996894993066e+17
19547.0	5.1886630633471994e+17
19548.0	5.187875125592064e+17
19549.0	5.187038303223806e+17
19550.0	5.186265615258964e+17
19551.0	5.185453769971028e+17
19552.0	5.184636434339156e+17
19553.0	5.1838098034305696e+17
19554.0	5.182962373667497e+17
19555.0	5.180757251893929e+17
19556.0	5.17995357151778e+17
19557.0	5.1804426623167136e+17
19558.0	5.17961240752947e+17
19559.0	5.178766379362985e+17
19560.0	5.1782192030460576e+17
19561.0	5.177568964291242e+17
19562.0	5.176922674473642e+17
19563.0	5.1768273295551136e+17
19564.0	5.175970238212778e+17
19565.0	5.1751082660986874e+17
19566.0	5.174240016509609e+17
19567.0	5.173384492438868e+17
19568.0	5.17253653209634e+17
19569.0	5.171667328303102e+17
19570.0	5.170805787503274e+17
19571.0	5.1699326438604794e+17
19572.0	5.1690431025861965e+17
19573.0	5.1681765649722016e+17
19574.0	5.167264777808553e+17
19575.0	5.166421650702335e+17
19576.0	5.165537968870741e+17
19577.0	5.164629853820245e+17
19578.0	5.163758477377534e+17
19579.0	5.162873763048106e+17
19580.0	5.1619884055920634e+17
19581.0	5.1611028510037325e+17
19582.0	5.160219978672809e+17
19583.0	5.159328569535146e+17
19584.0	5.1584255610497696e+17
19585.0	5.157500970773162e+17
19586.0	5.156581863849983e+17
19587.0	5.1555966910463994e+17
19588.0	5.154679749083135e+17
19589.0	5.153918014543188e+17
19590.0	5.153011311575039e+17
19591.0	5.152156179671721e+17
19592.0	5.15125698241058e+17
19593.0	5.1503510609810765e+17
19594.0	5.14933177590306e+17
19595.0	5.1485483638019405e+17
19596.0	5.144706918907902e+17
19597.0	5.1467483943185056e+17
19598.0	5.1457171268130125e+17
19599.0	5.146594008978773e+17
19600.0	5.146322249536851e+17
19601.0	5.1453894489101645e+17
19602.0	5.144487156252671e+17
19603.0	5.143052908407465e+17
19604.0	5.142661537202175e+17
19605.0	5.1416645399565645e+17
19606.0	5.1408598305778336e+17
19607.0	5.1399531150267725e+17
19608.0	5.138681533475497e+17
19609.0	5.137642450583551e+17
19610.0	5.1367555733913594e+17
19611.0	5.1358398806316365e+17
19612.0	5.134931343354538e+17
19613.0	5.134011102571177e+17
19614.0	5.1330901941944314e+17
19615.0	5.132187493291347e+17
19616.0	5.1310427719598074e+17
19617.0	5.130357496785577e+17
19618.0	5.1292708120384845e+17
19619.0	5.1282541805567994e+17
19620.0	5.127377308177747e+17
19621.0	5.1266946425596576e+17
19622.0	5.1257856376176634e+17
19623.0	5.124870244750676e+17
19624.0	5.123949720152746e+17
19625.0	5.1230326754290336e+17
19626.0	5.1221184954149536e+17
19627.0	5.1211981350939296e+17
19628.0	5.119736739616087e+17
19629.0	5.1193270050488314e+17
19630.0	5.1181367839074976e+17
19631.0	5.092533958169911e+17
19632.0	5.116603816826198e+17
19633.0	5.1156604465534285e+17
19634.0	5.1147803438612474e+17
19635.0	5.1138487896418976e+17
19636.0	5.112935799412051e+17
19637.0	5.1118938650924365e+17
19638.0	5.111105429613226e+17
19639.0	5.110175572688896e+17
19640.0	5.1092447133259085e+17
19641.0	5.108056397097644e+17
19642.0	5.1074319568076806e+17
19643.0	5.1065052281350816e+17
19644.0	5.1055767672149325e+17
19645.0	5.1045832799027194e+17
19646.0	5.1037605993294496e+17
19647.0	5.1028442291896294e+17
19648.0	5.1019259212813645e+17
19649.0	5.10100636766481e+17
19650.0	5.1000889999796896e+17
19651.0	5.099166175505066e+17
19652.0	5.0982470161530874e+17
19653.0	5.097320780311211e+17
19654.0	5.0964096607409485e+17
19655.0	5.095493511501141e+17
