# Flux units: erg / (cm m2 s)
# Wavelength units: Angstrom
wave	flux
19000.0	6.990983751270397e+17
19001.0	6.989623381895849e+17
19002.0	6.988411065860096e+17
19003.0	6.987122151347539e+17
19004.0	6.985833221455872e+17
19005.0	6.984546954248191e+17
19006.0	6.983257925091327e+17
19007.0	6.98195835425041e+17
19008.0	6.980633718248787e+17
19009.0	6.979331419013119e+17
19010.0	6.977749883289599e+17
19011.0	6.976781911326719e+17
19012.0	6.975413079244799e+17
19013.0	6.974213468454911e+17
19014.0	6.972878881467049e+17
19015.0	6.971602670802259e+17
19016.0	6.970301630556842e+17
19017.0	6.969044797576532e+17
19018.0	6.967743064571903e+17
19019.0	6.966453011305812e+17
19020.0	6.965145007117652e+17
19021.0	6.963873363350868e+17
19022.0	6.962582221662889e+17
19023.0	6.961254771982335e+17
19024.0	6.959969953207636e+17
19025.0	6.958687033753599e+17
19026.0	6.957370712260607e+17
19027.0	6.956047457583104e+17
19028.0	6.954798198816765e+17
19029.0	6.953498565061289e+17
19030.0	6.952214167115091e+17
19031.0	6.9509170331648e+17
19032.0	6.949702201245693e+17
19033.0	6.948414407311359e+17
19034.0	6.94717189718016e+17
19035.0	6.945846494319955e+17
19036.0	6.940888834681513e+17
19037.0	6.943278696671913e+17
19038.0	6.941968927380819e+17
19039.0	6.940689321426941e+17
19040.0	6.939390320312319e+17
19041.0	6.938090651604308e+17
19042.0	6.93673005224209e+17
19043.0	6.935491379199999e+17
19044.0	6.934189712605183e+17
19045.0	6.932890927497215e+17
19046.0	6.931553393311743e+17
19047.0	6.930279726492329e+17
19048.0	6.928837320725844e+17
19049.0	6.927640878033577e+17
19050.0	6.926354538823679e+17
19051.0	6.92446687483221e+17
19052.0	6.923691772346367e+17
19053.0	6.92248349193011e+17
19054.0	6.921182771150847e+17
19055.0	6.919690522372778e+17
19056.0	6.918563549238611e+17
19057.0	6.917271729471487e+17
19058.0	6.915968137691135e+17
19059.0	6.914673989386239e+17
19060.0	6.913355512020991e+17
19061.0	6.912070935117823e+17
19062.0	6.910765216825343e+17
19063.0	6.909464273747968e+17
19064.0	6.908079346024447e+17
19065.0	6.906728132116479e+17
19066.0	6.905513059024893e+17
19067.0	6.904255738806271e+17
19068.0	6.902953559108265e+17
19069.0	6.901651591222612e+17
19070.0	6.900330650402815e+17
19071.0	6.899046320963583e+17
19072.0	6.89774346318643e+17
19073.0	6.896436735464787e+17
19074.0	6.895137714776746e+17
19075.0	6.893834690625535e+17
19076.0	6.892516137762815e+17
19077.0	6.891218897556819e+17
19078.0	6.889905905642153e+17
19079.0	6.888621017661437e+17
19080.0	6.887306798213801e+17
19081.0	6.885985442157908e+17
19082.0	6.884679008736598e+17
19083.0	6.883325145426602e+17
19084.0	6.881928800108543e+17
19085.0	6.880801313871187e+17
19086.0	6.879214506606591e+17
19087.0	6.878092763769513e+17
19088.0	6.876828924204372e+17
19089.0	6.875396895845034e+17
19090.0	6.874257801871359e+17
19091.0	6.872959444582399e+17
19092.0	6.871618595498665e+17
19093.0	6.870372594308435e+17
19094.0	6.869066490139988e+17
19095.0	6.867762167152639e+17
19096.0	6.866450313292457e+17
19097.0	6.865157395316736e+17
19098.0	6.863855653224447e+17
19099.0	6.862551759454207e+17
19100.0	6.861243595882496e+17
19101.0	6.859942578006697e+17
19102.0	6.858567935415636e+17
19103.0	6.857336429740031e+17
19104.0	6.85603246187042e+17
19105.0	6.854727753706153e+17
19106.0	6.853405215555583e+17
19107.0	6.852108340953087e+17
19108.0	6.850813265707007e+17
19109.0	6.849207793090559e+17
19110.0	6.848191456608255e+17
19111.0	6.846903536844799e+17
19112.0	6.845600398049277e+17
19113.0	6.844296571387904e+17
19114.0	6.842991159279615e+17
19115.0	6.841649344806911e+17
19116.0	6.84036667351586e+17
19117.0	6.839063865371306e+17
19118.0	6.837700834710867e+17
19119.0	6.833597849097551e+17
19120.0	6.83512347894306e+17
19121.0	6.833838402917716e+17
19122.0	6.832558673930921e+17
19123.0	6.831253921726464e+17
19124.0	6.82992961987106e+17
19125.0	6.828642631942143e+17
19126.0	6.827332711656106e+17
19127.0	6.824764138760873e+17
19128.0	6.82465932939537e+17
19129.0	6.823362972789417e+17
19130.0	6.822108801794047e+17
19131.0	6.820816049493334e+17
19132.0	6.819510024317609e+17
19133.0	6.818118731737769e+17
19134.0	6.816869349239465e+17
19135.0	6.81559455974468e+17
19136.0	6.81429451215121e+17
19137.0	6.812871897208148e+17
19138.0	6.811673335693311e+17
19139.0	6.81037945372672e+17
19140.0	6.809075616579583e+17
19141.0	6.807770527432704e+17
19142.0	6.806446711417514e+17
19143.0	6.805120359945556e+17
19144.0	6.803826770182143e+17
19145.0	6.802549299828052e+17
19146.0	6.800808321832276e+17
19147.0	6.799873124160852e+17
19148.0	6.798630854503081e+17
19149.0	6.797325644420436e+17
19150.0	6.796014830747647e+17
19151.0	6.79471516623394e+17
19152.0	6.7934060820125e+17
19153.0	6.792087027930452e+17
19154.0	6.79070360736017e+17
19155.0	6.789489537406292e+17
19156.0	6.78818061955891e+17
19157.0	6.786863269762387e+17
19158.0	6.785370056294399e+17
19159.0	6.784243747957417e+17
19160.0	6.782950532186111e+17
19161.0	6.781637727617023e+17
19162.0	6.779866005372928e+17
19163.0	6.779011686465535e+17
19164.0	6.777727146612052e+17
19165.0	6.776411025746601e+17
19166.0	6.775022253943465e+17
19167.0	6.77376083309363e+17
19168.0	6.772483010418004e+17
19169.0	6.77117262176802e+17
19170.0	6.769880351113215e+17
19171.0	6.768546959501993e+17
19172.0	6.767263381542227e+17
19173.0	6.765955946381311e+17
19174.0	6.764606685620906e+17
19175.0	6.763339541643264e+17
19176.0	6.762030456722771e+17
19177.0	6.760608247229098e+17
19178.0	6.759396304486397e+17
19179.0	6.758064168370173e+17
19180.0	6.756783936765951e+17
19181.0	6.755397104828415e+17
19182.0	6.754156216494761e+17
19183.0	6.752858463884628e+17
19184.0	6.751535888684372e+17
19185.0	6.750231951572991e+17
19186.0	6.748923056794281e+17
19187.0	6.747556790228308e+17
19188.0	6.746297663662761e+17
19189.0	6.744986076839935e+17
19190.0	6.743670426435583e+17
19191.0	6.742334704189439e+17
19192.0	6.741048533450751e+17
19193.0	6.739731580015958e+17
19194.0	6.738408971960319e+17
19195.0	6.737102665067178e+17
19196.0	6.73577655406865e+17
19197.0	6.734454650656084e+17
19198.0	6.733105803034623e+17
19199.0	6.728962336096253e+17
19200.0	6.728485237511508e+17
19201.0	6.729164781169322e+17
19202.0	6.727882327982079e+17
19203.0	6.726566150493523e+17
19204.0	6.72524017930513e+17
19205.0	6.723933270529364e+17
19206.0	6.722614994490708e+17
19207.0	6.721233906652499e+17
19208.0	6.719832489022803e+17
19209.0	6.718658038464511e+17
19210.0	6.717348057361065e+17
19211.0	6.716026937584297e+17
19212.0	6.714705259266047e+17
19213.0	6.712512654693718e+17
19214.0	6.709989651513343e+17
19215.0	6.708751655851348e+17
19216.0	6.707436598241961e+17
19217.0	6.706109757434536e+17
19218.0	6.704192713042601e+17
19219.0	6.703339111361193e+17
19220.0	6.702112438222848e+17
19221.0	6.700570043744255e+17
19222.0	6.699467107467261e+17
19223.0	6.698134415605759e+17
19224.0	6.696777179376297e+17
19225.0	6.695377888957779e+17
19226.0	6.69413223379763e+17
19227.0	6.692797487426217e+17
19228.0	6.691485444822355e+17
19229.0	6.690150482444287e+17
19230.0	6.688812509254996e+17
19231.0	6.687468926184106e+17
19232.0	6.686135203921919e+17
19233.0	6.68475141005858e+17
19234.0	6.683448148929193e+17
19235.0	6.682108979664212e+17
19236.0	6.680784731635711e+17
19237.0	6.679431624698538e+17
19238.0	6.678031173156863e+17
19239.0	6.676758171833684e+17
19240.0	6.675389146114729e+17
19241.0	6.674043012907007e+17
19242.0	6.672707874368169e+17
19243.0	6.671246898320723e+17
19244.0	6.670024307638271e+17
19245.0	6.668673932591103e+17
19246.0	6.667310943174655e+17
19247.0	6.665968870053203e+17
19248.0	6.664615624704e+17
19249.0	6.663258447194794e+17
19250.0	6.661888030365012e+17
19251.0	6.660459929272319e+17
19252.0	6.658971191126698e+17
19253.0	6.657807307418282e+17
19254.0	6.656459532839593e+17
19255.0	6.654958710205097e+17
19256.0	6.653710221093545e+17
19257.0	6.652368053600255e+17
19258.0	6.650999235499348e+17
19259.0	6.649574738711891e+17
19260.0	6.648182183646548e+17
19261.0	6.646881297192276e+17
19262.0	6.645472408109055e+17
19263.0	6.643167765288276e+17
19264.0	6.639844770622121e+17
19265.0	6.6387031111325e+17
19266.0	6.637321043225257e+17
19267.0	6.636065853014015e+17
19268.0	6.634673373446143e+17
19269.0	6.633278452094292e+17
19270.0	6.631878524840618e+17
19271.0	6.630241843107156e+17
19272.0	6.62905187082786e+17
19273.0	6.626864201553235e+17
19274.0	6.625686672375807e+17
19275.0	6.624858941860521e+17
19276.0	6.623434212988244e+17
19277.0	6.622023382641322e+17
19278.0	6.6206094589952e+17
19279.0	6.619185959753042e+17
19280.0	6.617711898176169e+17
19281.0	6.616335340186282e+17
19282.0	6.614919307504297e+17
19283.0	6.613448593681065e+17
19284.0	6.612012314394623e+17
19285.0	6.610478448334163e+17
19286.0	6.609144921107113e+17
19287.0	6.607726890538323e+17
19288.0	6.603966081138687e+17
19289.0	6.599500781759144e+17
19290.0	6.600193458481833e+17
19291.0	6.598534273608362e+17
19292.0	6.597250316064084e+17
19293.0	6.59576572748322e+17
19294.0	6.594280354567507e+17
19295.0	6.592802482465449e+17
19296.0	6.591311262689962e+17
19297.0	6.589806633724586e+17
19298.0	6.588301849569962e+17
19299.0	6.586810187994452e+17
19300.0	6.585298490228735e+17
19301.0	6.583778960998399e+17
19302.0	6.582252147660115e+17
19303.0	6.580680774036137e+17
19304.0	6.576752741930323e+17
19305.0	6.573755811758077e+17
19306.0	6.572198706457257e+17
19307.0	6.570597377813162e+17
19308.0	6.56903647666722e+17
19309.0	6.567373026885632e+17
19310.0	6.565743454497449e+17
19311.0	6.564256829581994e+17
19312.0	6.562678749964969e+17
19313.0	6.561075067617279e+17
19314.0	6.556543940034559e+17
19315.0	6.552807020691462e+17
19316.0	6.551489911368362e+17
19317.0	6.549822071548586e+17
19318.0	6.548133675444905e+17
19319.0	6.546454853539156e+17
19320.0	6.544751302716074e+17
19321.0	6.543038941757437e+17
19322.0	6.54125526295074e+17
19323.0	6.539277446589094e+17
19324.0	6.535052741574655e+17
19325.0	6.533195259794772e+17
19326.0	6.531487362274644e+17
19327.0	6.529684189042003e+17
19328.0	6.527886447433044e+17
19329.0	6.526065473574227e+17
19330.0	6.524202644755795e+17
19331.0	6.522348405871956e+17
19332.0	6.520515400652116e+17
19333.0	6.518639590462804e+17
19334.0	6.5167451764381e+17
19335.0	6.514838220745385e+17
19336.0	6.512911985934335e+17
19337.0	6.510968549583529e+17
19338.0	6.50886610297378e+17
19339.0	6.50703655665664e+17
19340.0	6.504990625497087e+17
19341.0	6.503017620002131e+17
19342.0	6.500744979720873e+17
19343.0	6.498952569072298e+17
19344.0	6.496883226006868e+17
19345.0	6.493438377721852e+17
19346.0	6.492120834987348e+17
19347.0	6.49051453469491e+17
19348.0	6.488413266684585e+17
19349.0	6.486221657560403e+17
19350.0	6.484023822690985e+17
19351.0	6.481802581508095e+17
19352.0	6.479537435049983e+17
19353.0	6.477338812350464e+17
19354.0	6.475064100782079e+17
19355.0	6.472694584661332e+17
19356.0	6.470432548978687e+17
19357.0	6.468078475586217e+17
19358.0	6.465688547885055e+17
19359.0	6.46323579789858e+17
19360.0	6.460811468516009e+17
19361.0	6.458342443231914e+17
19362.0	6.455865924124671e+17
19363.0	6.453329730557267e+17
19364.0	6.450761817565866e+17
19365.0	6.448160340355754e+17
19366.0	6.445524144794281e+17
19367.0	6.442853392362153e+17
19368.0	6.440146721308671e+17
19369.0	6.437361897788758e+17
19370.0	6.434539793896788e+17
19371.0	6.431762580242431e+17
19372.0	6.428924490459817e+17
19373.0	6.425963277582335e+17
19374.0	6.422994453441193e+17
19375.0	6.419978466448724e+17
19376.0	6.416778501903702e+17
19377.0	6.413680047904084e+17
19378.0	6.41057357439522e+17
19379.0	6.407434827115178e+17
19380.0	6.404265961936212e+17
19381.0	6.401067768086527e+17
19382.0	6.397788350141779e+17
19383.0	6.394515856992937e+17
19384.0	6.391312938958847e+17
19385.0	6.388007763793236e+17
19386.0	6.38467992260881e+17
19387.0	6.381323635654655e+17
19388.0	6.377892206346237e+17
19389.0	6.374335021318144e+17
19390.0	6.370722924462079e+17
19391.0	6.364093807416655e+17
19392.0	6.363320068079615e+17
19393.0	6.359613371493033e+17
19394.0	6.355551259372201e+17
19395.0	6.351495881206442e+17
19396.0	6.347582020954793e+17
19397.0	6.343626470020436e+17
19398.0	6.339591516018004e+17
19399.0	6.335061275530579e+17
19400.0	6.331337486456148e+17
19401.0	6.327169802305535e+17
19402.0	6.322179875187369e+17
19403.0	6.317640699434324e+17
19404.0	6.313192177270783e+17
19405.0	6.308636486445737e+17
19406.0	6.303651302386346e+17
19407.0	6.297909172983124e+17
19408.0	6.292570718076928e+17
19409.0	6.287960746666666e+17
19410.0	6.281000735386282e+17
19411.0	6.27570439688465e+17
19412.0	6.268489448816641e+17
19413.0	6.261871507494228e+17
19414.0	6.25330355035614e+17
19415.0	6.245279017030994e+17
19416.0	6.235327760258388e+17
19417.0	6.223279443760466e+17
19418.0	6.210087852965884e+17
19419.0	6.193474977486154e+17
19420.0	6.174038259575466e+17
19421.0	6.154646103348566e+17
19422.0	6.141755661484031e+17
19423.0	6.130856043915944e+17
19424.0	6.119274796722858e+17
19425.0	6.107132381713748e+17
19426.0	6.094500034248703e+17
19427.0	6.081415414284288e+17
19428.0	6.067757726564352e+17
19429.0	6.053287604256765e+17
19430.0	6.038572393387348e+17
19431.0	6.022142177749674e+17
19432.0	6.00605845566259e+17
19433.0	5.987968351207425e+17
19434.0	5.967809430771026e+17
19435.0	5.945099509476004e+17
19436.0	5.918176641897807e+17
19437.0	5.884018158119585e+17
19438.0	5.835818161668091e+17
19439.0	5.787017589817345e+17
19440.0	5.749383291207679e+17
19441.0	5.7108730017218534e+17
19442.0	5.6682986896097286e+17
19443.0	5.618599532866216e+17
19444.0	5.5569050777244966e+17
19445.0	5.4802191175297715e+17
19446.0	5.3814103526167866e+17
19447.0	5.2655539460505555e+17
19448.0	5.122847588483078e+17
19449.0	4.916204185583614e+17
19450.0	4.582167984209883e+17
19451.0	4.446663224240804e+17
19452.0	4.764198770136403e+17
19453.0	5.030387719864328e+17
19454.0	5.1966886732103616e+17
19455.0	5.319328373844642e+17
19456.0	5.4257442192971085e+17
19457.0	5.510497401744038e+17
19458.0	5.5717719679085286e+17
19459.0	5.629319234366124e+17
19460.0	5.672879280619516e+17
19461.0	5.711050592747519e+17
19462.0	5.745860587552769e+17
19463.0	5.788791062484303e+17
19464.0	5.836857786324307e+17
19465.0	5.873685291685202e+17
19466.0	5.90152024631978e+17
19467.0	5.923487809361235e+17
19468.0	5.942320021110781e+17
19469.0	5.958712158759592e+17
19470.0	5.973986431205376e+17
19471.0	5.988172300637526e+17
19472.0	6.001003147733673e+17
19473.0	6.013179452719103e+17
19474.0	6.025080047228244e+17
19475.0	6.035601074334376e+17
19476.0	6.046561696656041e+17
19477.0	6.056642551130794e+17
19478.0	6.06620753277747e+17
19479.0	6.075080403233449e+17
19480.0	6.083339873506644e+17
19481.0	6.098740786670248e+17
19482.0	6.116352959272275e+17
19483.0	6.131158314123258e+17
19484.0	6.143389358271146e+17
19485.0	6.153493562436269e+17
19486.0	6.161419939261101e+17
19487.0	6.168325308547071e+17
19488.0	6.17458082565325e+17
19489.0	6.178786083078144e+17
19490.0	6.183504777838591e+17
19491.0	6.18765055234321e+17
19492.0	6.191417201612115e+17
19493.0	6.195109764093267e+17
19494.0	6.197655463351635e+17
19495.0	6.200388461352276e+17
19496.0	6.203476869294762e+17
19497.0	6.205913298545321e+17
19498.0	6.207756542061225e+17
19499.0	6.205297286709243e+17
19500.0	6.212550096060415e+17
19501.0	6.214749324836863e+17
19502.0	6.216537885114367e+17
19503.0	6.218264454976852e+17
19504.0	6.21992380272913e+17
19505.0	6.221525928290986e+17
19506.0	6.22307011863074e+17
19507.0	6.224548502437887e+17
19508.0	6.226303116115968e+17
19509.0	6.227801211054761e+17
19510.0	6.228992293426516e+17
19511.0	6.224875964334075e+17
19512.0	6.230903442724178e+17
19513.0	6.231265473374888e+17
19514.0	6.232901269411154e+17
19515.0	6.234533613535231e+17
19516.0	6.235787866319529e+17
19517.0	6.2366635524096e+17
19518.0	6.237583263312553e+17
19519.0	6.238428808435027e+17
19520.0	6.239228721627135e+17
19521.0	6.240040457863167e+17
19522.0	6.240779810897919e+17
19523.0	6.241530366219604e+17
19524.0	6.242227355385855e+17
19525.0	6.242882883857065e+17
19526.0	6.243523544918697e+17
19527.0	6.244196900580009e+17
19528.0	6.244843395918505e+17
19529.0	6.245379181903871e+17
19530.0	6.245865567376724e+17
19531.0	6.246274834279082e+17
19532.0	6.246643210212692e+17
19533.0	6.246973135563434e+17
19534.0	6.247263221317631e+17
19535.0	6.247511947739135e+17
19536.0	6.247711824500052e+17
19537.0	6.247924317727401e+17
19538.0	6.24800953410082e+17
19539.0	6.247817625818454e+17
19540.0	6.248256626840916e+17
19541.0	6.248328675196928e+17
19542.0	6.248348130476031e+17
19543.0	6.24834179707699e+17
19544.0	6.248304684477097e+17
19545.0	6.247929568296959e+17
19546.0	6.247537773466963e+17
19547.0	6.248032285403818e+17
19548.0	6.247887702152531e+17
19549.0	6.247648774324223e+17
19550.0	6.247523786162175e+17
19551.0	6.24731968643618e+17
19552.0	6.247093335927465e+17
19553.0	6.246829168175785e+17
19554.0	6.246547592664403e+17
19555.0	6.246270725259263e+17
19556.0	6.245967107981312e+17
19557.0	6.245629000941565e+17
19558.0	6.245275039432701e+17
19559.0	6.244900417481386e+17
19560.0	6.244488137670655e+17
19561.0	6.244075379709268e+17
19562.0	6.243666247723689e+17
19563.0	6.243218462430548e+17
19564.0	6.242753818132479e+17
19565.0	6.242271945730729e+17
19566.0	6.241752040079359e+17
19567.0	6.241259344975188e+17
19568.0	6.240711942864895e+17
19569.0	6.240181073302867e+17
19570.0	6.239628770847402e+17
19571.0	6.239053838024701e+17
19572.0	6.23844837556224e+17
19573.0	6.237856817217535e+17
19574.0	6.237191764180991e+17
19575.0	6.236634211155967e+17
19576.0	6.235998537121791e+17
19577.0	6.235348225665706e+17
19578.0	6.234671475414356e+17
19579.0	6.234015690391551e+17
19580.0	6.23520123208772e+17
19581.0	6.235137882019156e+17
19582.0	6.234432415465471e+17
19583.0	6.233705327274666e+17
19584.0	6.232965955365546e+17
19585.0	6.23214335168785e+17
19586.0	6.231367436206079e+17
19587.0	6.230686700666879e+17
19588.0	6.229610509369344e+17
19589.0	6.231500682952705e+17
19590.0	6.23246293738018e+17
19591.0	6.231701592910506e+17
19592.0	6.230871151476735e+17
19593.0	6.230021247074303e+17
19594.0	6.229022832852991e+17
19595.0	6.228321388636841e+17
19596.0	6.227315995093674e+17
19597.0	6.226616345340585e+17
19598.0	6.225520669403818e+17
19599.0	6.224885285475667e+17
19600.0	6.224013420396543e+17
19601.0	6.223166147919871e+17
19602.0	6.225627278125737e+17
19603.0	6.224428999726419e+17
19604.0	6.223796106515796e+17
19605.0	6.222698873094144e+17
19606.0	6.22198862713105e+17
19607.0	6.221061786610346e+17
19608.0	6.220121126557012e+17
19609.0	6.219151792144383e+17
19610.0	6.21825022300433e+17
19611.0	6.217301372174335e+17
19612.0	6.216357573383508e+17
19613.0	6.215397441273855e+17
19614.0	6.214419065339903e+17
19615.0	6.21348927832064e+17
19616.0	6.212499067458899e+17
19617.0	6.211555809733289e+17
19618.0	6.210190066057215e+17
19619.0	6.209114461962237e+17
19620.0	6.208923274401107e+17
19621.0	6.210399242988201e+17
19622.0	6.209408628075178e+17
19623.0	6.208414090788863e+17
19624.0	6.207416621684052e+17
19625.0	6.20641631862784e+17
19626.0	6.205413294866431e+17
19627.0	6.204406326362112e+17
19628.0	6.2033312626333e+17
19629.0	6.202317857969492e+17
19630.0	6.201162633401684e+17
19631.0	6.197279279022077e+17
19632.0	6.199329582044499e+17
19633.0	6.19829931348241e+17
19634.0	6.197306939757907e+17
19635.0	6.196256435077119e+17
19636.0	6.195316716645034e+17
19637.0	6.194132458405887e+17
19638.0	6.193375049591465e+17
19639.0	6.192339436787028e+17
19640.0	6.191253323164329e+17
19641.0	6.189723758362625e+17
19642.0	6.189246791898451e+17
19643.0	6.1882009400989e+17
19644.0	6.187123471635796e+17
19645.0	6.185932803102038e+17
19646.0	6.185087146131455e+17
19647.0	6.184043634753533e+17
19648.0	6.182998235938815e+17
19649.0	6.181949353754623e+17
19650.0	6.180903130759168e+17
19651.0	6.179853598457855e+17
19652.0	6.179940382102867e+17
19653.0	6.179871919177727e+17
19654.0	6.17881509368081e+17
19655.0	6.17775237239057e+17
19656.0	6.17669011247377e+17
19657.0	6.175633500187305e+17
19658.0	6.17457079357713e+17
19659.0	6.173505838120959e+17
19660.0	6.172442178704724e+17
19661.0	6.171376292113066e+17
19662.0	6.170309220630528e+17
19663.0	6.169209691526484e+17
19664.0	6.168161461556564e+17
19665.0	6.167103043622228e+17
