# Flux units: erg / (cm m2 s)
# Wavelength units: Angstrom
wave	flux
19000.0	5.771944016216063e+17
19001.0	5.770538973309609e+17
19002.0	5.7698060613277e+17
19003.0	5.768707919839231e+17
19004.0	5.767626817710761e+17
19005.0	5.766548078373546e+17
19006.0	5.765480240032425e+17
19007.0	5.7640274254015155e+17
19008.0	5.7631080549362336e+17
19009.0	5.7620627400075936e+17
19010.0	5.759457025152337e+17
19011.0	5.759991403249663e+17
19012.0	5.758109038062248e+17
19013.0	5.7579313505675936e+17
19014.0	5.756666549108735e+17
19015.0	5.7556634910938445e+17
19016.0	5.7545401159734605e+17
19017.0	5.7534911324269216e+17
19018.0	5.752483500523519e+17
19019.0	5.751455724776106e+17
19020.0	5.750277040766975e+17
19021.0	5.749280255333716e+17
19022.0	5.7482575351207245e+17
19023.0	5.74705900855842e+17
19024.0	5.74604175352354e+17
19025.0	5.7449811188995405e+17
19026.0	5.7438194623665485e+17
19027.0	5.742317912020308e+17
19028.0	5.741821871259646e+17
19029.0	5.74068746232354e+17
19030.0	5.739711763753642e+17
19031.0	5.738660049016149e+17
19032.0	5.737568631696041e+17
19033.0	5.736179148259326e+17
19034.0	5.7353796419147085e+17
19035.0	5.734241153318911e+17
19036.0	5.689869370829463e+17
19037.0	5.73217610731793e+17
19038.0	5.7310701036066125e+17
19039.0	5.730065520263168e+17
19040.0	5.72900786709026e+17
19041.0	5.727916608454656e+17
19042.0	5.726548286679722e+17
19043.0	5.7257939501929805e+17
19044.0	5.724692396638206e+17
19045.0	5.7236441442986643e+17
19046.0	5.722369536557055e+17
19047.0	5.721502029359785e+17
19048.0	5.71968389993813e+17
19049.0	5.7191329417570976e+17
19050.0	5.7181426358244685e+17
19051.0	5.710443072978931e+17
19052.0	5.7154449217071795e+17
19053.0	5.715009965391871e+17
19054.0	5.714015616849236e+17
19055.0	5.7120856015721824e+17
19056.0	5.7118068166710605e+17
19057.0	5.7108062402860365e+17
19058.0	5.709622530801663e+17
19059.0	5.708686009827326e+17
19060.0	5.7075443748044794e+17
19061.0	5.7065752570975565e+17
19062.0	5.705483375607806e+17
19063.0	5.7044360061692576e+17
19064.0	5.7029124916510726e+17
19065.0	5.701690004428115e+17
19066.0	5.7010314917096096e+17
19067.0	5.7001303692629325e+17
19068.0	5.699103209379156e+17
19069.0	5.698043996624213e+17
19070.0	5.6968787392812365e+17
19071.0	5.695877496700926e+17
19072.0	5.694846715734698e+17
19073.0	5.6937618652965536e+17
19074.0	5.692730190943573e+17
19075.0	5.6916691061309434e+17
19076.0	5.6905276717356365e+17
19077.0	5.689494544755369e+17
19078.0	5.6883061677096954e+17
19079.0	5.6874038163319456e+17
19080.0	5.6862959405629434e+17
19081.0	5.68512275948066e+17
19082.0	5.6840426381202765e+17
19083.0	5.682796613861374e+17
19084.0	5.681298610498218e+17
19085.0	5.680989098825045e+17
19086.0	5.6786398383964154e+17
19087.0	5.677611355908779e+17
19088.0	5.677588747911167e+17
19089.0	5.675487346382165e+17
19090.0	5.675618388322985e+17
19091.0	5.6745727126842016e+17
19092.0	5.673102008647679e+17
19093.0	5.672531284809043e+17
19094.0	5.671470151062868e+17
19095.0	5.670421554790399e+17
19096.0	5.66928069431569e+17
19097.0	5.6683019772450125e+17
19098.0	5.667230241696426e+17
19099.0	5.666163864371198e+17
19100.0	5.665041767814485e+17
19101.0	5.6640467677566285e+17
19102.0	5.6626500351645e+17
19103.0	5.661932584785236e+17
19104.0	5.6608994564068685e+17
19105.0	5.65981444448802e+17
19106.0	5.658531885045077e+17
19107.0	5.657651789343402e+17
19108.0	5.6566640573153274e+17
19109.0	5.6517454543366765e+17
19110.0	5.6545219878147405e+17
19111.0	5.6534793516482554e+17
19112.0	5.652437013976404e+17
19113.0	5.6513717278692685e+17
19114.0	5.650308262090068e+17
19115.0	5.6490176936236365e+17
19116.0	5.648135809051305e+17
19117.0	5.647082870276094e+17
19118.0	5.645625839670613e+17
19119.0	5.6308831036811725e+17
19120.0	5.6435768704368614e+17
19121.0	5.6426886923113805e+17
19122.0	5.6418850944232096e+17
19123.0	5.6408088982323194e+17
19124.0	5.6395469153457485e+17
19125.0	5.6386814039381325e+17
19126.0	5.6376017900885325e+17
19127.0	5.630581593341947e+17
19128.0	5.633064689816913e+17
19129.0	5.6342065695074963e+17
19130.0	5.6333920328744954e+17
19131.0	5.632305065710932e+17
19132.0	5.631331655133866e+17
19133.0	5.628934931262125e+17
19134.0	5.62805572685005e+17
19135.0	5.628158373352788e+17
19136.0	5.62714056536883e+17
19137.0	5.6255152446068045e+17
19138.0	5.624821929650858e+17
19139.0	5.623979393941502e+17
19140.0	5.622931023462399e+17
19141.0	5.62187975262208e+17
19142.0	5.620725834579968e+17
19143.0	5.6195644898235725e+17
19144.0	5.618594879285929e+17
19145.0	5.6176544380354554e+17
19146.0	5.614506399673004e+17
19147.0	5.615252241995091e+17
19148.0	5.6144957223731194e+17
19149.0	5.6134407794196474e+17
19150.0	5.6123877113200634e+17
19151.0	5.6113616643249485e+17
19152.0	5.610261229251242e+17
19153.0	5.609204882604031e+17
19154.0	5.607790968045566e+17
19155.0	5.607177769189375e+17
19156.0	5.606128157196287e+17
19157.0	5.605043343108777e+17
19158.0	5.6013757143668006e+17
19159.0	5.6029252964843514e+17
19160.0	5.6018359462570656e+17
19161.0	5.600669009095337e+17
19162.0	5.5938771369765606e+17
19163.0	5.598755566911487e+17
19164.0	5.597763874062334e+17
19165.0	5.596569696993279e+17
19166.0	5.5951359657465165e+17
19167.0	5.594053832518313e+17
19168.0	5.593309120561151e+17
19169.0	5.592277299407531e+17
19170.0	5.591480315936767e+17
19171.0	5.590063498220884e+17
19172.0	5.5893549537471136e+17
19173.0	5.5883338301658445e+17
19174.0	5.587095489871871e+17
19175.0	5.586250220874409e+17
19176.0	5.58520056484113e+17
19177.0	5.5836497419086496e+17
19178.0	5.583036605267968e+17
19179.0	5.581552862538411e+17
19180.0	5.580704938546517e+17
19181.0	5.579572512817151e+17
19182.0	5.578803378126847e+17
19183.0	5.5778710745251834e+17
19184.0	5.576602668761087e+17
19185.0	5.5757670718286496e+17
19186.0	5.574774148650324e+17
19187.0	5.573465649534292e+17
19188.0	5.5726501384246605e+17
19189.0	5.571543309833556e+17
19190.0	5.570479664398334e+17
19191.0	5.569392446974634e+17
19192.0	5.568515953481043e+17
19193.0	5.56733212795426e+17
19194.0	5.5663109652261536e+17
19195.0	5.565366625370111e+17
19196.0	5.564291795823274e+17
19197.0	5.5632780115749536e+17
19198.0	5.562242897193642e+17
19199.0	5.527559905913505e+17
19200.0	5.538226606090936e+17
19201.0	5.5591312206506643e+17
19202.0	5.558113181280938e+17
19203.0	5.556994391233877e+17
19204.0	5.555926520037375e+17
19205.0	5.554956480981673e+17
19206.0	5.5538906433235616e+17
19207.0	5.5525777129253536e+17
19208.0	5.5510942547094163e+17
19209.0	5.550761455561385e+17
19210.0	5.5497566513179296e+17
19211.0	5.548763633068713e+17
19212.0	5.5477192520717645e+17
19213.0	5.546098909249535e+17
19214.0	5.54486393208832e+17
19215.0	5.544486724348586e+17
19216.0	5.5435341231117645e+17
19217.0	5.542506211049471e+17
19218.0	5.538647466049531e+17
19219.0	5.539930595917823e+17
19220.0	5.5393137480171514e+17
19221.0	5.5371998523555846e+17
19222.0	5.5373317862850554e+17
19223.0	5.5362203698244256e+17
19224.0	5.535053062864894e+17
19225.0	5.5336905005684045e+17
19226.0	5.533100994636458e+17
19227.0	5.53206645068049e+17
19228.0	5.5311135614347936e+17
19229.0	5.53007622127616e+17
19230.0	5.528920444458324e+17
19231.0	5.5278937767062176e+17
19232.0	5.526889749108051e+17
19233.0	5.5256812883367245e+17
19234.0	5.524802099303764e+17
19235.0	5.5237328076363085e+17
19236.0	5.522826406658047e+17
19237.0	5.521723517217449e+17
19238.0	5.5203927030060365e+17
19239.0	5.5197175724550816e+17
19240.0	5.518179226877951e+17
19241.0	5.5174317984098976e+17
19242.0	5.5165429233309005e+17
19243.0	5.514975705563134e+17
19244.0	5.514533981039274e+17
19245.0	5.513487363779242e+17
19246.0	5.5124071228811936e+17
19247.0	5.51138954907921e+17
19248.0	5.510390505013247e+17
19249.0	5.5093436332987725e+17
19250.0	5.508256409583615e+17
19251.0	5.5068983268037946e+17
19252.0	5.505230580656811e+17
19253.0	5.5051342451834874e+17
19254.0	5.5041046330299725e+17
19255.0	5.5024829214665363e+17
19256.0	5.501954540524886e+17
19257.0	5.501065082437632e+17
19258.0	5.500038816639657e+17
19259.0	5.498743602282494e+17
19260.0	5.4971672213585894e+17
19261.0	5.496887194943487e+17
19262.0	5.4956914806620154e+17
19263.0	5.494676464686421e+17
19264.0	5.4919462677818003e+17
19265.0	5.492106287469908e+17
19266.0	5.491080811599189e+17
19267.0	5.4907217099707725e+17
19268.0	5.489657927521621e+17
19269.0	5.4886236149514234e+17
19270.0	5.487593008048809e+17
19271.0	5.4853796423707334e+17
19272.0	5.485403550602579e+17
19273.0	5.4706052309974854e+17
19274.0	5.4761367811740896e+17
19275.0	5.482434258097492e+17
19276.0	5.4813272785114445e+17
19277.0	5.4802939627874976e+17
19278.0	5.479268460352852e+17
19279.0	5.478079973556223e+17
19280.0	5.476881456780628e+17
19281.0	5.476141682917375e+17
19282.0	5.4751552273558176e+17
19283.0	5.473557013681492e+17
19284.0	5.4722022709657574e+17
19285.0	5.471320960314025e+17
19286.0	5.47087987052817e+17
19287.0	5.4699647460966394e+17
19288.0	5.457913832625484e+17
19289.0	5.43856755439474e+17
19290.0	5.4668448333387085e+17
19291.0	5.4649099261050906e+17
19292.0	5.464758968909823e+17
19293.0	5.4636935870327456e+17
19294.0	5.462638753830228e+17
19295.0	5.4616344144554656e+17
19296.0	5.460568125909674e+17
19297.0	5.45943152824593e+17
19298.0	5.4583940748410874e+17
19299.0	5.4574462390326605e+17
19300.0	5.4563995036330656e+17
19301.0	5.4553346956765856e+17
19302.0	5.454261731196926e+17
19303.0	5.4529493139019085e+17
19304.0	5.452041250581163e+17
19305.0	5.451095604898473e+17
19306.0	5.450054798846634e+17
19307.0	5.4488401249129805e+17
19308.0	5.447876408770558e+17
19309.0	5.445687299451561e+17
19310.0	5.4441431496567443e+17
19311.0	5.444624583054676e+17
19312.0	5.443735154327551e+17
19313.0	5.4426203607531514e+17
19314.0	5.4084765815056966e+17
19315.0	5.409883609716106e+17
19316.0	5.439495505007955e+17
19317.0	5.438483522912255e+17
19318.0	5.437412048808618e+17
19319.0	5.436406544815444e+17
19320.0	5.4353166381438285e+17
19321.0	5.434283211969877e+17
19322.0	5.4328232194867194e+17
19323.0	5.431546428609878e+17
19324.0	5.43105641156881e+17
19325.0	5.428885919367167e+17
19326.0	5.428938130063358e+17
19327.0	5.427820576636926e+17
19328.0	5.426810698683733e+17
19329.0	5.425740924671315e+17
19330.0	5.424517081290069e+17
19331.0	5.4234357638539936e+17
19332.0	5.4224851975536634e+17
19333.0	5.4213526823458125e+17
19334.0	5.420290049135956e+17
19335.0	5.4192361002325325e+17
19336.0	5.418138811585876e+17
19337.0	5.4170512691036154e+17
19338.0	5.4152509025594e+17
19339.0	5.4148643436189005e+17
19340.0	5.413466292617215e+17
19341.0	5.4126146657539386e+17
19342.0	5.4101518871865984e+17
19343.0	5.410468550148094e+17
19344.0	5.409310195930452e+17
19345.0	5.401123683478171e+17
19346.0	5.404639572787198e+17
19347.0	5.405772869533694e+17
19348.0	5.404900550770687e+17
19349.0	5.403644156794196e+17
19350.0	5.4025380608081914e+17
19351.0	5.4013785503607456e+17
19352.0	5.400116701691904e+17
19353.0	5.399247716701524e+17
19354.0	5.398103702809257e+17
19355.0	5.396609281381717e+17
19356.0	5.395789819936768e+17
19357.0	5.394622101236393e+17
19358.0	5.3933310000933536e+17
19359.0	5.390941233872896e+17
19360.0	5.390221031331156e+17
19361.0	5.3890402760349e+17
19362.0	5.388016293336405e+17
19363.0	5.386807538963796e+17
19364.0	5.385584117809151e+17
19365.0	5.384374072289962e+17
19366.0	5.3831718134961485e+17
19367.0	5.3819382840688634e+17
19368.0	5.380712650418858e+17
19369.0	5.379087953909076e+17
19370.0	5.3765669304401914e+17
19371.0	5.3767661654725965e+17
19372.0	5.3756796806539936e+17
19373.0	5.374295884693503e+17
19374.0	5.37307145760495e+17
19375.0	5.3717723593222816e+17
19376.0	5.370461224086185e+17
19377.0	5.369093972557823e+17
19378.0	5.367760757806421e+17
19379.0	5.366397184682666e+17
19380.0	5.3650240443514874e+17
19381.0	5.363609405576532e+17
19382.0	5.3619412001532576e+17
19383.0	5.360396937112234e+17
19384.0	5.359335855794858e+17
19385.0	5.3578658871596365e+17
19386.0	5.3563855613897376e+17
19387.0	5.354856908849151e+17
19388.0	5.353311219744766e+17
19389.0	5.350833372441258e+17
19390.0	5.349090843252052e+17
19391.0	5.3081701354918637e+17
19392.0	5.345463149177511e+17
19393.0	5.344009197191168e+17
19394.0	5.3422545017241594e+17
19395.0	5.3404406302201165e+17
19396.0	5.338653103139498e+17
19397.0	5.336929121162579e+17
19398.0	5.334965066312362e+17
19399.0	5.330378478845948e+17
19400.0	5.3296954713920845e+17
19401.0	5.3278133634553165e+17
19402.0	5.3257592366257485e+17
19403.0	5.3235524287419725e+17
19404.0	5.321408492776106e+17
19405.0	5.318470415679487e+17
19406.0	5.3151448415163725e+17
19407.0	5.312746518216704e+17
19408.0	5.3075581103418086e+17
19409.0	5.306557233364991e+17
19410.0	5.302942656277162e+17
19411.0	5.300098245678421e+17
19412.0	5.295769486972242e+17
19413.0	5.291760913044819e+17
19414.0	5.287308114089304e+17
19415.0	5.2823707080458234e+17
19416.0	5.2761875154206694e+17
19417.0	5.2707366545653715e+17
19418.0	5.264456112843434e+17
19419.0	5.2564372411296435e+17
19420.0	5.24800633986526e+17
19421.0	5.2402022060305075e+17
19422.0	5.234537826440532e+17
19423.0	5.228628635811839e+17
19424.0	5.2223494124994554e+17
19425.0	5.215998384100692e+17
19426.0	5.209100875639466e+17
19427.0	5.201628807648596e+17
19428.0	5.193784102311251e+17
19429.0	5.184949400720724e+17
19430.0	5.1752850497208326e+17
19431.0	5.157561653963449e+17
19432.0	5.154426657789268e+17
19433.0	5.141692309744297e+17
19434.0	5.1268032757323066e+17
19435.0	5.1080891518156794e+17
19436.0	5.083020249792507e+17
19437.0	5.055774219479724e+17
19438.0	4.9623418497488365e+17
19439.0	4.991852045751641e+17
19440.0	4.9661217865727994e+17
19441.0	4.9375914016549523e+17
19442.0	4.9053971600725344e+17
19443.0	4.868190777638914e+17
19444.0	4.821682685127331e+17
19445.0	4.7497620617516454e+17
19446.0	4.665315786315092e+17
19447.0	4.5842780476757306e+17
19448.0	4.462894614489774e+17
19449.0	4.274789360686425e+17
19450.0	3.8642901361622906e+17
19451.0	3.744909081881247e+17
19452.0	4.089941885714441e+17
19453.0	4.380822605223267e+17
19454.0	4.52940213972718e+17
19455.0	4.6220502976430086e+17
19456.0	4.697762856348341e+17
19457.0	4.782005829675686e+17
19458.0	4.7673627971858234e+17
19459.0	4.873465927215802e+17
19460.0	4.906831120607912e+17
19461.0	4.9351557378648736e+17
19462.0	4.9609476456229536e+17
19463.0	4.9839577693334163e+17
19464.0	5.013090015903754e+17
19465.0	5.047912941049176e+17
19466.0	5.07022629229909e+17
19467.0	5.0890426761434445e+17
19468.0	5.103607805728087e+17
19469.0	5.112664952930302e+17
19470.0	5.125388481768106e+17
19471.0	5.1339373695030586e+17
19472.0	5.141743874517674e+17
19473.0	5.1481376372817914e+17
19474.0	5.155334598776149e+17
19475.0	5.158018602412711e+17
19476.0	5.165604822581247e+17
19477.0	5.1704036949579085e+17
19478.0	5.174590412860074e+17
19479.0	5.1789979189247994e+17
19480.0	5.1825255963252045e+17
19481.0	5.18709969944576e+17
19482.0	5.193485481847464e+17
19483.0	5.1997169767765306e+17
19484.0	5.204543685350738e+17
19485.0	5.208818983458132e+17
19486.0	5.2129597345846605e+17
19487.0	5.215216444899326e+17
19488.0	5.2191659329672506e+17
19489.0	5.2202453489855155e+17
19490.0	5.218434837118968e+17
19491.0	5.2244421010609485e+17
19492.0	5.2254077151259296e+17
19493.0	5.227587790613163e+17
19494.0	5.228536641443156e+17
19495.0	5.228980422574079e+17
19496.0	5.228079274262525e+17
19497.0	5.230826212731563e+17
19498.0	5.2287980472456595e+17
19499.0	5.1691158311184576e+17
19500.0	5.231934904292692e+17
19501.0	5.232003752394751e+17
19502.0	5.232008266164907e+17
19503.0	5.2325668048513696e+17
19504.0	5.2331248444156576e+17
19505.0	5.233046230575785e+17
19506.0	5.232906999955456e+17
19507.0	5.2326326288602445e+17
19508.0	5.232483865985023e+17
19509.0	5.232195594966356e+17
19510.0	5.231218436778665e+17
19511.0	5.161850445845798e+17
19512.0	5.222444357560977e+17
19513.0	5.2125313605304006e+17
19514.0	5.218030176960494e+17
19515.0	5.228640990134277e+17
19516.0	5.23040290190131e+17
19517.0	5.229906572432724e+17
19518.0	5.2296382481257805e+17
19519.0	5.22907106288162e+17
19520.0	5.2284423227310074e+17
19521.0	5.227992457762133e+17
19522.0	5.227271143729834e+17
19523.0	5.226818285426004e+17
19524.0	5.226196170178559e+17
19525.0	5.22545908486417e+17
19526.0	5.224924995474772e+17
19527.0	5.224234922016767e+17
19528.0	5.223587561253545e+17
19529.0	5.222897645780991e+17
19530.0	5.2222405108913485e+17
19531.0	5.2215652838714016e+17
19532.0	5.220851089670143e+17
19533.0	5.220146609476949e+17
19534.0	5.219415361235626e+17
19535.0	5.218614309989033e+17
19536.0	5.2178079543459834e+17
19537.0	5.2171844661630285e+17
19538.0	5.2161875073652064e+17
19539.0	5.213679322660871e+17
19540.0	5.2148028180179616e+17
19541.0	5.2141205921027405e+17
19542.0	5.2133188061538976e+17
19543.0	5.212521994649598e+17
19544.0	5.2117401036827296e+17
19545.0	5.2094940510945216e+17
19546.0	5.206938622448982e+17
19547.0	5.2093392875683834e+17
19548.0	5.208537173065728e+17
19549.0	5.207360207323136e+17
19550.0	5.206894579460777e+17
19551.0	5.2060765175152634e+17
19552.0	5.205239537161558e+17
19553.0	5.2043332480314003e+17
19554.0	5.203417681799851e+17
19555.0	5.2026753046719136e+17
19556.0	5.201872593879039e+17
19557.0	5.201021965260115e+17
19558.0	5.200166519483051e+17
19559.0	5.199289919733759e+17
19560.0	5.199048903142058e+17
19561.0	5.198184331957588e+17
19562.0	5.1973951764561914e+17
19563.0	5.1965509937834656e+17
19564.0	5.195682844857683e+17
19565.0	5.1948057145289376e+17
19566.0	5.1938367401274016e+17
19567.0	5.1930695180397216e+17
19568.0	5.192099916589738e+17
19569.0	5.191238562436436e+17
19570.0	5.1904364821872634e+17
19571.0	5.1895493743083514e+17
19572.0	5.188547935993856e+17
19573.0	5.187727735652351e+17
19574.0	5.1865709731730746e+17
19575.0	5.1860011112639136e+17
19576.0	5.185116781412352e+17
19577.0	5.184000491869523e+17
19578.0	5.183179103141887e+17
19579.0	5.1823502842047136e+17
19580.0	5.1814651378619725e+17
19581.0	5.1806016320307194e+17
19582.0	5.17976630563089e+17
19583.0	5.178865743123796e+17
19584.0	5.177944434191017e+17
19585.0	5.176671915212798e+17
19586.0	5.175650928645462e+17
19587.0	5.1750022298992634e+17
19588.0	5.172685534046893e+17
19589.0	5.173326786505386e+17
19590.0	5.172208120889343e+17
19591.0	5.171614798140757e+17
19592.0	5.1707259901706234e+17
19593.0	5.1697564698105165e+17
19594.0	5.168016946539176e+17
19595.0	5.1678965091969696e+17
19596.0	5.161750989810351e+17
19597.0	5.166085480032938e+17
19598.0	5.1640618793478803e+17
19599.0	5.164341349318655e+17
19600.0	5.163457220793683e+17
19601.0	5.162316986668373e+17
19602.0	5.16148823134481e+17
19603.0	5.158751740887037e+17
19604.0	5.15961936552482e+17
19605.0	5.157830605318826e+17
19606.0	5.157936401743871e+17
19607.0	5.157040846536702e+17
19608.0	5.15608497164561e+17
19609.0	5.1550196233229645e+17
19610.0	5.154312749580287e+17
19611.0	5.153357044558506e+17
19612.0	5.152489078084947e+17
19613.0	5.151525206054228e+17
19614.0	5.150511637113513e+17
19615.0	5.149725357506559e+17
19616.0	5.1484631900706125e+17
19617.0	5.1478771884796576e+17
19618.0	5.145082242007037e+17
19619.0	5.143629268691622e+17
19620.0	5.142826414593361e+17
19621.0	5.1441813621309434e+17
19622.0	5.143296442979669e+17
19623.0	5.142385368148649e+17
19624.0	5.141431849058304e+17
19625.0	5.1405385825430176e+17
19626.0	5.139582843966804e+17
19627.0	5.138698282729471e+17
19628.0	5.136900342590125e+17
19629.0	5.136534957894313e+17
19630.0	5.135019713145517e+17
19631.0	5.0978580902270195e+17
19632.0	5.1340600724684794e+17
19633.0	5.1329851338697376e+17
19634.0	5.132250274332671e+17
19635.0	5.1311979038856525e+17
19636.0	5.130365874907817e+17
19637.0	5.1281958524682246e+17
19638.0	5.128520307747498e+17
19639.0	5.1275847836194125e+17
19640.0	5.12647156011281e+17
19641.0	5.122978617840989e+17
19642.0	5.124842871324672e+17
19643.0	5.123866543609171e+17
19644.0	5.1228216669853e+17
19645.0	5.121165759960403e+17
19646.0	5.121189496225792e+17
19647.0	5.1202764109250554e+17
19648.0	5.119339053187071e+17
19649.0	5.118405034115071e+17
19650.0	5.1175067498141005e+17
19651.0	5.1165636598606496e+17
19652.0	5.115630065811456e+17
19653.0	5.1147213831318176e+17
19654.0	5.1137835877881165e+17
19655.0	5.11283884597794e+17
19656.0	5.1119477737826976e+17
