# Flux units: erg / (cm m2 s)
# Wavelength units: Angstrom
wave	flux
19000.0	5.0297441437614074e+17
19001.0	5.028708603658238e+17
19002.0	5.027969261808297e+17
19003.0	5.027071203300693e+17
19004.0	5.026161997032107e+17
19005.0	5.0252403399720954e+17
19006.0	5.024367057917268e+17
19007.0	5.023499482213034e+17
19008.0	5.022561865826304e+17
19009.0	5.02146160271906e+17
19010.0	5.020468668355925e+17
19011.0	5.0198512409422496e+17
19012.0	5.018731551916032e+17
19013.0	5.0181814864226976e+17
19014.0	5.017227943564628e+17
19015.0	5.0163329259274214e+17
19016.0	5.0154774214301005e+17
19017.0	5.014628855709696e+17
19018.0	5.0137334312250016e+17
19019.0	5.0128594808777363e+17
19020.0	5.0119570022727674e+17
19021.0	5.011089642575188e+17
19022.0	5.0102031687352314e+17
19023.0	5.0092192814858234e+17
19024.0	5.0082930113904634e+17
19025.0	5.0075020048029005e+17
19026.0	5.0065705903936845e+17
19027.0	5.0056245756122445e+17
19028.0	5.004832858789204e+17
19029.0	5.0039413706588154e+17
19030.0	5.0030758725331616e+17
19031.0	5.002200907863381e+17
19032.0	5.0012991248138234e+17
19033.0	5.0002428236049056e+17
19034.0	4.9993151414271994e+17
19035.0	4.997383373630121e+17
19036.0	4.987129687266644e+17
19037.0	4.995879837280938e+17
19038.0	4.995785334718464e+17
19039.0	4.9950536523666765e+17
19040.0	4.99420163613218e+17
19041.0	4.993335299145727e+17
19042.0	4.9886013776636525e+17
19043.0	4.99161994625024e+17
19044.0	4.99073403584512e+17
19045.0	4.989814157869055e+17
19046.0	4.9889021323291296e+17
19047.0	4.988000015133355e+17
19048.0	4.986514860321449e+17
19049.0	4.978283549906249e+17
19050.0	4.985156228087808e+17
19051.0	4.983052093270698e+17
19052.0	4.9827926860540576e+17
19053.0	4.9826674371461114e+17
19054.0	4.9818757657613645e+17
19055.0	4.9796106808197114e+17
19056.0	4.9797939320586214e+17
19057.0	4.9792879354183674e+17
19058.0	4.974375053470371e+17
19059.0	4.975956845745491e+17
19060.0	4.976656414408703e+17
19061.0	4.9757586502014285e+17
19062.0	4.974877508719955e+17
19063.0	4.9740142999852365e+17
19064.0	4.973054042745515e+17
19065.0	4.9720894255267834e+17
19066.0	4.969852952728918e+17
19067.0	4.970457565844821e+17
19068.0	4.9696445251802445e+17
19069.0	4.9687596885169485e+17
19070.0	4.967831473662635e+17
19071.0	4.9669763005153274e+17
19072.0	4.964601614914897e+17
19073.0	4.965252747755519e+17
19074.0	4.9643470290507085e+17
19075.0	4.963499571325609e+17
19076.0	4.962599988887552e+17
19077.0	4.961714416123903e+17
19078.0	4.9608115544391674e+17
19079.0	4.9599716471603194e+17
19080.0	4.9590996450672634e+17
19081.0	4.958165646966783e+17
19082.0	4.95734141030673e+17
19083.0	4.9563765323421e+17
19084.0	4.9553641056501754e+17
19085.0	4.9546824536555514e+17
19086.0	4.951364815115603e+17
19087.0	4.949514925025958e+17
19088.0	4.9499227910307795e+17
19089.0	4.950947572045141e+17
19090.0	4.9502753292724896e+17
19091.0	4.9491909003619e+17
19092.0	4.945401785002675e+17
19093.0	4.947719783885481e+17
19094.0	4.9468575601131514e+17
19095.0	4.945979013507753e+17
19096.0	4.9451113427326285e+17
19097.0	4.944241081275732e+17
19098.0	4.941747403969875e+17
19099.0	4.9405228790142304e+17
19100.0	4.9415817820897274e+17
19101.0	4.940711922586966e+17
19102.0	4.939768329317034e+17
19103.0	4.938982107731283e+17
19104.0	4.938139713929215e+17
19105.0	4.933682362755766e+17
19106.0	4.936335646610772e+17
19107.0	4.9346066880921574e+17
19108.0	4.933184809249451e+17
19109.0	4.9334800875519994e+17
19110.0	4.932739170041855e+17
19111.0	4.930958935457791e+17
19112.0	4.929916309777063e+17
19113.0	4.930278527773353e+17
19114.0	4.9286976337783443e+17
19115.0	4.928354408988671e+17
19116.0	4.9276100731207674e+17
19117.0	4.9266911304744934e+17
19118.0	4.92526010105856e+17
19119.0	4.913260430797469e+17
19120.0	4.923772122781013e+17
19121.0	4.9231685876012365e+17
19122.0	4.9224408094474234e+17
19123.0	4.9215984638798496e+17
19124.0	4.9206406854737914e+17
19125.0	4.9198171073194656e+17
19126.0	4.9187668710741325e+17
19127.0	4.9167519176458234e+17
19128.0	4.916975870410751e+17
19129.0	4.916269172129791e+17
19130.0	4.915517448694442e+17
19131.0	4.914676848656384e+17
19132.0	4.913803501589844e+17
19133.0	4.9129043280964256e+17
19134.0	4.9120759467649696e+17
19135.0	4.9112115258763936e+17
19136.0	4.9103336594472954e+17
19137.0	4.909364898955262e+17
19138.0	4.908587656675327e+17
19139.0	4.9077606259097594e+17
19140.0	4.9069010123926176e+17
19141.0	4.9060328089408845e+17
19142.0	4.905133071313579e+17
19143.0	4.904261072715775e+17
19144.0	4.903381027345749e+17
19145.0	4.9025614897042765e+17
19146.0	4.900965212400299e+17
19147.0	4.900779389353983e+17
19148.0	4.89868096298462e+17
19149.0	4.89756794360081e+17
19150.0	4.898258103741098e+17
19151.0	4.897383013242196e+17
19152.0	4.8965082275293856e+17
19153.0	4.8928568188600275e+17
19154.0	4.894494838576469e+17
19155.0	4.8939000632005965e+17
19156.0	4.893032599344468e+17
19157.0	4.8912647882888557e+17
19158.0	4.889237802800471e+17
19159.0	4.8903604921521485e+17
19160.0	4.889524009522517e+17
19161.0	4.888590860069547e+17
19162.0	4.887418368950271e+17
19163.0	4.8867757868974086e+17
19164.0	4.8860795722792954e+17
19165.0	4.882266444529658e+17
19166.0	4.8842845318021114e+17
19167.0	4.8835238870821536e+17
19168.0	4.882696475333972e+17
19169.0	4.8818484401930234e+17
19170.0	4.8810011103941965e+17
19171.0	4.880122432367274e+17
19172.0	4.87927397220352e+17
19173.0	4.878432928967338e+17
19174.0	4.8775366698161485e+17
19175.0	4.8767084485672954e+17
19176.0	4.8758601617681056e+17
19177.0	4.8748146294347085e+17
19178.0	4.8740958983946234e+17
19179.0	4.873252834202964e+17
19180.0	4.8723994729949856e+17
19181.0	4.871433594688853e+17
19182.0	4.87062349493043e+17
19183.0	4.8698420527540896e+17
19184.0	4.86900222726417e+17
19185.0	4.8681197778589e+17
19186.0	4.8672773756682234e+17
19187.0	4.8663540171188896e+17
19188.0	4.8655596718653434e+17
19189.0	4.864690225501525e+17
19190.0	4.863831336200874e+17
19191.0	4.862925756607146e+17
19192.0	4.8620713684937376e+17
19193.0	4.860831105810432e+17
19194.0	4.859704929594026e+17
19195.0	4.859340923426132e+17
19196.0	4.8583069624784205e+17
19197.0	4.8571060151036576e+17
19198.0	4.8552749888962554e+17
19199.0	4.851571730240853e+17
19200.0	4.8510440008144205e+17
19201.0	4.8528243759076685e+17
19202.0	4.8528875001828685e+17
19203.0	4.852329845096446e+17
19204.0	4.851653394737835e+17
19205.0	4.8508792506504525e+17
19206.0	4.8500700233072634e+17
19207.0	4.849056084568745e+17
19208.0	4.8482383211178656e+17
19209.0	4.8475741090392736e+17
19210.0	4.8467208051534496e+17
19211.0	4.8459068151780685e+17
19212.0	4.8450464704539296e+17
19213.0	4.8440697254051834e+17
19214.0	4.84324415775266e+17
19215.0	4.842480180658175e+17
19216.0	4.8416394415090336e+17
19217.0	4.8407079732729165e+17
19218.0	4.8394265330100896e+17
19219.0	4.838807090233342e+17
19220.0	4.8381859194033485e+17
19221.0	4.83722483798289e+17
19222.0	4.836470101639166e+17
19223.0	4.835680008011776e+17
19224.0	4.834794157725013e+17
19225.0	4.8339462973467296e+17
19226.0	4.83315713904913e+17
19227.0	4.8323185844333216e+17
19228.0	4.831503192861353e+17
19229.0	4.8306240199065594e+17
19230.0	4.829793096127828e+17
19231.0	4.8289497362377376e+17
19232.0	4.8281045084842656e+17
19233.0	4.8271902851290445e+17
19234.0	4.826390681616383e+17
19235.0	4.825524506809685e+17
19236.0	4.8247161099386874e+17
19237.0	4.8238386077149856e+17
19238.0	4.822920396974762e+17
19239.0	4.82217810862626e+17
19240.0	4.821317788368895e+17
19241.0	4.8204701824450554e+17
19242.0	4.8196045598883834e+17
19243.0	4.818624999063551e+17
19244.0	4.8179418490033485e+17
19245.0	4.8170947422016845e+17
19246.0	4.816251424953685e+17
19247.0	4.8154031059981645e+17
19248.0	4.8145589030529696e+17
19249.0	4.8136286057267194e+17
19250.0	4.8122868408866125e+17
19251.0	4.8113826524037094e+17
19252.0	4.8108562029390496e+17
19253.0	4.810306883332777e+17
19254.0	4.809501551099903e+17
19255.0	4.808428850861395e+17
19256.0	4.807785368431274e+17
19257.0	4.8069561258693965e+17
19258.0	4.8061040348364794e+17
19259.0	4.8051629176040096e+17
19260.0	4.8040078950618445e+17
19261.0	4.80353793867776e+17
19262.0	4.8026121096833696e+17
19263.0	4.801678251393023e+17
19264.0	4.80056284684834e+17
19265.0	4.7999262144157e+17
19266.0	4.798985984977578e+17
19267.0	4.798506439016446e+17
19268.0	4.797660310186666e+17
19269.0	4.7968272654882125e+17
19270.0	4.795925992046591e+17
19271.0	4.794875367828139e+17
19272.0	4.7942553294602234e+17
19273.0	4.7932554003961165e+17
19274.0	4.7921688149142163e+17
19275.0	4.7917983516153165e+17
19276.0	4.7909305193594874e+17
19277.0	4.790103500477781e+17
19278.0	4.789194784243711e+17
19279.0	4.7883808613771936e+17
19280.0	4.7875219392211616e+17
19281.0	4.786706692352682e+17
19282.0	4.785881987328683e+17
19283.0	4.7850190959629645e+17
19284.0	4.784117679215957e+17
19285.0	4.783240606209364e+17
19286.0	4.782350255434411e+17
19287.0	4.781307143214419e+17
19288.0	4.7762709843804134e+17
19289.0	4.7730505096888275e+17
19290.0	4.7787355280506874e+17
19291.0	4.7779337847439366e+17
19292.0	4.777454841364479e+17
19293.0	4.77664249975057e+17
19294.0	4.775796553373013e+17
19295.0	4.774990578712576e+17
19296.0	4.7724024072328576e+17
19297.0	4.7730294864390835e+17
19298.0	4.772456227143678e+17
19299.0	4.769689708964524e+17
19300.0	4.7707889297872205e+17
19301.0	4.769974832857087e+17
19302.0	4.769120091723092e+17
19303.0	4.7682083017632416e+17
19304.0	4.76743782699281e+17
19305.0	4.7665865433634125e+17
19306.0	4.765752362008575e+17
19307.0	4.764837551450794e+17
19308.0	4.7639908326222496e+17
19309.0	4.7630248886053536e+17
19310.0	4.762120283488256e+17
19311.0	4.7613223465123834e+17
19312.0	4.760408929861632e+17
19313.0	4.758955147045545e+17
19314.0	4.7155845309398944e+17
19315.0	4.718019747337601e+17
19316.0	4.7542230584743296e+17
19317.0	4.7562473582100474e+17
19318.0	4.755602973305514e+17
19319.0	4.7548316778495994e+17
19320.0	4.753367521121619e+17
19321.0	4.7516446618200736e+17
19322.0	4.7523458851362125e+17
19323.0	4.751517540854443e+17
19324.0	4.750684155019263e+17
19325.0	4.7498447133081594e+17
19326.0	4.749046897967104e+17
19327.0	4.7482339202170874e+17
19328.0	4.744200704753667e+17
19329.0	4.7466002954321914e+17
19330.0	4.745760629325823e+17
19331.0	4.7448908362328723e+17
19332.0	4.7441144873396896e+17
19333.0	4.7432678482029216e+17
19334.0	4.742373796653739e+17
19335.0	4.735064230679901e+17
19336.0	4.7407352869027834e+17
19337.0	4.7399505207405216e+17
19338.0	4.7388786852276896e+17
19339.0	4.7382534340389536e+17
19340.0	4.7371412297482234e+17
19341.0	4.7340388960174125e+17
19342.0	4.734846513446914e+17
19343.0	4.7348552110353056e+17
19344.0	4.731522617005401e+17
19345.0	4.730570303078401e+17
19346.0	4.731136438348457e+17
19347.0	4.7284207809986554e+17
19348.0	4.7307449448093e+17
19349.0	4.729904889331711e+17
19350.0	4.7279481381628576e+17
19351.0	4.7282224044004685e+17
19352.0	4.724169307936079e+17
19353.0	4.726636638022314e+17
19354.0	4.725821096853504e+17
19355.0	4.7248785780244474e+17
19356.0	4.7241511556874234e+17
19357.0	4.723325196566527e+17
19358.0	4.7224825420185594e+17
19359.0	4.720942656432808e+17
19360.0	4.7182345963656525e+17
19361.0	4.719966312639146e+17
19362.0	4.7191570678196896e+17
19363.0	4.7183330611473056e+17
19364.0	4.7175036689885856e+17
19365.0	4.716656386026153e+17
19366.0	4.715815681829546e+17
19367.0	4.7149934430562976e+17
19368.0	4.7141654420084045e+17
19369.0	4.713289105801215e+17
19370.0	4.712469944249002e+17
19371.0	4.711588639888726e+17
19372.0	4.710811014529023e+17
19373.0	4.709957836472319e+17
19374.0	4.709132248547327e+17
19375.0	4.7083197091020794e+17
19376.0	4.707485750045353e+17
19377.0	4.706637960970239e+17
19378.0	4.705804654826836e+17
19379.0	4.7049689390557856e+17
19380.0	4.7040948691708576e+17
19381.0	4.7032580363168403e+17
19382.0	4.702342611992575e+17
19383.0	4.70150995317009e+17
19384.0	4.700684936369493e+17
19385.0	4.6998894083222176e+17
19386.0	4.699045573776725e+17
19387.0	4.6981745811128314e+17
19388.0	4.6972892851732474e+17
19389.0	4.696353350702421e+17
19390.0	4.6950063912168096e+17
19391.0	4.685402958288206e+17
19392.0	4.691813983409493e+17
19393.0	4.692813943231827e+17
19394.0	4.692141161491115e+17
19395.0	4.690390972104706e+17
19396.0	4.690286904431958e+17
19397.0	4.689638869084843e+17
19398.0	4.687893401086634e+17
19399.0	4.686253017180842e+17
19400.0	4.68609754202112e+17
19401.0	4.686139267656362e+17
19402.0	4.6853018797561165e+17
19403.0	4.6844135744034125e+17
19404.0	4.683529515084458e+17
19405.0	4.682608025796607e+17
19406.0	4.681724587933696e+17
19407.0	4.679633956678312e+17
19408.0	4.6792954309072205e+17
19409.0	4.6788010671691085e+17
19410.0	4.678045285744638e+17
19411.0	4.6771238628666016e+17
19412.0	4.676166869494442e+17
19413.0	4.6740431913178445e+17
19414.0	4.674196191838207e+17
19415.0	4.67319024394786e+17
19416.0	4.6719941934230176e+17
19417.0	4.671124654784511e+17
19418.0	4.6701058506533536e+17
19419.0	4.669050194668202e+17
19420.0	4.667960569014955e+17
19421.0	4.666825466620585e+17
19422.0	4.665608148178261e+17
19423.0	4.664435608125438e+17
19424.0	4.6631892574098765e+17
19425.0	4.6618690254274554e+17
19426.0	4.660499927706283e+17
19427.0	4.659048221769727e+17
19428.0	4.657473633910784e+17
19429.0	4.655739689762814e+17
19430.0	4.6532677361554765e+17
19431.0	4.6506386820956166e+17
19432.0	4.649815892470442e+17
19433.0	4.647657154106709e+17
19434.0	4.6451136149149005e+17
19435.0	4.6417362648651085e+17
19436.0	4.6380276395977376e+17
19437.0	4.6339101780432205e+17
19438.0	4.611522160492545e+17
19439.0	4.620905021265236e+17
19440.0	4.6198795600745805e+17
19441.0	4.6134181068363085e+17
19442.0	4.605124625651029e+17
19443.0	4.5948798717569696e+17
19444.0	4.58191530046259e+17
19445.0	4.5650438608213325e+17
19446.0	4.543189209841664e+17
19447.0	4.513004759198376e+17
19448.0	4.4697304673812486e+17
19449.0	4.400533065782615e+17
19450.0	4.249348054100647e+17
19451.0	4.112352016334853e+17
19452.0	4.343477108211712e+17
19453.0	4.437657203507204e+17
19454.0	4.4893546986427706e+17
19455.0	4.522971579635028e+17
19456.0	4.546439947834709e+17
19457.0	4.561874918746794e+17
19458.0	4.4394674476374976e+17
19459.0	4.57099489522486e+17
19460.0	4.5937333622538234e+17
19461.0	4.600658650988543e+17
19462.0	4.605575071531007e+17
19463.0	4.609345574666239e+17
19464.0	4.612287469278548e+17
19465.0	4.614706866858666e+17
19466.0	4.616541338686805e+17
19467.0	4.617945608443221e+17
19468.0	4.618959256376662e+17
19469.0	4.617266198304081e+17
19470.0	4.6202254594321056e+17
19471.0	4.6206492365291514e+17
19472.0	4.6208262026035194e+17
19473.0	4.620865673800361e+17
19474.0	4.618401049040209e+17
19475.0	4.619864922652671e+17
19476.0	4.6202928884613114e+17
19477.0	4.6201432168202234e+17
19478.0	4.6198579027858765e+17
19479.0	4.617208456719014e+17
19480.0	4.619007294439423e+17
19481.0	4.618467774125397e+17
19482.0	4.618035532223828e+17
19483.0	4.617518785582422e+17
19484.0	4.616923852221098e+17
19485.0	4.616325495608662e+17
19486.0	4.6133331980451904e+17
19487.0	4.615101945828692e+17
19488.0	4.6144474379714554e+17
19489.0	4.6133488036522656e+17
19490.0	4.6120290134698656e+17
19491.0	4.6123475086431565e+17
19492.0	4.6117976843223034e+17
19493.0	4.611107602475691e+17
19494.0	4.610379276965205e+17
19495.0	4.6095876489216e+17
19496.0	4.6083452282688845e+17
19497.0	4.60762328998434e+17
19498.0	4.6026101466944826e+17
19499.0	4.592053616203093e+17
19500.0	4.6050541774219936e+17
19501.0	4.6050532225187834e+17
19502.0	4.604458129773908e+17
19503.0	4.6037793970148685e+17
19504.0	4.603031164638549e+17
19505.0	4.602222874023253e+17
19506.0	4.60151794573858e+17
19507.0	4.6006929156560205e+17
19508.0	4.599853622842708e+17
19509.0	4.5987911972509e+17
19510.0	4.5960532394857786e+17
19511.0	4.534246388880687e+17
19512.0	4.5904984053295776e+17
19513.0	4.5904185283051494e+17
19514.0	4.5907080086814694e+17
19515.0	4.5938760664569165e+17
19516.0	4.5933323937819283e+17
19517.0	4.5929269024522234e+17
19518.0	4.591619198156798e+17
19519.0	4.5908417126072294e+17
19520.0	4.5884663048874624e+17
19521.0	4.59003628809967e+17
19522.0	4.588887187914751e+17
19523.0	4.587921322191531e+17
19524.0	4.585939324108804e+17
19525.0	4.586881619940692e+17
19526.0	4.586150294803796e+17
19527.0	4.5853624549157536e+17
19528.0	4.5844111294463994e+17
19529.0	4.583536850545323e+17
19530.0	4.5830339884482554e+17
19531.0	4.5822472055248205e+17
19532.0	4.581457487986687e+17
19533.0	4.580664041013247e+17
19534.0	4.579894514155519e+17
19535.0	4.579090930947412e+17
19536.0	4.5782667222493856e+17
19537.0	4.577479045939198e+17
19538.0	4.5743448068369075e+17
19539.0	4.575540330277545e+17
19540.0	4.5750990286793376e+17
19541.0	4.5738736292113056e+17
19542.0	4.573369554960383e+17
19543.0	4.5704747903440224e+17
19544.0	4.5718024790999034e+17
19545.0	4.570574333760853e+17
19546.0	4.569687225182891e+17
19547.0	4.5695909407402656e+17
19548.0	4.568869778401961e+17
19549.0	4.567974988655274e+17
19550.0	4.5672994687330976e+17
19551.0	4.566533849568596e+17
19552.0	4.565730320187392e+17
19553.0	4.5649323881048736e+17
19554.0	4.564118103829162e+17
19555.0	4.56309882294545e+17
19556.0	4.562401224906067e+17
19557.0	4.561780050580821e+17
19558.0	4.5610186606728525e+17
19559.0	4.5602367850850976e+17
19560.0	4.558611362960723e+17
19561.0	4.558635185209343e+17
19562.0	4.557069343173289e+17
19563.0	4.5571003565561165e+17
19564.0	4.5562782757683194e+17
19565.0	4.555511891143339e+17
19566.0	4.554693362231978e+17
19567.0	4.553945710766761e+17
19568.0	4.553137040566955e+17
19569.0	4.5523536683117216e+17
19570.0	4.551569432029865e+17
19571.0	4.550789664079872e+17
19572.0	4.5499773168735565e+17
19573.0	4.5489491748235936e+17
19574.0	4.5482454062639763e+17
19575.0	4.5476609516721485e+17
19576.0	4.5467349045739514e+17
19577.0	4.545668760032597e+17
19578.0	4.5452705416260256e+17
19579.0	4.5444893727784954e+17
19580.0	4.543698759756458e+17
19581.0	4.5429180061450234e+17
19582.0	4.542162374317397e+17
19583.0	4.541384079966208e+17
19584.0	4.5405777040506874e+17
19585.0	4.539670778085374e+17
19586.0	4.538848605022891e+17
19587.0	4.5381637318027936e+17
19588.0	4.537075964226218e+17
19589.0	4.5365728826272416e+17
19590.0	4.5357183791704736e+17
19591.0	4.535077147683497e+17
19592.0	4.534307083255807e+17
19593.0	4.5333021909319674e+17
19594.0	4.532261852545023e+17
19595.0	4.531938374538581e+17
19596.0	4.531131455460692e+17
19597.0	4.530362331256149e+17
19598.0	4.5289574603161594e+17
19599.0	4.5287817322605216e+17
19600.0	4.5280212993529165e+17
19601.0	4.527178964970155e+17
19602.0	4.5263214905480525e+17
19603.0	4.5253460534231034e+17
19604.0	4.5247866590986234e+17
19605.0	4.523826415140864e+17
19606.0	4.523317872558078e+17
19607.0	4.522570147692542e+17
19608.0	4.521752661065727e+17
19609.0	4.520959629328383e+17
19610.0	4.519135613201068e+17
19611.0	4.517808457820843e+17
19612.0	4.518667814087339e+17
19613.0	4.5178560331120634e+17
19614.0	4.5170547183233696e+17
19615.0	4.516293842916693e+17
19616.0	4.5143655654795955e+17
19617.0	4.513022032740353e+17
19618.0	4.513187335853395e+17
19619.0	4.512083609649151e+17
19620.0	4.5112450033035904e+17
19621.0	4.509174722811219e+17
19622.0	4.510819860960597e+17
19623.0	4.50994265793058e+17
19624.0	4.5089366834763085e+17
19625.0	4.5084781328029005e+17
19626.0	4.507650200961024e+17
19627.0	4.506822319450794e+17
19628.0	4.5058640076690765e+17
19629.0	4.4991830385404544e+17
19630.0	4.502530163736575e+17
19631.0	4.500051192359594e+17
19632.0	4.502171527675902e+17
19633.0	4.5019126167852365e+17
19634.0	4.50137494196497e+17
19635.0	4.5003898474550586e+17
19636.0	4.4972479369707475e+17
19637.0	4.49623646098773e+17
19638.0	4.498200324298067e+17
19639.0	4.497577992344916e+17
19640.0	4.496465761490261e+17
19641.0	4.49458167663821e+17
19642.0	4.495074076043946e+17
19643.0	4.4943189461346976e+17
19644.0	4.493625611605332e+17
19645.0	4.492767763890176e+17
19646.0	4.489361548640251e+17
19647.0	4.491367547928575e+17
19648.0	4.490655776636927e+17
19649.0	4.4898709237923834e+17
19650.0	4.4891047216196256e+17
19651.0	4.4883311123060045e+17
19652.0	4.4875554624634874e+17
19653.0	4.4867737630365005e+17
19654.0	4.486007681100458e+17
19655.0	4.4852173435043834e+17
