# Flux units: erg / (cm m2 s)
# Wavelength units: Angstrom
wave	flux
19000.0	8.799255355457536e+17
19001.0	8.797723423670271e+17
19002.0	8.796239361474559e+17
19003.0	8.794726232752125e+17
19004.0	8.793210499366911e+17
19005.0	8.791692935867049e+17
19006.0	8.790171865929046e+17
19007.0	8.788539294613501e+17
19008.0	8.787106232358226e+17
19009.0	8.785573370833577e+17
19010.0	8.783955778775722e+17
19011.0	8.782512527157928e+17
19012.0	8.782409410194089e+17
19013.0	8.781250612079273e+17
19014.0	8.77969206743313e+17
19015.0	8.77816125971934e+17
19016.0	8.776599282734419e+17
19017.0	8.775045488836607e+17
19018.0	8.773500830132905e+17
19019.0	8.771953797453139e+17
19020.0	8.770392562860028e+17
19021.0	8.768834134256296e+17
19022.0	8.767276875863382e+17
19023.0	8.765713170825213e+17
19024.0	8.764145124682409e+17
19025.0	8.762569709147476e+17
19026.0	8.76098408607471e+17
19027.0	8.759265834915156e+17
19028.0	8.757863045748051e+17
19029.0	8.756288283126441e+17
19030.0	8.754711498850303e+17
19031.0	8.753132112707583e+17
19032.0	8.75155012190208e+17
19033.0	8.749942587785213e+17
19034.0	8.748376371757056e+17
19035.0	8.746743248191484e+17
19036.0	8.734448560373757e+17
19037.0	8.743672837308413e+17
19038.0	8.742174292180991e+17
19039.0	8.74058429444915e+17
19040.0	8.738989878717097e+17
19041.0	8.737393111378601e+17
19042.0	8.735773686409897e+17
19043.0	8.734195018891264e+17
19044.0	8.732592403294888e+17
19045.0	8.730989175330131e+17
19046.0	8.729371674148863e+17
19047.0	8.72777298162483e+17
19048.0	8.726120824307711e+17
19049.0	8.724539561913e+17
19050.0	8.722928754840915e+17
19051.0	8.719603974799356e+17
19052.0	8.719395220094975e+17
19053.0	8.71807231144755e+17
19054.0	8.716486671597565e+17
19055.0	8.7148033240378e+17
19056.0	8.713249923006461e+17
19057.0	8.711626384823638e+17
19058.0	8.709979515125761e+17
19059.0	8.708381674045439e+17
19060.0	8.706751067062272e+17
19061.0	8.705130067831466e+17
19062.0	8.703500900892672e+17
19063.0	8.70187188494882e+17
19064.0	8.700213285180756e+17
19065.0	8.698561174000979e+17
19066.0	8.696959163782481e+17
19067.0	8.695342142149972e+17
19068.0	8.693706500603903e+17
19069.0	8.692069676264106e+17
19070.0	8.690428909278548e+17
19071.0	8.688791872427348e+17
19072.0	8.687151081674067e+17
19073.0	8.685507841447251e+17
19074.0	8.683865950388221e+17
19075.0	8.682221504998058e+17
19076.0	8.680570706635434e+17
19077.0	8.678926171766783e+17
19078.0	8.677273332176212e+17
19079.0	8.675631492846931e+17
19080.0	8.673979329937407e+17
19081.0	8.672317704678058e+17
19082.0	8.670665072006486e+17
19083.0	8.668990800920575e+17
19084.0	8.667295667366569e+17
19085.0	8.665702908384595e+17
19086.0	8.663909484112554e+17
19087.0	8.662125199228927e+17
19088.0	8.660633339822079e+17
19089.0	8.658872885575676e+17
19090.0	8.657378459254781e+17
19091.0	8.655726679425024e+17
19092.0	8.654005801233064e+17
19093.0	8.652414254404947e+17
19094.0	8.650733082290856e+17
19095.0	8.649063324276052e+17
19096.0	8.647419092795391e+17
19097.0	8.645754956546047e+17
19098.0	8.644086357557245e+17
19099.0	8.642415128739837e+17
19100.0	8.640724519441747e+17
19101.0	8.639069352012456e+17
19102.0	8.637375521488893e+17
19103.0	8.635718763020288e+17
19104.0	8.634040718458879e+17
19105.0	8.632357313576957e+17
19106.0	8.630632579421523e+17
19107.0	8.628987709008553e+17
19108.0	8.627293631021056e+17
19109.0	8.624538050188626e+17
19110.0	8.623837407084543e+17
19111.0	8.622262905907881e+17
19112.0	8.620586111249066e+17
19113.0	8.618902109377876e+17
19114.0	8.617215146328063e+17
19115.0	8.615417991921663e+17
19116.0	8.613686695078569e+17
19117.0	8.611984267629907e+17
19118.0	8.610238090794324e+17
19119.0	8.60812923249186e+17
19120.0	8.606820102133076e+17
19121.0	8.605151366130344e+17
19122.0	8.603526548684797e+17
19123.0	8.601828272198995e+17
19124.0	8.60005938180915e+17
19125.0	8.598422221925033e+17
19126.0	8.596724794086739e+17
19127.0	8.594626137729705e+17
19128.0	8.592681574509224e+17
19129.0	8.591595761478314e+17
19130.0	8.589912402733737e+17
19131.0	8.588193888731133e+17
19132.0	8.586496828593494e+17
19133.0	8.584639645308243e+17
19134.0	8.582788057224532e+17
19135.0	8.581364648858962e+17
19136.0	8.579653557376339e+17
19137.0	8.577899147122004e+17
19138.0	8.576203771696467e+17
19139.0	8.574504618601128e+17
19140.0	8.572790331058858e+17
19141.0	8.571072084093609e+17
19142.0	8.569351597370025e+17
19143.0	8.567617986669226e+17
19144.0	8.565904965806764e+17
19145.0	8.564174872728918e+17
19146.0	8.560584717675178e+17
19147.0	8.558992116678655e+17
19148.0	8.557276533096448e+17
19149.0	8.555547168429395e+17
19150.0	8.553817862482601e+17
19151.0	8.552086393673043e+17
19152.0	8.550338344779775e+17
19153.0	8.548614228585128e+17
19154.0	8.546843689833812e+17
19155.0	8.545129803546621e+17
19156.0	8.543374418815658e+17
19157.0	8.541547479258451e+17
19158.0	8.539275670847485e+17
19159.0	8.53809277505809e+17
19160.0	8.536377111784106e+17
19161.0	8.53455620922846e+17
19162.0	8.531214628203177e+17
19163.0	8.530996411148969e+17
19164.0	8.529397602582527e+17
19165.0	8.527634247275859e+17
19166.0	8.525851377270781e+17
19167.0	8.523983729197053e+17
19168.0	8.52235852867174e+17
19169.0	8.52060194157363e+17
19170.0	8.518859619303421e+17
19171.0	8.517040453189631e+17
19172.0	8.515325515530237e+17
19173.0	8.513567972130816e+17
19174.0	8.511791793438717e+17
19175.0	8.510033527220906e+17
19176.0	8.508258574663679e+17
19177.0	8.506439355422034e+17
19178.0	8.504652658813609e+17
19179.0	8.502829947114836e+17
19180.0	8.501103226257407e+17
19181.0	8.499332312814931e+17
19182.0	8.497567731373396e+17
19183.0	8.495785466746195e+17
19184.0	8.493978023712084e+17
19185.0	8.492208811758931e+17
19186.0	8.490417034450259e+17
19187.0	8.488601715911337e+17
19188.0	8.486814351010472e+17
19189.0	8.484988926995113e+17
19190.0	8.48157175063074e+17
19191.0	8.479234411812182e+17
19192.0	8.477429816710484e+17
19193.0	8.475575967896915e+17
19194.0	8.473775026034003e+17
19195.0	8.471957608944978e+17
19196.0	8.470103600747859e+17
19197.0	8.468190454262441e+17
19198.0	8.46599912895283e+17
19199.0	8.454595349053436e+17
19200.0	8.455090019674796e+17
19201.0	8.460568106456404e+17
19202.0	8.459057299980285e+17
19203.0	8.457281714083156e+17
19204.0	8.455494509963944e+17
19205.0	8.453674531553279e+17
19206.0	8.451835603277142e+17
19207.0	8.449979960699561e+17
19208.0	8.44810434065203e+17
19209.0	8.446295050726058e+17
19210.0	8.444437975094612e+17
19211.0	8.442575927814825e+17
19212.0	8.440707180833449e+17
19213.0	8.438751930526377e+17
19214.0	8.43682722174293e+17
19215.0	8.433048078341458e+17
19216.0	8.430559836853587e+17
19217.0	8.428678778191871e+17
19218.0	8.42660098430293e+17
19219.0	8.424856545307305e+17
19220.0	8.423005168336895e+17
19221.0	8.421030427099136e+17
19222.0	8.419206177488893e+17
19223.0	8.417302946338132e+17
19224.0	8.415389991392596e+17
19225.0	8.413445902128467e+17
19226.0	8.411562486267901e+17
19227.0	8.409641184657408e+17
19228.0	8.407715151871999e+17
19229.0	8.405784260684456e+17
19230.0	8.403822342832125e+17
19231.0	8.401893266380115e+17
19232.0	8.399961592255828e+17
19233.0	8.39644971689574e+17
19234.0	8.394450685045418e+17
19235.0	8.392495273956692e+17
19236.0	8.390529168790867e+17
19237.0	8.388554402387284e+17
19238.0	8.386544937904809e+17
19239.0	8.384601255488169e+17
19240.0	8.382589327551144e+17
19241.0	8.3806146016925e+17
19242.0	8.378627998963028e+17
19243.0	8.376580754986323e+17
19244.0	8.374619027275775e+17
19245.0	8.372606445027327e+17
19246.0	8.370584941494268e+17
19247.0	8.368564104855552e+17
19248.0	8.366534995651241e+17
19249.0	8.364498655466836e+17
19250.0	8.362455330368168e+17
19251.0	8.360377417640617e+17
19252.0	8.358275689654953e+17
19253.0	8.356290163463508e+17
19254.0	8.354220482756607e+17
19255.0	8.352100206160554e+17
19256.0	8.350041605406719e+17
19257.0	8.347978800562175e+17
19258.0	8.345884890759169e+17
19259.0	8.343762501631997e+17
19260.0	8.341517487833088e+17
19261.0	8.339554834579455e+17
19262.0	8.3374299428509e+17
19263.0	8.335289790846292e+17
19264.0	8.333044856739156e+17
19265.0	8.330966075790676e+17
19266.0	8.328820590029481e+17
19267.0	8.3266752217088e+17
19268.0	8.324494108131328e+17
19269.0	8.322304664666111e+17
19270.0	8.320105884680191e+17
19271.0	8.317828141329066e+17
19272.0	8.315675154754217e+17
19273.0	8.312717117663913e+17
19274.0	8.310774433491624e+17
19275.0	8.308795313400489e+17
19276.0	8.306420892740266e+17
19277.0	8.304162123022336e+17
19278.0	8.301893753940649e+17
19279.0	8.299597329159508e+17
19280.0	8.297309508293974e+17
19281.0	8.295025850974208e+17
19282.0	8.292706722425514e+17
19283.0	8.290292051826003e+17
19284.0	8.287821515893417e+17
19285.0	8.285697681129471e+17
19286.0	8.283385452210858e+17
19287.0	8.28102483081079e+17
19288.0	8.275838620052134e+17
19289.0	8.269620726551881e+17
19290.0	8.273891034136575e+17
19291.0	8.271432616946345e+17
19292.0	8.269090612663634e+17
19293.0	8.266666822249128e+17
19294.0	8.264233523347456e+17
19295.0	8.261786422389417e+17
19296.0	8.259326653235199e+17
19297.0	8.256853558777172e+17
19298.0	8.254368180600831e+17
19299.0	8.251869331718143e+17
19300.0	8.249356389974015e+17
19301.0	8.246829005843113e+17
19302.0	8.244286464895656e+17
19303.0	8.241710621174441e+17
19304.0	8.239131216489128e+17
19305.0	8.236530631966719e+17
19306.0	8.233900012033364e+17
19307.0	8.231233044261545e+17
19308.0	8.228573566118569e+17
19309.0	8.225173021567656e+17
19310.0	8.222157588223315e+17
19311.0	8.21984725233391e+17
19312.0	8.217176072082772e+17
19313.0	8.21441263112465e+17
19314.0	8.207997357872468e+17
19315.0	8.205405435985925e+17
19316.0	8.205987300595027e+17
19317.0	8.203175033744041e+17
19318.0	8.200302712848381e+17
19319.0	8.197422401803602e+17
19320.0	8.194515487686655e+17
19321.0	8.19159003894033e+17
19322.0	8.188586071425024e+17
19323.0	8.185537854002515e+17
19324.0	8.182649749940908e+17
19325.0	8.17946470313711e+17
19326.0	8.176455420040532e+17
19327.0	8.172623990445395e+17
19328.0	8.169536300427945e+17
19329.0	8.166413905341098e+17
19330.0	8.163252784245417e+17
19331.0	8.160067899621375e+17
19332.0	8.15686414901794e+17
19333.0	8.153620103735976e+17
19334.0	8.150340883622569e+17
19335.0	8.147029781206355e+17
19336.0	8.143682033156093e+17
19337.0	8.140299148023123e+17
19338.0	8.135807585310034e+17
19339.0	8.132063166551379e+17
19340.0	8.128557695893503e+17
19341.0	8.125024755340628e+17
19342.0	8.121363276147369e+17
19343.0	8.117834678097236e+17
19344.0	8.11417472143633e+17
19345.0	8.110084747952127e+17
19346.0	8.105334423246167e+17
19347.0	8.101044417811795e+17
19348.0	8.0971973015197e+17
19349.0	8.0932805555869e+17
19350.0	8.089319117946879e+17
19351.0	8.085317452737192e+17
19352.0	8.07951316095249e+17
19353.0	8.074721239935658e+17
19354.0	8.070552642824873e+17
19355.0	8.066311036862464e+17
19356.0	8.062048509711698e+17
19357.0	8.055168141273768e+17
19358.0	8.050203881897983e+17
19359.0	8.045695741897386e+17
19360.0	8.041173261571411e+17
19361.0	8.034659183099899e+17
19362.0	8.028109313234259e+17
19363.0	8.023338700679849e+17
19364.0	8.018497063179604e+17
19365.0	8.010741393828521e+17
19366.0	8.004103695237117e+17
19367.0	7.999019972296703e+17
19368.0	7.993494473102676e+17
19369.0	7.983137748069033e+17
19370.0	7.977648512827391e+17
19371.0	7.970720311148549e+17
19372.0	7.960589884194815e+17
19373.0	7.954865542834857e+17
19374.0	7.946567259171496e+17
19375.0	7.939689124899498e+17
19376.0	7.933656637811369e+17
19377.0	7.927578135014058e+17
19378.0	7.921322280266408e+17
19379.0	7.914956169849513e+17
19380.0	7.908479300446888e+17
19381.0	7.901882318760618e+17
19382.0	7.894823500862806e+17
19383.0	7.887876519886845e+17
19384.0	7.88091747189828e+17
19385.0	7.87380066914577e+17
19386.0	7.866546831491071e+17
19387.0	7.859146038007123e+17
19388.0	7.851548531665578e+17
19389.0	7.843569242996733e+17
19390.0	7.835141650339155e+17
19391.0	7.820389544973642e+17
19392.0	7.818751637105321e+17
19393.0	7.810479795732479e+17
19394.0	7.801610094073174e+17
19395.0	7.792012954697727e+17
19396.0	7.783061557783209e+17
19397.0	7.773925643649021e+17
19398.0	7.764301881627991e+17
19399.0	7.753261757672104e+17
19400.0	7.743521679212544e+17
19401.0	7.733331008072361e+17
19402.0	7.72106526794274e+17
19403.0	7.709924237421226e+17
19404.0	7.698039370853033e+17
19405.0	7.684567941687977e+17
19406.0	7.672455464222717e+17
19407.0	7.657251179331581e+17
19408.0	7.644037485953025e+17
19409.0	7.627736937223508e+17
19410.0	7.612624784414039e+17
19411.0	7.59560235262498e+17
19412.0	7.577592310442666e+17
19413.0	7.559752885556566e+17
19414.0	7.540282912407551e+17
19415.0	7.51921239005594e+17
19416.0	7.500497423783249e+17
19417.0	7.482778214640296e+17
19418.0	7.465612379597481e+17
19419.0	7.447026662200659e+17
19420.0	7.42815327007539e+17
19421.0	7.408490273658196e+17
19422.0	7.387336803352573e+17
19423.0	7.365583719541417e+17
19424.0	7.342503195836417e+17
19425.0	7.318509232411987e+17
19426.0	7.293621274061481e+17
19427.0	7.267678123895466e+17
19428.0	7.240147080140114e+17
19429.0	7.211073618837501e+17
19430.0	7.179918432185004e+17
19431.0	7.14573696991232e+17
19432.0	7.111686520919378e+17
19433.0	7.075566740744876e+17
19434.0	7.037814800995668e+17
19435.0	6.997161942188031e+17
19436.0	6.95415463879202e+17
19437.0	6.910047739882154e+17
19438.0	6.860946668519421e+17
19439.0	6.81477251530752e+17
19440.0	6.762670157987839e+17
19441.0	6.7068102222807e+17
19442.0	6.647345062084609e+17
19443.0	6.583884378537983e+17
19444.0	6.516456648867835e+17
19445.0	6.444687863491244e+17
19446.0	6.368429853026986e+17
19447.0	6.287242132368038e+17
19448.0	6.200030724270766e+17
19449.0	6.102369714569215e+17
19450.0	5.971026262709572e+17
19451.0	5.887167132510902e+17
19452.0	6.042660921234772e+17
19453.0	6.150165385707524e+17
19454.0	6.239096048102053e+17
19455.0	6.320712086891178e+17
19456.0	6.396960542730924e+17
19457.0	6.468493669040124e+17
19458.0	6.534409827472726e+17
19459.0	6.59850727906782e+17
19460.0	6.657278849581052e+17
19461.0	6.712521616523263e+17
19462.0	6.763646097031169e+17
19463.0	6.81182614537284e+17
19464.0	6.856660960848554e+17
19465.0	6.898791568026284e+17
19466.0	6.939829083657554e+17
19467.0	6.978989760795988e+17
19468.0	7.015319901394262e+17
19469.0	7.049447528377002e+17
19470.0	7.08224448794897e+17
19471.0	7.113378802346666e+17
19472.0	7.14261807567121e+17
19473.0	7.170267026904403e+17
19474.0	7.195553418969088e+17
19475.0	7.218984941606227e+17
19476.0	7.242074174084436e+17
19477.0	7.263210572174676e+17
19478.0	7.284226491678719e+17
19479.0	7.303545289528659e+17
19480.0	7.322146706205356e+17
19481.0	7.339577390574249e+17
19482.0	7.35593241632222e+17
19483.0	7.371763254733481e+17
19484.0	7.386732341231616e+17
19485.0	7.400733169855145e+17
19486.0	7.41686087970543e+17
19487.0	7.433736076044968e+17
19488.0	7.450238215607638e+17
19489.0	7.466159259516928e+17
19490.0	7.481700765051555e+17
19491.0	7.494997272166399e+17
19492.0	7.509202240361811e+17
19493.0	7.521197556935336e+17
19494.0	7.5330978082106e+17
19495.0	7.544087262177958e+17
19496.0	7.554646890861908e+17
19497.0	7.564153497583612e+17
19498.0	7.573632069577386e+17
19499.0	7.572371709187405e+17
19500.0	7.591350657963347e+17
19501.0	7.599303234508115e+17
19502.0	7.606287567159293e+17
19503.0	7.613575128416255e+17
19504.0	7.62095602971443e+17
19505.0	7.627194162129577e+17
19506.0	7.633206685728765e+17
19507.0	7.63929132199663e+17
19508.0	7.64572345635089e+17
19509.0	7.65115357986816e+17
19510.0	7.656372109137236e+17
19511.0	7.653406392276306e+17
19512.0	7.664885552207186e+17
19513.0	7.668876277273934e+17
19514.0	7.674272049441448e+17
19515.0	7.680752621016404e+17
19516.0	7.685204105756672e+17
19517.0	7.689319738594644e+17
19518.0	7.693308795726505e+17
19519.0	7.697151744278527e+17
19520.0	7.701116563925673e+17
19521.0	7.704838894081364e+17
19522.0	7.708298727915519e+17
19523.0	7.711641381284521e+17
19524.0	7.714871958656339e+17
19525.0	7.71798698295296e+17
19526.0	7.721001499142825e+17
19527.0	7.723909959559849e+17
19528.0	7.729581367405225e+17
19529.0	7.732639686109866e+17
19530.0	7.737472782609069e+17
19531.0	7.743381533534889e+17
19532.0	7.745769156466004e+17
19533.0	7.75089054984875e+17
19534.0	7.755160763760637e+17
19535.0	7.75731363009877e+17
19536.0	7.759254882615296e+17
19537.0	7.765236910828202e+17
19538.0	7.767101922082815e+17
19539.0	7.768725366592851e+17
19540.0	7.770620132240041e+17
19541.0	7.775544761035433e+17
19542.0	7.777022159880192e+17
19543.0	7.778434429572434e+17
19544.0	7.779781564519764e+17
19545.0	7.783052668654931e+17
19546.0	7.784965569074515e+17
19547.0	7.786283195695105e+17
19548.0	7.787372825542655e+17
19549.0	7.788385976451072e+17
19550.0	7.791142498205696e+17
19551.0	7.792567535359318e+17
19552.0	7.793437674482348e+17
19553.0	7.794263317632339e+17
19554.0	7.795042837419348e+17
19555.0	7.795772738590034e+17
19556.0	7.797719995951782e+17
19557.0	7.798773343671638e+17
19558.0	7.799345856380928e+17
19559.0	7.799874144348841e+17
19560.0	7.800356308953768e+17
19561.0	7.800810833095336e+17
19562.0	7.801218773898579e+17
19563.0	7.801588152270845e+17
19564.0	7.80253438166084e+17
19565.0	7.803451824144383e+17
19566.0	7.803702798712832e+17
19567.0	7.803927248502781e+17
19568.0	7.804106029312681e+17
19569.0	7.804264137796266e+17
19570.0	7.80438599910468e+17
19571.0	7.804474648515923e+17
19572.0	7.80452741845265e+17
19573.0	7.804560651321343e+17
19574.0	7.804544097801555e+17
19575.0	7.804541516906496e+17
19576.0	7.805079208503977e+17
19577.0	7.805241543447894e+17
19578.0	7.805128901219667e+17
19579.0	7.805002552005972e+17
19580.0	7.804850125406208e+17
19581.0	7.804676043614889e+17
19582.0	7.804484802925906e+17
19583.0	7.804267935039487e+17
19584.0	7.804027506349395e+17
19585.0	7.80373956038929e+17
19586.0	7.803439381042514e+17
19587.0	7.803133336660649e+17
19588.0	7.802753032126463e+17
19589.0	7.802505934493011e+17
19590.0	7.802165063406932e+17
19591.0	7.801800079267156e+17
19592.0	7.801399584751617e+17
19593.0	7.800981188946598e+17
19594.0	7.8006066362013e+17
19595.0	7.800596683117908e+17
19596.0	7.798637548885335e+17
19597.0	7.799609398482259e+17
19598.0	7.799078715566761e+17
19599.0	7.798597029112489e+17
19600.0	7.798039849380522e+17
19601.0	7.797458123183446e+17
19602.0	7.796867918899881e+17
19603.0	7.796044079300607e+17
19604.0	7.795629399648938e+17
19605.0	7.79497171320832e+17
19606.0	7.794404938306899e+17
19607.0	7.793755415379967e+17
19608.0	7.793091234758655e+17
19609.0	7.792411111587837e+17
19610.0	7.791729636453033e+17
19611.0	7.791029699390121e+17
19612.0	7.790321172392617e+17
19613.0	7.789600413406547e+17
19614.0	7.788857760153599e+17
19615.0	7.788124216928938e+17
19616.0	7.787299973278377e+17
19617.0	7.786614382133247e+17
19618.0	7.7857240921757e+17
19619.0	7.784912583830186e+17
19620.0	7.784127491211263e+17
19621.0	7.783468127049046e+17
19622.0	7.782657351308627e+17
19623.0	7.781836485470889e+17
19624.0	7.781005947568125e+17
19625.0	7.780165189544617e+17
19626.0	7.779314033841494e+17
19627.0	7.77844467905331e+17
19628.0	7.77733690185045e+17
19629.0	7.776634629958313e+17
19630.0	7.774723370909693e+17
19631.0	7.764303499231232e+17
19632.0	7.774084876206076e+17
19633.0	7.773379176169471e+17
19634.0	7.772483622360403e+17
19635.0	7.771556359613097e+17
19636.0	7.770638966063101e+17
19637.0	7.76958727229713e+17
19638.0	7.768741978832893e+17
19639.0	7.76777972720162e+17
19640.0	7.766799034613756e+17
19641.0	7.765728568541184e+17
19642.0	7.764858107854845e+17
19643.0	7.763866898748755e+17
19644.0	7.762856209896787e+17
19645.0	7.761808825079126e+17
19646.0	7.760858671218688e+17
19647.0	7.759842368989866e+17
19648.0	7.758819502675283e+17
19649.0	7.757789685000873e+17
19650.0	7.756754934824957e+17
19651.0	7.755713528288596e+17
19652.0	7.75466612809182e+17
19653.0	7.753612611201705e+17
19654.0	7.752554103089833e+17
19655.0	7.751488382173184e+17
19656.0	7.7504176993949e+17
19657.0	7.749343602453161e+17
19658.0	7.748263402799101e+17
19659.0	7.747177866592255e+17
19660.0	7.746087825702911e+17
19661.0	7.744992418900649e+17
19662.0	7.743891662962687e+17
19663.0	7.742768773682518e+17
19664.0	7.741637801978538e+17
19665.0	7.740561918263296e+17
19666.0	7.739440044004691e+17
