# Flux units: erg / (cm m2 s)
# Wavelength units: Angstrom
wave	flux
19000.0	7.920296869407402e+17
19001.0	7.918836528797011e+17
19002.0	7.91748488217668e+17
19003.0	7.916075471601663e+17
19004.0	7.914665325625344e+17
19005.0	7.913255151686995e+17
19006.0	7.911842318559914e+17
19007.0	7.910421772107773e+17
19008.0	7.908985243959296e+17
19009.0	7.90752616723251e+17
19010.0	7.905979765096445e+17
19011.0	7.904740194473302e+17
19012.0	7.903271421913768e+17
19013.0	7.901911333557587e+17
19014.0	7.90045599535377e+17
19015.0	7.899047620771837e+17
19016.0	7.897626187923453e+17
19017.0	7.896217874857983e+17
19018.0	7.894786635726847e+17
19019.0	7.893360895328255e+17
19020.0	7.891923121471485e+17
19021.0	7.890510979006464e+17
19022.0	7.889081516862121e+17
19023.0	7.887624015795539e+17
19024.0	7.886201478447101e+17
19025.0	7.884776343426387e+17
19026.0	7.883332775837693e+17
19027.0	7.881877996874409e+17
19028.0	7.880474852589565e+17
19029.0	7.879029440905215e+17
19030.0	7.877600965820415e+17
19031.0	7.876161416374954e+17
19032.0	7.874720498188285e+17
19033.0	7.873227436414292e+17
19034.0	7.871819408561494e+17
19035.0	7.870386084861267e+17
19036.0	7.867102188098899e+17
19037.0	7.867808188727296e+17
19038.0	7.866397883367424e+17
19039.0	7.864972994412543e+17
19040.0	7.863528266399743e+17
19041.0	7.862081446827348e+17
19042.0	7.860588053703336e+17
19043.0	7.859184425675433e+17
19044.0	7.857733424381951e+17
19045.0	7.856282360173908e+17
19046.0	7.854808341938173e+17
19047.0	7.853357859340285e+17
19048.0	7.851840636977148e+17
19049.0	7.85043270279714e+17
19050.0	7.848984053110102e+17
19051.0	7.847202996442451e+17
19052.0	7.845988672733183e+17
19053.0	7.844646963817128e+17
19054.0	7.843196316243284e+17
19055.0	7.841599316819965e+17
19056.0	7.840271809817258e+17
19057.0	7.838821057385811e+17
19058.0	7.837360610519721e+17
19059.0	7.835906115371008e+17
19060.0	7.834439628707158e+17
19061.0	7.832987792747176e+17
19062.0	7.831524678303744e+17
19063.0	7.830062117508434e+17
19064.0	7.828551696908285e+17
19065.0	7.827038881360552e+17
19066.0	7.825639895029075e+17
19067.0	7.824213929536169e+17
19068.0	7.822750123032575e+17
19069.0	7.821285699966291e+17
19070.0	7.819808836594348e+17
19071.0	7.818355100614656e+17
19072.0	7.81688912146159e+17
19073.0	7.815420776721064e+17
19074.0	7.813955711926272e+17
19075.0	7.812487992137044e+17
19076.0	7.811011890730323e+17
19077.0	7.809543065042943e+17
19078.0	7.80807133270289e+17
19079.0	7.806612818012841e+17
19080.0	7.805140509655039e+17
19081.0	7.803647150085463e+17
19082.0	7.802183999291391e+17
19083.0	7.80065899090193e+17
19084.0	7.799117540840787e+17
19085.0	7.797782892336467e+17
19086.0	7.796085918881106e+17
19087.0	7.79480270512674e+17
19088.0	7.793308650700797e+17
19089.0	7.791763309723645e+17
19090.0	7.790391461937151e+17
19091.0	7.78892613709551e+17
19092.0	7.7874319079069e+17
19093.0	7.785991466472787e+17
19094.0	7.78451608229205e+17
19095.0	7.783040155648e+17
19096.0	7.781559032261289e+17
19097.0	7.780086427506002e+17
19098.0	7.778611532660736e+17
19099.0	7.77713370599697e+17
19100.0	7.775655233410386e+17
19101.0	7.774172312065363e+17
19102.0	7.77265529941743e+17
19103.0	7.771216997078355e+17
19104.0	7.769736943239165e+17
19105.0	7.768254699973289e+17
19106.0	7.766767108969812e+17
19107.0	7.765282441396221e+17
19108.0	7.763795320154793e+17
19109.0	7.762185400877055e+17
19110.0	7.760803732826796e+17
19111.0	7.75935856301397e+17
19112.0	7.757880603530579e+17
19113.0	7.756398368653311e+17
19114.0	7.754913805937321e+17
19115.0	7.75340931748113e+17
19116.0	7.751929871816019e+17
19117.0	7.7504443318272e+17
19118.0	7.748909188601172e+17
19119.0	7.746047238821204e+17
19120.0	7.745969455453522e+17
19121.0	7.744494847219028e+17
19122.0	7.743025325277181e+17
19123.0	7.74153775943953e+17
19124.0	7.740032016886442e+17
19125.0	7.73855363657455e+17
19126.0	7.737031199293437e+17
19127.0	7.73480548348723e+17
19128.0	7.734021138852522e+17
19129.0	7.732545228985683e+17
19130.0	7.731107361456127e+17
19131.0	7.729619102160211e+17
19132.0	7.728124912118441e+17
19133.0	7.726593466870441e+17
19134.0	7.725126077033128e+17
19135.0	7.72364804624657e+17
19136.0	7.722154071512403e+17
19137.0	7.720596327978323e+17
19138.0	7.719157664929108e+17
19139.0	7.717673380435283e+17
19140.0	7.716179749634045e+17
19141.0	7.714683803577e+17
19142.0	7.713173185844564e+17
19143.0	7.71166798295859e+17
19144.0	7.710174960331434e+17
19145.0	7.708693365784575e+17
19146.0	7.706869633471828e+17
19147.0	7.705661201361578e+17
19148.0	7.704194065978708e+17
19149.0	7.702694163294889e+17
19150.0	7.701191798554621e+17
19151.0	7.699691579899901e+17
19152.0	7.698187703812093e+17
19153.0	7.696670917656575e+17
19154.0	7.695127866769405e+17
19155.0	7.693670618759165e+17
19156.0	7.692165002035199e+17
19157.0	7.690642443119274e+17
19158.0	7.689084670225066e+17
19159.0	7.687627564821161e+17
19160.0	7.686134423355391e+17
19161.0	7.6846121119034e+17
19162.0	7.682900972885332e+17
19163.0	7.681555435967827e+17
19164.0	7.680101565770409e+17
19165.0	7.678594474049533e+17
19166.0	7.677036618667348e+17
19167.0	7.675555089831251e+17
19168.0	7.674056569869654e+17
19169.0	7.672546971353088e+17
19170.0	7.671038678663167e+17
19171.0	7.669519187181567e+17
19172.0	7.668009685133993e+17
19173.0	7.666324039095636e+17
19174.0	7.66467307995136e+17
19175.0	7.663178871734271e+17
19176.0	7.661662156881917e+17
19177.0	7.660060066971645e+17
19178.0	7.658614351899305e+17
19179.0	7.657090551469396e+17
19180.0	7.655576108531711e+17
19181.0	7.654010422383956e+17
19182.0	7.652523509459625e+17
19183.0	7.651010000453632e+17
19184.0	7.64948128010513e+17
19185.0	7.647900838395901e+17
19186.0	7.646308681995603e+17
19187.0	7.644736366051328e+17
19188.0	7.643249425164969e+17
19189.0	7.641720851617108e+17
19190.0	7.640187058956968e+17
19191.0	7.638634888254804e+17
19192.0	7.637118889230335e+17
19193.0	7.635580336035158e+17
19194.0	7.634031994732543e+17
19195.0	7.632491391920809e+17
19196.0	7.630928511762432e+17
19197.0	7.62934238257698e+17
19198.0	7.627633943292586e+17
19199.0	7.624798877603156e+17
19200.0	7.623483919958015e+17
19201.0	7.623033446116008e+17
19202.0	7.621626870890496e+17
19203.0	7.620106929220266e+17
19204.0	7.61857014322517e+17
19205.0	7.617041281668434e+17
19206.0	7.615493804392447e+17
19207.0	7.613890345740969e+17
19208.0	7.61231486030097e+17
19209.0	7.610549210710012e+17
19210.0	7.608909440570708e+17
19211.0	7.60735378580002e+17
19212.0	7.605794860870314e+17
19213.0	7.604187005190143e+17
19214.0	7.602620791958185e+17
19215.0	7.601104936938154e+17
19216.0	7.599545586985641e+17
19217.0	7.597962870565544e+17
19218.0	7.59606970294818e+17
19219.0	7.594725863325693e+17
19220.0	7.593256120483839e+17
19221.0	7.591577958481919e+17
19222.0	7.590107087372287e+17
19223.0	7.588554217619455e+17
19224.0	7.586947361581738e+17
19225.0	7.58534179319535e+17
19226.0	7.58380679397376e+17
19227.0	7.582223428834644e+17
19228.0	7.580653208644264e+17
19229.0	7.57906583654673e+17
19230.0	7.577475861184511e+17
19231.0	7.575877505602899e+17
19232.0	7.574287066071039e+17
19233.0	7.572657088233471e+17
19234.0	7.570744926011392e+17
19235.0	7.568975332376575e+17
19236.0	7.567385832368809e+17
19237.0	7.56577533567522e+17
19238.0	7.56412728877602e+17
19239.0	7.562566722475347e+17
19240.0	7.560948308333906e+17
19241.0	7.559325072140969e+17
19242.0	7.557714691489791e+17
19243.0	7.556006742938964e+17
19244.0	7.554483045968553e+17
19245.0	7.552856213858985e+17
19246.0	7.551220854729386e+17
19247.0	7.549592813262166e+17
19248.0	7.547958775338323e+17
19249.0	7.54631949872879e+17
19250.0	7.544667353994582e+17
19251.0	7.542602530291711e+17
19252.0	7.540564294281897e+17
19253.0	7.539074576766292e+17
19254.0	7.537433289687039e+17
19255.0	7.53543291146513e+17
19256.0	7.533866232665427e+17
19257.0	7.532217088256681e+17
19258.0	7.530550357131263e+17
19259.0	7.528836143688361e+17
19260.0	7.527165145557674e+17
19261.0	7.525527974488744e+17
19262.0	7.523817545706156e+17
19263.0	7.522112466059263e+17
19264.0	7.520235516417364e+17
19265.0	7.518311481518762e+17
19266.0	7.516604830405974e+17
19267.0	7.514979234217983e+17
19268.0	7.513275221322409e+17
19269.0	7.511565065169577e+17
19270.0	7.509838165355178e+17
19271.0	7.507988419969024e+17
19272.0	7.506382578952872e+17
19273.0	7.504340568069462e+17
19274.0	7.502614744793088e+17
19275.0	7.501218047153492e+17
19276.0	7.499475944385193e+17
19277.0	7.497736359597395e+17
19278.0	7.495997430519123e+17
19279.0	7.494231343322451e+17
19280.0	7.492453271601151e+17
19281.0	7.490705148608511e+17
19282.0	7.488943851307008e+17
19283.0	7.487155755199148e+17
19284.0	7.48535569134387e+17
19285.0	7.48353457627682e+17
19286.0	7.481366684543657e+17
19287.0	7.47956946023219e+17
19288.0	7.477071166395731e+17
19289.0	7.474568640506536e+17
19290.0	7.474112367340202e+17
19291.0	7.472152176143016e+17
19292.0	7.470460000971433e+17
19293.0	7.468611322336595e+17
19294.0	7.466757644091391e+17
19295.0	7.464894084065961e+17
19296.0	7.463021567803391e+17
19297.0	7.461139752768854e+17
19298.0	7.459240362202451e+17
19299.0	7.457351324576424e+17
19300.0	7.455441780998143e+17
19301.0	7.45352245490483e+17
19302.0	7.451588072658262e+17
19303.0	7.449620869982889e+17
19304.0	7.447415949535914e+17
19305.0	7.445109257098582e+17
19306.0	7.443144614346751e+17
19307.0	7.441142882762752e+17
19308.0	7.439158501616297e+17
19309.0	7.437130524874068e+17
19310.0	7.435084037270186e+17
19311.0	7.433099428233215e+17
19312.0	7.431077775103315e+17
19313.0	7.429024435404799e+17
19314.0	7.425580669949267e+17
19315.0	7.423610157968044e+17
19316.0	7.422776575000575e+17
19317.0	7.420684561022975e+17
19318.0	7.417735738818557e+17
19319.0	7.415540525389139e+17
19320.0	7.413277474684927e+17
19321.0	7.411077665696424e+17
19322.0	7.408870814471508e+17
19323.0	7.406699617626794e+17
19324.0	7.404509412196351e+17
19325.0	7.402276191382185e+17
19326.0	7.400064174172841e+17
19327.0	7.397818124380841e+17
19328.0	7.394914655185578e+17
19329.0	7.392076790497279e+17
19330.0	7.3897694213789e+17
19331.0	7.387447956602879e+17
19332.0	7.385146437140479e+17
19333.0	7.382802928500736e+17
19334.0	7.380439759760042e+17
19335.0	7.378059114752681e+17
19336.0	7.375540502309544e+17
19337.0	7.371674852786173e+17
19338.0	7.369136123062953e+17
19339.0	7.366771658282323e+17
19340.0	7.364237553478313e+17
19341.0	7.361704073625599e+17
19342.0	7.359024883651923e+17
19343.0	7.356578009186301e+17
19344.0	7.352553764640083e+17
19345.0	7.34862547318647e+17
19346.0	7.346296216791722e+17
19347.0	7.343860137066496e+17
19348.0	7.340950210041172e+17
19349.0	7.338191672224424e+17
19350.0	7.334633473572864e+17
19351.0	7.330280387204435e+17
19352.0	7.327422412226557e+17
19353.0	7.324589031249236e+17
19354.0	7.321684653288105e+17
19355.0	7.318699280520532e+17
19356.0	7.313787740749823e+17
19357.0	7.310035842149033e+17
19358.0	7.306989916214612e+17
19359.0	7.303888962409811e+17
19360.0	7.300762675008851e+17
19361.0	7.296843009840468e+17
19362.0	7.292107237971286e+17
19363.0	7.288737173427539e+17
19364.0	7.285395068114262e+17
19365.0	7.282008462633641e+17
19366.0	7.278579255607296e+17
19367.0	7.27510989930496e+17
19368.0	7.271594482554195e+17
19369.0	7.268003450890921e+17
19370.0	7.264380970336253e+17
19371.0	7.260676909170687e+17
19372.0	7.255836220981247e+17
19373.0	7.252063149533866e+17
19374.0	7.24825966518818e+17
19375.0	7.244395564761087e+17
19376.0	7.240483380832938e+17
19377.0	7.236518593342122e+17
19378.0	7.232505957231274e+17
19379.0	7.227576559512233e+17
19380.0	7.22235626164497e+17
19381.0	7.217931107347114e+17
19382.0	7.213369551486975e+17
19383.0	7.208752256122879e+17
19384.0	7.204093927882751e+17
19385.0	7.198556543429288e+17
19386.0	7.192106135890602e+17
19387.0	7.186996014000808e+17
19388.0	7.181823504635222e+17
19389.0	7.176566242366804e+17
19390.0	7.171162712134994e+17
19391.0	7.161400925356032e+17
19392.0	7.157040641561939e+17
19393.0	7.151375102945961e+17
19394.0	7.145438238998525e+17
19395.0	7.139281719350611e+17
19396.0	7.129592631044776e+17
19397.0	7.123144482837844e+17
19398.0	7.11643424096256e+17
19399.0	7.109255147203241e+17
19400.0	7.100168840500563e+17
19401.0	7.090972760473599e+17
19402.0	7.083608790182569e+17
19403.0	7.076052086030335e+17
19404.0	7.068329086113108e+17
19405.0	7.056683900250793e+17
19406.0	7.04820020318481e+17
19407.0	7.039576046567423e+17
19408.0	7.030471115756883e+17
19409.0	7.020702535603538e+17
19410.0	7.008140156119721e+17
19411.0	6.998650741850111e+17
19412.0	6.988817647009792e+17
19413.0	6.977648397910015e+17
19414.0	6.966835339591677e+17
19415.0	6.953535128906408e+17
19416.0	6.940324128970067e+17
19417.0	6.928413405216765e+17
19418.0	6.914469635904854e+17
19419.0	6.9013253142173e+17
19420.0	6.887841406997843e+17
19421.0	6.873863689688404e+17
19422.0	6.859031792582655e+17
19423.0	6.842495904950953e+17
19424.0	6.826416331030528e+17
19425.0	6.80932200747281e+17
19426.0	6.791286102512978e+17
19427.0	6.772226086928384e+17
19428.0	6.750884923615912e+17
19429.0	6.729130579416403e+17
19430.0	6.706789933733204e+17
19431.0	6.683184636887039e+17
19432.0	6.659211648477865e+17
19433.0	6.632693747242326e+17
19434.0	6.604013351643818e+17
19435.0	6.572928611123197e+17
19436.0	6.540314068123648e+17
19437.0	6.505831482785791e+17
19438.0	6.4661680595927e+17
19439.0	6.426979066008918e+17
19440.0	6.382782138460841e+17
19441.0	6.334239102468092e+17
19442.0	6.281255055611222e+17
19443.0	6.222689392569002e+17
19444.0	6.157674135683068e+17
19445.0	6.084861323029165e+17
19446.0	6.002318389892436e+17
19447.0	5.907573469347834e+17
19448.0	5.796628570395994e+17
19449.0	5.662981248166571e+17
19450.0	5.4928233275064224e+17
19451.0	5.398373746081796e+17
19452.0	5.58442668429585e+17
19453.0	5.7311930386568576e+17
19454.0	5.84994851039914e+17
19455.0	5.949744100671487e+17
19456.0	6.035555331954008e+17
19457.0	6.110509802367656e+17
19458.0	6.17529249558255e+17
19459.0	6.235942975176705e+17
19460.0	6.289237417306792e+17
19461.0	6.337362084058452e+17
19462.0	6.381344458276864e+17
19463.0	6.421265221593769e+17
19464.0	6.457988913736361e+17
19465.0	6.491811814746796e+17
19466.0	6.522650272027987e+17
19467.0	6.551886675050495e+17
19468.0	6.579225467988652e+17
19469.0	6.604224210490707e+17
19470.0	6.626855951357267e+17
19471.0	6.648077256840534e+17
19472.0	6.668357882697043e+17
19473.0	6.687383690936319e+17
19474.0	6.707019839613612e+17
19475.0	6.723953905106941e+17
19476.0	6.740047232150185e+17
19477.0	6.755013329507668e+17
19478.0	6.768936225166676e+17
19479.0	6.782539260406442e+17
19480.0	6.795696877338623e+17
19481.0	6.807274542596093e+17
19482.0	6.818344513219242e+17
19483.0	6.82892986347247e+17
19484.0	6.839991768449023e+17
19485.0	6.850108512185001e+17
19486.0	6.859503026132307e+17
19487.0	6.871598582377129e+17
19488.0	6.879695751260842e+17
19489.0	6.888161842735786e+17
19490.0	6.895437515238057e+17
19491.0	6.902814051663871e+17
19492.0	6.911088838137172e+17
19493.0	6.920199345274877e+17
19494.0	6.926240782308692e+17
19495.0	6.932568237320874e+17
19496.0	6.937854208202067e+17
19497.0	6.94616256937984e+17
19498.0	6.952069028817578e+17
19499.0	6.954864853996884e+17
19500.0	6.962053611432617e+17
19501.0	6.96714976559104e+17
19502.0	6.974985203613693e+17
19503.0	6.979476288875177e+17
19504.0	6.983544460367188e+17
19505.0	6.987374294728703e+17
19506.0	6.992999737895592e+17
19507.0	6.997785628202324e+17
19508.0	7.001086154681001e+17
19509.0	7.004196597399551e+17
19510.0	7.007070651241812e+17
19511.0	7.009165198579022e+17
19512.0	7.014948290953215e+17
19513.0	7.017155867093672e+17
19514.0	7.019856731133267e+17
19515.0	7.02272740786176e+17
19516.0	7.025708952627885e+17
19517.0	7.029440407491923e+17
19518.0	7.03146289598737e+17
19519.0	7.033375527272445e+17
19520.0	7.035189386193578e+17
19521.0	7.036922759217151e+17
19522.0	7.038659825325398e+17
19523.0	7.0416611686045e+17
19524.0	7.042964645041492e+17
19525.0	7.044208839185748e+17
19526.0	7.045409262971561e+17
19527.0	7.046554822464852e+17
19528.0	7.047643440087037e+17
19529.0	7.048690148223658e+17
19530.0	7.05019795018001e+17
19531.0	7.051753495898794e+17
19532.0	7.052646137462781e+17
19533.0	7.053489349154131e+17
19534.0	7.054278198471338e+17
19535.0	7.055014326785364e+17
19536.0	7.055699772527956e+17
19537.0	7.056373801375059e+17
19538.0	7.056917977366527e+17
19539.0	7.057352421976745e+17
19540.0	7.058673437594963e+17
19541.0	7.060714760612522e+17
19542.0	7.061111842362708e+17
19543.0	7.061465106219007e+17
19544.0	7.061769892309674e+17
19545.0	7.061816128918867e+17
19546.0	7.064336350576637e+17
19547.0	7.065034941267965e+17
19548.0	7.065214264541183e+17
19549.0	7.065297718607871e+17
19550.0	7.065451087527935e+17
19551.0	7.06611266208836e+17
19552.0	7.067717845996884e+17
19553.0	7.067717655855101e+17
19554.0	7.067692315268436e+17
19555.0	7.067888102582953e+17
19556.0	7.067928128826025e+17
19557.0	7.067823829068458e+17
19558.0	7.06921630863633e+17
19559.0	7.06931653153041e+17
19560.0	7.069114946289663e+17
19561.0	7.06890305564399e+17
19562.0	7.06868182847761e+17
19563.0	7.068417859955369e+17
19564.0	7.068114762771114e+17
19565.0	7.068421488028329e+17
19566.0	7.068861504072361e+17
19567.0	7.068504258423465e+17
19568.0	7.068107261957459e+17
19569.0	7.067719646751402e+17
19570.0	7.067305120890879e+17
19571.0	7.066868333062825e+17
19572.0	7.0663992784541e+17
19573.0	7.065940915126271e+17
19574.0	7.066390467619498e+17
19575.0	7.066058812817407e+17
19576.0	7.065543258756436e+17
19577.0	7.065009174260393e+17
19578.0	7.0644501867834e+17
19579.0	7.063892134636202e+17
19580.0	7.063319135387647e+17
19581.0	7.062737192484863e+17
19582.0	7.062140867313661e+17
19583.0	7.061540258359978e+17
19584.0	7.061299551447721e+17
19585.0	7.061131011730089e+17
19586.0	7.060460577401514e+17
19587.0	7.05985420407603e+17
19588.0	7.058994662561108e+17
19589.0	7.058479945962836e+17
19590.0	7.057758822072319e+17
19591.0	7.057083361569449e+17
19592.0	7.056356196483071e+17
19593.0	7.055598008926208e+17
19594.0	7.054724335403007e+17
19595.0	7.054071528336041e+17
19596.0	7.053218188798633e+17
19597.0	7.052510752320169e+17
19598.0	7.051860913422336e+17
19599.0	7.05146743038498e+17
19600.0	7.050650263923369e+17
19601.0	7.049788432318463e+17
19602.0	7.048941647080105e+17
19603.0	7.047958039450964e+17
19604.0	7.047243957796863e+17
19605.0	7.046272776492372e+17
19606.0	7.045550757817002e+17
19607.0	7.04467500671522e+17
19608.0	7.043783961782953e+17
19609.0	7.04286793138176e+17
19610.0	7.041989744787453e+17
19611.0	7.041079060725759e+17
19612.0	7.040164752785407e+17
19613.0	7.039240810528768e+17
19614.0	7.038286220492799e+17
19615.0	7.037369706348543e+17
19616.0	7.036408011161599e+17
19617.0	7.035495896842239e+17
19618.0	7.034586286522365e+17
19619.0	7.033551863502163e+17
19620.0	7.032635576549375e+17
19621.0	7.031936615361193e+17
19622.0	7.030963887756627e+17
19623.0	7.029977945298259e+17
19624.0	7.028985059169619e+17
19625.0	7.027985941004287e+17
19626.0	7.026980058125652e+17
19627.0	7.025962223577769e+17
19628.0	7.024907665102164e+17
19629.0	7.023838132262228e+17
19630.0	7.022450203514195e+17
19631.0	7.020292194260308e+17
19632.0	7.020763843046057e+17
19633.0	7.019798728802303e+17
19634.0	7.018802259339945e+17
19635.0	7.017746803982335e+17
19636.0	7.016730229822804e+17
19637.0	7.015779265762644e+17
19638.0	7.014974014619647e+17
19639.0	7.013915022764713e+17
19640.0	7.013164740771839e+17
19641.0	7.011879903122772e+17
19642.0	7.01111173452049e+17
19643.0	7.010042381336575e+17
19644.0	7.008928796420777e+17
19645.0	7.007779278902612e+17
19646.0	7.006813531318953e+17
19647.0	7.005734348084564e+17
19648.0	7.004649089400831e+17
19649.0	7.004159794479104e+17
19650.0	7.003207830077439e+17
19651.0	7.002113760559103e+17
19652.0	7.001016550905172e+17
19653.0	6.999915827822591e+17
19654.0	6.998813638830761e+17
19655.0	6.997705700846249e+17
19656.0	6.996596569582249e+17
19657.0	6.99548851835153e+17
19658.0	6.994374100167337e+17
19659.0	6.993256009170943e+17
19660.0	6.992136490014036e+17
19661.0	6.991013696503807e+17
19662.0	6.989887346922835e+17
19663.0	6.988741086980778e+17
19664.0	6.987625053290493e+17
19665.0	6.986513157980159e+17
19666.0	6.985774635417599e+17
