# Flux units: erg / (cm m2 s)
# Wavelength units: Angstrom
wave	flux
19000.0	4.637153166360575e+17
19001.0	4.636132215444821e+17
19002.0	4.635496509254313e+17
19003.0	4.6346576183951354e+17
19004.0	4.633777684174164e+17
19005.0	4.632939785267881e+17
19006.0	4.631941766709247e+17
19007.0	4.631352024498175e+17
19008.0	4.6304142256592205e+17
19009.0	4.6295502906108576e+17
19010.0	4.6279132873140883e+17
19011.0	4.627985207743829e+17
19012.0	4.626596147232766e+17
19013.0	4.626393264553983e+17
19014.0	4.6254914626300576e+17
19015.0	4.624629993133397e+17
19016.0	4.623783381259605e+17
19017.0	4.6230882536652794e+17
19018.0	4.622229592255146e+17
19019.0	4.6213970333969056e+17
19020.0	4.6205946784208205e+17
19021.0	4.6197858390507514e+17
19022.0	4.6189593773124256e+17
19023.0	4.618030719259989e+17
19024.0	4.617106983223295e+17
19025.0	4.616460241818964e+17
19026.0	4.6155747655243085e+17
19027.0	4.614482283550036e+17
19028.0	4.614011254822229e+17
19029.0	4.6131574392313165e+17
19030.0	4.612371340678485e+17
19031.0	4.611552553118378e+17
19032.0	4.610717005818538e+17
19033.0	4.6097514497747616e+17
19034.0	4.609032699161257e+17
19035.0	4.607984867650217e+17
19036.0	4.582112106293916e+17
19037.0	4.6064215841396045e+17
19038.0	4.605723945555285e+17
19039.0	4.604938524382549e+17
19040.0	4.6041269468310163e+17
19041.0	4.6033026157991245e+17
19042.0	4.597008784424953e+17
19043.0	4.601706277677738e+17
19044.0	4.600867182695764e+17
19045.0	4.600025837469695e+17
19046.0	4.599132118668627e+17
19047.0	4.598414802507093e+17
19048.0	4.596425242793299e+17
19049.0	4.5856028004188026e+17
19050.0	4.595808447321428e+17
19051.0	4.590954552666785e+17
19052.0	4.5939944793483955e+17
19053.0	4.5935105713111034e+17
19054.0	4.5926877110818125e+17
19055.0	4.5898716169284275e+17
19056.0	4.590476074156029e+17
19057.0	4.590229215597909e+17
19058.0	4.5837007611494304e+17
19059.0	4.586352951689214e+17
19060.0	4.587741918527486e+17
19061.0	4.586952557505194e+17
19062.0	4.586134655642281e+17
19063.0	4.5853323796589216e+17
19064.0	4.584309033096532e+17
19065.0	4.583445410523817e+17
19066.0	4.580675204153346e+17
19067.0	4.58203527643136e+17
19068.0	4.581254860461396e+17
19069.0	4.580437566073515e+17
19070.0	4.5795630963316045e+17
19071.0	4.5787805384703994e+17
19072.0	4.575780519193256e+17
19073.0	4.5771618384172365e+17
19074.0	4.5763555540773536e+17
19075.0	4.5755477576908794e+17
19076.0	4.5744458685917856e+17
19077.0	4.5738856983210656e+17
19078.0	4.5730020759087776e+17
19079.0	4.5722772743127034e+17
19080.0	4.5714498003490125e+17
19081.0	4.570566164654762e+17
19082.0	4.5697669959516154e+17
19083.0	4.5689137053477536e+17
19084.0	4.5679199747659085e+17
19085.0	4.567366750262613e+17
19086.0	4.563296604651519e+17
19087.0	4.560486455224997e+17
19088.0	4.562127223608656e+17
19089.0	4.563574104697514e+17
19090.0	4.563305857286144e+17
19091.0	4.562082735325186e+17
19092.0	4.5572377053320634e+17
19093.0	4.560905520720553e+17
19094.0	4.560093151144618e+17
19095.0	4.5592802656692896e+17
19096.0	4.558440972855978e+17
19097.0	4.5576588008707405e+17
19098.0	4.554545346641919e+17
19099.0	4.553287733521069e+17
19100.0	4.5551368273919994e+17
19101.0	4.554380572710228e+17
19102.0	4.5533474205641376e+17
19103.0	4.552779965486421e+17
19104.0	4.5519903744764576e+17
19105.0	4.546197758935053e+17
19106.0	4.5502091045983565e+17
19107.0	4.5483162634376506e+17
19108.0	4.546902279673173e+17
19109.0	4.5465457582407654e+17
19110.0	4.5471245022877e+17
19111.0	4.544926570949288e+17
19112.0	4.5437409383765286e+17
19113.0	4.544685924155391e+17
19114.0	4.5429664971926163e+17
19115.0	4.5426898611732474e+17
19116.0	4.542194226561022e+17
19117.0	4.5414363577712634e+17
19118.0	4.54034319212544e+17
19119.0	4.515839376097243e+17
19120.0	4.538763197808638e+17
19121.0	4.5380824014520314e+17
19122.0	4.5374387239867725e+17
19123.0	4.536635541334697e+17
19124.0	4.5357238611258016e+17
19125.0	4.5350143456706554e+17
19126.0	4.5342185491879245e+17
19127.0	4.53015540037495e+17
19128.0	4.5325682066063354e+17
19129.0	4.531679426598229e+17
19130.0	4.530976936602281e+17
19131.0	4.5301851058339834e+17
19132.0	4.529369732437332e+17
19133.0	4.5284976863040845e+17
19134.0	4.5277579138389325e+17
19135.0	4.5269516301981005e+17
19136.0	4.5261621167827616e+17
19137.0	4.5250578138617165e+17
19138.0	4.524537882345472e+17
19139.0	4.523758250710355e+17
19140.0	4.5229541641857696e+17
19141.0	4.5221454261780474e+17
19142.0	4.521294192880298e+17
19143.0	4.5204244696924154e+17
19144.0	4.51968729489954e+17
19145.0	4.518931579185834e+17
19146.0	4.51714224156399e+17
19147.0	4.517008905338878e+17
19148.0	4.5146385790184134e+17
19149.0	4.513532450876075e+17
19150.0	4.5149149438061216e+17
19151.0	4.51412074954752e+17
19152.0	4.5133004135901856e+17
19153.0	4.5086182980539674e+17
19154.0	4.511119629265578e+17
19155.0	4.510915965048148e+17
19156.0	4.5101190060441594e+17
19157.0	4.5080230696932717e+17
19158.0	4.5049046529037677e+17
19159.0	4.5076120887186765e+17
19160.0	4.506889758266708e+17
19161.0	4.5061147068115616e+17
19162.0	4.5032157772513286e+17
19163.0	4.504514549077332e+17
19164.0	4.503697870553087e+17
19165.0	4.498627928697508e+17
19166.0	4.501801622918484e+17
19167.0	4.5010343134494714e+17
19168.0	4.500524777515689e+17
19169.0	4.499663622591829e+17
19170.0	4.4989276466708474e+17
19171.0	4.497953161652906e+17
19172.0	4.497323586835797e+17
19173.0	4.4965239994013e+17
19174.0	4.49562745643554e+17
19175.0	4.494932943306751e+17
19176.0	4.4941380667746976e+17
19177.0	4.4930940339049805e+17
19178.0	4.4923975941925555e+17
19179.0	4.491366444826623e+17
19180.0	4.4909412696282445e+17
19181.0	4.489817006713514e+17
19182.0	4.4892848963365536e+17
19183.0	4.488558717610666e+17
19184.0	4.487726933300565e+17
19185.0	4.4869408997594445e+17
19186.0	4.486176039064917e+17
19187.0	4.4852889549537274e+17
19188.0	4.4845540150258336e+17
19189.0	4.483784652445012e+17
19190.0	4.482994259623936e+17
19191.0	4.48210008084753e+17
19192.0	4.4813989470098765e+17
19193.0	4.4801266286592e+17
19194.0	4.479038198382592e+17
19195.0	4.4790100357283834e+17
19196.0	4.478189633361236e+17
19197.0	4.477417383002112e+17
19198.0	4.4766421379099296e+17
19199.0	4.461225833747794e+17
19200.0	4.465780406091782e+17
19201.0	4.4742243062033056e+17
19202.0	4.473474403794944e+17
19203.0	4.4726330543745696e+17
19204.0	4.4718351390692685e+17
19205.0	4.4710836379320314e+17
19206.0	4.470273674488489e+17
19207.0	4.469343120610644e+17
19208.0	4.46821297238835e+17
19209.0	4.4679053907940685e+17
19210.0	4.467100685609642e+17
19211.0	4.4663364869160954e+17
19212.0	4.4655525477307725e+17
19213.0	4.4645111894289056e+17
19214.0	4.463632625347243e+17
19215.0	4.4631322952116896e+17
19216.0	4.4623955300625056e+17
19217.0	4.46159781957905e+17
19218.0	4.459401996577448e+17
19219.0	4.4598144455584416e+17
19220.0	4.459184799438165e+17
19221.0	4.457878846963712e+17
19222.0	4.457651193424555e+17
19223.0	4.4568323072983046e+17
19224.0	4.456010057340244e+17
19225.0	4.455016398760617e+17
19226.0	4.4544649442536096e+17
19227.0	4.453681692235093e+17
19228.0	4.452924463775744e+17
19229.0	4.452125952180223e+17
19230.0	4.4513313203159034e+17
19231.0	4.450542828912638e+17
19232.0	4.4497640480221856e+17
19233.0	4.4488781495009274e+17
19234.0	4.448145919792468e+17
19235.0	4.447361403191295e+17
19236.0	4.446626906461525e+17
19237.0	4.445801707907753e+17
19238.0	4.444866949939199e+17
19239.0	4.444266388520959e+17
19240.0	4.4434699677859846e+17
19241.0	4.4426616757725856e+17
19242.0	4.441874323122857e+17
19243.0	4.440891046144683e+17
19244.0	4.4403302481264634e+17
19245.0	4.4395235660267514e+17
19246.0	4.438734242054143e+17
19247.0	4.4379660951224314e+17
19248.0	4.4371893051282765e+17
19249.0	4.4363103062370976e+17
19250.0	4.4348465214040736e+17
19251.0	4.4339387174311226e+17
19252.0	4.4336416271892474e+17
19253.0	4.4332199053011616e+17
19254.0	4.4324858846248954e+17
19255.0	4.431411426973012e+17
19256.0	4.4308474098264736e+17
19257.0	4.430136408888661e+17
19258.0	4.429353033138176e+17
19259.0	4.428460959902378e+17
19260.0	4.42700992295731e+17
19261.0	4.4269888521721165e+17
19262.0	4.426094351133355e+17
19263.0	4.4252977717138765e+17
19264.0	4.423635074809854e+17
19265.0	4.423479524152659e+17
19266.0	4.422327793440086e+17
19267.0	4.422310005396819e+17
19268.0	4.421518352886442e+17
19269.0	4.4207480011489274e+17
19270.0	4.419970439402836e+17
19271.0	4.4185367528953197e+17
19272.0	4.418345488438612e+17
19273.0	4.4171861219956045e+17
19274.0	4.416205036541267e+17
19275.0	4.4160687887701325e+17
19276.0	4.415253776782676e+17
19277.0	4.414483799037268e+17
19278.0	4.4136353661364896e+17
19279.0	4.412897081950207e+17
19280.0	4.4120009472300365e+17
19281.0	4.411353057285461e+17
19282.0	4.4106050534987085e+17
19283.0	4.409643167470934e+17
19284.0	4.408985186729983e+17
19285.0	4.407969712876201e+17
19286.0	4.407413257360723e+17
19287.0	4.4066423414893216e+17
19288.0	4.399187657490428e+17
19289.0	4.3877962242238835e+17
19290.0	4.4043021086010016e+17
19291.0	4.403194386623146e+17
19292.0	4.4028144218275834e+17
19293.0	4.402026845481642e+17
19294.0	4.4012275900962125e+17
19295.0	4.400493333140821e+17
19296.0	4.3973782081809126e+17
19297.0	4.3984775639203846e+17
19298.0	4.398116303623508e+17
19299.0	4.3947262119772186e+17
19300.0	4.396535215991466e+17
19301.0	4.3958200717803514e+17
19302.0	4.395038816250538e+17
19303.0	4.394139323290965e+17
19304.0	4.3934516133232646e+17
19305.0	4.3926992474603514e+17
19306.0	4.3919294165155846e+17
19307.0	4.391050693050368e+17
19308.0	4.3903466924059296e+17
19309.0	4.389063189943636e+17
19310.0	4.3881910746043725e+17
19311.0	4.387965807624191e+17
19312.0	4.387229278055082e+17
19313.0	4.386360524450474e+17
19314.0	4.306582238833288e+17
19315.0	4.30997077718916e+17
19316.0	4.380967738627418e+17
19317.0	4.383353251124565e+17
19318.0	4.382620820788565e+17
19319.0	4.38187936920371e+17
19320.0	4.3801500471787494e+17
19321.0	4.378257260544e+17
19322.0	4.379458663699796e+17
19323.0	4.3785816060723194e+17
19324.0	4.3780156231953056e+17
19325.0	4.376711214224726e+17
19326.0	4.3764923862002336e+17
19327.0	4.3756616868167674e+17
19328.0	4.3704539452975834e+17
19329.0	4.3741795197474125e+17
19330.0	4.373338575077375e+17
19331.0	4.372565981484373e+17
19332.0	4.3718628406722554e+17
19333.0	4.3710685366626976e+17
19334.0	4.3701926436536326e+17
19335.0	4.360443865508534e+17
19336.0	4.3686876113360205e+17
19337.0	4.368007625878185e+17
19338.0	4.366902161833983e+17
19339.0	4.3664574957049165e+17
19340.0	4.3650690230954656e+17
19341.0	4.3615924749598784e+17
19342.0	4.362497831556439e+17
19343.0	4.3633962906200736e+17
19344.0	4.3593324826023296e+17
19345.0	4.356222379622394e+17
19346.0	4.3597515369130656e+17
19347.0	4.3560717852344314e+17
19348.0	4.3595542962722125e+17
19349.0	4.3587316324761594e+17
19350.0	4.3564718826891936e+17
19351.0	4.3571392118347085e+17
19352.0	4.3518986282161414e+17
19353.0	4.3557062893895674e+17
19354.0	4.354952078731946e+17
19355.0	4.354034883013291e+17
19356.0	4.353412817398442e+17
19357.0	4.3526510479059616e+17
19358.0	4.351879079264255e+17
19359.0	4.3500313548335744e+17
19360.0	4.346845020378452e+17
19361.0	4.3495118133876045e+17
19362.0	4.34882382799394e+17
19363.0	4.3480566855980365e+17
19364.0	4.347292400222207e+17
19365.0	4.3465154962827936e+17
19366.0	4.3457549039916365e+17
19367.0	4.344990264896171e+17
19368.0	4.3442328225273165e+17
19369.0	4.343379720667136e+17
19370.0	4.342650432563882e+17
19371.0	4.341854454327978e+17
19372.0	4.341161207179947e+17
19373.0	4.3403721369627296e+17
19374.0	4.339635042560682e+17
19375.0	4.338873258388137e+17
19376.0	4.3381208065419936e+17
19377.0	4.3373404087473485e+17
19378.0	4.3365844427735034e+17
19379.0	4.3358256309643936e+17
19380.0	4.335046708166655e+17
19381.0	4.3342802487432525e+17
19382.0	4.33342694555648e+17
19383.0	4.332595427584682e+17
19384.0	4.331966788097364e+17
19385.0	4.331241278362965e+17
19386.0	4.330486007245482e+17
19387.0	4.32972023988224e+17
19388.0	4.328911123688106e+17
19389.0	4.3280191930586464e+17
19390.0	4.3271639311319034e+17
19391.0	4.30301572008069e+17
19392.0	4.3251502227128294e+17
19393.0	4.324927935785642e+17
19394.0	4.3241774496699725e+17
19395.0	4.322082431871661e+17
19396.0	4.3223109787975686e+17
19397.0	4.321911139991551e+17
19398.0	4.3199752198335155e+17
19399.0	4.31733520815445e+17
19400.0	4.3186007310336006e+17
19401.0	4.3188274038046714e+17
19402.0	4.318071867047934e+17
19403.0	4.317276843016192e+17
19404.0	4.316530507863381e+17
19405.0	4.315731207039659e+17
19406.0	4.3149800498353485e+17
19407.0	4.312615107603111e+17
19408.0	4.311890509430787e+17
19409.0	4.31264909824273e+17
19410.0	4.311905651567274e+17
19411.0	4.311128405093034e+17
19412.0	4.310326409428992e+17
19413.0	4.307900240844117e+17
19414.0	4.30872059777297e+17
19415.0	4.307982055636991e+17
19416.0	4.306871999528959e+17
19417.0	4.306132466139134e+17
19418.0	4.3056495465594874e+17
19419.0	4.3048481311074976e+17
19420.0	4.304067550860629e+17
19421.0	4.30326895607808e+17
19422.0	4.3023966289264634e+17
19423.0	4.3016480169656314e+17
19424.0	4.300842462434645e+17
19425.0	4.3000161223311354e+17
19426.0	4.299192839875242e+17
19427.0	4.298349735837695e+17
19428.0	4.297513396513451e+17
19429.0	4.296657583035731e+17
19430.0	4.2955624048230406e+17
19431.0	4.289870170161162e+17
19432.0	4.2939762301992954e+17
19433.0	4.2930214821778765e+17
19434.0	4.292029395064148e+17
19435.0	4.290515005953365e+17
19436.0	4.287276603408378e+17
19437.0	4.288594541106516e+17
19438.0	4.234875528456884e+17
19439.0	4.284295146023597e+17
19440.0	4.2844128948169376e+17
19441.0	4.2828541383584416e+17
19442.0	4.28074002948642e+17
19443.0	4.27806164132386e+17
19444.0	4.274531668940116e+17
19445.0	4.2695054457132365e+17
19446.0	4.2617403629458765e+17
19447.0	4.2483951445824845e+17
19448.0	4.221210495811585e+17
19449.0	4.144802754286931e+17
19450.0	3.8172015813372506e+17
19451.0	3.5344293057003546e+17
19452.0	3.935311974017718e+17
19453.0	4.171976150439259e+17
19454.0	4.225849413511848e+17
19455.0	4.246452918288383e+17
19456.0	4.256279599338838e+17
19457.0	4.261309096919038e+17
19458.0	4.0042013676016237e+17
19459.0	4.2597906540135e+17
19460.0	4.267425454708052e+17
19461.0	4.268140128458068e+17
19462.0	4.268348222559572e+17
19463.0	4.268370992736938e+17
19464.0	4.2681640066307405e+17
19465.0	4.2679065211043834e+17
19466.0	4.267447720869887e+17
19467.0	4.267089946039636e+17
19468.0	4.26659927888145e+17
19469.0	4.2623064660595994e+17
19470.0	4.26548036580147e+17
19471.0	4.2649086535051936e+17
19472.0	4.2641987486788256e+17
19473.0	4.263522160607231e+17
19474.0	4.2596760565404954e+17
19475.0	4.2604990880372026e+17
19476.0	4.2615485063932576e+17
19477.0	4.260932184178687e+17
19478.0	4.260309183933098e+17
19479.0	4.2564290997125056e+17
19480.0	4.2588703999481165e+17
19481.0	4.2580400808482125e+17
19482.0	4.257465496851797e+17
19483.0	4.256810063451476e+17
19484.0	4.256068012780202e+17
19485.0	4.2552571028220576e+17
19486.0	4.2512153204927226e+17
19487.0	4.2539087564199245e+17
19488.0	4.253223530179242e+17
19489.0	4.252429163954176e+17
19490.0	4.24873486293401e+17
19491.0	4.250981769063082e+17
19492.0	4.2503162134091085e+17
19493.0	4.249585104977919e+17
19494.0	4.248839315783679e+17
19495.0	4.248080824139775e+17
19496.0	4.2464058169535123e+17
19497.0	4.246504627765247e+17
19498.0	4.2434920556352877e+17
19499.0	4.206996946769208e+17
19500.0	4.24426485055488e+17
19501.0	4.243803452648106e+17
19502.0	4.243155095737685e+17
19503.0	4.242442970027349e+17
19504.0	4.2417038812337485e+17
19505.0	4.240902611883349e+17
19506.0	4.240229563105279e+17
19507.0	4.239423267580587e+17
19508.0	4.2387180051496954e+17
19509.0	4.2379332319969274e+17
19510.0	4.2362011794800614e+17
19511.0	4.107752477556609e+17
19512.0	4.2298594855048384e+17
19513.0	4.223336180263574e+17
19514.0	4.226452743869771e+17
19515.0	4.232434377818116e+17
19516.0	4.2324009645943456e+17
19517.0	4.231856738970281e+17
19518.0	4.2304315487245626e+17
19519.0	4.229643905269757e+17
19520.0	4.2267507226050515e+17
19521.0	4.229119028669097e+17
19522.0	4.227919296943444e+17
19523.0	4.226859673146711e+17
19524.0	4.224572510786906e+17
19525.0	4.226096783775061e+17
19526.0	4.225432914231295e+17
19527.0	4.2246607128057165e+17
19528.0	4.223731183037098e+17
19529.0	4.222863392724309e+17
19530.0	4.222480359096319e+17
19531.0	4.2217427264252576e+17
19532.0	4.2209997341327354e+17
19533.0	4.220258749513727e+17
19534.0	4.2195282842091514e+17
19535.0	4.2187648230140576e+17
19536.0	4.217988230851242e+17
19537.0	4.2172851837119136e+17
19538.0	4.213553648457048e+17
19539.0	4.214684988560729e+17
19540.0	4.2150532086060365e+17
19541.0	4.213748558462976e+17
19542.0	4.21335285174545e+17
19543.0	4.209795654833495e+17
19544.0	4.2119678729912314e+17
19545.0	4.2106434795601875e+17
19546.0	4.2088287866716154e+17
19547.0	4.209952730120192e+17
19548.0	4.2092145955307526e+17
19549.0	4.208328662056959e+17
19550.0	4.207733284798464e+17
19551.0	4.2070097205220685e+17
19552.0	4.2062653587892896e+17
19553.0	4.205501834679638e+17
19554.0	4.20470023328017e+17
19555.0	4.2037184047349766e+17
19556.0	4.203089675769172e+17
19557.0	4.202560428004693e+17
19558.0	4.201851422856533e+17
19559.0	4.201129398588757e+17
19560.0	4.199285132361725e+17
19561.0	4.199619414895274e+17
19562.0	4.19784738087458e+17
19563.0	4.1981987510026234e+17
19564.0	4.19745360843025e+17
19565.0	4.1967261392568314e+17
19566.0	4.195940235739136e+17
19567.0	4.1952666976255994e+17
19568.0	4.1945051783932576e+17
19569.0	4.1937633430295885e+17
19570.0	4.193041252351999e+17
19571.0	4.192313302930772e+17
19572.0	4.1915515481183565e+17
19573.0	4.1904961731515725e+17
19574.0	4.18987945177907e+17
19575.0	4.1894064552236365e+17
19576.0	4.188499935406762e+17
19577.0	4.1874302131240954e+17
19578.0	4.1871335954404685e+17
19579.0	4.18643115577617e+17
19580.0	4.1857140332516685e+17
19581.0	4.184980935322282e+17
19582.0	4.1842915923722234e+17
19583.0	4.183564133684566e+17
19584.0	4.1828170785095674e+17
19585.0	4.1819228473043616e+17
19586.0	4.181155671354027e+17
19587.0	4.1805443256811514e+17
19588.0	4.179029011027287e+17
19589.0	4.1791523494297594e+17
19590.0	4.1781647816785914e+17
19591.0	4.1777073823416314e+17
19592.0	4.176979813203967e+17
19593.0	4.17597105582899e+17
19594.0	4.174884032741374e+17
19595.0	4.17476568486161e+17
19596.0	4.17397539270383e+17
19597.0	4.1733333230551034e+17
19598.0	4.1713733108148883e+17
19599.0	4.171886018341546e+17
19600.0	4.171164950375082e+17
19601.0	4.170330850809174e+17
19602.0	4.1696475644340896e+17
19603.0	4.168002173927423e+17
19604.0	4.1682008238544205e+17
19605.0	4.1670348436930554e+17
19606.0	4.1667897691122336e+17
19607.0	4.16607917572096e+17
19608.0	4.165319853604864e+17
19609.0	4.1645338431324154e+17
19610.0	4.16238183313135e+17
19611.0	4.160962876320428e+17
19612.0	4.1624523316920314e+17
19613.0	4.1617033107865594e+17
19614.0	4.1609432127242234e+17
19615.0	4.160272138764288e+17
19616.0	4.157836093991597e+17
19617.0	4.156573450502145e+17
19618.0	4.156955299239252e+17
19619.0	4.15559191905348e+17
19620.0	4.154512336661158e+17
19621.0	4.152790790875817e+17
19622.0	4.1552006904545274e+17
19623.0	4.1543385778312525e+17
19624.0	4.153343610628778e+17
19625.0	4.153028707177813e+17
19626.0	4.152291609979561e+17
19627.0	4.1515835897937914e+17
19628.0	4.1504953258912435e+17
19629.0	4.1423471305031635e+17
19630.0	4.1492144322860365e+17
19631.0	4.134396760861348e+17
19632.0	4.1479527150387194e+17
19633.0	4.1471034055284045e+17
19634.0	4.146514522450602e+17
19635.0	4.145355927060477e+17
19636.0	4.141468689454417e+17
19637.0	4.140432285324626e+17
19638.0	4.143319168843774e+17
19639.0	4.142887126870697e+17
19640.0	4.1420654389493766e+17
19641.0	4.138121558665909e+17
19642.0	4.1405114674926925e+17
19643.0	4.139784170285738e+17
19644.0	4.1392004105502714e+17
19645.0	4.1380527539049805e+17
19646.0	4.134007863596367e+17
19647.0	4.137063249084415e+17
19648.0	4.136420088916651e+17
19649.0	4.1356862947327994e+17
19650.0	4.1349813426804045e+17
19651.0	4.1342576378948256e+17
19652.0	4.1335353836393805e+17
19653.0	4.132807370604543e+17
19654.0	4.13209791107345e+17
19655.0	4.1313610040169805e+17
