# Flux units: erg / (cm m2 s)
# Wavelength units: Angstrom
wave	flux
19000.0	6.726102514925567e+17
19001.0	6.724819520673108e+17
19002.0	6.72357105532928e+17
19003.0	6.722305036823209e+17
19004.0	6.721038988957011e+17
19005.0	6.719774017628841e+17
19006.0	6.718508534595583e+17
19007.0	6.717216617660415e+17
19008.0	6.715966317308585e+17
19009.0	6.714708679021908e+17
19010.0	6.713360907239423e+17
19011.0	6.712177199852201e+17
19012.0	6.710874229527892e+17
19013.0	6.709652765016064e+17
19014.0	6.708375196794879e+17
19015.0	6.707114992992255e+17
19016.0	6.705848786441555e+17
19017.0	6.704574933674665e+17
19018.0	6.703324810182655e+17
19019.0	6.702066076483583e+17
19020.0	6.700790413175465e+17
19021.0	6.699532823123284e+17
19022.0	6.698274865370452e+17
19023.0	6.697003386579625e+17
19024.0	6.695742412423167e+17
19025.0	6.694482404354729e+17
19026.0	6.693212625655123e+17
19027.0	6.691930442301439e+17
19028.0	6.690695576289279e+17
19029.0	6.689432803475455e+17
19030.0	6.688170326360063e+17
19031.0	6.686907912159231e+17
19032.0	6.685645651050495e+17
19033.0	6.684367994748927e+17
19034.0	6.683121393074175e+17
19035.0	6.6818532718237e+17
19036.0	6.678511602018984e+17
19037.0	6.679336564293631e+17
19038.0	6.678071060987903e+17
19039.0	6.676814365720575e+17
19040.0	6.675553431410004e+17
19041.0	6.674292612442794e+17
19042.0	6.673017836929023e+17
19043.0	6.671771646296061e+17
19044.0	6.670510941274111e+17
19045.0	6.669251268050943e+17
19046.0	6.667982587559935e+17
19047.0	6.666731377044137e+17
19048.0	6.665435432179028e+17
19049.0	6.664201465845076e+17
19050.0	6.662945998809769e+17
19051.0	6.661373597581311e+17
19052.0	6.660418497937408e+17
19053.0	6.659170115780608e+17
19054.0	6.657918399152127e+17
19055.0	6.656615905580372e+17
19056.0	6.655398046771882e+17
19057.0	6.654142537793535e+17
19058.0	6.652879559458815e+17
19059.0	6.65162887602722e+17
19060.0	6.650367153187498e+17
19061.0	6.649114332758015e+17
19062.0	6.647856632954879e+17
19063.0	6.646600367603711e+17
19064.0	6.645324078645247e+17
19065.0	6.644056025202687e+17
19066.0	6.642820297261055e+17
19067.0	6.641575494942719e+17
19068.0	6.640319576320682e+17
19069.0	6.639064246998355e+17
19070.0	6.637804517851135e+17
19071.0	6.636553723969536e+17
19072.0	6.635298733686783e+17
19073.0	6.634042998915071e+17
19074.0	6.632789401141247e+17
19075.0	6.631535023226877e+17
19076.0	6.630276841078783e+17
19077.0	6.629025369817087e+17
19078.0	6.627765889531901e+17
19079.0	6.626519602429951e+17
19080.0	6.625265857156436e+17
19081.0	6.624005111589546e+17
19082.0	6.622749235609599e+17
19083.0	6.621487895849641e+17
19084.0	6.620212303844691e+17
19085.0	6.619002574995455e+17
19086.0	6.617682985440595e+17
19087.0	6.616437895113385e+17
19088.0	6.615234703086934e+17
19089.0	6.613932573021523e+17
19090.0	6.612739878638932e+17
19091.0	6.611488908596563e+17
19092.0	6.610218623085226e+17
19093.0	6.608991570362367e+17
19094.0	6.607734744372563e+17
19095.0	6.606482746026665e+17
19096.0	6.605235099271167e+17
19097.0	6.603990639487657e+17
19098.0	6.602741610708991e+17
19099.0	6.601491782915412e+17
19100.0	6.600239832104959e+17
19101.0	6.598994211198291e+17
19102.0	6.597729806101161e+17
19103.0	6.596496982715049e+17
19104.0	6.59524867465762e+17
19105.0	6.59400051340083e+17
19106.0	6.5927416119296e+17
19107.0	6.591502327218175e+17
19108.0	6.590257380196351e+17
19109.0	6.588804808835071e+17
19110.0	6.587762187348649e+17
19111.0	6.586516418942291e+17
19112.0	6.585269851521023e+17
19113.0	6.584023437191849e+17
19114.0	6.582777278715222e+17
19115.0	6.581523774614185e+17
19116.0	6.580281534316543e+17
19117.0	6.579037387707731e+17
19118.0	6.577770446454783e+17
19119.0	6.576051803826857e+17
19120.0	6.575287931589972e+17
19121.0	6.574049313073834e+17
19122.0	6.572815364915199e+17
19123.0	6.571569494447444e+17
19124.0	6.570315796709375e+17
19125.0	6.569081354321917e+17
19126.0	6.567833850871808e+17
19127.0	6.566305910663849e+17
19128.0	6.565196049590953e+17
19129.0	6.564093534841513e+17
19130.0	6.562866626123091e+17
19131.0	6.561623910470995e+17
19132.0	6.560381178041684e+17
19133.0	6.559040155593385e+17
19134.0	6.557820547760127e+17
19135.0	6.556655329563988e+17
19136.0	6.555414379713876e+17
19137.0	6.554145027435178e+17
19138.0	6.552912679403519e+17
19139.0	6.551690589940393e+17
19140.0	6.550450143406761e+17
19141.0	6.549209631861417e+17
19142.0	6.547964958168403e+17
19143.0	6.546719103079763e+17
19144.0	6.54548865786402e+17
19145.0	6.544248709753514e+17
19146.0	6.542904833780393e+17
19147.0	6.541755613358761e+17
19148.0	6.540530014661289e+17
19149.0	6.539291510090409e+17
19150.0	6.538051348769449e+17
19151.0	6.536815073471146e+17
19152.0	6.535574043929257e+17
19153.0	6.534334578862761e+17
19154.0	6.533078534411604e+17
19155.0	6.531862725219667e+17
19156.0	6.530624564581716e+17
19157.0	6.529385351872511e+17
19158.0	6.528008399618047e+17
19159.0	6.526909385015295e+17
19160.0	6.52567101186594e+17
19161.0	6.524423443404116e+17
19162.0	6.522886168073556e+17
19163.0	6.521965642077524e+17
19164.0	6.520731067569491e+17
19165.0	6.519489631180116e+17
19166.0	6.518235168680617e+17
19167.0	6.516993967172266e+17
19168.0	6.51576634052881e+17
19169.0	6.51453731508497e+17
19170.0	6.513317995260586e+17
19171.0	6.512065982933674e+17
19172.0	6.510848654005588e+17
19173.0	6.50961371669026e+17
19174.0	6.508370476750164e+17
19175.0	6.507145985348948e+17
19176.0	6.505911956799487e+17
19177.0	6.504652303149736e+17
19178.0	6.503440793818452e+17
19179.0	6.502184900362239e+17
19180.0	6.500946484570793e+17
19181.0	6.499725405934932e+17
19182.0	6.498499075331412e+17
19183.0	6.497275194201427e+17
19184.0	6.496026259095551e+17
19185.0	6.494811664853673e+17
19186.0	6.493580440196436e+17
19187.0	6.492337181381971e+17
19188.0	6.491116457164799e+17
19189.0	6.489879796689578e+17
19190.0	6.488645367584084e+17
19191.0	6.487415416597161e+17
19192.0	6.486189118849023e+17
19193.0	6.484939511955456e+17
19194.0	6.483716808725844e+17
19195.0	6.482493975472809e+17
19196.0	6.481263754652329e+17
19197.0	6.480032550267561e+17
19198.0	6.478801230539434e+17
19199.0	6.475646694501033e+17
19200.0	6.47513475523106e+17
19201.0	6.475110286360573e+17
19202.0	6.47388209488418e+17
19203.0	6.472648322187263e+17
19204.0	6.471418160786089e+17
19205.0	6.470192835417428e+17
19206.0	6.468960990003199e+17
19207.0	6.467722312067754e+17
19208.0	6.466465604916564e+17
19209.0	6.465274299547647e+17
19210.0	6.464044685503146e+17
19211.0	6.46281458491938e+17
19212.0	6.461586235457536e+17
19213.0	6.460328284695209e+17
19214.0	6.459035588318547e+17
19215.0	6.457808616685567e+17
19216.0	6.456581657635497e+17
19217.0	6.455357480108032e+17
19218.0	6.453989393913171e+17
19219.0	6.452872263412394e+17
19220.0	6.451667332846932e+17
19221.0	6.450386980306943e+17
19222.0	6.449214608026282e+17
19223.0	6.447985405722623e+17
19224.0	6.446745132553556e+17
19225.0	6.445502432979625e+17
19226.0	6.44429742481954e+17
19227.0	6.443068362326015e+17
19228.0	6.441844314122922e+17
19229.0	6.440615919921833e+17
19230.0	6.439380613507753e+17
19231.0	6.438154987547306e+17
19232.0	6.4369234280448e+17
19233.0	6.435689841994409e+17
19234.0	6.434469629482323e+17
19235.0	6.433241744889171e+17
19236.0	6.43201729892625e+17
19237.0	6.430786200797183e+17
19238.0	6.429542367363071e+17
19239.0	6.4283323938461e+17
19240.0	6.427060420127402e+17
19241.0	6.42585982018082e+17
19242.0	6.424643244829353e+17
19243.0	6.423386647429119e+17
19244.0	6.422188363437396e+17
19245.0	6.420960055918591e+17
19246.0	6.419728332139177e+17
19247.0	6.418501151490047e+17
19248.0	6.417272878224723e+17
19249.0	6.416043273267882e+17
19250.0	6.414812971357523e+17
19251.0	6.413570030611114e+17
19252.0	6.412295454326783e+17
19253.0	6.411123065967956e+17
19254.0	6.409888188071933e+17
19255.0	6.408627622161065e+17
19256.0	6.407426897084413e+17
19257.0	6.406203254330708e+17
19258.0	6.40497222750481e+17
19259.0	6.403727551015593e+17
19260.0	6.402480806734506e+17
19261.0	6.401278805191337e+17
19262.0	6.400038209759913e+17
19263.0	6.398806269274793e+17
19264.0	6.397495740115625e+17
19265.0	6.396316891829588e+17
19266.0	6.395090832457727e+17
19267.0	6.393883987192489e+17
19268.0	6.392650405336404e+17
19269.0	6.391416508907519e+17
19270.0	6.390182071413417e+17
19271.0	6.388892319438163e+17
19272.0	6.387706361107795e+17
19273.0	6.385288399377746e+17
19274.0	6.384453630121299e+17
19275.0	6.383758380892159e+17
19276.0	6.382518348196521e+17
19277.0	6.381284675463849e+17
19278.0	6.380047059386365e+17
19279.0	6.378802472375635e+17
19280.0	6.37752536343074e+17
19281.0	6.376296816836607e+17
19282.0	6.375057065159337e+17
19283.0	6.373787062763519e+17
19284.0	6.372517758719316e+17
19285.0	6.371298738088617e+17
19286.0	6.370085928523092e+17
19287.0	6.368848164246868e+17
19288.0	6.367149722785108e+17
19289.0	6.364887784270502e+17
19290.0	6.365114345193471e+17
19291.0	6.363822129763667e+17
19292.0	6.362621031393961e+17
19293.0	6.361371616040276e+17
19294.0	6.360124228632575e+17
19295.0	6.358874398042793e+17
19296.0	6.3576235587229e+17
19297.0	6.356371507249151e+17
19298.0	6.355115640356863e+17
19299.0	6.353864942944255e+17
19300.0	6.35260970939187e+17
19301.0	6.351352053628927e+17
19302.0	6.350094569832447e+17
19303.0	6.348819853737983e+17
19304.0	6.3475662993053e+17
19305.0	6.346311878049791e+17
19306.0	6.345052234885802e+17
19307.0	6.343776276578304e+17
19308.0	6.342521145087316e+17
19309.0	6.341146144582313e+17
19310.0	6.339810983673855e+17
19311.0	6.338622539519316e+17
19312.0	6.337356750301865e+17
19313.0	6.336067585529172e+17
19314.0	6.333758051450876e+17
19315.0	6.332574857865901e+17
19316.0	6.332245042965161e+17
19317.0	6.330967869008553e+17
19318.0	6.329680563710634e+17
19319.0	6.328398134291114e+17
19320.0	6.327105931444223e+17
19321.0	6.325818956797267e+17
19322.0	6.324501955127977e+17
19323.0	6.32319825289762e+17
19324.0	6.321931175329791e+17
19325.0	6.320576914259967e+17
19326.0	6.319325797416959e+17
19327.0	6.318016302153727e+17
19328.0	6.316709106767188e+17
19329.0	6.315395711500287e+17
19330.0	6.314071828376234e+17
19331.0	6.312751289510569e+17
19332.0	6.311434956832765e+17
19333.0	6.310107601524051e+17
19334.0	6.30877140881681e+17
19335.0	6.307440807116799e+17
19336.0	6.306076766328148e+17
19337.0	6.304437156970496e+17
19338.0	6.30305363993122e+17
19339.0	6.301649904249514e+17
19340.0	6.300250572587005e+17
19341.0	6.298897077676713e+17
19342.0	6.297459841389908e+17
19343.0	6.296157165365929e+17
19344.0	6.294778288624979e+17
19345.0	6.293024392871933e+17
19346.0	6.291911059614378e+17
19347.0	6.290591853139284e+17
19348.0	6.289199523168255e+17
19349.0	6.287783202477396e+17
19350.0	6.286272117779114e+17
19351.0	6.284705420804096e+17
19352.0	6.283262866139818e+17
19353.0	6.281832586805247e+17
19354.0	6.280357027861844e+17
19355.0	6.278764216451071e+17
19356.0	6.277308727951359e+17
19357.0	6.275828677607423e+17
19358.0	6.274100604786003e+17
19359.0	6.272370713034751e+17
19360.0	6.270913197288105e+17
19361.0	6.269387376601769e+17
19362.0	6.267859939710292e+17
19363.0	6.266310126206976e+17
19364.0	6.264723844628479e+17
19365.0	6.263086719696895e+17
19366.0	6.26149525815296e+17
19367.0	6.259888091736745e+17
19368.0	6.25826446058018e+17
19369.0	6.256602699005951e+17
19370.0	6.254387374587903e+17
19371.0	6.252766989822633e+17
19372.0	6.251078195959124e+17
19373.0	6.249355247179091e+17
19374.0	6.247616871049897e+17
19375.0	6.245851294859263e+17
19376.0	6.24406191809058e+17
19377.0	6.242093023712598e+17
19378.0	6.239780737471828e+17
19379.0	6.237909011835561e+17
19380.0	6.236007069734228e+17
19381.0	6.234073118801919e+17
19382.0	6.232089535272275e+17
19383.0	6.229540522513747e+17
19384.0	6.227312879424852e+17
19385.0	6.225231462356307e+17
19386.0	6.223109505242452e+17
19387.0	6.220426987787604e+17
19388.0	6.217467695202304e+17
19389.0	6.215202906658132e+17
19390.0	6.212744393697961e+17
19391.0	6.207635978190844e+17
19392.0	6.207042957432148e+17
19393.0	6.20434533978385e+17
19394.0	6.201391831143766e+17
19395.0	6.19876295254562e+17
19396.0	6.196058213668179e+17
19397.0	6.193262856852819e+17
19398.0	6.190357255553023e+17
19399.0	6.186815028112041e+17
19400.0	6.183787624923135e+17
19401.0	6.180635987148799e+17
19402.0	6.177366887890943e+17
19403.0	6.173977947581098e+17
19404.0	6.170471317897215e+17
19405.0	6.166234621367635e+17
19406.0	6.1622951346176e+17
19407.0	6.158354186152618e+17
19408.0	6.154129409135956e+17
19409.0	6.149155792267946e+17
19410.0	6.144533585373865e+17
19411.0	6.139855155931817e+17
19412.0	6.133766716828329e+17
19413.0	6.128459350802431e+17
19414.0	6.121940118230356e+17
19415.0	6.115869165879296e+17
19416.0	6.108198370366804e+17
19417.0	6.10094862635281e+17
19418.0	6.092670484436307e+17
19419.0	6.083393273987073e+17
19420.0	6.073061735049898e+17
19421.0	6.061480227809964e+17
19422.0	6.049680140708522e+17
19423.0	6.039635002829481e+17
19424.0	6.029694661733033e+17
19425.0	6.019434518937599e+17
19426.0	6.008516963030356e+17
19427.0	5.996389489530198e+17
19428.0	5.983761778169171e+17
19429.0	5.97001330893346e+17
19430.0	5.955287529816064e+17
19431.0	5.938501747649196e+17
19432.0	5.921001417561427e+17
19433.0	5.900465983542615e+17
19434.0	5.877394974616233e+17
19435.0	5.849472282132477e+17
19436.0	5.8155788140544e+17
19437.0	5.779637175757482e+17
19438.0	5.7480839832098106e+17
19439.0	5.718070928605184e+17
19440.0	5.682159654972074e+17
19441.0	5.6411332996846886e+17
19442.0	5.592945138160981e+17
19443.0	5.532046949963095e+17
19444.0	5.458584443114831e+17
19445.0	5.389446931283971e+17
19446.0	5.306036265855659e+17
19447.0	5.1977554287220006e+17
19448.0	5.072578488740529e+17
19449.0	4.8995871528495814e+17
19450.0	4.583765375101598e+17
19451.0	4.479972177608695e+17
19452.0	4.7562620193996845e+17
19453.0	4.995398322094089e+17
19454.0	5.133920685959844e+17
19455.0	5.2496671332543136e+17
19456.0	5.3419860271213254e+17
19457.0	5.4146074061482624e+17
19458.0	5.481044239187967e+17
19459.0	5.5497517719442784e+17
19460.0	5.6010469438477626e+17
19461.0	5.6428897903138125e+17
19462.0	5.678985834222935e+17
19463.0	5.710765813486931e+17
19464.0	5.7389208012062714e+17
19465.0	5.768219128933039e+17
19466.0	5.802752816272722e+17
19467.0	5.830992297547092e+17
19468.0	5.853959194760534e+17
19469.0	5.8730440280419e+17
19470.0	5.889978820547924e+17
19471.0	5.904780572491775e+17
19472.0	5.917666601948499e+17
19473.0	5.930045496011433e+17
19474.0	5.940556429524991e+17
19475.0	5.950728289211731e+17
19476.0	5.9598962177693e+17
19477.0	5.968152233334102e+17
19478.0	5.97579225314099e+17
19479.0	5.9833118635677e+17
19480.0	5.991833843444396e+17
19481.0	6.001640816159402e+17
19482.0	6.010062230607188e+17
19483.0	6.017246400872449e+17
19484.0	6.023477600802131e+17
19485.0	6.029572853552467e+17
19486.0	6.034152263865684e+17
19487.0	6.038539424759807e+17
19488.0	6.04268017938159e+17
19489.0	6.046105176025769e+17
19490.0	6.049193936289791e+17
19491.0	6.05250224390144e+17
19492.0	6.054741727510527e+17
19493.0	6.057273296158719e+17
19494.0	6.059552634044415e+17
19495.0	6.06122580901888e+17
19496.0	6.06269386924578e+17
19497.0	6.064450276687871e+17
19498.0	6.06601132183825e+17
19499.0	6.064102408104614e+17
19500.0	6.068175535166804e+17
19501.0	6.069051610628093e+17
19502.0	6.06982074601745e+17
19503.0	6.070576354077353e+17
19504.0	6.071595012106921e+17
19505.0	6.072088209828522e+17
19506.0	6.072528407625728e+17
19507.0	6.072870565664083e+17
19508.0	6.07313485505058e+17
19509.0	6.073775255366314e+17
19510.0	6.073996139298815e+17
19511.0	6.071522359072082e+17
19512.0	6.074653764922024e+17
19513.0	6.074179768025085e+17
19514.0	6.074409178977619e+17
19515.0	6.075022114291712e+17
19516.0	6.07581755216145e+17
19517.0	6.075589719665321e+17
19518.0	6.07533374968081e+17
19519.0	6.075028421126826e+17
19520.0	6.075310999775914e+17
19521.0	6.075012265366868e+17
19522.0	6.074600054063101e+17
19523.0	6.074166386098175e+17
19524.0	6.073699034376874e+17
19525.0	6.073196045751636e+17
19526.0	6.073234357223424e+17
19527.0	6.072714961179988e+17
19528.0	6.072144625314474e+17
19529.0	6.071554478353065e+17
19530.0	6.070942456698196e+17
19531.0	6.070309618712573e+17
19532.0	6.069657530269695e+17
19533.0	6.068987467836074e+17
19534.0	6.068503491990868e+17
19535.0	6.068063636029439e+17
19536.0	6.067336525469012e+17
19537.0	6.066608624282282e+17
19538.0	6.065854192724649e+17
19539.0	6.06499685601553e+17
19540.0	6.064332639742633e+17
19541.0	6.063609264209919e+17
19542.0	6.062809887888724e+17
19543.0	6.061999214209705e+17
19544.0	6.061177749285545e+17
19545.0	6.060289215343273e+17
19546.0	6.059338953829033e+17
19547.0	6.058651132013225e+17
19548.0	6.057981901449897e+17
19549.0	6.057274014083753e+17
19550.0	6.056415112200191e+17
19551.0	6.055530358723924e+17
19552.0	6.054647079545513e+17
19553.0	6.053862481854463e+17
19554.0	6.052952612186793e+17
19555.0	6.052044030170452e+17
19556.0	6.051127252484095e+17
19557.0	6.050201049497599e+17
19558.0	6.049270020964351e+17
19559.0	6.048329442000895e+17
19560.0	6.04738579140881e+17
19561.0	6.046440414860627e+17
19562.0	6.045490555300521e+17
19563.0	6.044532377736531e+17
19564.0	6.043571094290431e+17
19565.0	6.042604616897876e+17
19566.0	6.041630411500201e+17
19567.0	6.040658248728575e+17
19568.0	6.03987830182161e+17
19569.0	6.038902273998847e+17
19570.0	6.037917230519635e+17
19571.0	6.036927056707583e+17
19572.0	6.035928192996692e+17
19573.0	6.034934823824042e+17
19574.0	6.033922367072938e+17
19575.0	6.0330395842205e+17
19576.0	6.032034522726399e+17
19577.0	6.031014870646783e+17
19578.0	6.030008741003263e+17
19579.0	6.02921959109427e+17
19580.0	6.028261959488852e+17
19581.0	6.02724388306944e+17
19582.0	6.026226247051946e+17
19583.0	6.025203290559828e+17
19584.0	6.024178037686271e+17
19585.0	6.02313111703825e+17
19586.0	6.022093890824873e+17
19587.0	6.021073908793344e+17
19588.0	6.019974497129812e+17
19589.0	6.019012955034964e+17
19590.0	6.017972130108756e+17
19591.0	6.016947847517526e+17
19592.0	6.015907766381226e+17
19593.0	6.014862954070015e+17
19594.0	6.013777706571092e+17
19595.0	6.012775771930623e+17
19596.0	6.011355133902847e+17
19597.0	6.010682896023551e+17
19598.0	6.009589537439743e+17
19599.0	6.008589239975935e+17
19600.0	6.007538472452095e+17
19601.0	6.006474850784596e+17
19602.0	6.005426441158655e+17
19603.0	6.004282634185386e+17
19604.0	6.003315371059882e+17
19605.0	6.002215449089364e+17
19606.0	6.001209108332543e+17
19607.0	6.000152778462548e+17
19608.0	5.999093010661375e+17
19609.0	5.998025900731049e+17
19610.0	5.996973200332115e+17
19611.0	5.995910683164671e+17
19612.0	5.994849361373866e+17
19613.0	5.993785814504787e+17
19614.0	5.992715246370815e+17
19615.0	5.991658047580842e+17
19616.0	5.990577056601427e+17
19617.0	5.989527120248831e+17
19618.0	5.988376627554986e+17
19619.0	5.987274918111913e+17
19620.0	5.986217236277929e+17
19621.0	5.985257969593002e+17
19622.0	5.984189295187284e+17
19623.0	5.98312008950306e+17
19624.0	5.982050382599507e+17
19625.0	5.980979773920595e+17
19626.0	5.979909500786004e+17
19627.0	5.978838392984915e+17
19628.0	5.977723643450708e+17
19629.0	5.976679821694292e+17
19630.0	5.975598844695892e+17
19631.0	5.972504152287912e+17
19632.0	5.973475797762047e+17
19633.0	5.972398404097364e+17
19634.0	5.971329852724564e+17
19635.0	5.970248707954004e+17
19636.0	5.969181677016403e+17
19637.0	5.968038644591274e+17
19638.0	5.967030817652735e+17
19639.0	5.965955074446676e+17
19640.0	5.964870535086079e+17
19641.0	5.963695340038826e+17
19642.0	5.9627301516957e+17
19643.0	5.961651327773354e+17
19644.0	5.960567112073215e+17
19645.0	5.959456132519252e+17
19646.0	5.958424668580521e+17
19647.0	5.957347769843712e+17
19648.0	5.956270732694868e+17
19649.0	5.95519314399505e+17
19650.0	5.954116287201279e+17
19651.0	5.953038813844822e+17
19652.0	5.951961267088041e+17
19653.0	5.950883218412884e+17
19654.0	5.949805725483007e+17
19655.0	5.948727118965417e+17
19656.0	5.947648523632639e+17
19657.0	5.946571645867348e+17
19658.0	5.945549261897727e+17
19659.0	5.944496351783593e+17
19660.0	5.943418280039763e+17
19661.0	5.942339873450665e+17
19662.0	5.941261395558399e+17
19663.0	5.940175525205331e+17
19664.0	5.939096416070313e+17
19665.0	5.938025718611967e+17
