# Flux units: erg / (cm m2 s)
# Wavelength units: Angstrom
wave	flux
19000.0	6.669400704111955e+17
19001.0	6.668068693125801e+17
19002.0	6.666924297551871e+17
19003.0	6.665683441374548e+17
19004.0	6.664442943810217e+17
19005.0	6.663199229913769e+17
19006.0	6.661966486219433e+17
19007.0	6.660733901908649e+17
19008.0	6.65953297830161e+17
19009.0	6.658276077513386e+17
19010.0	6.656656608504489e+17
19011.0	6.655832261394431e+17
19012.0	6.654445206459731e+17
19013.0	6.65337238458641e+17
19014.0	6.652079210758143e+17
19015.0	6.65085570851362e+17
19016.0	6.649603046069588e+17
19017.0	6.648411810605738e+17
19018.0	6.647153990565887e+17
19019.0	6.645919625074004e+17
19020.0	6.644662193706323e+17
19021.0	6.643438989956436e+17
19022.0	6.642200198774783e+17
19023.0	6.640917621156522e+17
19024.0	6.63969504305698e+17
19025.0	6.638467206698324e+17
19026.0	6.637196623391401e+17
19027.0	6.635880223604736e+17
19028.0	6.634740412405076e+17
19029.0	6.633494297968639e+17
19030.0	6.632266881739433e+17
19031.0	6.63102378021137e+17
19032.0	6.629776767494826e+17
19033.0	6.628450801199786e+17
19034.0	6.627276521209855e+17
19035.0	6.625981398428329e+17
19036.0	6.617214288745809e+17
19037.0	6.623527498503507e+17
19038.0	6.622294675117396e+17
19039.0	6.62107789074978e+17
19040.0	6.619835885333161e+17
19041.0	6.618585218678783e+17
19042.0	6.61724650938914e+17
19043.0	6.616107583187625e+17
19044.0	6.614852929847295e+17
19045.0	6.613620925748563e+17
19046.0	6.61233007206946e+17
19047.0	6.611119709880319e+17
19048.0	6.609686560942761e+17
19049.0	6.608550387602771e+17
19050.0	6.607359725360467e+17
19051.0	6.604936688522578e+17
19052.0	6.604726514046294e+17
19053.0	6.603673395615059e+17
19054.0	6.602432680645971e+17
19055.0	6.600944835887104e+17
19056.0	6.599917670410921e+17
19057.0	6.598696927319378e+17
19058.0	6.597434458592595e+17
19059.0	6.596211997933567e+17
19060.0	6.594954997181097e+17
19061.0	6.593734192573098e+17
19062.0	6.592486887653376e+17
19063.0	6.59124589306402e+17
19064.0	6.589890654721363e+17
19065.0	6.588596370101588e+17
19066.0	6.587457838863699e+17
19067.0	6.586277839940266e+17
19068.0	6.585035638789459e+17
19069.0	6.58379433312256e+17
19070.0	6.582528971724115e+17
19071.0	6.581310186673492e+17
19072.0	6.580061859042644e+17
19073.0	6.578821275495082e+17
19074.0	6.577584238231551e+17
19075.0	6.576342274757972e+17
19076.0	6.575081030068906e+17
19077.0	6.573845678915583e+17
19078.0	6.572584948028755e+17
19079.0	6.571373979762687e+17
19080.0	6.570119257915391e+17
19081.0	6.568850462081023e+17
19082.0	6.567609247290708e+17
19083.0	6.566308178384211e+17
19084.0	6.564950821918036e+17
19085.0	6.563925065028948e+17
19086.0	6.562315227540138e+17
19087.0	6.561233153032191e+17
19088.0	6.560105608773632e+17
19089.0	6.558685974582612e+17
19090.0	6.557684598483625e+17
19091.0	6.5564522329757e+17
19092.0	6.555136999205546e+17
19093.0	6.55399844000563e+17
19094.0	6.552758986123945e+17
19095.0	6.551518757694122e+17
19096.0	6.550264383974057e+17
19097.0	6.549037838062931e+17
19098.0	6.547792953256617e+17
19099.0	6.54655170281472e+17
19100.0	6.545301857544874e+17
19101.0	6.544078558025044e+17
19102.0	6.542744304484351e+17
19103.0	6.541601353149098e+17
19104.0	6.540361656696831e+17
19105.0	6.539104595826003e+17
19106.0	6.537845448987988e+17
19107.0	6.536622354989055e+17
19108.0	6.535390314539689e+17
19109.0	6.533587955002025e+17
19110.0	6.532888607238825e+17
19111.0	6.531680165341866e+17
19112.0	6.530442707249833e+17
19113.0	6.529210235486207e+17
19114.0	6.52797008814626e+17
19115.0	6.526676732564822e+17
19116.0	6.525472803738963e+17
19117.0	6.52423543792162e+17
19118.0	6.522908046961321e+17
19119.0	6.51741371214506e+17
19120.0	6.520459825425065e+17
19121.0	6.519254685144404e+17
19122.0	6.518065713206611e+17
19123.0	6.5168279090845e+17
19124.0	6.515549765544617e+17
19125.0	6.514347832508415e+17
19126.0	6.513101418878291e+17
19127.0	6.510247973049683e+17
19128.0	6.510537795261779e+17
19129.0	6.50932164633122e+17
19130.0	6.508149057344852e+17
19131.0	6.506925836817748e+17
19132.0	6.505687135114582e+17
19133.0	6.504360861237248e+17
19134.0	6.503166185046015e+17
19135.0	6.501973981396991e+17
19136.0	6.500743464179027e+17
19137.0	6.499357582251348e+17
19138.0	6.498255654704467e+17
19139.0	6.497033566639444e+17
19140.0	6.495798640508927e+17
19141.0	6.494562279926441e+17
19142.0	6.493302105483946e+17
19143.0	6.492038374970708e+17
19144.0	6.490818334425087e+17
19145.0	6.489616904705364e+17
19146.0	6.48782344757794e+17
19147.0	6.487057676719444e+17
19148.0	6.485899349065727e+17
19149.0	6.484657075213652e+17
19150.0	6.483428814531242e+17
19151.0	6.482200231586473e+17
19152.0	6.480953444663296e+17
19153.0	6.479696559953236e+17
19154.0	6.478373564623529e+17
19155.0	6.477254492159999e+17
19156.0	6.476014736987475e+17
19157.0	6.474751355999571e+17
19158.0	6.473167874818047e+17
19159.0	6.472280901855913e+17
19160.0	6.471056158796457e+17
19161.0	6.469819838059859e+17
19162.0	6.467706628866047e+17
19163.0	6.467316338393087e+17
19164.0	6.466130883379197e+17
19165.0	6.464867942793215e+17
19166.0	6.463536017091242e+17
19167.0	6.462343161926996e+17
19168.0	6.461178488291327e+17
19169.0	6.459934358459731e+17
19170.0	6.458720313671679e+17
19171.0	6.457436660214442e+17
19172.0	6.456248334898516e+17
19173.0	6.455015719829503e+17
19174.0	6.453730099243689e+17
19175.0	6.452548209388201e+17
19176.0	6.451313039289002e+17
19177.0	6.449933874539178e+17
19178.0	6.44881258258978e+17
19179.0	6.447531979090601e+17
19180.0	6.446353716609023e+17
19181.0	6.445021337922217e+17
19182.0	6.443883883921407e+17
19183.0	6.442663042962772e+17
19184.0	6.441418007161514e+17
19185.0	6.440186496592553e+17
19186.0	6.438953706760874e+17
19187.0	6.43765211566353e+17
19188.0	6.436479840550911e+17
19189.0	6.435244330014035e+17
19190.0	6.434002684608511e+17
19191.0	6.432736074705578e+17
19192.0	6.431536982611286e+17
19193.0	6.430296175367508e+17
19194.0	6.429047063401812e+17
19195.0	6.427818407056724e+17
19196.0	6.426556849192959e+17
19197.0	6.425309343645695e+17
19198.0	6.423990040002559e+17
19199.0	6.417373094827347e+17
19200.0	6.416911110417068e+17
19201.0	6.419057939054591e+17
19202.0	6.417898771841023e+17
19203.0	6.416665700291924e+17
19204.0	6.415426729454249e+17
19205.0	6.41420557951522e+17
19206.0	6.412969453813759e+17
19207.0	6.411645021235882e+17
19208.0	6.410302794323283e+17
19209.0	6.409258400044371e+17
19210.0	6.408024458876244e+17
19211.0	6.40679447503394e+17
19212.0	6.40555471217186e+17
19213.0	6.404199981339988e+17
19214.0	6.402931134474921e+17
19215.0	6.40181369639185e+17
19216.0	6.400595580332714e+17
19217.0	6.399352349480276e+17
19218.0	6.397366726120786e+17
19219.0	6.396726092322131e+17
19220.0	6.395611542716415e+17
19221.0	6.394100499961172e+17
19222.0	6.393142773983914e+17
19223.0	6.391889722867711e+17
19224.0	6.390624333507241e+17
19225.0	6.38928885522978e+17
19226.0	6.388161162073428e+17
19227.0	6.386916264684201e+17
19228.0	6.385698827403264e+17
19229.0	6.384453830748842e+17
19230.0	6.383205937927508e+17
19231.0	6.381951711707135e+17
19232.0	6.380711393099775e+17
19233.0	6.3794069911197e+17
19234.0	6.378204802230953e+17
19235.0	6.376951235215359e+17
19236.0	6.375732211089407e+17
19237.0	6.374469945786368e+17
19238.0	6.373144904335359e+17
19239.0	6.371989193927337e+17
19240.0	6.370720851776852e+17
19241.0	6.369463220480682e+17
19242.0	6.368223696693929e+17
19243.0	6.366832741755561e+17
19244.0	6.365737636244137e+17
19245.0	6.364479478562815e+17
19246.0	6.363215438370132e+17
19247.0	6.361977779650559e+17
19248.0	6.360724420952064e+17
19249.0	6.35946720559104e+17
19250.0	6.358193911365631e+17
19251.0	6.35685465961267e+17
19252.0	6.355428000661504e+17
19253.0	6.354418026938367e+17
19254.0	6.353179711111168e+17
19255.0	6.351743768068095e+17
19256.0	6.350448604741631e+17
19257.0	6.348917733414227e+17
19258.0	6.347654207023785e+17
19259.0	6.346321287271763e+17
19260.0	6.344972281664852e+17
19261.0	6.34384702120482e+17
19262.0	6.34235262144785e+17
19263.0	6.339661967742291e+17
19264.0	6.3379537961943e+17
19265.0	6.336998965684906e+17
19266.0	6.335718696331946e+17
19267.0	6.334641513081514e+17
19268.0	6.333368678831444e+17
19269.0	6.332094149383508e+17
19270.0	6.330813865350483e+17
19271.0	6.329231947945302e+17
19272.0	6.328227522587306e+17
19273.0	6.326260175208447e+17
19274.0	6.325108330550611e+17
19275.0	6.324418411582804e+17
19276.0	6.323117374133588e+17
19277.0	6.321836644805289e+17
19278.0	6.320552629938857e+17
19279.0	6.319247656135338e+17
19280.0	6.317901611007999e+17
19281.0	6.316673550254079e+17
19282.0	6.315393943601151e+17
19283.0	6.314026656421204e+17
19284.0	6.312746412234067e+17
19285.0	6.311335075075411e+17
19286.0	6.310163240364713e+17
19287.0	6.308889988781396e+17
19288.0	6.30557441943142e+17
19289.0	6.301263977250806e+17
19290.0	6.304966122318505e+17
19291.0	6.301427233543508e+17
19292.0	6.300303889880404e+17
19293.0	6.298981531385855e+17
19294.0	6.297659160308394e+17
19295.0	6.296348759075497e+17
19296.0	6.295016835470675e+17
19297.0	6.293684920254463e+17
19298.0	6.292342185132031e+17
19299.0	6.29102724845841e+17
19300.0	6.289696071439699e+17
19301.0	6.288355569085098e+17
19302.0	6.287006737541801e+17
19303.0	6.285603281480362e+17
19304.0	6.284294016903849e+17
19305.0	6.282956168145578e+17
19306.0	6.281608219503274e+17
19307.0	6.28020704514321e+17
19308.0	6.276476079614634e+17
19309.0	6.274776692337321e+17
19310.0	6.273326241895763e+17
19311.0	6.272178662845097e+17
19312.0	6.270844508569599e+17
19313.0	6.269471715666601e+17
19314.0	6.260651414519805e+17
19315.0	6.259854544295264e+17
19316.0	6.265270519027027e+17
19317.0	6.263898285364564e+17
19318.0	6.262493162067284e+17
19319.0	6.260743740238506e+17
19320.0	6.256561882835625e+17
19321.0	6.254499640027818e+17
19322.0	6.252833921127764e+17
19323.0	6.251400849784831e+17
19324.0	6.250030497966761e+17
19325.0	6.248428783446697e+17
19326.0	6.247134183555071e+17
19327.0	6.24567148225058e+17
19328.0	6.243767881302013e+17
19329.0	6.240877107565908e+17
19330.0	6.239363384650408e+17
19331.0	6.237870775162198e+17
19332.0	6.236418645600937e+17
19333.0	6.234913068023807e+17
19334.0	6.233411016458239e+17
19335.0	6.231869496492031e+17
19336.0	6.230371563732991e+17
19337.0	6.228837519414612e+17
19338.0	6.227109708737193e+17
19339.0	6.22575032991744e+17
19340.0	6.224099387550377e+17
19341.0	6.222590754422783e+17
19342.0	6.220701978940755e+17
19343.0	6.218839229814099e+17
19344.0	6.216615608363689e+17
19345.0	6.21319853336166e+17
19346.0	6.212642682525012e+17
19347.0	6.211680089057961e+17
19348.0	6.210110393155584e+17
19349.0	6.208420259910995e+17
19350.0	6.206751569346559e+17
19351.0	6.205057643752105e+17
19352.0	6.203307306166954e+17
19353.0	6.201676237810346e+17
19354.0	6.199950298491562e+17
19355.0	6.197760289494356e+17
19356.0	6.194685125765801e+17
19357.0	6.192895864340479e+17
19358.0	6.191082649245012e+17
19359.0	6.189213295487658e+17
19360.0	6.187379127746559e+17
19361.0	6.185539823381162e+17
19362.0	6.183703167019689e+17
19363.0	6.181633875684008e+17
19364.0	6.177511931816617e+17
19365.0	6.175546415251455e+17
19366.0	6.173557645464916e+17
19367.0	6.171548162108074e+17
19368.0	6.169516859282772e+17
19369.0	6.166905196904444e+17
19370.0	6.162195348630185e+17
19371.0	6.160066916210006e+17
19372.0	6.157935258370047e+17
19373.0	6.155711154574676e+17
19374.0	6.150895906237094e+17
19375.0	6.147258661732351e+17
19376.0	6.14488959230498e+17
19377.0	6.142306961500842e+17
19378.0	6.135226094845951e+17
19379.0	6.132673611300864e+17
19380.0	6.130073165889533e+17
19381.0	6.121776209723388e+17
19382.0	6.11874642137361e+17
19383.0	6.113150805999612e+17
19384.0	6.106070413301076e+17
19385.0	6.102091117013673e+17
19386.0	6.095653996331008e+17
19387.0	6.092232980780371e+17
19388.0	6.088732397884756e+17
19389.0	6.085148444808531e+17
19390.0	6.081450580727124e+17
19391.0	6.07152562573584e+17
19392.0	6.073722817478655e+17
19393.0	6.069843872011603e+17
19394.0	6.065711004079444e+17
19395.0	6.061497018307924e+17
19396.0	6.057224977077588e+17
19397.0	6.052889102734676e+17
19398.0	6.048446470772052e+17
19399.0	6.043385271244116e+17
19400.0	6.039387345256447e+17
19401.0	6.03484047085841e+17
19402.0	6.030199876834644e+17
19403.0	6.02548615512064e+17
19404.0	6.020755717707092e+17
19405.0	6.015762601519786e+17
19406.0	6.010590239653887e+17
19407.0	6.005309495574527e+17
19408.0	5.999315256344576e+17
19409.0	5.994435929527638e+17
19410.0	5.988887888046762e+17
19411.0	5.983229064511487e+17
19412.0	5.977471060366676e+17
19413.0	5.971377769851562e+17
19414.0	5.965351223295999e+17
19415.0	5.959277711720447e+17
19416.0	5.952942520314538e+17
19417.0	5.946692777366867e+17
19418.0	5.940354447922516e+17
19419.0	5.933318038792873e+17
19420.0	5.926535374569471e+17
19421.0	5.919706635217578e+17
19422.0	5.912084232885588e+17
19423.0	5.904311429103615e+17
19424.0	5.89623544774656e+17
19425.0	5.88733277606161e+17
19426.0	5.877175774696786e+17
19427.0	5.866145799558484e+17
19428.0	5.853309120282624e+17
19429.0	5.838404496042669e+17
19430.0	5.819776512644439e+17
19431.0	5.794780118952614e+17
19432.0	5.7624598140682176e+17
19433.0	5.735159799567701e+17
19434.0	5.716831789296298e+17
19435.0	5.697134290534398e+17
19436.0	5.676277210720938e+17
19437.0	5.6547698544039245e+17
19438.0	5.6225454075412474e+17
19439.0	5.606350558068736e+17
19440.0	5.57862466372676e+17
19441.0	5.545247668262225e+17
19442.0	5.5018846529344826e+17
19443.0	5.443137201067356e+17
19444.0	5.3674536613532954e+17
19445.0	5.302977917790892e+17
19446.0	5.229376789195433e+17
19447.0	5.132498510719653e+17
19448.0	4.9945776310190176e+17
19449.0	4.788339836889775e+17
19450.0	4.415803582928215e+17
19451.0	4.2403102775924045e+17
19452.0	4.6282138539349254e+17
19453.0	4.903343536559455e+17
19454.0	5.066462984492365e+17
19455.0	5.17936933502976e+17
19456.0	5.260125967919789e+17
19457.0	5.323875752258217e+17
19458.0	5.3790709194424634e+17
19459.0	5.4601585234630054e+17
19460.0	5.5081943842160646e+17
19461.0	5.5437966334143155e+17
19462.0	5.5718476422403405e+17
19463.0	5.595853683163134e+17
19464.0	5.617582097476266e+17
19465.0	5.63825369607919e+17
19466.0	5.657164590874623e+17
19467.0	5.6750705751709e+17
19468.0	5.691862621530794e+17
19469.0	5.7097621668713734e+17
19470.0	5.741717565210611e+17
19471.0	5.767956143975085e+17
19472.0	5.785950948250961e+17
19473.0	5.80009676207992e+17
19474.0	5.812011541725181e+17
19475.0	5.82107548160273e+17
19476.0	5.829836455018495e+17
19477.0	5.836654821856598e+17
19478.0	5.843488681754623e+17
19479.0	5.848635976362666e+17
19480.0	5.854629803152724e+17
19481.0	5.859342855176191e+17
19482.0	5.863872816742399e+17
19483.0	5.868693751857151e+17
19484.0	5.873105554287273e+17
19485.0	5.877198962207402e+17
19486.0	5.881215599684266e+17
19487.0	5.885148152550739e+17
19488.0	5.888935128115881e+17
19489.0	5.892661376450559e+17
19490.0	5.895252652414291e+17
19491.0	5.899805429596159e+17
19492.0	5.903183359158954e+17
19493.0	5.906434994733055e+17
19494.0	5.909586105423188e+17
19495.0	5.912626872363689e+17
19496.0	5.915247925788671e+17
19497.0	5.918361384910848e+17
19498.0	5.920328037433344e+17
19499.0	5.91351564328413e+17
19500.0	5.925736079338154e+17
19501.0	5.928078927375018e+17
19502.0	5.930345389446484e+17
19503.0	5.932566482430634e+17
19504.0	5.934712082137087e+17
19505.0	5.936792478591657e+17
19506.0	5.938797376875178e+17
19507.0	5.94070707704081e+17
19508.0	5.942577896008361e+17
19509.0	5.944326594319699e+17
19510.0	5.94573161136128e+17
19511.0	5.934237333760672e+17
19512.0	5.947318819880956e+17
19513.0	5.947156256347473e+17
19514.0	5.949359628397224e+17
19515.0	5.952074360203946e+17
19516.0	5.954651835509418e+17
19517.0	5.958222682783743e+17
19518.0	5.959334855617192e+17
19519.0	5.966231957230931e+17
19520.0	5.966750351534761e+17
19521.0	5.969578602179237e+17
19522.0	5.973021859424937e+17
19523.0	5.973323696220842e+17
19524.0	5.974928174787244e+17
19525.0	5.978204851055273e+17
19526.0	5.97830146265361e+17
19527.0	5.978350821223081e+17
19528.0	5.980603219094184e+17
19529.0	5.981944224066217e+17
19530.0	5.981842023557802e+17
19531.0	5.981707765983914e+17
19532.0	5.98154705703185e+17
19533.0	5.984128203052374e+17
19534.0	5.983970441297919e+17
19535.0	5.983682386285908e+17
19536.0	5.983355513689428e+17
19537.0	5.983068744930644e+17
19538.0	5.982627093807104e+17
19539.0	5.98377446314257e+17
19540.0	5.984106923251028e+17
19541.0	5.983695060074495e+17
19542.0	5.983237522325504e+17
19543.0	5.982759398932479e+17
19544.0	5.982284106694655e+17
19545.0	5.98137547993907e+17
19546.0	5.980457032220671e+17
19547.0	5.981169157231954e+17
19548.0	5.981798319609171e+17
19549.0	5.981131758720339e+17
19550.0	5.980629272712532e+17
19551.0	5.98002684273186e+17
19552.0	5.979408189183316e+17
19553.0	5.978757895902548e+17
19554.0	5.97810093367842e+17
19555.0	5.977469107918166e+17
19556.0	5.976817466867711e+17
19557.0	5.97613685575953e+17
19558.0	5.975450964022612e+17
19559.0	5.974754056645289e+17
19560.0	5.974018307216724e+17
19561.0	5.974353780932608e+17
19562.0	5.973704050387626e+17
19563.0	5.972964719023444e+17
19564.0	5.972212794261504e+17
19565.0	5.971452135560534e+17
19566.0	5.970654882955263e+17
19567.0	5.969905747405482e+17
19568.0	5.969099800008019e+17
19569.0	5.968317039422121e+17
19570.0	5.967533773422591e+17
19571.0	5.966725214371839e+17
19572.0	5.965886856888319e+17
19573.0	5.965078490775551e+17
19574.0	5.964183074679465e+17
19575.0	5.96436112568047e+17
19576.0	5.964292736155645e+17
19577.0	5.963425691030868e+17
19578.0	5.962556701147135e+17
19579.0	5.961708278033065e+17
19580.0	5.960846560373418e+17
19581.0	5.959987448774655e+17
19582.0	5.959128897115475e+17
19583.0	5.958249440346111e+17
19584.0	5.957362274445993e+17
19585.0	5.958677103465814e+17
19586.0	5.958242303038806e+17
19587.0	5.958099691110399e+17
19588.0	5.956850556775084e+17
19589.0	5.956336565092351e+17
19590.0	5.955356193368745e+17
19591.0	5.954516999820627e+17
19592.0	5.953598234034176e+17
19593.0	5.952653175554047e+17
19594.0	5.951517787947005e+17
19595.0	5.950777428978346e+17
19596.0	5.949629774430207e+17
19597.0	5.94890938524194e+17
19598.0	5.94877542686174e+17
19599.0	5.949278465818623e+17
19600.0	5.948334652347732e+17
19601.0	5.947316081699498e+17
19602.0	5.946372130515625e+17
19603.0	5.945011538143912e+17
19604.0	5.944441724469247e+17
19605.0	5.943250008058538e+17
19606.0	5.942553697670484e+17
19607.0	5.941590320567636e+17
19608.0	5.940599538581503e+17
19609.0	5.939590108719786e+17
19610.0	5.938655872243028e+17
19611.0	5.937763853533183e+17
19612.0	5.936816212060842e+17
19613.0	5.935820796766889e+17
19614.0	5.934805246017535e+17
19615.0	5.933852213466452e+17
19616.0	5.932798491754495e+17
19617.0	5.931853324222463e+17
19618.0	5.931915569790976e+17
19619.0	5.930981923312979e+17
19620.0	5.930027570255188e+17
19621.0	5.929631038657876e+17
19622.0	5.928640745308159e+17
19623.0	5.927636515684351e+17
19624.0	5.926621068394495e+17
19625.0	5.925621863546879e+17
19626.0	5.924611556376575e+17
19627.0	5.923596109086719e+17
19628.0	5.922452862053034e+17
19629.0	5.921445670551551e+17
19630.0	5.920099904345428e+17
19631.0	5.913622688213674e+17
19632.0	5.918480784162815e+17
19633.0	5.91745963401762e+17
19634.0	5.916486390513663e+17
19635.0	5.915431386043732e+17
19636.0	5.91443024482577e+17
19637.0	5.913075631434409e+17
19638.0	5.912393018245117e+17
19639.0	5.911364834252116e+17
19640.0	5.910269802840064e+17
19641.0	5.908512978064726e+17
19642.0	5.908287017626282e+17
19643.0	5.907256083567956e+17
19644.0	5.90617737498897e+17
19645.0	5.904953992282111e+17
19646.0	5.904163802185727e+17
19647.0	5.903144445105492e+17
19648.0	5.902111972436649e+17
19649.0	5.901075796896426e+17
19650.0	5.90004379189248e+17
19651.0	5.899002475533651e+17
19652.0	5.897970197899946e+17
19653.0	5.896934060807507e+17
19654.0	5.89589028798464e+17
19655.0	5.894849263129939e+17
19656.0	5.89470557466351e+17
19657.0	5.89412068106786e+17
19658.0	5.893080156733439e+17
19659.0	5.892037513576448e+17
19660.0	5.890997380710399e+17
19661.0	5.889955147197097e+17
19662.0	5.888912003519828e+17
19663.0	5.88782594162688e+17
19664.0	5.886797398321833e+17
19665.0	5.885780880086356e+17
