# Flux units: erg / (cm m2 s)
# Wavelength units: Angstrom
wave	flux
19000.0	4.192173182418943e+17
19001.0	4.1912470045982714e+17
19002.0	4.190645045777748e+17
19003.0	4.189874685651625e+17
19004.0	4.189087365158229e+17
19005.0	4.188313362279082e+17
19006.0	4.1873689280511994e+17
19007.0	4.1868163236058445e+17
19008.0	4.185939059758421e+17
19009.0	4.1851009182815565e+17
19010.0	4.1836215572015763e+17
19011.0	4.1836833392994976e+17
19012.0	4.1827063244171936e+17
19013.0	4.1822131350842016e+17
19014.0	4.181374883157333e+17
19015.0	4.1805875437895674e+17
19016.0	4.1797902702127776e+17
19017.0	4.179161817371989e+17
19018.0	4.1783699775160314e+17
19019.0	4.177583577672361e+17
19020.0	4.176845422111402e+17
19021.0	4.1761025961929376e+17
19022.0	4.175334115115006e+17
19023.0	4.174520723526997e+17
19024.0	4.173738357205674e+17
19025.0	4.1730396749387085e+17
19026.0	4.1722342098862074e+17
19027.0	4.1713990554528416e+17
19028.0	4.1707674680688634e+17
19029.0	4.1699769990512634e+17
19030.0	4.1692536409948154e+17
19031.0	4.1684972506972154e+17
19032.0	4.16771804827921e+17
19033.0	4.1668247230436685e+17
19034.0	4.166193604722687e+17
19035.0	4.1654071070119245e+17
19036.0	4.153128166009511e+17
19037.0	4.163920308032853e+17
19038.0	4.1631384373384525e+17
19039.0	4.1623931472663885e+17
19040.0	4.161653302099968e+17
19041.0	4.1608788224682656e+17
19042.0	4.1592623614743885e+17
19043.0	4.1593796111455565e+17
19044.0	4.158601460099754e+17
19045.0	4.157852090368e+17
19046.0	4.1569900462516896e+17
19047.0	4.156312972339881e+17
19048.0	4.155059875785386e+17
19049.0	4.15325767213602e+17
19050.0	4.153960071255381e+17
19051.0	4.1517266966500666e+17
19052.0	4.1523049282928634e+17
19053.0	4.1517968932208634e+17
19054.0	4.151033336954879e+17
19055.0	4.149667033339221e+17
19056.0	4.1493940400728736e+17
19057.0	4.1487573796782074e+17
19058.0	4.147222818761385e+17
19059.0	4.146941516578815e+17
19060.0	4.146456616588628e+17
19061.0	4.145743308783615e+17
19062.0	4.1449778231377914e+17
19063.0	4.1442257949163514e+17
19064.0	4.1432612776618656e+17
19065.0	4.142458418670249e+17
19066.0	4.1415937314433696e+17
19067.0	4.1411890538086394e+17
19068.0	4.1404537986088954e+17
19069.0	4.13969981374464e+17
19070.0	4.1388973322403834e+17
19071.0	4.138177583382527e+17
19072.0	4.137134994751487e+17
19073.0	4.1366733738475526e+17
19074.0	4.1359289352191994e+17
19075.0	4.1351751663615994e+17
19076.0	4.134276201185279e+17
19077.0	4.133632948043775e+17
19078.0	4.132832578371583e+17
19079.0	4.1321553618534394e+17
19080.0	4.1313827402984096e+17
19081.0	4.1305780616779085e+17
19082.0	4.129829800640512e+17
19083.0	4.129021967903402e+17
19084.0	4.1280922486920525e+17
19085.0	4.1276172116077216e+17
19086.0	4.12600401657856e+17
19087.0	4.1252548397847885e+17
19088.0	4.1249177491647136e+17
19089.0	4.1242558956830714e+17
19090.0	4.1238515892442445e+17
19091.0	4.123015465926655e+17
19092.0	4.121719316938753e+17
19093.0	4.121636072587264e+17
19094.0	4.120881761266347e+17
19095.0	4.1201347501315405e+17
19096.0	4.1193548179046394e+17
19097.0	4.1186294661556896e+17
19098.0	4.117559696337578e+17
19099.0	4.1167572672621216e+17
19100.0	4.1163194762963616e+17
19101.0	4.115618277446996e+17
19102.0	4.114636248973311e+17
19103.0	4.114127094022143e+17
19104.0	4.1133886958906016e+17
19105.0	4.111961796466007e+17
19106.0	4.1118376576505165e+17
19107.0	4.11093976551697e+17
19108.0	4.1101519969320954e+17
19109.0	4.109033192204969e+17
19110.0	4.108889338762581e+17
19111.0	4.107957866332159e+17
19112.0	4.107077312752298e+17
19113.0	4.106643144267093e+17
19114.0	4.105780278067199e+17
19115.0	4.104945327057578e+17
19116.0	4.104331621389653e+17
19117.0	4.103634782519295e+17
19118.0	4.102752283481429e+17
19119.0	4.078522356902537e+17
19120.0	4.10132343370547e+17
19121.0	4.1006173233261216e+17
19122.0	4.0999360732856314e+17
19123.0	4.0991876934096205e+17
19124.0	4.0983850231616845e+17
19125.0	4.097674111003306e+17
19126.0	4.096933626904575e+17
19127.0	4.092905616572415e+17
19128.0	4.0954117628450125e+17
19129.0	4.0945836094040736e+17
19130.0	4.093925482561536e+17
19131.0	4.093200744579072e+17
19132.0	4.092456163344383e+17
19133.0	4.091624309828266e+17
19134.0	4.090967172841472e+17
19135.0	4.090224478344532e+17
19136.0	4.0894873238241274e+17
19137.0	4.0884560758920525e+17
19138.0	4.087977867913898e+17
19139.0	4.0872591634377376e+17
19140.0	4.0865180411057485e+17
19141.0	4.085774303625214e+17
19142.0	4.0849890222626125e+17
19143.0	4.084183373359786e+17
19144.0	4.0834874579353594e+17
19145.0	4.082800047161344e+17
19146.0	4.081074346917889e+17
19147.0	4.0810008459345914e+17
19148.0	4.080301885445461e+17
19149.0	4.0795285207995725e+17
19150.0	4.079084320937301e+17
19151.0	4.0783484659520845e+17
19152.0	4.077600568421034e+17
19153.0	4.076340928053247e+17
19154.0	4.07584085516834e+17
19155.0	4.07539164520994e+17
19156.0	4.074653282030933e+17
19157.0	4.0737208707754656e+17
19158.0	4.0724163436653216e+17
19159.0	4.0723398877948576e+17
19160.0	4.071669782719146e+17
19161.0	4.070952198821206e+17
19162.0	4.0692759564124166e+17
19163.0	4.0694646210996896e+17
19164.0	4.0687274183447885e+17
19165.0	4.067391302533118e+17
19166.0	4.066984320827391e+17
19167.0	4.0663374808569165e+17
19168.0	4.065771922303659e+17
19169.0	4.065013896926549e+17
19170.0	4.064305759999318e+17
19171.0	4.063501252646229e+17
19172.0	4.062827699153579e+17
19173.0	4.0620879071150074e+17
19174.0	4.0612428653090125e+17
19175.0	4.0606095778338125e+17
19176.0	4.0598765456151885e+17
19177.0	4.0588941788009805e+17
19178.0	4.058282921208491e+17
19179.0	4.057453431881728e+17
19180.0	4.0569225161823565e+17
19181.0	4.0558778758376096e+17
19182.0	4.0553961264687776e+17
19183.0	4.0547268141165216e+17
19184.0	4.053942258368511e+17
19185.0	4.05323886170385e+17
19186.0	4.052516695528789e+17
19187.0	4.051694324634964e+17
19188.0	4.051019382128638e+17
19189.0	4.050317436693161e+17
19190.0	4.0495807840911354e+17
19191.0	4.0487666899572045e+17
19192.0	4.048111715134123e+17
19193.0	4.047303123227989e+17
19194.0	4.046515665720661e+17
19195.0	4.0459105870370125e+17
19196.0	4.0451473061969914e+17
19197.0	4.044429993530708e+17
19198.0	4.043712739584683e+17
19199.0	4.03711447933474e+17
19200.0	4.0383255230982854e+17
19201.0	4.041497643057151e+17
19202.0	4.0407797368968525e+17
19203.0	4.0400292395963725e+17
19204.0	4.0392657336620365e+17
19205.0	4.0385657211016525e+17
19206.0	4.037820016492543e+17
19207.0	4.036924644436649e+17
19208.0	4.035910498080084e+17
19209.0	4.035631870465364e+17
19210.0	4.0349031793513805e+17
19211.0	4.0341822120482125e+17
19212.0	4.0334551294498125e+17
19213.0	4.032565471434068e+17
19214.0	4.031761220632576e+17
19215.0	4.0312487242192205e+17
19216.0	4.030539678526122e+17
19217.0	4.029800942753108e+17
19218.0	4.027656925697363e+17
19219.0	4.028145771828563e+17
19220.0	4.027579367424e+17
19221.0	4.026317132879189e+17
19222.0	4.026150802860714e+17
19223.0	4.0253975981370016e+17
19224.0	4.024635195304617e+17
19225.0	4.0236913825327776e+17
19226.0	4.0232073626473805e+17
19227.0	4.022484544258048e+17
19228.0	4.0217875711699616e+17
19229.0	4.0210582809695565e+17
19230.0	4.0203164679755085e+17
19231.0	4.0195839998907725e+17
19232.0	4.018861603028991e+17
19233.0	4.018027337089024e+17
19234.0	4.017350892322815e+17
19235.0	4.0166184843564365e+17
19236.0	4.0159399291562656e+17
19237.0	4.0151783749713914e+17
19238.0	4.014317305331712e+17
19239.0	4.013759098694314e+17
19240.0	4.013018871846229e+17
19241.0	4.0122716356171085e+17
19242.0	4.0115539314824525e+17
19243.0	4.010623269950804e+17
19244.0	4.010125237594793e+17
19245.0	4.0093797937315834e+17
19246.0	4.008648933463381e+17
19247.0	4.0079379024663885e+17
19248.0	4.007227165769727e+17
19249.0	4.00648301515025e+17
19250.0	4.0056459481142605e+17
19251.0	4.0047614085474976e+17
19252.0	4.00393727115264e+17
19253.0	4.0035517726719994e+17
19254.0	4.00287683715618e+17
19255.0	4.0018817567074976e+17
19256.0	4.001355384837461e+17
19257.0	4.000703551548074e+17
19258.0	3.999982428356606e+17
19259.0	3.99915527246097e+17
19260.0	3.998235079912105e+17
19261.0	3.997792387902123e+17
19262.0	3.996998042648576e+17
19263.0	3.9962491252026016e+17
19264.0	3.994609341781331e+17
19265.0	3.9945226182546765e+17
19266.0	3.993472500847957e+17
19267.0	3.993477777282389e+17
19268.0	3.9927455224081056e+17
19269.0	3.9920283845044896e+17
19270.0	3.991311634573995e+17
19271.0	3.989942083867989e+17
19272.0	3.989808813353641e+17
19273.0	3.9883492326113274e+17
19274.0	3.987665767978323e+17
19275.0	3.987706904313855e+17
19276.0	3.9869528572340896e+17
19277.0	3.9862433473713485e+17
19278.0	3.985516577248597e+17
19279.0	3.98478532341487e+17
19280.0	3.9839390352015354e+17
19281.0	3.983355274067968e+17
19282.0	3.982665376071679e+17
19283.0	3.9818603332457805e+17
19284.0	3.981182876953257e+17
19285.0	3.980218131808255e+17
19286.0	3.979728488060245e+17
19287.0	3.9790677684387834e+17
19288.0	3.9751193478212224e+17
19289.0	3.970019578871795e+17
19290.0	3.9769128098420045e+17
19291.0	3.9758148871563955e+17
19292.0	3.975475975509333e+17
19293.0	3.974745637431978e+17
19294.0	3.97402107281408e+17
19295.0	3.973321885832532e+17
19296.0	3.9722977808001696e+17
19297.0	3.9717794060697594e+17
19298.0	3.9711217140367354e+17
19299.0	3.9701029693248845e+17
19300.0	3.969692673419946e+17
19301.0	3.96900648947985e+17
19302.0	3.968274510730581e+17
19303.0	3.9674584110202874e+17
19304.0	3.9668125217587194e+17
19305.0	3.966119168354985e+17
19306.0	3.9654205783627085e+17
19307.0	3.9646276675611296e+17
19308.0	3.963953251439957e+17
19309.0	3.963043360800767e+17
19310.0	3.962263994105855e+17
19311.0	3.961781663825919e+17
19312.0	3.9611203542056954e+17
19313.0	3.9604226492115616e+17
19314.0	3.925828096928442e+17
19315.0	3.9265837238627354e+17
19316.0	3.95784864329455e+17
19317.0	3.957542223522474e+17
19318.0	3.9568326011125754e+17
19319.0	3.956138938728448e+17
19320.0	3.9552865988334925e+17
19321.0	3.954447888329385e+17
19322.0	3.953883802675882e+17
19323.0	3.953188326954325e+17
19324.0	3.952565267988479e+17
19325.0	3.9516471173666125e+17
19326.0	3.951152841009834e+17
19327.0	3.9503990085386234e+17
19328.0	3.9491257289932806e+17
19329.0	3.949015559307263e+17
19330.0	3.9482343932559354e+17
19331.0	3.947516491289942e+17
19332.0	3.946872761395882e+17
19333.0	3.946144321241087e+17
19334.0	3.945420236870996e+17
19335.0	3.943542916732245e+17
19336.0	3.943997338113364e+17
19337.0	3.9433140496411296e+17
19338.0	3.94226338767394e+17
19339.0	3.941889386479615e+17
19340.0	3.9406313881818445e+17
19341.0	3.9398933857129805e+17
19342.0	3.938933888341332e+17
19343.0	3.9390376533251405e+17
19344.0	3.937894155332266e+17
19345.0	3.933602517614584e+17
19346.0	3.9352353958133734e+17
19347.0	3.9355330152366074e+17
19348.0	3.9354925381058554e+17
19349.0	3.934733903855615e+17
19350.0	3.933832336812714e+17
19351.0	3.933294300583253e+17
19352.0	3.931937172706643e+17
19353.0	3.931943246058836e+17
19354.0	3.931246496666965e+17
19355.0	3.930381760506539e+17
19356.0	3.929827273517738e+17
19357.0	3.9291216384928416e+17
19358.0	3.928405995858603e+17
19359.0	3.9274688792930976e+17
19360.0	3.926484769745578e+17
19361.0	3.9262234771892896e+17
19362.0	3.9255853124375885e+17
19363.0	3.924875697717247e+17
19364.0	3.9241653336145914e+17
19365.0	3.923460852023296e+17
19366.0	3.9227579810447366e+17
19367.0	3.9220512394226336e+17
19368.0	3.921345775665151e+17
19369.0	3.9205600832607565e+17
19370.0	3.919849138246997e+17
19371.0	3.919144684617728e+17
19372.0	3.9185206987106976e+17
19373.0	3.917791038712489e+17
19374.0	3.9171030085795834e+17
19375.0	3.9163995266307405e+17
19376.0	3.9157021956287136e+17
19377.0	3.914979763115349e+17
19378.0	3.914281428975615e+17
19379.0	3.9135827117561165e+17
19380.0	3.912877821919231e+17
19381.0	3.912166187641514e+17
19382.0	3.911367068570965e+17
19383.0	3.910581478927018e+17
19384.0	3.910030017429504e+17
19385.0	3.909356085750442e+17
19386.0	3.9086609686418765e+17
19387.0	3.9079582032199674e+17
19388.0	3.907237169506986e+17
19389.0	3.9064755006778016e+17
19390.0	3.9057721200913056e+17
19391.0	3.894371727092379e+17
19392.0	3.90421159293747e+17
19393.0	3.903653814818133e+17
19394.0	3.902930846132906e+17
19395.0	3.902051961186986e+17
19396.0	3.9014711004146336e+17
19397.0	3.9008357304674976e+17
19398.0	3.899928108247722e+17
19399.0	3.8977566185007763e+17
19400.0	3.898472662390101e+17
19401.0	3.897998383775744e+17
19402.0	3.8973069870148256e+17
19403.0	3.896570946082132e+17
19404.0	3.8958934548370765e+17
19405.0	3.8951635138205e+17
19406.0	3.8944710020737696e+17
19407.0	3.8935636287160314e+17
19408.0	3.8915067748898157e+17
19409.0	3.8923475315152205e+17
19410.0	3.891659740457642e+17
19411.0	3.8909517391462394e+17
19412.0	3.8902289878657696e+17
19413.0	3.8893118368863565e+17
19414.0	3.888749400293376e+17
19415.0	3.888084022897322e+17
19416.0	3.887112476688383e+17
19417.0	3.8865650312369485e+17
19418.0	3.885970838869332e+17
19419.0	3.885253391985323e+17
19420.0	3.8845466762280954e+17
19421.0	3.8838278892639565e+17
19422.0	3.88303600816401e+17
19423.0	3.882369991835648e+17
19424.0	3.881655785051476e+17
19425.0	3.8809326045538976e+17
19426.0	3.8802029480509434e+17
19427.0	3.87944857800977e+17
19428.0	3.87872465162513e+17
19429.0	3.8779752616209056e+17
19430.0	3.8770396039741446e+17
19431.0	3.8745059179014854e+17
19432.0	3.875696085914965e+17
19433.0	3.87490094584081e+17
19434.0	3.87409712845073e+17
19435.0	3.873023764114091e+17
19436.0	3.8714346912262803e+17
19437.0	3.871549177550164e+17
19438.0	3.8463565673267283e+17
19439.0	3.8688370853587635e+17
19440.0	3.8684902492733434e+17
19441.0	3.8673359362676045e+17
19442.0	3.8659727553112736e+17
19443.0	3.864321114592597e+17
19444.0	3.8622461427711994e+17
19445.0	3.8594114412871674e+17
19446.0	3.8550242622177274e+17
19447.0	3.8474836103659514e+17
19448.0	3.831280100354732e+17
19449.0	3.7540690573394016e+17
19450.0	3.1872075739518086e+17
19451.0	2.8200144277776995e+17
19452.0	3.377488971431947e+17
19453.0	3.7926976234018234e+17
19454.0	3.832689976497491e+17
19455.0	3.844208709686613e+17
19456.0	3.8492285030454605e+17
19457.0	3.8517493216925e+17
19458.0	3.7272156509308666e+17
19459.0	3.848325808433875e+17
19460.0	3.853724961909417e+17
19461.0	3.8536731238072314e+17
19462.0	3.8534143156770125e+17
19463.0	3.853089433277781e+17
19464.0	3.852650229530623e+17
19465.0	3.852209459210923e+17
19466.0	3.851593184531797e+17
19467.0	3.851140849816916e+17
19468.0	3.8505712570422605e+17
19469.0	3.8489597348413414e+17
19470.0	3.8493597358271123e+17
19471.0	3.848765898577236e+17
19472.0	3.8480506634895354e+17
19473.0	3.847382741549055e+17
19474.0	3.846411256856574e+17
19475.0	3.8443740903942803e+17
19476.0	3.8453969790784845e+17
19477.0	3.844838248153087e+17
19478.0	3.844232869576704e+17
19479.0	3.843136007350953e+17
19480.0	3.842858542257493e+17
19481.0	3.842073240622421e+17
19482.0	3.841528044016981e+17
19483.0	3.840901784098133e+17
19484.0	3.8402062929974605e+17
19485.0	3.839435591734613e+17
19486.0	3.838333710325077e+17
19487.0	3.838177854881791e+17
19488.0	3.837529091822933e+17
19489.0	3.836640884337323e+17
19490.0	3.833276324817575e+17
19491.0	3.8354355483224736e+17
19492.0	3.8348177147603616e+17
19493.0	3.834138719158272e+17
19494.0	3.83344820949265e+17
19495.0	3.8327644610450765e+17
19496.0	3.831171828591272e+17
19497.0	3.831356816272042e+17
19498.0	3.8296269028502195e+17
19499.0	3.812637967471949e+17
19500.0	3.82935315321105e+17
19501.0	3.828743076315136e+17
19502.0	3.828085387777364e+17
19503.0	3.827409574253908e+17
19504.0	3.8267267541456205e+17
19505.0	3.8260316824753485e+17
19506.0	3.825364351232682e+17
19507.0	3.8246263774248954e+17
19508.0	3.8239993275787936e+17
19509.0	3.82330974834961e+17
19510.0	3.8221875728001696e+17
19511.0	3.7680742179798726e+17
19512.0	3.818596471231825e+17
19513.0	3.815236684130978e+17
19514.0	3.816296701493243e+17
19515.0	3.8182767834781024e+17
19516.0	3.8184370827864736e+17
19517.0	3.8176891069617485e+17
19518.0	3.817042583661227e+17
19519.0	3.816340567621631e+17
19520.0	3.8153422344901965e+17
19521.0	3.81511108989201e+17
19522.0	3.81432584208384e+17
19523.0	3.8136291877628576e+17
19524.0	3.8127695770419194e+17
19525.0	3.8123587987920205e+17
19526.0	3.8117052409446394e+17
19527.0	3.8109944168666445e+17
19528.0	3.8102946300996256e+17
19529.0	3.8095923470226765e+17
19530.0	3.808979861897216e+17
19531.0	3.808298636323497e+17
19532.0	3.807617553356117e+17
19533.0	3.806936273256447e+17
19534.0	3.8062501361527456e+17
19535.0	3.80554814947328e+17
19536.0	3.8048276169796256e+17
19537.0	3.804210451010901e+17
19538.0	3.8029322746156384e+17
19539.0	3.801787630179671e+17
19540.0	3.8021276959593805e+17
19541.0	3.8014067174714016e+17
19542.0	3.800764616365397e+17
19543.0	3.799714868756479e+17
19544.0	3.799417837933908e+17
19545.0	3.797884373827582e+17
19546.0	3.796378894117546e+17
19547.0	3.7974188571142816e+17
19548.0	3.7967348542122656e+17
19549.0	3.7959140729596576e+17
19550.0	3.7953778444752205e+17
19551.0	3.7947052116322976e+17
19552.0	3.7940247815782394e+17
19553.0	3.7933049019979085e+17
19554.0	3.792589919267498e+17
19555.0	3.7919245174046714e+17
19556.0	3.791285194326015e+17
19557.0	3.79062673403631e+17
19558.0	3.7899521697163936e+17
19559.0	3.789280754619732e+17
19560.0	3.7884240030160205e+17
19561.0	3.787886305826133e+17
19562.0	3.787098361080489e+17
19563.0	3.7865773432395085e+17
19564.0	3.785901488472063e+17
19565.0	3.785221103157247e+17
19566.0	3.7844960645829965e+17
19567.0	3.783872150678186e+17
19568.0	3.783166273781759e+17
19569.0	3.7824837696443725e+17
19570.0	3.781843476982443e+17
19571.0	3.781157102201514e+17
19572.0	3.780446608075434e+17
19573.0	3.779739534404266e+17
19574.0	3.7789981219662496e+17
19575.0	3.778466407951018e+17
19576.0	3.7777674083150496e+17
19577.0	3.7770142196695034e+17
19578.0	3.7763626590098765e+17
19579.0	3.7757187823151776e+17
19580.0	3.775058131200682e+17
19581.0	3.774394334358186e+17
19582.0	3.773752643594923e+17
19583.0	3.7730795766415354e+17
19584.0	3.7723925419567776e+17
19585.0	3.7715569450243405e+17
19586.0	3.770839049349802e+17
19587.0	3.770348784145749e+17
19588.0	3.768829893148673e+17
19589.0	3.769007921780053e+17
19590.0	3.7680948742280525e+17
19591.0	3.767681225676117e+17
19592.0	3.7670117637270176e+17
19593.0	3.766284333001386e+17
19594.0	3.7652572444207776e+17
19595.0	3.764939047742122e+17
19596.0	3.76421207769088e+17
19597.0	3.7636415446930765e+17
19598.0	3.7617769221106323e+17
19599.0	3.762310226466133e+17
19600.0	3.761652352679936e+17
19601.0	3.760866527455915e+17
19602.0	3.760228788426069e+17
19603.0	3.75879109915443e+17
19604.0	3.7588965062082554e+17
19605.0	3.757809154566827e+17
19606.0	3.7576146779723085e+17
19607.0	3.7569594654719994e+17
19608.0	3.7562594647954765e+17
19609.0	3.755527040051882e+17
19610.0	3.7547370561754445e+17
19611.0	3.7539690078098765e+17
19612.0	3.7536112525530445e+17
19613.0	3.7529265708728314e+17
19614.0	3.752214734569471e+17
19615.0	3.7516023913512954e+17
19616.0	3.750633296013995e+17
19617.0	3.749927923832149e+17
19618.0	3.7484965385994214e+17
19619.0	3.7474775191606586e+17
19620.0	3.746838451934548e+17
19621.0	3.747190114964821e+17
19622.0	3.746927685752149e+17
19623.0	3.7462413438266016e+17
19624.0	3.7455266127544314e+17
19625.0	3.7449240758190074e+17
19626.0	3.7442469557698554e+17
19627.0	3.743590805143551e+17
19628.0	3.742763096298838e+17
19629.0	3.741096771321854e+17
19630.0	3.74132452692241e+17
19631.0	3.7346351174560416e+17
19632.0	3.7402508871598074e+17
19633.0	3.739506668033365e+17
19634.0	3.738922306415274e+17
19635.0	3.738134047096831e+17
19636.0	3.7371196917241165e+17
19637.0	3.736015180485974e+17
19638.0	3.7361784493615776e+17
19639.0	3.735575190306815e+17
19640.0	3.734664666327723e+17
19641.0	3.731148800087387e+17
19642.0	3.7335585941094394e+17
19643.0	3.732888003892565e+17
19644.0	3.732165010740565e+17
19645.0	3.73107402613282e+17
19646.0	3.73043771805969e+17
19647.0	3.730258092097535e+17
19648.0	3.7296104761808205e+17
19649.0	3.72893867311104e+17
19650.0	3.7282861799178234e+17
19651.0	3.7276174736424954e+17
19652.0	3.726950464662187e+17
19653.0	3.726291446530047e+17
19654.0	3.725624475997525e+17
19655.0	3.7249494279345485e+17
