# Flux units: erg / (cm m2 s)
# Wavelength units: Angstrom
wave	flux
19000.0	6.436850909926739e+17
19001.0	6.435294252018345e+17
19002.0	6.434455519843667e+17
19003.0	6.433230985101311e+17
19004.0	6.432022790668287e+17
19005.0	6.430806504024746e+17
19006.0	6.429608491963731e+17
19007.0	6.428259414354602e+17
19008.0	6.426964585174356e+17
19009.0	6.425908890042368e+17
19010.0	6.422879851773948e+17
19011.0	6.423483926620842e+17
19012.0	6.421850122179923e+17
19013.0	6.42114793906722e+17
19014.0	6.419737777711785e+17
19015.0	6.418610767527935e+17
19016.0	6.417362885192362e+17
19017.0	6.416172056575999e+17
19018.0	6.415073007719764e+17
19019.0	6.41389056561425e+17
19020.0	6.41257258807023e+17
19021.0	6.411454183899135e+17
19022.0	6.410304891475284e+17
19023.0	6.408963655816532e+17
19024.0	6.40781876601378e+17
19025.0	6.406680765355348e+17
19026.0	6.40538061709858e+17
19027.0	6.404082565993812e+17
19028.0	6.403085405170346e+17
19029.0	6.401820626081108e+17
19030.0	6.400716098764799e+17
19031.0	6.399533255404202e+17
19032.0	6.398317045656234e+17
19033.0	6.396775615867561e+17
19034.0	6.395859890252457e+17
19035.0	6.394588639352148e+17
19036.0	6.375198764826606e+17
19037.0	6.392270736239273e+17
19038.0	6.391027420102655e+17
19039.0	6.3898914928285e+17
19040.0	6.388708811647657e+17
19041.0	6.387488673933993e+17
19042.0	6.385975968836265e+17
19043.0	6.38510083150097e+17
19044.0	6.383869755042473e+17
19045.0	6.382703642061482e+17
19046.0	6.381273053746516e+17
19047.0	6.380306679813459e+17
19048.0	6.378285797037395e+17
19049.0	6.377646434811901e+17
19050.0	6.376524928953002e+17
19051.0	6.372363295085903e+17
19052.0	6.374134328765098e+17
19053.0	6.37306334749218e+17
19054.0	6.371884243353599e+17
19055.0	6.36977432808653e+17
19056.0	6.36940840931601e+17
19057.0	6.368287903798612e+17
19058.0	6.367021511999488e+17
19059.0	6.365904379401556e+17
19060.0	6.364628553214633e+17
19061.0	6.363529859476137e+17
19062.0	6.362302798364671e+17
19063.0	6.36113059245807e+17
19064.0	6.359447665027754e+17
19065.0	6.358076389064701e+17
19066.0	6.357315774403923e+17
19067.0	6.356296314563241e+17
19068.0	6.355141958915412e+17
19069.0	6.353951586779135e+17
19070.0	6.352649258882388e+17
19071.0	6.351536946238803e+17
19072.0	6.350368295703891e+17
19073.0	6.349143582004563e+17
19074.0	6.347983619970388e+17
19075.0	6.346792045466964e+17
19076.0	6.345511518164308e+17
19077.0	6.344363441389565e+17
19078.0	6.343024771246761e+17
19079.0	6.342006414508031e+17
19080.0	6.340767863100756e+17
19081.0	6.339439761205929e+17
19082.0	6.338222319730687e+17
19083.0	6.336856282453331e+17
19084.0	6.335180953004713e+17
19085.0	6.334799816600233e+17
19086.0	6.332251762240169e+17
19087.0	6.33190644519185e+17
19088.0	6.331007108819625e+17
19089.0	6.329119587434497e+17
19090.0	6.328761795827027e+17
19091.0	6.327612046923092e+17
19092.0	6.326147558845097e+17
19093.0	6.325296202514431e+17
19094.0	6.324104497987583e+17
19095.0	6.32292640887057e+17
19096.0	6.321665691964756e+17
19097.0	6.3205487425181e+17
19098.0	6.319343541420031e+17
19099.0	6.318145902652073e+17
19100.0	6.316935324456276e+17
19101.0	6.315784109643091e+17
19102.0	6.314230042416467e+17
19103.0	6.313388759405908e+17
19104.0	6.312227032268799e+17
19105.0	6.311013935393449e+17
19106.0	6.309736307752959e+17
19107.0	6.308583485123242e+17
19108.0	6.307470277694804e+17
19109.0	6.30462008874325e+17
19110.0	6.305085806084095e+17
19111.0	6.303896386054826e+17
19112.0	6.302719435691348e+17
19113.0	6.301521429921791e+17
19114.0	6.30032762684484e+17
19115.0	6.298949923809961e+17
19116.0	6.297887409438719e+17
19117.0	6.296720431732052e+17
19118.0	6.295232874283008e+17
19119.0	6.281049510248426e+17
19120.0	6.293006982316031e+17
19121.0	6.291940240785408e+17
19122.0	6.290857472819199e+17
19123.0	6.289648101883903e+17
19124.0	6.288379368265044e+17
19125.0	6.287279544860672e+17
19126.0	6.286000553372329e+17
19127.0	6.27823589982207e+17
19128.0	6.282199794625193e+17
19129.0	6.281635739030867e+17
19130.0	6.280735479212714e+17
19131.0	6.27955887837457e+17
19132.0	6.27840574886161e+17
19133.0	6.276041042908502e+17
19134.0	6.275516459909119e+17
19135.0	6.27484693434641e+17
19136.0	6.273691924387156e+17
19137.0	6.271906871945898e+17
19138.0	6.271211786993663e+17
19139.0	6.270141369155584e+17
19140.0	6.26895983092258e+17
19141.0	6.267777904716458e+17
19142.0	6.266495784976384e+17
19143.0	6.26518015414545e+17
19144.0	6.264109541971284e+17
19145.0	6.263039914060457e+17
19146.0	6.259686603664044e+17
19147.0	6.260354374609578e+17
19148.0	6.259492222839465e+17
19149.0	6.258303356458324e+17
19150.0	6.257107697401855e+17
19151.0	6.255952484018857e+17
19152.0	6.254753359768233e+17
19153.0	6.253528583154346e+17
19154.0	6.251968483819519e+17
19155.0	6.251255707992063e+17
19156.0	6.250067436503037e+17
19157.0	6.248867516033706e+17
19158.0	6.246564011267411e+17
19159.0	6.246465399685119e+17
19160.0	6.245280529077588e+17
19161.0	6.24407668204066e+17
19162.0	6.240416287774038e+17
19163.0	6.241811955711999e+17
19164.0	6.24065622573056e+17
19165.0	6.239398240714751e+17
19166.0	6.237843626131455e+17
19167.0	6.236879861754537e+17
19168.0	6.235668218205524e+17
19169.0	6.234575021801471e+17
19170.0	6.233593774866431e+17
19171.0	6.232249353633792e+17
19172.0	6.231216530041513e+17
19173.0	6.230064568642218e+17
19174.0	6.22867264901393e+17
19175.0	6.227709685050026e+17
19176.0	6.226523165381971e+17
19177.0	6.224815998369791e+17
19178.0	6.224159549947904e+17
19179.0	6.222780309700608e+17
19180.0	6.221680535928831e+17
19181.0	6.220223343143592e+17
19182.0	6.219361339572223e+17
19183.0	6.21830494888482e+17
19184.0	6.216888650563583e+17
19185.0	6.215908760485887e+17
19186.0	6.214789011341311e+17
19187.0	6.213333371147604e+17
19188.0	6.212423319027711e+17
19189.0	6.211231302724265e+17
19190.0	6.210052493585065e+17
19191.0	6.208785929120426e+17
19192.0	6.207756229585577e+17
19193.0	6.206504896735914e+17
19194.0	6.20531284058658e+17
19195.0	6.204214151741439e+17
19196.0	6.202989630281044e+17
19197.0	6.201851665274195e+17
19198.0	6.200692135253332e+17
19199.0	6.18428081006182e+17
19200.0	6.188834972063067e+17
19201.0	6.197185727867562e+17
19202.0	6.196031379909289e+17
19203.0	6.194830854761129e+17
19204.0	6.19358372040977e+17
19205.0	6.192474791870463e+17
19206.0	6.191279174757034e+17
19207.0	6.189856761140563e+17
19208.0	6.188157745059154e+17
19209.0	6.187759733571583e+17
19210.0	6.186614611684009e+17
19211.0	6.185494012493823e+17
19212.0	6.184312292507647e+17
19213.0	6.18270643401523e+17
19214.0	6.181471424697686e+17
19215.0	6.180765678523731e+17
19216.0	6.17960467210786e+17
19217.0	6.178443918049279e+17
19218.0	6.174320075560273e+17
19219.0	6.175564596161193e+17
19220.0	6.174865120471721e+17
19221.0	6.172561525527892e+17
19222.0	6.172611805446144e+17
19223.0	6.171355275154772e+17
19224.0	6.170052900421631e+17
19225.0	6.168543108967081e+17
19226.0	6.167836165319338e+17
19227.0	6.166669890857641e+17
19228.0	6.165593116551848e+17
19229.0	6.164423564940627e+17
19230.0	6.163180040486911e+17
19231.0	6.162006992923305e+17
19232.0	6.160845715275775e+17
19233.0	6.159479329871188e+17
19234.0	6.158473195334313e+17
19235.0	6.157269483913215e+17
19236.0	6.156240531663529e+17
19237.0	6.154998554907988e+17
19238.0	6.153554793682259e+17
19239.0	6.152737640502612e+17
19240.0	6.151028121883987e+17
19241.0	6.150180804668073e+17
19242.0	6.149144849328809e+17
19243.0	6.147411226045097e+17
19244.0	6.146876139110399e+17
19245.0	6.14569060859904e+17
19246.0	6.144477766877184e+17
19247.0	6.143323964877481e+17
19248.0	6.142198611443712e+17
19249.0	6.141022542583124e+17
19250.0	6.139783403274239e+17
19251.0	6.138375991285074e+17
19252.0	6.136316258069161e+17
19253.0	6.136256603881472e+17
19254.0	6.135094842490879e+17
19255.0	6.133240561663997e+17
19256.0	6.13275590074914e+17
19257.0	6.131650408742912e+17
19258.0	6.130486355864234e+17
19259.0	6.129019118419965e+17
19260.0	6.127790520096083e+17
19261.0	6.126925393865386e+17
19262.0	6.125575649361919e+17
19263.0	6.124439092942163e+17
19264.0	6.121523572812456e+17
19265.0	6.121540187848701e+17
19266.0	6.120441775128576e+17
19267.0	6.119934551654399e+17
19268.0	6.118732034211837e+17
19269.0	6.117558470049791e+17
19270.0	6.116392216559615e+17
19271.0	6.113990430162948e+17
19272.0	6.113915384976724e+17
19273.0	6.098530196957846e+17
19274.0	6.104414681038838e+17
19275.0	6.110542435450879e+17
19276.0	6.109291941462015e+17
19277.0	6.108120707235839e+17
19278.0	6.10695834046737e+17
19279.0	6.105657370826067e+17
19280.0	6.104265767168681e+17
19281.0	6.103405668510377e+17
19282.0	6.10227445633297e+17
19283.0	6.100864685746857e+17
19284.0	6.099501186722473e+17
19285.0	6.09796576527428e+17
19286.0	6.097428052006228e+17
19287.0	6.09637527331362e+17
19288.0	6.09122685952546e+17
19289.0	6.080980517388261e+17
19290.0	6.092820749571412e+17
19291.0	6.090683809704622e+17
19292.0	6.090446561695059e+17
19293.0	6.089234167365631e+17
19294.0	6.088031625456297e+17
19295.0	6.086884711901866e+17
19296.0	6.085668517533012e+17
19297.0	6.084390650118143e+17
19298.0	6.083191864907092e+17
19299.0	6.082106825026218e+17
19300.0	6.080910971633663e+17
19301.0	6.079691497319082e+17
19302.0	6.078488388479657e+17
19303.0	6.076983388318377e+17
19304.0	6.075938344621396e+17
19305.0	6.074849988444159e+17
19306.0	6.073672218094249e+17
19307.0	6.072300866633727e+17
19308.0	6.071194235174911e+17
19309.0	6.069544921595903e+17
19310.0	6.068061802419539e+17
19311.0	6.067519659267412e+17
19312.0	6.066406788781395e+17
19313.0	6.065142080995328e+17
19314.0	6.051106405395082e+17
19315.0	6.051159342404979e+17
19316.0	6.061599889205929e+17
19317.0	6.060364451370324e+17
19318.0	6.059132488515583e+17
19319.0	6.05797088371234e+17
19320.0	6.056090445807615e+17
19321.0	6.054618317105833e+17
19322.0	6.053011303781716e+17
19323.0	6.05187612798703e+17
19324.0	6.050904563602772e+17
19325.0	6.049214303830015e+17
19326.0	6.048439334163795e+17
19327.0	6.047145025776297e+17
19328.0	6.045971058961065e+17
19329.0	6.0447234471581e+17
19330.0	6.0433154179072e+17
19331.0	6.042059753739604e+17
19332.0	6.040953152339967e+17
19333.0	6.039638203083434e+17
19334.0	6.038384632572584e+17
19335.0	6.037157721757012e+17
19336.0	6.035881324445695e+17
19337.0	6.034596540623529e+17
19338.0	6.032573411098623e+17
19339.0	6.032039016224084e+17
19340.0	6.030439153489238e+17
19341.0	6.029437009832618e+17
19342.0	6.026711470702588e+17
19343.0	6.026871293957459e+17
19344.0	6.02550805008657e+17
19345.0	6.016199437582314e+17
19346.0	6.021057563590661e+17
19347.0	6.021373105973929e+17
19348.0	6.020285550908756e+17
19349.0	6.018818486829055e+17
19350.0	6.017509702500351e+17
19351.0	6.016103299940351e+17
19352.0	6.014643032730281e+17
19353.0	6.013557325955071e+17
19354.0	6.012186238735699e+17
19355.0	6.010444179308545e+17
19356.0	6.009418351116287e+17
19357.0	6.008009341796351e+17
19358.0	6.006501838334633e+17
19359.0	6.004420953942698e+17
19360.0	6.003632263309993e+17
19361.0	6.002176127489364e+17
19362.0	5.99988090577442e+17
19363.0	5.998267271042388e+17
19364.0	5.996781257097215e+17
19365.0	5.99529327113011e+17
19366.0	5.993815565402112e+17
19367.0	5.992305768355156e+17
19368.0	5.990788887827796e+17
19369.0	5.988904330417492e+17
19370.0	5.986001446327635e+17
19371.0	5.985929860743168e+17
19372.0	5.984549507607209e+17
19373.0	5.982844447533737e+17
19374.0	5.981295957333332e+17
19375.0	5.979667806814207e+17
19376.0	5.978009544687615e+17
19377.0	5.975607055745023e+17
19378.0	5.973090980855805e+17
19379.0	5.971351540771497e+17
19380.0	5.969597513596927e+17
19381.0	5.967785114293588e+17
19382.0	5.965665676558336e+17
19383.0	5.963757345832957e+17
19384.0	5.962272216186879e+17
19385.0	5.960350305703252e+17
19386.0	5.956949480133971e+17
19387.0	5.954542675252563e+17
19388.0	5.952498549041834e+17
19389.0	5.950438211147092e+17
19390.0	5.948320509853695e+17
19391.0	5.929728961675238e+17
19392.0	5.941634913009663e+17
19393.0	5.939381659500544e+17
19394.0	5.93702007410961e+17
19395.0	5.934605283972436e+17
19396.0	5.929767995965437e+17
19397.0	5.926954772114089e+17
19398.0	5.924117690362538e+17
19399.0	5.916657009207972e+17
19400.0	5.915165294504618e+17
19401.0	5.912157638797993e+17
19402.0	5.905775684397738e+17
19403.0	5.902563071229951e+17
19404.0	5.895622306911578e+17
19405.0	5.891478996560554e+17
19406.0	5.885841639473151e+17
19407.0	5.882178373506388e+17
19408.0	5.875725654207153e+17
19409.0	5.874144956645376e+17
19410.0	5.870151404617727e+17
19411.0	5.865799138934783e+17
19412.0	5.861255185170432e+17
19413.0	5.856563326965076e+17
19414.0	5.851511517784746e+17
19415.0	5.846437692003668e+17
19416.0	5.839884650545151e+17
19417.0	5.834571862682282e+17
19418.0	5.828952172702377e+17
19419.0	5.822773593811626e+17
19420.0	5.816406055234217e+17
19421.0	5.809127334871039e+17
19422.0	5.801359176280745e+17
19423.0	5.7940020049565e+17
19424.0	5.785474770315946e+17
19425.0	5.77641601180194e+17
19426.0	5.766556428533761e+17
19427.0	5.7560300711662925e+17
19428.0	5.744150351009108e+17
19429.0	5.730968012150097e+17
19430.0	5.7152842155513216e+17
19431.0	5.6935127739706144e+17
19432.0	5.673744466968574e+17
19433.0	5.644185693235884e+17
19434.0	5.617656407261183e+17
19435.0	5.597725568882003e+17
19436.0	5.5752687731343334e+17
19437.0	5.553347973786281e+17
19438.0	5.50566947961787e+17
19439.0	5.5005702573260826e+17
19440.0	5.4696800374401696e+17
19441.0	5.4331689909179725e+17
19442.0	5.3864119944260326e+17
19443.0	5.3182975649163866e+17
19444.0	5.2509893141899923e+17
19445.0	5.187147975884801e+17
19446.0	5.109266021089278e+17
19447.0	4.997156758880252e+17
19448.0	4.8592300735638266e+17
19449.0	4.660860953122128e+17
19450.0	4.2702187674992506e+17
19451.0	4.1526670903650854e+17
19452.0	4.482553389339999e+17
19453.0	4.7753864748728365e+17
19454.0	4.925709573160953e+17
19455.0	5.0544262974013414e+17
19456.0	5.142806056140802e+17
19457.0	5.210377767878652e+17
19458.0	5.24809539053162e+17
19459.0	5.341866834788354e+17
19460.0	5.395171982879403e+17
19461.0	5.433732561371133e+17
19462.0	5.464802859504982e+17
19463.0	5.4918829247037414e+17
19464.0	5.515738346072747e+17
19465.0	5.538059914663254e+17
19466.0	5.5575089512447974e+17
19467.0	5.576339339171156e+17
19468.0	5.59542065133432e+17
19469.0	5.6219035573944224e+17
19470.0	5.6474186012426336e+17
19471.0	5.6662677719613414e+17
19472.0	5.6804794985786003e+17
19473.0	5.6925249979023334e+17
19474.0	5.702963564991829e+17
19475.0	5.708646667255802e+17
19476.0	5.7199835130538643e+17
19477.0	5.726492406666579e+17
19478.0	5.7338175838399136e+17
19479.0	5.73922878824994e+17
19480.0	5.7442101184430074e+17
19481.0	5.749995504402431e+17
19482.0	5.754381495784788e+17
19483.0	5.758550509529769e+17
19484.0	5.7622688474071034e+17
19485.0	5.765632886134099e+17
19486.0	5.769224577002154e+17
19487.0	5.772752456428201e+17
19488.0	5.775606783759699e+17
19489.0	5.778154700406783e+17
19490.0	5.775599640160929e+17
19491.0	5.782664691493546e+17
19492.0	5.784851112962729e+17
19493.0	5.786709340629673e+17
19494.0	5.78840797712657e+17
19495.0	5.78988359828548e+17
19496.0	5.79082989688149e+17
19497.0	5.794808717115391e+17
19498.0	5.797261148334764e+17
19499.0	5.77442863662145e+17
19500.0	5.802741942539601e+17
19501.0	5.806104330108927e+17
19502.0	5.806731427490473e+17
19503.0	5.809032233222144e+17
19504.0	5.810735721829716e+17
19505.0	5.811425393333587e+17
19506.0	5.812334002612906e+17
19507.0	5.814477056376831e+17
19508.0	5.814716901359615e+17
19509.0	5.814788592500736e+17
19510.0	5.814141642080253e+17
19511.0	5.788810793888397e+17
19512.0	5.813871017197551e+17
19513.0	5.808198019011908e+17
19514.0	5.811692256624634e+17
19515.0	5.814483333851827e+17
19516.0	5.816161179882836e+17
19517.0	5.816915633810089e+17
19518.0	5.817358365665961e+17
19519.0	5.816986207169194e+17
19520.0	5.816499460287146e+17
19521.0	5.816208488835754e+17
19522.0	5.815619545639593e+17
19523.0	5.81531065262626e+17
19524.0	5.814814853737129e+17
19525.0	5.814182993723391e+17
19526.0	5.813967483393364e+17
19527.0	5.814575310744234e+17
19528.0	5.814010804961279e+17
19529.0	5.813400029014698e+17
19530.0	5.812810613260287e+17
19531.0	5.812199819138388e+17
19532.0	5.811541539203753e+17
19533.0	5.810885198435668e+17
19534.0	5.810206286020607e+17
19535.0	5.809425038879401e+17
19536.0	5.808659228175017e+17
19537.0	5.808070085749418e+17
19538.0	5.807227625537536e+17
19539.0	5.804405623706977e+17
19540.0	5.805737878661802e+17
19541.0	5.805074279650644e+17
19542.0	5.804271228420096e+17
19543.0	5.803479111740074e+17
19544.0	5.802696390301012e+17
19545.0	5.801216497942519e+17
19546.0	5.798557913885356e+17
19547.0	5.801352633166506e+17
19548.0	5.80053195886865e+17
19549.0	5.799304929913512e+17
19550.0	5.798842395350356e+17
19551.0	5.79799683834402e+17
19552.0	5.797125551379798e+17
19553.0	5.79619748122897e+17
19554.0	5.795223640036692e+17
19555.0	5.794455890165759e+17
19556.0	5.793618189090815e+17
19557.0	5.792722231929513e+17
19558.0	5.791824316028243e+17
19559.0	5.790879127524692e+17
19560.0	5.789929993579177e+17
19561.0	5.789014095298559e+17
19562.0	5.788175848265043e+17
19563.0	5.787280388128767e+17
19564.0	5.786356855515817e+17
19565.0	5.785421529219071e+17
19566.0	5.784389488563539e+17
19567.0	5.783568018746026e+17
19568.0	5.782529008555348e+17
19569.0	5.781604578361343e+17
19570.0	5.780741603109546e+17
19571.0	5.77979802451968e+17
19572.0	5.778707342600874e+17
19573.0	5.777847473231188e+17
19574.0	5.776565849817085e+17
19575.0	5.775961784057855e+17
19576.0	5.775002150371327e+17
19577.0	5.77383608492578e+17
19578.0	5.772928845785769e+17
19579.0	5.77200884547584e+17
19580.0	5.77105978073634e+17
19581.0	5.770107416477695e+17
19582.0	5.769202728872617e+17
19583.0	5.768222059353428e+17
19584.0	5.767237698147668e+17
19585.0	5.765838404932948e+17
19586.0	5.764753766307158e+17
19587.0	5.764168003092479e+17
19588.0	5.761570817354412e+17
19589.0	5.762221464354816e+17
19590.0	5.7609868423113363e+17
19591.0	5.760307602740564e+17
19592.0	5.7593328744529914e+17
19593.0	5.7582702419421856e+17
19594.0	5.756402093348179e+17
19595.0	5.7562668473166496e+17
19596.0	5.753032887937707e+17
19597.0	5.7542921647991456e+17
19598.0	5.752146298754387e+17
19599.0	5.7523212117169485e+17
19600.0	5.751347445323091e+17
19601.0	5.750102070482262e+17
19602.0	5.749194764932436e+17
19603.0	5.74663811224917e+17
19604.0	5.7471682876538874e+17
19605.0	5.745187970788012e+17
19606.0	5.7452708970714445e+17
19607.0	5.7442781178975565e+17
19608.0	5.743233485941417e+17
19609.0	5.742059537301503e+17
19610.0	5.741267943511381e+17
19611.0	5.7402133556756474e+17
19612.0	5.7392503273990816e+17
19613.0	5.738187508940799e+17
19614.0	5.737068839829502e+17
19615.0	5.736198293159934e+17
19616.0	5.735044502345045e+17
19617.0	5.7341554636881914e+17
19618.0	5.731298350639785e+17
19619.0	5.7295190318120896e+17
19620.0	5.728714743960913e+17
19621.0	5.730057782471338e+17
19622.0	5.729073153529172e+17
19623.0	5.728062740103167e+17
19624.0	5.7270044549884576e+17
19625.0	5.7260192877772794e+17
19626.0	5.7249560603743565e+17
19627.0	5.723975831956138e+17
19628.0	5.722557239350614e+17
19629.0	5.7216005332882765e+17
19630.0	5.7207387422283085e+17
19631.0	5.703514826560841e+17
19632.0	5.718834977701887e+17
19633.0	5.7176608438135456e+17
19634.0	5.7168117034734925e+17
19635.0	5.715645761060862e+17
19636.0	5.714724826819242e+17
19637.0	5.71234809929182e+17
19638.0	5.712666335816362e+17
19639.0	5.7116539210082976e+17
19640.0	5.710444164197035e+17
19641.0	5.706895116118709e+17
19642.0	5.708574121175722e+17
19643.0	5.7074951581422925e+17
19644.0	5.706336803225599e+17
19645.0	5.7045492775430803e+17
19646.0	5.7045083257569274e+17
19647.0	5.703487883750057e+17
19648.0	5.7024418963346765e+17
19649.0	5.7014051615539194e+17
19650.0	5.700402742471337e+17
19651.0	5.6993505810404685e+17
19652.0	5.6983150723945805e+17
19653.0	5.6973108238964045e+17
19654.0	5.6962557614052685e+17
19655.0	5.695290663938729e+17
19656.0	5.694979439591423e+17
19657.0	5.6939482965169485e+17
19658.0	5.6929431413500576e+17
19659.0	5.6919075299437216e+17
19660.0	5.6909010207156896e+17
19661.0	5.689855921793705e+17
19662.0	5.688843124604926e+17
19663.0	5.68764411290146e+17
