# Flux units: erg / (cm m2 s)
# Wavelength units: Angstrom
wave	flux
19000.0	5.5428530520282445e+17
19001.0	5.541818558403923e+17
19002.0	5.54081207713792e+17
19003.0	5.539791521884842e+17
19004.0	5.5387711553754445e+17
19005.0	5.5377515312578554e+17
19006.0	5.536731674356394e+17
19007.0	5.5357119202153805e+17
19008.0	5.534684020036947e+17
19009.0	5.5336610229998925e+17
19010.0	5.5325812218047136e+17
19011.0	5.531630084379989e+17
19012.0	5.530595813752831e+17
19013.0	5.5295977909998925e+17
19014.0	5.5285794524364794e+17
19015.0	5.5275592516020896e+17
19016.0	5.52653355553041e+17
19017.0	5.5255248568756896e+17
19018.0	5.524507178216106e+17
19019.0	5.523490182529024e+17
19020.0	5.522472759022932e+17
19021.0	5.521455671061162e+17
19022.0	5.520438867613013e+17
19023.0	5.5194219935607456e+17
19024.0	5.5184035885875194e+17
19025.0	5.517388739685034e+17
19026.0	5.51636839764241e+17
19027.0	5.5153457319553696e+17
19028.0	5.514341124145151e+17
19029.0	5.5133254944030714e+17
19030.0	5.512310191816703e+17
19031.0	5.51129493746483e+17
19032.0	5.5102798068449274e+17
19033.0	5.5092520555642874e+17
19034.0	5.508249562382336e+17
19035.0	5.5072300193546234e+17
19036.0	5.505419470438398e+17
19037.0	5.505203205832704e+17
19038.0	5.504193030083924e+17
19039.0	5.5031798994479776e+17
19040.0	5.5021666108265805e+17
19041.0	5.50115340329506e+17
19042.0	5.50010784719394e+17
19043.0	5.4991275292972365e+17
19044.0	5.498114537073322e+17
19045.0	5.4971022599782394e+17
19046.0	5.4960824610979834e+17
19047.0	5.495075427581951e+17
19048.0	5.494034483118079e+17
19049.0	5.4930038950898336e+17
19050.0	5.4920356386133325e+17
19051.0	5.49091719459635e+17
19052.0	5.4900006441014605e+17
19053.0	5.4890091309083296e+17
19054.0	5.4879808106004474e+17
19055.0	5.486908197044223e+17
19056.0	5.4859374841036794e+17
19057.0	5.484929513160702e+17
19058.0	5.483897403998207e+17
19059.0	5.4829013204118176e+17
19060.0	5.4818973137851725e+17
19061.0	5.480891220492288e+17
19062.0	5.479881441804287e+17
19063.0	5.4788727892869114e+17
19064.0	5.4778490834124794e+17
19065.0	5.4768323442769914e+17
19066.0	5.4758320132587514e+17
19067.0	5.474839737401343e+17
19068.0	5.4738319034722976e+17
19069.0	5.4728243946018125e+17
19070.0	5.471815644217342e+17
19071.0	5.470809726386175e+17
19072.0	5.4697943524966394e+17
19073.0	5.4687951455518714e+17
19074.0	5.4677892067491834e+17
19075.0	5.466782852710399e+17
19076.0	5.465773680798377e+17
19077.0	5.4647681642222925e+17
19078.0	5.4637604917739514e+17
19079.0	5.462759154122751e+17
19080.0	5.4617531978437965e+17
19081.0	5.4607433177934496e+17
19082.0	5.4597376068812794e+17
19083.0	5.458728233642666e+17
19084.0	5.45770508001826e+17
19085.0	5.456729506578431e+17
19086.0	5.4556616081189536e+17
19087.0	5.454681297212756e+17
19088.0	5.4536915484235085e+17
19089.0	5.4526784506429434e+17
19090.0	5.4517055238089376e+17
19091.0	5.450698230945109e+17
19092.0	5.449673748425385e+17
19093.0	5.448697682853888e+17
19094.0	5.447695286839977e+17
19095.0	5.446692975411199e+17
19096.0	5.4456885878019405e+17
19097.0	5.4446886664273914e+17
19098.0	5.4436781201817594e+17
19099.0	5.442674941231104e+17
19100.0	5.44168222986513e+17
19101.0	5.4406829676953594e+17
19102.0	5.4396650513585485e+17
19103.0	5.4386818596645536e+17
19104.0	5.4376814223906125e+17
19105.0	5.436661062172671e+17
19106.0	5.4356777020074656e+17
19107.0	5.434673893911209e+17
19108.0	5.4336732671945376e+17
19109.0	5.432635352416255e+17
19110.0	5.431679388745726e+17
19111.0	5.430677918973951e+17
19112.0	5.4296781276228256e+17
19113.0	5.4286863886363296e+17
19114.0	5.42768403386641e+17
19115.0	5.426684298439338e+17
19116.0	5.4256914954977274e+17
19117.0	5.424690859693396e+17
19118.0	5.423679690593621e+17
19119.0	5.4214703940894694e+17
19120.0	5.4216931731483296e+17
19121.0	5.420699555113641e+17
19122.0	5.419707928674303e+17
19123.0	5.4187114641053005e+17
19124.0	5.4177150750337696e+17
19125.0	5.416718595085652e+17
19126.0	5.4157201543004154e+17
19127.0	5.414470025216e+17
19128.0	5.413728162589354e+17
19129.0	5.412724957074772e+17
19130.0	5.4117406580845216e+17
19131.0	5.410746026426368e+17
19132.0	5.4097510613210445e+17
19133.0	5.408754162641579e+17
19134.0	5.407762970312703e+17
19135.0	5.4067687203362125e+17
19136.0	5.4057747632619514e+17
19137.0	5.4047582771828045e+17
19138.0	5.403785518820009e+17
19139.0	5.4027943229958816e+17
19140.0	5.4018014802083834e+17
19141.0	5.400808687752531e+17
19142.0	5.3998156855814816e+17
19143.0	5.3988154685085e+17
19144.0	5.397829686132735e+17
19145.0	5.396839092890281e+17
19146.0	5.395761571998377e+17
19147.0	5.3948431599315616e+17
19148.0	5.39385650164531e+17
19149.0	5.392864228584105e+17
19150.0	5.391880648217941e+17
19151.0	5.390890808552105e+17
19152.0	5.3899001174425594e+17
19153.0	5.3888948616123725e+17
19154.0	5.387900218070357e+17
19155.0	5.386929006007636e+17
19156.0	5.3859388147193165e+17
19157.0	5.3849422299136e+17
19158.0	5.3839194251154765e+17
19159.0	5.382967067847338e+17
19160.0	5.3819808737307296e+17
19161.0	5.380991756883283e+17
19162.0	5.3799304728412154e+17
19163.0	5.3790107528506016e+17
19164.0	5.378027086501204e+17
19165.0	5.377021458776064e+17
19166.0	5.3760311318719123e+17
19167.0	5.375056911095123e+17
19168.0	5.374075595653119e+17
19169.0	5.3730871205341856e+17
19170.0	5.372101871534079e+17
19171.0	5.371110721148244e+17
19172.0	5.370128240388777e+17
19173.0	5.3691419868528634e+17
19174.0	5.368147529258325e+17
19175.0	5.3671698118301005e+17
19176.0	5.366183995899903e+17
19177.0	5.3651767135218336e+17
19178.0	5.364210002646356e+17
19179.0	5.3632210969122125e+17
19180.0	5.3622413976753485e+17
19181.0	5.3612358447486285e+17
19182.0	5.360270127224149e+17
19183.0	5.359287840101715e+17
19184.0	5.358302953209855e+17
19185.0	5.3573184710683296e+17
19186.0	5.356334936839508e+17
19187.0	5.3553506427426125e+17
19188.0	5.354367210575188e+17
19189.0	5.353384623560021e+17
19190.0	5.352400962103978e+17
19191.0	5.351417299249834e+17
19192.0	5.3504352574941856e+17
19193.0	5.3494503768937805e+17
19194.0	5.348466549063679e+17
19195.0	5.347486842137257e+17
19196.0	5.3465025780995405e+17
19197.0	5.345519326986239e+17
19198.0	5.344530577140394e+17
19199.0	5.343099419798185e+17
19200.0	5.3422447821236896e+17
19201.0	5.3415878639397536e+17
19202.0	5.34061379625506e+17
19203.0	5.3396346590549325e+17
19204.0	5.3386507990685005e+17
19205.0	5.337674341329578e+17
19206.0	5.336692545639765e+17
19207.0	5.335704171184126e+17
19208.0	5.3346987769419085e+17
19209.0	5.333754780319743e+17
19210.0	5.332775299885738e+17
19211.0	5.3317958676862285e+17
19212.0	5.330816569704447e+17
19213.0	5.3298239275444896e+17
19214.0	5.328840215756799e+17
19215.0	5.327877840393556e+17
19216.0	5.3269009967786656e+17
19217.0	5.325921698097834e+17
19218.0	5.324831459377151e+17
19219.0	5.323945586021717e+17
19220.0	5.3229883284084045e+17
19221.0	5.3219668762733216e+17
19222.0	5.321031426244607e+17
19223.0	5.32005557248546e+17
19224.0	5.3190785974490445e+17
19225.0	5.318082410403157e+17
19226.0	5.3171248871505914e+17
19227.0	5.3161485783094605e+17
19228.0	5.3151720450730656e+17
19229.0	5.314195484573694e+17
19230.0	5.3132187059705165e+17
19231.0	5.312243275836073e+17
19232.0	5.311266161688575e+17
19233.0	5.3102819158261754e+17
19234.0	5.3093124611768314e+17
19235.0	5.3083402271020365e+17
19236.0	5.3073646788280314e+17
19237.0	5.306387350071978e+17
19238.0	5.3054010315243514e+17
19239.0	5.304439859926356e+17
19240.0	5.303464295574185e+17
19241.0	5.302490215306581e+17
19242.0	5.301515980548778e+17
19243.0	5.300521019637759e+17
19244.0	5.2995675236160845e+17
19245.0	5.298593387424426e+17
19246.0	5.29761735540736e+17
19247.0	5.296645532374356e+17
19248.0	5.295672001560574e+17
19249.0	5.294698187631274e+17
19250.0	5.2936942655897594e+17
19251.0	5.292705127071743e+17
19252.0	5.291710301077503e+17
19253.0	5.2907739157189965e+17
19254.0	5.2898027861442554e+17
19255.0	5.288804351650474e+17
19256.0	5.2878350095482874e+17
19257.0	5.2868269498258765e+17
19258.0	5.285854376012457e+17
19259.0	5.284872191650474e+17
19260.0	5.2838919723199136e+17
19261.0	5.2829375584447136e+17
19262.0	5.281965403362644e+17
19263.0	5.2809872469306016e+17
19264.0	5.279943481098239e+17
19265.0	5.279019232657407e+17
19266.0	5.278033767650645e+17
19267.0	5.277106557332139e+17
19268.0	5.276135126466559e+17
19269.0	5.275163633385472e+17
19270.0	5.274191228043262e+17
19271.0	5.273171320111102e+17
19272.0	5.272244366344191e+17
19273.0	5.271225274204159e+17
19274.0	5.2702442635482445e+17
19275.0	5.2693361058556576e+17
19276.0	5.268365226541056e+17
19277.0	5.267394257747967e+17
19278.0	5.266423288954879e+17
19279.0	5.265452030754815e+17
19280.0	5.264470448275455e+17
19281.0	5.2635098848515405e+17
19282.0	5.2625392760695456e+17
19283.0	5.2615627008901114e+17
19284.0	5.2605953699566925e+17
19285.0	5.2596061216877216e+17
19286.0	5.2586551611228154e+17
19287.0	5.2576837910746445e+17
19288.0	5.2565029302217363e+17
19289.0	5.255200755417087e+17
19290.0	5.2547710608561485e+17
19291.0	5.2537671409117856e+17
19292.0	5.2528308205649914e+17
19293.0	5.251858996133887e+17
19294.0	5.250888945893375e+17
19295.0	5.2499178764369914e+17
19296.0	5.248937166372864e+17
19297.0	5.247973323702272e+17
19298.0	5.247004080166228e+17
19299.0	5.246021564454228e+17
19300.0	5.245060498412885e+17
19301.0	5.2440882839115085e+17
19302.0	5.2431154011176954e+17
19303.0	5.2421344086370976e+17
19304.0	5.2411685764683085e+17
19305.0	5.2402006436522656e+17
19306.0	5.239228550086655e+17
19307.0	5.238252663472126e+17
19308.0	5.237282551715156e+17
19309.0	5.236292850461354e+17
19310.0	5.235311934876329e+17
19311.0	5.234355797142185e+17
19312.0	5.2333893267401376e+17
19313.0	5.2324137616889165e+17
19314.0	5.229856549066068e+17
19315.0	5.229031653201239e+17
19316.0	5.229426630808915e+17
19317.0	5.228438348627966e+17
19318.0	5.227463284796073e+17
19319.0	5.2264879294600525e+17
19320.0	5.2255077422858234e+17
19321.0	5.2245267246394016e+17
19322.0	5.223547778979157e+17
19323.0	5.2225744285204474e+17
19324.0	5.2216022797298336e+17
19325.0	5.2206096899986765e+17
19326.0	5.2196451874242554e+17
19327.0	5.2186643899787936e+17
19328.0	5.2176691075044685e+17
19329.0	5.216706588835839e+17
19330.0	5.215720080845481e+17
19331.0	5.214736972338517e+17
19332.0	5.213761086423039e+17
19333.0	5.212778242157226e+17
19334.0	5.211793638380885e+17
19335.0	5.210773847889236e+17
19336.0	5.209823252927828e+17
19337.0	5.2088368092501325e+17
19338.0	5.207820730717524e+17
19339.0	5.206841736123732e+17
19340.0	5.205740094488575e+17
19341.0	5.204756393186645e+17
19342.0	5.2037323468745376e+17
19343.0	5.202793300929194e+17
19344.0	5.2017861786337274e+17
19345.0	5.2004956702856525e+17
19346.0	5.199686589743102e+17
19347.0	5.1987853813131936e+17
19348.0	5.197813486277972e+17
19349.0	5.196813483114496e+17
19350.0	5.195805153558526e+17
19351.0	5.1947513682329594e+17
19352.0	5.193716811694079e+17
19353.0	5.1926695254425594e+17
19354.0	5.19165452694323e+17
19355.0	5.190631575344468e+17
19356.0	5.189630453000874e+17
19357.0	5.1886158019297274e+17
19358.0	5.1875981980685645e+17
19359.0	5.186570386669566e+17
19360.0	5.1855381712513696e+17
19361.0	5.1845260710161056e+17
19362.0	5.1835038911692794e+17
19363.0	5.182473274479957e+17
19364.0	5.1814394281765536e+17
19365.0	5.180402341773311e+17
19366.0	5.179361864275283e+17
19367.0	5.178317923680255e+17
19368.0	5.1772702536499194e+17
19369.0	5.176213599420415e+17
19370.0	5.175158429974527e+17
19371.0	5.17409743184418e+17
19372.0	5.173036945418922e+17
19373.0	5.1719668736109216e+17
19374.0	5.170891858116607e+17
19375.0	5.169810601497941e+17
19376.0	5.168682365878271e+17
19377.0	5.167521699201023e+17
19378.0	5.166423204691967e+17
19379.0	5.165317381335721e+17
19380.0	5.1642041683148794e+17
19381.0	5.1630833992553805e+17
19382.0	5.161943695010474e+17
19383.0	5.1608014588040525e+17
19384.0	5.159669347647487e+17
19385.0	5.158512889954304e+17
19386.0	5.1573467455160314e+17
19387.0	5.1561355353784314e+17
19388.0	5.1548066694212256e+17
19389.0	5.153604595176788e+17
19390.0	5.1523875241984e+17
19391.0	5.150420642387283e+17
19392.0	5.149901081367893e+17
19393.0	5.1486558470362445e+17
19394.0	5.1472488104372896e+17
19395.0	5.145821973927251e+17
19396.0	5.14450992083763e+17
19397.0	5.143176001443156e+17
19398.0	5.14181187047697e+17
19399.0	5.1399885806632934e+17
19400.0	5.13858503512337e+17
19401.0	5.1371357024638285e+17
19402.0	5.135431888797696e+17
19403.0	5.133689151990441e+17
19404.0	5.132155728429055e+17
19405.0	5.1300888711877965e+17
19406.0	5.128349071092394e+17
19407.0	5.126234776272894e+17
19408.0	5.12408535625455e+17
19409.0	5.1217234562908154e+17
19410.0	5.119577653160619e+17
19411.0	5.1171363445364045e+17
19412.0	5.1150743785526605e+17
19413.0	5.113070626013183e+17
19414.0	5.1109984350153363e+17
19415.0	5.108850371155285e+17
19416.0	5.106533846570325e+17
19417.0	5.103880051709268e+17
19418.0	5.101423076660564e+17
19419.0	5.098902172030292e+17
19420.0	5.0956922103616845e+17
19421.0	5.0928914023492256e+17
19422.0	5.089366124090707e+17
19423.0	5.0859702254305274e+17
19424.0	5.081500104698538e+17
19425.0	5.0768968868167674e+17
19426.0	5.0713222052140384e+17
19427.0	5.064628650377216e+17
19428.0	5.056128240407897e+17
19429.0	5.0456160828566214e+17
19430.0	5.0357396804293965e+17
19431.0	5.0294108322092365e+17
19432.0	5.02326240616994e+17
19433.0	5.01603062845713e+17
19434.0	5.0088256020152294e+17
19435.0	5.0002311200986445e+17
19436.0	4.990423957940907e+17
19437.0	4.978336976251561e+17
19438.0	4.9611563101498e+17
19439.0	4.938151388774412e+17
19440.0	4.897114900048575e+17
19441.0	4.863179204416851e+17
19442.0	4.8405008033163955e+17
19443.0	4.815709817973417e+17
19444.0	4.787658623199914e+17
19445.0	4.746506353508347e+17
19446.0	4.664556136344245e+17
19447.0	4.575144017483088e+17
19448.0	4.493427228016644e+17
19449.0	4.353344517352103e+17
19450.0	3.9811799332509696e+17
19451.0	3.769163634617055e+17
19452.0	4.211357889069054e+17
19453.0	4.435453423211864e+17
19454.0	4.5339960385645184e+17
19455.0	4.609286030229495e+17
19456.0	4.706175930422616e+17
19457.0	4.760228158854475e+17
19458.0	4.7859445887139923e+17
19459.0	4.814854649719466e+17
19460.0	4.8369198554589843e+17
19461.0	4.859868023706975e+17
19462.0	4.9016644336353376e+17
19463.0	4.930775015926437e+17
19464.0	4.948378091782148e+17
19465.0	4.960037811606869e+17
19466.0	4.968850899948886e+17
19467.0	4.975977586578772e+17
19468.0	4.9820115626448205e+17
19469.0	4.9873932776024736e+17
19470.0	4.992283292205055e+17
19471.0	4.996526381552981e+17
19472.0	5.0020539010034285e+17
19473.0	5.011741221410132e+17
19474.0	5.0187492644618234e+17
19475.0	5.0241979561628986e+17
19476.0	5.028688561875625e+17
19477.0	5.0320131573678074e+17
19478.0	5.0343845294680736e+17
19479.0	5.0362617384577696e+17
19480.0	5.038143821228714e+17
19481.0	5.039268583964672e+17
19482.0	5.040431304452777e+17
19483.0	5.0414151819154765e+17
19484.0	5.0420229638280525e+17
19485.0	5.042680316821503e+17
19486.0	5.043360035941033e+17
19487.0	5.043708644119894e+17
19488.0	5.043959025893374e+17
19489.0	5.0441132238875296e+17
19490.0	5.044007537213439e+17
19491.0	5.0446279915165005e+17
19492.0	5.045010379221675e+17
19493.0	5.045599981622613e+17
19494.0	5.0457323524587514e+17
19495.0	5.0461958929558176e+17
19496.0	5.0460095148632736e+17
19497.0	5.0461597632211616e+17
19498.0	5.04601602232593e+17
19499.0	5.044529974826323e+17
19500.0	5.045752301966677e+17
19501.0	5.045417269351764e+17
19502.0	5.0449857712401056e+17
19503.0	5.044726470279166e+17
19504.0	5.0444537496425805e+17
19505.0	5.0439403996883616e+17
19506.0	5.043405549731839e+17
19507.0	5.042848654513492e+17
19508.0	5.042421127708672e+17
19509.0	5.0419266912692896e+17
19510.0	5.0412868760589645e+17
19511.0	5.0381127659028454e+17
19512.0	5.0398812277746336e+17
19513.0	5.0390294345373e+17
19514.0	5.038501159152297e+17
19515.0	5.038089632918187e+17
19516.0	5.0375434611370656e+17
19517.0	5.036838978846719e+17
19518.0	5.0361401302056954e+17
19519.0	5.0354241750958074e+17
19520.0	5.03469035294993e+17
19521.0	5.0339715219456e+17
19522.0	5.033231249659219e+17
19523.0	5.0324819701050016e+17
19524.0	5.0317197042865485e+17
19525.0	5.030966519136255e+17
19526.0	5.030200816085674e+17
19527.0	5.029470706597887e+17
19528.0	5.028750078334293e+17
19529.0	5.027966332086954e+17
19530.0	5.027177564558676e+17
19531.0	5.0263840553697274e+17
19532.0	5.025586252611583e+17
19533.0	5.0247841716633594e+17
19534.0	5.023978164846591e+17
19535.0	5.02316833771793e+17
19536.0	5.0223537241893536e+17
19537.0	5.02153774960913e+17
19538.0	5.0206908182691834e+17
19539.0	5.0198102290377376e+17
19540.0	5.019067905037653e+17
19541.0	5.01823981171507e+17
19542.0	5.0174083224043514e+17
19543.0	5.016562262081535e+17
19544.0	5.0157370977812474e+17
19545.0	5.014829081296895e+17
19546.0	5.0139216625008634e+17
19547.0	5.0132146852986874e+17
19548.0	5.012370390078804e+17
19549.0	5.011510645140138e+17
19550.0	5.0106857436829e+17
19551.0	5.0098450905169914e+17
19552.0	5.0090384363793056e+17
19553.0	5.0081981481178445e+17
19554.0	5.007340508020735e+17
19555.0	5.006490367339179e+17
19556.0	5.0056327293392205e+17
19557.0	5.0047731640565754e+17
19558.0	5.003917436562089e+17
19559.0	5.0031085615404365e+17
19560.0	5.002241475870719e+17
19561.0	5.001382512470698e+17
19562.0	5.000513354115754e+17
19563.0	4.999652474617855e+17
19564.0	4.998785907643732e+17
19565.0	4.9979186479104e+17
19566.0	4.9970474189673805e+17
19567.0	4.996181288200875e+17
19568.0	4.9953749290625696e+17
19569.0	4.9945320578088954e+17
19570.0	4.993662378661204e+17
19571.0	4.992790510086826e+17
19572.0	4.9919178390022816e+17
19573.0	4.991042498243242e+17
19574.0	4.9901630114146976e+17
19575.0	4.989296981311487e+17
19576.0	4.988422231250262e+17
19577.0	4.9875460285617485e+17
19578.0	4.98666520514833e+17
19579.0	4.9857916966010874e+17
19580.0	4.9849153897540256e+17
19581.0	4.9840388396373325e+17
19582.0	4.9831639903109114e+17
19583.0	4.982286239924223e+17
19584.0	4.9814077653210445e+17
19585.0	4.980513715169963e+17
19586.0	4.979631088904874e+17
19587.0	4.978768349932202e+17
19588.0	4.977824323250858e+17
19589.0	4.977009799200768e+17
19590.0	4.976115496692394e+17
19591.0	4.975252573869396e+17
19592.0	4.974371842031615e+17
19593.0	4.9734919902986234e+17
19594.0	4.972576239517696e+17
19595.0	4.9717286937122125e+17
19596.0	4.9708406882522445e+17
19597.0	4.969967438353749e+17
19598.0	4.969013020983296e+17
19599.0	4.968204432572415e+17
19600.0	4.967322907312127e+17
19601.0	4.96643555266833e+17
19602.0	4.965577298804735e+17
19603.0	4.9646774961657165e+17
19604.0	4.963858294767616e+17
19605.0	4.962937935844693e+17
19606.0	4.962095976852138e+17
19607.0	4.961214098571262e+17
19608.0	4.9603309836697594e+17
19609.0	4.959445559803903e+17
19610.0	4.9585600604405754e+17
19611.0	4.9576736781762554e+17
19612.0	4.956801212612607e+17
19613.0	4.9559184898785274e+17
19614.0	4.9550303453074765e+17
19615.0	4.954152728439465e+17
19616.0	4.953257390637055e+17
19617.0	4.9523755570954234e+17
19618.0	4.951417854885887e+17
19619.0	4.9505114762772474e+17
19620.0	4.9496361467030176e+17
19621.0	4.948842975155541e+17
19622.0	4.947973456789504e+17
19623.0	4.947090882953215e+17
19624.0	4.946208214745087e+17
19625.0	4.945325529060693e+17
19626.0	4.9444427909474976e+17
19627.0	4.943559704707071e+17
19628.0	4.942665767103145e+17
19629.0	4.941749278823766e+17
19630.0	4.9408679555891194e+17
19631.0	4.9395290407785805e+17
19632.0	4.939142803401385e+17
19633.0	4.9382644902789114e+17
19634.0	4.9373833508945914e+17
19635.0	4.936499867593387e+17
19636.0	4.935605479101781e+17
19637.0	4.934679246056106e+17
19638.0	4.9338530863076685e+17
19639.0	4.9329740363857914e+17
19640.0	4.9320842728133965e+17
19641.0	4.93102064275729e+17
19642.0	4.930329005522943e+17
19643.0	4.92944765222912e+17
19644.0	4.928561111979349e+17
19645.0	4.927644362255017e+17
19646.0	4.9267884145595725e+17
19647.0	4.9259227528560634e+17
19648.0	4.9250419350350496e+17
19649.0	4.9241608536719354e+17
19650.0	4.9232803790847994e+17
19651.0	4.9223999422463994e+17
19652.0	4.9215192873041914e+17
19653.0	4.9206386554306554e+17
19654.0	4.9197585520394234e+17
19655.0	4.918877693673471e+17
