# Flux units: erg / (cm m2 s)
# Wavelength units: Angstrom
wave	flux
19000.0	8.209453325221885e+17
19001.0	8.207562436509693e+17
19002.0	8.206620018343935e+17
19003.0	8.205167086272511e+17
19004.0	8.203729400496127e+17
19005.0	8.202299026789718e+17
19006.0	8.200857865333417e+17
19007.0	8.199209580756992e+17
19008.0	8.19771545502788e+17
19009.0	8.19607363527202e+17
19010.0	8.193129481327955e+17
19011.0	8.193476690007379e+17
19012.0	8.19111461737813e+17
19013.0	8.190720403133782e+17
19014.0	8.18896849687893e+17
19015.0	8.187648872371542e+17
19016.0	8.186190198297942e+17
19017.0	8.184807369823572e+17
19018.0	8.183374318753106e+17
19019.0	8.181937589278036e+17
19020.0	8.180415716829864e+17
19021.0	8.179057137025021e+17
19022.0	8.177594401467049e+17
19023.0	8.175927752829608e+17
19024.0	8.174571944061609e+17
19025.0	8.173088523594409e+17
19026.0	8.171521795861164e+17
19027.0	8.169478834268842e+17
19028.0	8.168744933130237e+17
19029.0	8.16719292740403e+17
19030.0	8.165857888829439e+17
19031.0	8.164404466024445e+17
19032.0	8.162904978576723e+17
19033.0	8.16094724244548e+17
19034.0	8.159756588591785e+17
19035.0	8.15758493037363e+17
19036.0	8.106948575974728e+17
19037.0	8.155427770466301e+17
19038.0	8.155284118350505e+17
19039.0	8.153952165385556e+17
19040.0	8.152510130115923e+17
19041.0	8.150987150371497e+17
19042.0	8.149066215063551e+17
19043.0	8.148029527119186e+17
19044.0	8.146487612888403e+17
19045.0	8.145014837564755e+17
19046.0	8.143255659784873e+17
19047.0	8.141916252143616e+17
19048.0	8.139625928676691e+17
19049.0	8.138612941346131e+17
19050.0	8.137167456960511e+17
19051.0	8.127538449263264e+17
19052.0	8.132427619412649e+17
19053.0	8.132881794028886e+17
19054.0	8.131447281942527e+17
19055.0	8.128721405171031e+17
19056.0	8.128349849954986e+17
19057.0	8.126927701278717e+17
19058.0	8.125320053915647e+17
19059.0	8.123920680310098e+17
19060.0	8.122338334386857e+17
19061.0	8.121260670888617e+17
19062.0	8.119917737235795e+17
19063.0	8.118406100287488e+17
19064.0	8.116300133258582e+17
19065.0	8.114455397269501e+17
19066.0	8.113530031745705e+17
19067.0	8.112261366633811e+17
19068.0	8.110797423116285e+17
19069.0	8.109283525438121e+17
19070.0	8.107619775064744e+17
19071.0	8.106178731048957e+17
19072.0	8.104689192490323e+17
19073.0	8.10314334540049e+17
19074.0	8.10165690643251e+17
19075.0	8.100124502086995e+17
19076.0	8.09850533716514e+17
19077.0	8.09699475857954e+17
19078.0	8.095323982746963e+17
19079.0	8.093969339995475e+17
19080.0	8.0923679798941e+17
19081.0	8.090672658994515e+17
19082.0	8.089176353625428e+17
19083.0	8.087181219681617e+17
19084.0	8.085011204232532e+17
19085.0	8.084618115459753e+17
19086.0	8.080995517464575e+17
19087.0	8.080503837381972e+17
19088.0	8.079279204073471e+17
19089.0	8.076955853258752e+17
19090.0	8.076663535435775e+17
19091.0	8.075236164851028e+17
19092.0	8.073341666241194e+17
19093.0	8.072318072913917e+17
19094.0	8.070815520828073e+17
19095.0	8.069299457490943e+17
19096.0	8.06769316209186e+17
19097.0	8.066200895837524e+17
19098.0	8.064636844070227e+17
19099.0	8.063080589514068e+17
19100.0	8.06145872765474e+17
19101.0	8.059961129041919e+17
19102.0	8.05804625590135e+17
19103.0	8.056859249694034e+17
19104.0	8.055334025996968e+17
19105.0	8.053700366958592e+17
19106.0	8.05198351250227e+17
19107.0	8.05047981257523e+17
19108.0	8.04885782069248e+17
19109.0	8.043215368923814e+17
19110.0	8.04520002130193e+17
19111.0	8.04430574535748e+17
19112.0	8.042831648828073e+17
19113.0	8.041288743343446e+17
19114.0	8.039707858436093e+17
19115.0	8.037847300134228e+17
19116.0	8.03648050368785e+17
19117.0	8.03487856197632e+17
19118.0	8.03287871782912e+17
19119.0	8.020323449088666e+17
19120.0	8.029741295949139e+17
19121.0	8.028399384308392e+17
19122.0	8.027202991248723e+17
19123.0	8.025620525088767e+17
19124.0	8.023699422008658e+17
19125.0	8.022420828979199e+17
19126.0	8.020757551164073e+17
19127.0	8.011831129931772e+17
19128.0	8.016090065360211e+17
19129.0	8.01571542733073e+17
19130.0	8.0145176082077e+17
19131.0	8.012491946721279e+17
19132.0	8.009973261576873e+17
19133.0	8.00769952518417e+17
19134.0	8.006127827200681e+17
19135.0	8.005233698056873e+17
19136.0	8.003675308599978e+17
19137.0	8.001418823379625e+17
19138.0	8.000422785231528e+17
19139.0	7.998927787087187e+17
19140.0	7.997360746179242e+17
19141.0	7.995776005308416e+17
19142.0	7.994037136348502e+17
19143.0	7.992344264922451e+17
19144.0	7.990785611224404e+17
19145.0	7.989385310677672e+17
19146.0	7.984904555287898e+17
19147.0	7.985848616222719e+17
19148.0	7.98458361553442e+17
19149.0	7.982974487582036e+17
19150.0	7.981400549840211e+17
19151.0	7.979802708759891e+17
19152.0	7.978154572382207e+17
19153.0	7.976493488188076e+17
19154.0	7.974454660781395e+17
19155.0	7.973337152793258e+17
19156.0	7.971677338075136e+17
19157.0	7.969640756019199e+17
19158.0	7.966199083521364e+17
19159.0	7.966527121435305e+17
19160.0	7.965080655582548e+17
19161.0	7.963222598483967e+17
19162.0	7.955397837761197e+17
19163.0	7.959368136567464e+17
19164.0	7.958772774688084e+17
19165.0	7.957117864509439e+17
19166.0	7.955098400806225e+17
19167.0	7.953408616387924e+17
19168.0	7.952249751164244e+17
19169.0	7.950691189740884e+17
19170.0	7.949189814856361e+17
19171.0	7.947345270407165e+17
19172.0	7.945879320614227e+17
19173.0	7.944356296130557e+17
19174.0	7.942510217964202e+17
19175.0	7.941135459330728e+17
19176.0	7.939481326496424e+17
19177.0	7.937127839607464e+17
19178.0	7.93601899425519e+17
19179.0	7.934228064195923e+17
19180.0	7.932840903005527e+17
19181.0	7.930896694902781e+17
19182.0	7.929594102065833e+17
19183.0	7.928064064705876e+17
19184.0	7.926329314552488e+17
19185.0	7.924712726331391e+17
19186.0	7.92313488089634e+17
19187.0	7.921050745219752e+17
19188.0	7.919794970602153e+17
19189.0	7.91811000963345e+17
19190.0	7.916295467040765e+17
19191.0	7.912698303305046e+17
19192.0	7.911219871263402e+17
19193.0	7.909447579293014e+17
19194.0	7.907664693908819e+17
19195.0	7.905952847451476e+17
19196.0	7.903939838782122e+17
19197.0	7.901648055697407e+17
19198.0	7.89741559751202e+17
19199.0	7.858403844729505e+17
19200.0	7.86460891764054e+17
19201.0	7.892800548896765e+17
19202.0	7.893419686887424e+17
19203.0	7.892270514700288e+17
19204.0	7.890842568097791e+17
19205.0	7.889364260487167e+17
19206.0	7.88774689911603e+17
19207.0	7.885673545596928e+17
19208.0	7.883703054587219e+17
19209.0	7.882796289403561e+17
19210.0	7.881145903480832e+17
19211.0	7.87953178570479e+17
19212.0	7.877631134050985e+17
19213.0	7.87498384175923e+17
19214.0	7.873059524444157e+17
19215.0	7.8720836595002e+17
19216.0	7.870553911547222e+17
19217.0	7.868764972384255e+17
19218.0	7.863676079265103e+17
19219.0	7.864533501258408e+17
19220.0	7.861547854462979e+17
19221.0	7.858226833915903e+17
19222.0	7.857748117028864e+17
19223.0	7.856030508995926e+17
19224.0	7.854167870319273e+17
19225.0	7.852067230056445e+17
19226.0	7.850825426665471e+17
19227.0	7.849092681389395e+17
19228.0	7.847500722121386e+17
19229.0	7.845748371270314e+17
19230.0	7.843923502301181e+17
19231.0	7.842159836616018e+17
19232.0	7.840456107535017e+17
19233.0	7.838384291927379e+17
19234.0	7.836879571386367e+17
19235.0	7.835029805028692e+17
19236.0	7.833453535253844e+17
19237.0	7.831597316658515e+17
19238.0	7.828706736559442e+17
19239.0	7.825044877082624e+17
19240.0	7.823100547345068e+17
19241.0	7.821301400644266e+17
19242.0	7.819603321290751e+17
19243.0	7.817001335870803e+17
19244.0	7.816102174960297e+17
19245.0	7.814256024092672e+17
19246.0	7.812398598935892e+17
19247.0	7.810606276367699e+17
19248.0	7.80883626050628e+17
19249.0	7.806997307064317e+17
19250.0	7.805098292587178e+17
19251.0	7.802798369756497e+17
19252.0	7.800049962582016e+17
19253.0	7.797451157842598e+17
19254.0	7.79405076009233e+17
19255.0	7.791267105385126e+17
19256.0	7.790199586510164e+17
19257.0	7.788507057618943e+17
19258.0	7.786659280759464e+17
19259.0	7.784410357869225e+17
19260.0	7.781995125232978e+17
19261.0	7.780973533986815e+17
19262.0	7.778871389366953e+17
19263.0	7.776952064671743e+17
19264.0	7.772997667870034e+17
19265.0	7.77179341468467e+17
19266.0	7.7678945253021e+17
19267.0	7.766607479351978e+17
19268.0	7.764656681997651e+17
19269.0	7.762728287819092e+17
19270.0	7.760762191041875e+17
19271.0	7.757471267422209e+17
19272.0	7.756689341502804e+17
19273.0	7.749588713384613e+17
19274.0	7.7489107964177e+17
19275.0	7.750997807988735e+17
19276.0	7.748971478209875e+17
19277.0	7.746999144502612e+17
19278.0	7.745034022202025e+17
19279.0	7.742857548922879e+17
19280.0	7.740648860592809e+17
19281.0	7.738941619481258e+17
19282.0	7.736944447105705e+17
19283.0	7.734553710602921e+17
19284.0	7.732158502972073e+17
19285.0	7.730174056114858e+17
19286.0	7.728558029930493e+17
19287.0	7.726613156331517e+17
19288.0	7.710639304736754e+17
19289.0	7.690664422670286e+17
19290.0	7.719055617512787e+17
19291.0	7.715837853739694e+17
19292.0	7.715002222553769e+17
19293.0	7.712873153298432e+17
19294.0	7.710707971085651e+17
19295.0	7.708620026981033e+17
19296.0	7.706409779767977e+17
19297.0	7.704110500063914e+17
19298.0	7.70192582971665e+17
19299.0	7.699854639060308e+17
19300.0	7.69764520833843e+17
19301.0	7.695406404905642e+17
19302.0	7.693112495308797e+17
19303.0	7.690585072031059e+17
19304.0	7.68755351438404e+17
19305.0	7.684383374136659e+17
19306.0	7.682092511002621e+17
19307.0	7.679563809860264e+17
19308.0	7.6772659995607e+17
19309.0	7.673793121441105e+17
19310.0	7.670734735627603e+17
19311.0	7.670013294368083e+17
19312.0	7.668012972070228e+17
19313.0	7.665654000429736e+17
19314.0	7.638667628991827e+17
19315.0	7.636691212828708e+17
19316.0	7.65560811107123e+17
19317.0	7.653337671401471e+17
19318.0	7.650883357638655e+17
19319.0	7.648483168572756e+17
19320.0	7.645986612576255e+17
19321.0	7.643435484490408e+17
19322.0	7.640448362698067e+17
19323.0	7.637807585558527e+17
19324.0	7.634214143568558e+17
19325.0	7.628975606071296e+17
19326.0	7.627020856284499e+17
19327.0	7.624459555613353e+17
19328.0	7.621846223202986e+17
19329.0	7.61916327792913e+17
19330.0	7.616271699585705e+17
19331.0	7.611909392738986e+17
19332.0	7.606470498932051e+17
19333.0	7.603542495854591e+17
19334.0	7.600742813313704e+17
19335.0	7.597806192339625e+17
19336.0	7.594879541226153e+17
19337.0	7.588255060284758e+17
19338.0	7.582638927773693e+17
19339.0	7.580442038020777e+17
19340.0	7.577114632344915e+17
19341.0	7.574063297156436e+17
19342.0	7.564757596198222e+17
19343.0	7.561273228481875e+17
19344.0	7.557873417934164e+17
19345.0	7.547451482658118e+17
19346.0	7.544021618524148e+17
19347.0	7.539941367436627e+17
19348.0	7.536725533043369e+17
19349.0	7.533036733551956e+17
19350.0	7.526302459712849e+17
19351.0	7.521382234936659e+17
19352.0	7.517530544057e+17
19353.0	7.514114839893332e+17
19354.0	7.510315767955455e+17
19355.0	7.506068333308588e+17
19356.0	7.502586793951232e+17
19357.0	7.498653754545491e+17
19358.0	7.494609894637565e+17
19359.0	7.490405647340883e+17
19360.0	7.48641492786654e+17
19361.0	7.482295542524585e+17
19362.0	7.478249765819731e+17
19363.0	7.474049718419455e+17
19364.0	7.46979606222165e+17
19365.0	7.465469180466514e+17
19366.0	7.461131926197587e+17
19367.0	7.456720190876329e+17
19368.0	7.452269079429119e+17
19369.0	7.447444771394899e+17
19370.0	7.442630069714943e+17
19371.0	7.438223308838228e+17
19372.0	7.433729621011114e+17
19373.0	7.428861128780458e+17
19374.0	7.424079244733097e+17
19375.0	7.4191838670138e+17
19376.0	7.414235852177407e+17
19377.0	7.409175634116607e+17
19378.0	7.404112509403135e+17
19379.0	7.398629747370666e+17
19380.0	7.393437696742739e+17
19381.0	7.388157825777661e+17
19382.0	7.382551881231017e+17
19383.0	7.377098921126569e+17
19384.0	7.372031014906538e+17
19385.0	7.366520399899306e+17
19386.0	7.360830966333439e+17
19387.0	7.354988637803859e+17
19388.0	7.348837812622676e+17
19389.0	7.342300494910802e+17
19390.0	7.335993893279062e+17
19391.0	7.296001863144742e+17
19392.0	7.322335939220815e+17
19393.0	7.316968308036948e+17
19394.0	7.310074734531926e+17
19395.0	7.302280428650493e+17
19396.0	7.295328309652138e+17
19397.0	7.288287973255849e+17
19398.0	7.280873647549097e+17
19399.0	7.270212355926697e+17
19400.0	7.263595744897706e+17
19401.0	7.255866853381459e+17
19402.0	7.247557596020735e+17
19403.0	7.236649055769943e+17
19404.0	7.227676586672127e+17
19405.0	7.218510416226985e+17
19406.0	7.206662702803625e+17
19407.0	7.196495219174058e+17
19408.0	7.184208789940906e+17
19409.0	7.172688588745386e+17
19410.0	7.162430776584872e+17
19411.0	7.148512800844453e+17
19412.0	7.13595345104623e+17
19413.0	7.121166504995494e+17
19414.0	7.106595888562175e+17
19415.0	7.090976942194682e+17
19416.0	7.074352056325458e+17
19417.0	7.057332629056172e+17
19418.0	7.040634558174548e+17
19419.0	7.021505876940115e+17
19420.0	7.003687349474643e+17
19421.0	6.985055497530029e+17
19422.0	6.967379473640105e+17
19423.0	6.950433514498729e+17
19424.0	6.933079856425644e+17
19425.0	6.914919643480061e+17
19426.0	6.894597893870931e+17
19427.0	6.873827763377494e+17
19428.0	6.851752388547926e+17
19429.0	6.827369989231954e+17
19430.0	6.801762836370775e+17
19431.0	6.770729724936196e+17
19432.0	6.747392498641576e+17
19433.0	6.717805014198957e+17
19434.0	6.684909144550057e+17
19435.0	6.649813584751272e+17
19436.0	6.610339367310675e+17
19437.0	6.572632079422804e+17
19438.0	6.502746512774488e+17
19439.0	6.481612309004289e+17
19440.0	6.432559105135956e+17
19441.0	6.37810128471108e+17
19442.0	6.318152405221377e+17
19443.0	6.252424672400726e+17
19444.0	6.18011829958519e+17
19445.0	6.099917811133102e+17
19446.0	6.010645533163519e+17
19447.0	5.91039519295624e+17
19448.0	5.796492685432152e+17
19449.0	5.6644146459661645e+17
19450.0	5.4990925488018675e+17
19451.0	5.405155795140613e+17
19452.0	5.588026991662422e+17
19453.0	5.731152659393199e+17
19454.0	5.850895899514191e+17
19455.0	5.95517329515042e+17
19456.0	6.047295222404439e+17
19457.0	6.129379537758885e+17
19458.0	6.184285789399753e+17
19459.0	6.269050961963698e+17
19460.0	6.329676181362001e+17
19461.0	6.384528319490729e+17
19462.0	6.434020109844481e+17
19463.0	6.480474733368659e+17
19464.0	6.522858807929514e+17
19465.0	6.560880466591744e+17
19466.0	6.597112870819154e+17
19467.0	6.630994090131455e+17
19468.0	6.661820996299437e+17
19469.0	6.690169154087592e+17
19470.0	6.716383275166378e+17
19471.0	6.742027029621418e+17
19472.0	6.764915106075987e+17
19473.0	6.786663683806546e+17
19474.0	6.807456364975444e+17
19475.0	6.824249241108476e+17
19476.0	6.843716593516541e+17
19477.0	6.860479255281663e+17
19478.0	6.875460632488617e+17
19479.0	6.889863266347689e+17
19480.0	6.904159169850025e+17
19481.0	6.920546363113471e+17
19482.0	6.934189346302634e+17
19483.0	6.952903266096467e+17
19484.0	6.965315571286016e+17
19485.0	6.98228186161698e+17
19486.0	6.993396458236588e+17
19487.0	7.009037248539306e+17
19488.0	7.018869177363117e+17
19489.0	7.032753651100333e+17
19490.0	7.038266374444367e+17
19491.0	7.05375318625485e+17
19492.0	7.062310978497194e+17
19493.0	7.071506348288681e+17
19494.0	7.080597584696659e+17
19495.0	7.087504800874496e+17
19496.0	7.0954064585687e+17
19497.0	7.103417766554281e+17
19498.0	7.10514361220028e+17
19499.0	7.066894898386236e+17
19500.0	7.123525373176489e+17
19501.0	7.129106500026368e+17
19502.0	7.134183724591786e+17
19503.0	7.140731198111743e+17
19504.0	7.145402144216403e+17
19505.0	7.149832456110077e+17
19506.0	7.154119940767743e+17
19507.0	7.158519388176384e+17
19508.0	7.163260955175593e+17
19509.0	7.166963367979689e+17
19510.0	7.169828920666793e+17
19511.0	7.124936039246478e+17
19512.0	7.168370383607109e+17
19513.0	7.164531176374249e+17
19514.0	7.172782896272712e+17
19515.0	7.185686134259715e+17
19516.0	7.190550967659178e+17
19517.0	7.193234996461565e+17
19518.0	7.196101836799999e+17
19519.0	7.198659703734271e+17
19520.0	7.201086565777407e+17
19521.0	7.203665695036756e+17
19522.0	7.205908529195689e+17
19523.0	7.208516734768467e+17
19524.0	7.210975648284672e+17
19525.0	7.213134346103466e+17
19526.0	7.215333390330538e+17
19527.0	7.217387464032255e+17
19528.0	7.219416749397331e+17
19529.0	7.221361878848851e+17
19530.0	7.223286709267113e+17
19531.0	7.225155713499135e+17
19532.0	7.226927197366953e+17
19533.0	7.228665607749632e+17
19534.0	7.23029122490914e+17
19535.0	7.231779383541757e+17
19536.0	7.233231774547965e+17
19537.0	7.23483092005683e+17
19538.0	7.235809929330688e+17
19539.0	7.235739193791834e+17
19540.0	7.238797924936361e+17
19541.0	7.240227441606655e+17
19542.0	7.241491178411348e+17
19543.0	7.242631497820842e+17
19544.0	7.243762791088125e+17
19545.0	7.243053860039334e+17
19546.0	7.242718595339604e+17
19547.0	7.246878968818345e+17
19548.0	7.247853965541373e+17
19549.0	7.248314031756627e+17
19550.0	7.249609875958441e+17
19551.0	7.25045539311889e+17
19552.0	7.255281418021549e+17
19553.0	7.255882534486015e+17
19554.0	7.256463360305833e+17
19555.0	7.258555712623954e+17
19556.0	7.264832942942889e+17
19557.0	7.265298391848275e+17
19558.0	7.26572797526016e+17
19559.0	7.266134580876628e+17
19560.0	7.271764144947191e+17
19561.0	7.272600198359721e+17
19562.0	7.272937202297513e+17
19563.0	7.273185489715199e+17
19564.0	7.273357096867156e+17
19565.0	7.278338877248855e+17
19566.0	7.278358453463722e+17
19567.0	7.278531469901823e+17
19568.0	7.278398472716288e+17
19569.0	7.278439395142314e+17
19570.0	7.279515618596183e+17
19571.0	7.282390621050195e+17
19572.0	7.282096927495508e+17
19573.0	7.282057958217046e+17
19574.0	7.281524393814696e+17
19575.0	7.281760368153939e+17
19576.0	7.281517092929533e+17
19577.0	7.281425377482066e+17
19578.0	7.283909055567187e+17
19579.0	7.283614837724499e+17
19580.0	7.283282708966058e+17
19581.0	7.282996163903487e+17
19582.0	7.282693588211028e+17
19583.0	7.2823111431837e+17
19584.0	7.281878994255871e+17
19585.0	7.280973564258986e+17
19586.0	7.280386733593943e+17
19587.0	7.282323168253268e+17
19588.0	7.280642930070871e+17
19589.0	7.281862442134185e+17
19590.0	7.281152389808125e+17
19591.0	7.280965950199123e+17
19592.0	7.280477155797674e+17
19593.0	7.279842726772735e+17
19594.0	7.278258917037395e+17
19595.0	7.278675186330281e+17
19596.0	7.27503729590272e+17
19597.0	7.27754988252911e+17
19598.0	7.276861298049024e+17
19599.0	7.278085388894207e+17
19600.0	7.277482264756224e+17
19601.0	7.276537886452394e+17
19602.0	7.275885968577875e+17
19603.0	7.273327118778364e+17
19604.0	7.274420473167871e+17
19605.0	7.272765133772119e+17
19606.0	7.27341524390161e+17
19607.0	7.272710707085311e+17
19608.0	7.271941661873492e+17
19609.0	7.271020447312553e+17
19610.0	7.270514629629268e+17
19611.0	7.269715611921064e+17
19612.0	7.269011511312381e+17
19613.0	7.26827331101218e+17
19614.0	7.268361406775293e+17
19615.0	7.267732956031658e+17
19616.0	7.266565105210708e+17
19617.0	7.266074923892735e+17
19618.0	7.262901864409766e+17
19619.0	7.261495465345019e+17
19620.0	7.260873057195346e+17
19621.0	7.262663820880552e+17
19622.0	7.261880018709161e+17
19623.0	7.261025630595753e+17
19624.0	7.260093962431144e+17
19625.0	7.259244969590783e+17
19626.0	7.258268402799956e+17
19627.0	7.257304641219242e+17
19628.0	7.255304110604289e+17
19629.0	7.254531104571391e+17
19630.0	7.247205157044223e+17
19631.0	7.210754029649924e+17
19632.0	7.251584439637331e+17
19633.0	7.251367977200297e+17
19634.0	7.250871139521876e+17
19635.0	7.249783956351657e+17
19636.0	7.250309566955516e+17
19637.0	7.248075908535639e+17
19638.0	7.24905883808563e+17
19639.0	7.248057580825257e+17
19640.0	7.247137476356778e+17
19641.0	7.244337058414597e+17
19642.0	7.245814314653011e+17
19643.0	7.244789985924436e+17
19644.0	7.243551230394368e+17
19645.0	7.241747489532584e+17
19646.0	7.241834490582356e+17
19647.0	7.240842807519914e+17
19648.0	7.239947551506432e+17
19649.0	7.241989205874003e+17
19650.0	7.240991716496723e+17
19651.0	7.239928879863123e+17
19652.0	7.23887703789841e+17
19653.0	7.23785231630336e+17
19654.0	7.236771160347987e+17
19655.0	7.23569379184913e+17
19656.0	7.234686651378345e+17
19657.0	7.233620362832553e+17
19658.0	7.232587297368745e+17
19659.0	7.231514482485929e+17
19660.0	7.230462572014249e+17
19661.0	7.229362105483261e+17
19662.0	7.228299295413587e+17
19663.0	7.227635195882157e+17
19664.0	7.228512143758675e+17
19665.0	7.227625783863978e+17
19666.0	7.226731828084735e+17
