# Flux units: erg / (cm m2 s)
# Wavelength units: Angstrom
wave	flux
19000.0	7.281568674480127e+17
19001.0	7.280161514848253e+17
19002.0	7.278904646915411e+17
19003.0	7.277569936894633e+17
19004.0	7.276235755356157e+17
19005.0	7.274903004075347e+17
19006.0	7.273567694269097e+17
19007.0	7.272230312476671e+17
19008.0	7.270856318604628e+17
19009.0	7.269465937586858e+17
19010.0	7.267926723089748e+17
19011.0	7.26686004027938e+17
19012.0	7.265469116798291e+17
19013.0	7.264256178607444e+17
19014.0	7.262990699768489e+17
19015.0	7.26166785962803e+17
19016.0	7.260329409686185e+17
19017.0	7.259018979093161e+17
19018.0	7.257670338390697e+17
19019.0	7.256332570722304e+17
19020.0	7.254979995762687e+17
19021.0	7.253654109159423e+17
19022.0	7.252320387596288e+17
19023.0	7.250945012400127e+17
19024.0	7.249614004551679e+17
19025.0	7.248284296937471e+17
19026.0	7.246928444828329e+17
19027.0	7.245573804873044e+17
19028.0	7.244251901460479e+17
19029.0	7.242905873809408e+17
19030.0	7.241574404587519e+17
19031.0	7.240229584895997e+17
19032.0	7.238883993452543e+17
19033.0	7.237468642344957e+17
19034.0	7.236174861740713e+17
19035.0	7.234761704254122e+17
19036.0	7.231446807390888e+17
19037.0	7.232103368359935e+17
19038.0	7.230784440107007e+17
19039.0	7.229462705864701e+17
19040.0	7.228117986836479e+17
19041.0	7.226772048663892e+17
19042.0	7.22535021875473e+17
19043.0	7.224078540734463e+17
19044.0	7.222721981186047e+17
19045.0	7.221382232408063e+17
19046.0	7.220073018163199e+17
19047.0	7.218801733009408e+17
19048.0	7.217351783088127e+17
19049.0	7.216066593816573e+17
19050.0	7.214743753676116e+17
19051.0	7.213084668766889e+17
19052.0	7.21198658879488e+17
19053.0	7.210734505164799e+17
19054.0	7.209389949714432e+17
19055.0	7.20784826896657e+17
19056.0	7.206676503461888e+17
19057.0	7.205337699800404e+17
19058.0	7.203980945915904e+17
19059.0	7.202642756020905e+17
19060.0	7.2012828522141e+17
19061.0	7.199946046439424e+17
19062.0	7.198593081409536e+17
19063.0	7.197242368720893e+17
19064.0	7.195815237211476e+17
19065.0	7.194408678763178e+17
19066.0	7.193146815414271e+17
19067.0	7.191845616484351e+17
19068.0	7.190495579078655e+17
19069.0	7.189145516507135e+17
19070.0	7.187778307620864e+17
19071.0	7.186444615417855e+17
19072.0	7.185093999198207e+17
19073.0	7.183740660875263e+17
19074.0	7.182392766758911e+17
19075.0	7.181041701748735e+17
19076.0	7.179678898279764e+17
19077.0	7.178327609573373e+17
19078.0	7.176972042676906e+17
19079.0	7.175636467231402e+17
19080.0	7.174274836769449e+17
19081.0	7.172901546142378e+17
19082.0	7.171557948391423e+17
19083.0	7.170141949962922e+17
19084.0	7.168697568679251e+17
19085.0	7.167526814001833e+17
19086.0	7.165881594063529e+17
19087.0	7.164787233041066e+17
19088.0	7.163406668092755e+17
19089.0	7.161958202955092e+17
19090.0	7.160739636008275e+17
19091.0	7.159398115835901e+17
19092.0	7.158021071306751e+17
19093.0	7.156713811607552e+17
19094.0	7.155363132473343e+17
19095.0	7.154011463483391e+17
19096.0	7.152651087118335e+17
19097.0	7.151305854986922e+17
19098.0	7.149955005284351e+17
19099.0	7.148602633049428e+17
19100.0	7.147248899063808e+17
19101.0	7.145895257352874e+17
19102.0	7.144484015265108e+17
19103.0	7.143195836852906e+17
19104.0	7.141843843503444e+17
19105.0	7.140485353177087e+17
19106.0	7.139130738387625e+17
19107.0	7.137773992891731e+17
19108.0	7.136422553190399e+17
19109.0	7.134950611135145e+17
19110.0	7.133695778837844e+17
19111.0	7.132373158199293e+17
19112.0	7.13102399181073e+17
19113.0	7.129576716457299e+17
19114.0	7.128180674527232e+17
19115.0	7.126795800630612e+17
19116.0	7.125457076660905e+17
19117.0	7.124104339521535e+17
19118.0	7.122681249923071e+17
19119.0	7.1187753378775e+17
19120.0	7.120020492517375e+17
19121.0	7.118695054704639e+17
19122.0	7.117359901485738e+17
19123.0	7.116007425791316e+17
19124.0	7.114639392025257e+17
19125.0	7.113293712501417e+17
19126.0	7.111900951915177e+17
19127.0	7.109461172813823e+17
19128.0	7.109173447753727e+17
19129.0	7.10781554602803e+17
19130.0	7.1065231453498e+17
19131.0	7.105182512971775e+17
19132.0	7.103827422827859e+17
19133.0	7.10242815128371e+17
19134.0	7.10111597306402e+17
19135.0	7.09976833200401e+17
19136.0	7.098414793752573e+17
19137.0	7.096966767618729e+17
19138.0	7.095697133622612e+17
19139.0	7.094357849014271e+17
19140.0	7.093006582677504e+17
19141.0	7.091653152079871e+17
19142.0	7.090280075362301e+17
19143.0	7.088912433064617e+17
19144.0	7.087558686496083e+17
19145.0	7.086236597136042e+17
19146.0	7.08443203698688e+17
19147.0	7.083478308181332e+17
19148.0	7.082172863217663e+17
19149.0	7.080819021578239e+17
19150.0	7.079461719638016e+17
19151.0	7.078109772425897e+17
19152.0	7.076753310744575e+17
19153.0	7.07538003829282e+17
19154.0	7.073966275428351e+17
19155.0	7.072682369613823e+17
19156.0	7.071328037240832e+17
19157.0	7.069958184544938e+17
19158.0	7.068546481083731e+17
19159.0	7.067241627516927e+17
19160.0	7.065902994423807e+17
19161.0	7.06453688164898e+17
19162.0	7.062989130345129e+17
19163.0	7.061793114772819e+17
19164.0	7.060480444421459e+17
19165.0	7.059123868095828e+17
19166.0	7.057695931280042e+17
19167.0	7.056395279007743e+17
19168.0	7.055052146824531e+17
19169.0	7.053696532392617e+17
19170.0	7.052345225510911e+17
19171.0	7.050981549626708e+17
19172.0	7.049630725089962e+17
19173.0	7.048273954428244e+17
19174.0	7.046881381187583e+17
19175.0	7.045557545598975e+17
19176.0	7.044201128656893e+17
19177.0	7.042728458190847e+17
19178.0	7.041474273214463e+17
19179.0	7.040053142355965e+17
19180.0	7.038660423712765e+17
19181.0	7.037237371863037e+17
19182.0	7.035937144613545e+17
19183.0	7.03459164824098e+17
19184.0	7.033153146672468e+17
19185.0	7.031778382446591e+17
19186.0	7.030419447524009e+17
19187.0	7.029002332012543e+17
19188.0	7.027694893356372e+17
19189.0	7.026336294677161e+17
19190.0	7.024972281151487e+17
19191.0	7.023584637616127e+17
19192.0	7.022245595578367e+17
19193.0	7.020879320623785e+17
19194.0	7.019502168440831e+17
19195.0	7.018140512114004e+17
19196.0	7.016756861556052e+17
19197.0	7.015363706006186e+17
19198.0	7.013879951392768e+17
19199.0	7.011266802133673e+17
19200.0	7.010142668543316e+17
19201.0	7.009801930276863e+17
19202.0	7.008543039291391e+17
19203.0	7.007206043374932e+17
19204.0	7.005835478346409e+17
19205.0	7.004478063159978e+17
19206.0	7.003116227177129e+17
19207.0	7.001672140892842e+17
19208.0	7.000255456695635e+17
19209.0	6.999010320930131e+17
19210.0	6.997645278401875e+17
19211.0	6.996281877244585e+17
19212.0	6.994909113701716e+17
19213.0	6.993466108149759e+17
19214.0	6.9920917291008e+17
19215.0	6.990782670744233e+17
19216.0	6.989412690122067e+17
19217.0	6.988017486353748e+17
19218.0	6.986158712728234e+17
19219.0	6.985134542684159e+17
19220.0	6.983886877753343e+17
19221.0	6.98234898096674e+17
19222.0	6.981128918051497e+17
19223.0	6.979763419742207e+17
19224.0	6.978361289080832e+17
19225.0	6.976938390323197e+17
19226.0	6.975622753899859e+17
19227.0	6.974241773715455e+17
19228.0	6.972882574551722e+17
19229.0	6.971498208165887e+17
19230.0	6.970112561818281e+17
19231.0	6.968718338118995e+17
19232.0	6.967336421206697e+17
19233.0	6.965902651512148e+17
19234.0	6.964554724540415e+17
19235.0	6.963161659168084e+17
19236.0	6.961788316112212e+17
19237.0	6.960388356003155e+17
19238.0	6.958940257168042e+17
19239.0	6.957614529948329e+17
19240.0	6.956213951179433e+17
19241.0	6.954806126051327e+17
19242.0	6.95341730042129e+17
19243.0	6.951903637624148e+17
19244.0	6.9506357016221e+17
19245.0	6.949235767377919e+17
19246.0	6.947826244954793e+17
19247.0	6.946430987359572e+17
19248.0	6.945029261448532e+17
19249.0	6.94362307699234e+17
19250.0	6.94216568148241e+17
19251.0	6.940579704690003e+17
19252.0	6.939013963317247e+17
19253.0	6.937817725446825e+17
19254.0	6.936422596476927e+17
19255.0	6.934858466415955e+17
19256.0	6.933578013911721e+17
19257.0	6.932179047153661e+17
19258.0	6.93076023714338e+17
19259.0	6.929280953658025e+17
19260.0	6.927869888430079e+17
19261.0	6.926482881729876e+17
19262.0	6.925019998672212e+17
19263.0	6.923573377630207e+17
19264.0	6.921859797527208e+17
19265.0	6.920640565084159e+17
19266.0	6.919219209131348e+17
19267.0	6.917910157765289e+17
19268.0	6.916473473029459e+17
19269.0	6.91503239406114e+17
19270.0	6.913574204429651e+17
19271.0	6.911931861084841e+17
19272.0	6.910664129205587e+17
19273.0	6.908869024415743e+17
19274.0	6.907384820312746e+17
19275.0	6.906337657793193e+17
19276.0	6.904870695774892e+17
19277.0	6.903414904586239e+17
19278.0	6.901955425206271e+17
19279.0	6.900482431778815e+17
19280.0	6.898910838652927e+17
19281.0	6.897297138210131e+17
19282.0	6.895836410325672e+17
19283.0	6.894345445004628e+17
19284.0	6.892840407793663e+17
19285.0	6.891299779816106e+17
19286.0	6.889871469707261e+17
19287.0	6.888406942482432e+17
19288.0	6.886283422990333e+17
19289.0	6.884106642827944e+17
19290.0	6.883916732432383e+17
19291.0	6.882229159810388e+17
19292.0	6.880920839651325e+17
19293.0	6.879406828027904e+17
19294.0	6.877885650436096e+17
19295.0	6.876375710782804e+17
19296.0	6.874851845341183e+17
19297.0	6.873314384063146e+17
19298.0	6.871579523459754e+17
19299.0	6.869899143370068e+17
19300.0	6.868354950234111e+17
19301.0	6.866734380220415e+17
19302.0	6.865044681785343e+17
19303.0	6.863444259110911e+17
19304.0	6.861915266132649e+17
19305.0	6.860351503772329e+17
19306.0	6.858783133969066e+17
19307.0	6.857172715569152e+17
19308.0	6.8555988022941e+17
19309.0	6.853976472070825e+17
19310.0	6.852353723116202e+17
19311.0	6.850790694759081e+17
19312.0	6.848861432359594e+17
19313.0	6.847106541857449e+17
19314.0	6.843726350865747e+17
19315.0	6.842232831213569e+17
19316.0	6.842201350864893e+17
19317.0	6.840560423097684e+17
19318.0	6.838904888666792e+17
19319.0	6.83726013010193e+17
19320.0	6.835590831363412e+17
19321.0	6.833910354804736e+17
19322.0	6.831755868067158e+17
19323.0	6.829867992962387e+17
19324.0	6.828176677623123e+17
19325.0	6.826443064825172e+17
19326.0	6.824743032324096e+17
19327.0	6.823006264011433e+17
19328.0	6.821270354132991e+17
19329.0	6.819517295842644e+17
19330.0	6.817174352734889e+17
19331.0	6.815117249347583e+17
19332.0	6.813367621298857e+17
19333.0	6.811374190941524e+17
19334.0	6.809336633709908e+17
19335.0	6.807514023373482e+17
19336.0	6.805675631968255e+17
19337.0	6.802850699717289e+17
19338.0	6.800795012606633e+17
19339.0	6.799070574848681e+17
19340.0	6.797130356228095e+17
19341.0	6.795240727904255e+17
19342.0	6.793014821257215e+17
19343.0	6.790789918446932e+17
19344.0	6.788823047820628e+17
19345.0	6.78567811044693e+17
19346.0	6.784240868567721e+17
19347.0	6.782867734527999e+17
19348.0	6.780912785511763e+17
19349.0	6.778867238830079e+17
19350.0	6.776072399312212e+17
19351.0	6.773922071227049e+17
19352.0	6.771795050190164e+17
19353.0	6.769728549464746e+17
19354.0	6.767588518395903e+17
19355.0	6.765350618136576e+17
19356.0	6.763227607553364e+17
19357.0	6.761009063307946e+17
19358.0	6.758757081371987e+17
19359.0	6.756455635309908e+17
19360.0	6.75377715696981e+17
19361.0	6.750646526367059e+17
19362.0	6.748298159325183e+17
19363.0	6.745895339731625e+17
19364.0	6.743455794812244e+17
19365.0	6.740977842651135e+17
19366.0	6.738458631121577e+17
19367.0	6.735866238074879e+17
19368.0	6.732158659985405e+17
19369.0	6.728833124270079e+17
19370.0	6.72611190317602e+17
19371.0	6.72335030980881e+17
19372.0	6.720592810082303e+17
19373.0	6.717741436938922e+17
19374.0	6.713650405092009e+17
19375.0	6.709706566052521e+17
19376.0	6.706718533397162e+17
19377.0	6.703482504828244e+17
19378.0	6.700434611765247e+17
19379.0	6.695531722746537e+17
19380.0	6.691313932741289e+17
19381.0	6.688147486976681e+17
19382.0	6.684879341223933e+17
19383.0	6.680080891772929e+17
19384.0	6.674668824035327e+17
19385.0	6.671160159414953e+17
19386.0	6.667575120013994e+17
19387.0	6.66098358672862e+17
19388.0	6.655584487079935e+17
19389.0	6.651441738765652e+17
19390.0	6.645772685322916e+17
19391.0	6.63686659388211e+17
19392.0	6.634365210940755e+17
19393.0	6.628153116764841e+17
19394.0	6.620320319755604e+17
19395.0	6.615499261607936e+17
19396.0	6.608749909945005e+17
19397.0	6.602988114848426e+17
19398.0	6.598477181441363e+17
19399.0	6.593507168878591e+17
19400.0	6.58799427776239e+17
19401.0	6.582621761612457e+17
19402.0	6.577633909276671e+17
19403.0	6.572485141069823e+17
19404.0	6.56514409125205e+17
19405.0	6.559258452339369e+17
19406.0	6.553584785162239e+17
19407.0	6.545457183806802e+17
19408.0	6.53774181962001e+17
19409.0	6.53170926752017e+17
19410.0	6.521248746744492e+17
19411.0	6.514091508804266e+17
19412.0	6.50413624157798e+17
19413.0	6.494564423215785e+17
19414.0	6.484121909286226e+17
19415.0	6.473038455373823e+17
19416.0	6.461125883330555e+17
19417.0	6.448677342150655e+17
19418.0	6.434644794103116e+17
19419.0	6.421691551623849e+17
19420.0	6.40399123991757e+17
19421.0	6.391784346572122e+17
19422.0	6.376432471812777e+17
19423.0	6.365139905282047e+17
19424.0	6.353074527753556e+17
19425.0	6.34051388121634e+17
19426.0	6.327437935072595e+17
19427.0	6.313855642064212e+17
19428.0	6.299616756629504e+17
19429.0	6.284525454404265e+17
19430.0	6.268790374050474e+17
19431.0	6.251549972671146e+17
19432.0	6.232632191527592e+17
19433.0	6.213025623878314e+17
19434.0	6.190992098415956e+17
19435.0	6.166615177560061e+17
19436.0	6.141204817947306e+17
19437.0	6.11241720615185e+17
19438.0	6.079788809366184e+17
19439.0	6.047101303652355e+17
19440.0	6.008406656330409e+17
19441.0	5.96632834233685e+17
19442.0	5.919143760319831e+17
19443.0	5.86522850107938e+17
19444.0	5.80385946031445e+17
19445.0	5.7324574018109466e+17
19446.0	5.648538304249855e+17
19447.0	5.547357175283706e+17
19448.0	5.4205111532694246e+17
19449.0	5.251899913666559e+17
19450.0	5.0003336561513664e+17
19451.0	4.844869782601738e+17
19452.0	5.14242015570603e+17
19453.0	5.34195011409238e+17
19454.0	5.484035946053626e+17
19455.0	5.5941929205323085e+17
19456.0	5.683672781597357e+17
19457.0	5.758351886166695e+17
19458.0	5.819241037736623e+17
19459.0	5.877238904564396e+17
19460.0	5.92529008850807e+17
19461.0	5.96746066600482e+17
19462.0	6.005258627055615e+17
19463.0	6.040083500455251e+17
19464.0	6.069950751965184e+17
19465.0	6.097270479694506e+17
19466.0	6.121826353326761e+17
19467.0	6.144047652186794e+17
19468.0	6.165376141011626e+17
19469.0	6.183351668965373e+17
19470.0	6.200411539111936e+17
19471.0	6.21612795691008e+17
19472.0	6.23010745819682e+17
19473.0	6.242915513445034e+17
19474.0	6.255297402241023e+17
19475.0	6.266322054108499e+17
19476.0	6.27760580141602e+17
19477.0	6.288056178267476e+17
19478.0	6.297963471743657e+17
19479.0	6.30718854210082e+17
19480.0	6.318189019398138e+17
19481.0	6.328867708993535e+17
19482.0	6.343048919252993e+17
19483.0	6.352921205669887e+17
19484.0	6.367427926076073e+17
19485.0	6.375052026402141e+17
19486.0	6.387488205570047e+17
19487.0	6.393825582208339e+17
19488.0	6.404283318665215e+17
19489.0	6.409196942305961e+17
19490.0	6.418198225573206e+17
19491.0	6.423480573274793e+17
19492.0	6.430396828876801e+17
19493.0	6.435857073089193e+17
19494.0	6.439686257333588e+17
19495.0	6.446084358406144e+17
19496.0	6.449548230655997e+17
19497.0	6.452825529079123e+17
19498.0	6.457096716069545e+17
19499.0	6.458270657718952e+17
19500.0	6.463401767905961e+17
19501.0	6.465871621565097e+17
19502.0	6.469579370921983e+17
19503.0	6.471967095914496e+17
19504.0	6.474017900855295e+17
19505.0	6.475964822672724e+17
19506.0	6.48091412795665e+17
19507.0	6.483769194184701e+17
19508.0	6.486527203519142e+17
19509.0	6.492821276065791e+17
19510.0	6.494250071315796e+17
19511.0	6.493680795211091e+17
19512.0	6.501671753132713e+17
19513.0	6.50255712596787e+17
19514.0	6.504684047040511e+17
19515.0	6.509872349358761e+17
19516.0	6.511752992085332e+17
19517.0	6.512768354091007e+17
19518.0	6.514084373594115e+17
19519.0	6.517994876305405e+17
19520.0	6.518691738943487e+17
19521.0	6.519380591159978e+17
19522.0	6.519991125235027e+17
19523.0	6.522984692973565e+17
19524.0	6.52390547202594e+17
19525.0	6.524431489477289e+17
19526.0	6.525113734266879e+17
19527.0	6.525530989221204e+17
19528.0	6.527840477162156e+17
19529.0	6.528359448182781e+17
19530.0	6.528656423780351e+17
19531.0	6.528909705215999e+17
19532.0	6.529122970894336e+17
19533.0	6.529297087638185e+17
19534.0	6.530584230057302e+17
19535.0	6.53108868878609e+17
19536.0	6.531095668107946e+17
19537.0	6.531095422741161e+17
19538.0	6.530932611743743e+17
19539.0	6.530611023271254e+17
19540.0	6.530774048877226e+17
19541.0	6.530632105241258e+17
19542.0	6.531444193798825e+17
19543.0	6.531285760256682e+17
19544.0	6.531019255578623e+17
19545.0	6.530396594372605e+17
19546.0	6.529880340561919e+17
19547.0	6.530082586405546e+17
19548.0	6.529729165262847e+17
19549.0	6.5292688963229e+17
19550.0	6.528932571862356e+17
19551.0	6.528502254447274e+17
19552.0	6.528048216145919e+17
19553.0	6.528231302408874e+17
19554.0	6.527782432888147e+17
19555.0	6.527299176366079e+17
19556.0	6.526777074996563e+17
19557.0	6.526223960943273e+17
19558.0	6.525665566261247e+17
19559.0	6.525175167538516e+17
19560.0	6.525047908859903e+17
19561.0	6.524442021374634e+17
19562.0	6.523843183116287e+17
19563.0	6.523207308454569e+17
19564.0	6.522557552743764e+17
19565.0	6.52213963928371e+17
19566.0	6.522126212617556e+17
19567.0	6.521457576946346e+17
19568.0	6.52073901367842e+17
19569.0	6.520042566975487e+17
19570.0	6.519613375031976e+17
19571.0	6.518964861534208e+17
19572.0	6.518510071054333e+17
19573.0	6.518194724405247e+17
19574.0	6.517365969081683e+17
19575.0	6.51666315682338e+17
19576.0	6.515876072609108e+17
19577.0	6.515073696661501e+17
19578.0	6.514245954262356e+17
19579.0	6.51343135052049e+17
19580.0	6.512725468730708e+17
19581.0	6.512360605526698e+17
19582.0	6.511529115516927e+17
19583.0	6.510679325059753e+17
19584.0	6.509819943627434e+17
19585.0	6.508871447915178e+17
19586.0	6.507981174035798e+17
19587.0	6.507191574637225e+17
19588.0	6.506032576593919e+17
19589.0	6.505402369835008e+17
19590.0	6.504469669172564e+17
19591.0	6.503902755859113e+17
19592.0	6.503142978661034e+17
19593.0	6.50221026681378e+17
19594.0	6.501120698482687e+17
19595.0	6.500352384477865e+17
19596.0	6.499376329392127e+17
19597.0	6.498482056942932e+17
19598.0	6.497316782822739e+17
19599.0	6.496588365736617e+17
19600.0	6.495639550558207e+17
19601.0	6.494629044857514e+17
19602.0	6.493651935603369e+17
19603.0	6.492478990101162e+17
19604.0	6.491713666635091e+17
19605.0	6.49067687453218e+17
19606.0	6.490271199352148e+17
19607.0	6.489286832553983e+17
19608.0	6.488281754981716e+17
19609.0	6.487262234323625e+17
19610.0	6.48629712007987e+17
19611.0	6.485291233705983e+17
19612.0	6.484288216236032e+17
19613.0	6.483268638954835e+17
19614.0	6.48223044665344e+17
19615.0	6.481241994603177e+17
19616.0	6.480204290239146e+17
19617.0	6.479329970094079e+17
19618.0	6.477970176038227e+17
19619.0	6.476838554217129e+17
19620.0	6.475879463692969e+17
19621.0	6.475258637494953e+17
19622.0	6.474231697812137e+17
19623.0	6.473223818444799e+17
19624.0	6.47234340397602e+17
19625.0	6.471303278100479e+17
19626.0	6.470251635365204e+17
19627.0	6.469192218487465e+17
19628.0	6.468101607871828e+17
19629.0	6.466982480183295e+17
19630.0	6.465657974205098e+17
19631.0	6.463508718463657e+17
19632.0	6.463824916556457e+17
19633.0	6.462791224044201e+17
19634.0	6.461761665018538e+17
19635.0	6.460665587826687e+17
19636.0	6.459625900954966e+17
19637.0	6.458262709512874e+17
19638.0	6.457470820024319e+17
19639.0	6.456387371881814e+17
19640.0	6.455234872213503e+17
19641.0	6.453721128326486e+17
19642.0	6.453141906827945e+17
19643.0	6.452056662824276e+17
19644.0	6.450922137845759e+17
19645.0	6.449719350569642e+17
19646.0	6.448798901469183e+17
19647.0	6.447711412813823e+17
19648.0	6.446619155234815e+17
19649.0	6.445523701596159e+17
19650.0	6.444429801947135e+17
19651.0	6.443327811485695e+17
19652.0	6.442232990487892e+17
19653.0	6.441134016430079e+17
19654.0	6.440034161568426e+17
19655.0	6.438928859004927e+17
19656.0	6.437824374330707e+17
19657.0	6.436763428629161e+17
19658.0	6.435743041148244e+17
19659.0	6.434635321966591e+17
19660.0	6.433528332593834e+17
19661.0	6.432419137017172e+17
19662.0	6.431307694691667e+17
19663.0	6.430170138629459e+17
19664.0	6.42908016275183e+17
19665.0	6.427972874884436e+17
