# Flux units: erg / (cm m2 s)
# Wavelength units: Angstrom
wave	flux
19000.0	6.03845708358178e+17
19001.0	6.037206558834687e+17
19002.0	6.036218515729066e+17
19003.0	6.035083344827731e+17
19004.0	6.033959153216169e+17
19005.0	6.032846508523519e+17
19006.0	6.031734014825811e+17
19007.0	6.030564811341823e+17
19008.0	6.029429773260116e+17
19009.0	6.028258026629801e+17
19010.0	6.026668985898324e+17
19011.0	6.026070062355796e+17
19012.0	6.023929734190418e+17
19013.0	6.023898644611072e+17
19014.0	6.022726291204777e+17
19015.0	6.02162413576738e+17
19016.0	6.020492558685524e+17
19017.0	6.019434150537897e+17
19018.0	6.018268219310077e+17
19019.0	6.01719416431138e+17
19020.0	6.016068199208276e+17
19021.0	6.01497352990447e+17
19022.0	6.013851371831296e+17
19023.0	6.012683485358761e+17
19024.0	6.011561763493204e+17
19025.0	6.010409553930921e+17
19026.0	6.009231457124351e+17
19027.0	6.007337902232915e+17
19028.0	6.007144493787817e+17
19029.0	6.006006807702186e+17
19030.0	6.004931883084457e+17
19031.0	6.003817271263231e+17
19032.0	6.002686659570346e+17
19033.0	6.001448600294739e+17
19034.0	6.000364820802218e+17
19035.0	5.998700063096831e+17
19036.0	5.937012040619325e+17
19037.0	5.996644618556756e+17
19038.0	5.995904462312788e+17
19039.0	5.994869616366931e+17
19040.0	5.993779211971242e+17
19041.0	5.992663037771776e+17
19042.0	5.990702399182162e+17
19043.0	5.990462898132308e+17
19044.0	5.989329634940243e+17
19045.0	5.988194964559188e+17
19046.0	5.987054070530047e+17
19047.0	5.985985642190163e+17
19048.0	5.984506547448489e+17
19049.0	5.98214307951411e+17
19050.0	5.982524729720831e+17
19051.0	5.972051737182193e+17
19052.0	5.978627651578537e+17
19053.0	5.979279986786304e+17
19054.0	5.978223002604884e+17
19055.0	5.976604388534956e+17
19056.0	5.975906622024361e+17
19057.0	5.974898439269033e+17
19058.0	5.972975230648319e+17
19059.0	5.972387095554729e+17
19060.0	5.971545651762516e+17
19061.0	5.970473551309482e+17
19062.0	5.969358564797098e+17
19063.0	5.968251365010089e+17
19064.0	5.966991569453055e+17
19065.0	5.965827873789268e+17
19066.0	5.96457745879313e+17
19067.0	5.963805839676756e+17
19068.0	5.962713015866708e+17
19069.0	5.961606793352534e+17
19070.0	5.960462794839379e+17
19071.0	5.959344141107199e+17
19072.0	5.957983952087721e+17
19073.0	5.9571719648925e+17
19074.0	5.95607113835042e+17
19075.0	5.95496426152482e+17
19076.0	5.953833781952512e+17
19077.0	5.952731420295167e+17
19078.0	5.951597821558783e+17
19079.0	5.950535133822976e+17
19080.0	5.949415569926825e+17
19081.0	5.948271052019027e+17
19082.0	5.947169365644628e+17
19083.0	5.945992882946047e+17
19084.0	5.944739971639978e+17
19085.0	5.943865339718313e+17
19086.0	5.941825211378346e+17
19087.0	5.939579803314858e+17
19088.0	5.939803434516479e+17
19089.0	5.938465210367999e+17
19090.0	5.938237208002559e+17
19091.0	5.937135674021206e+17
19092.0	5.935143998281044e+17
19093.0	5.935047065818452e+17
19094.0	5.933966729150464e+17
19095.0	5.932868422686036e+17
19096.0	5.931747657820841e+17
19097.0	5.930662866802003e+17
19098.0	5.929230261725865e+17
19099.0	5.92806116589568e+17
19100.0	5.927248271332692e+17
19101.0	5.926215773498025e+17
19102.0	5.925014933078015e+17
19103.0	5.924050896770388e+17
19104.0	5.922951064278356e+17
19105.0	5.921109754336598e+17
19106.0	5.920453733733716e+17
19107.0	5.919399702342314e+17
19108.0	5.918180436344831e+17
19109.0	5.913387568813391e+17
19110.0	5.915950868070399e+17
19111.0	5.914984188652201e+17
19112.0	5.913889898233855e+17
19113.0	5.913045675016191e+17
19114.0	5.911803932442623e+17
19115.0	5.910629363045716e+17
19116.0	5.909728078419284e+17
19117.0	5.908611615511892e+17
19118.0	5.907188523117226e+17
19119.0	5.898349676156232e+17
19120.0	5.904793627262973e+17
19121.0	5.903871820606121e+17
19122.0	5.903170703545684e+17
19123.0	5.902078209687551e+17
19124.0	5.900657806540799e+17
19125.0	5.899862539938474e+17
19126.0	5.898759147181396e+17
19127.0	5.895555349741567e+17
19128.0	5.896175123169277e+17
19129.0	5.895399501987837e+17
19130.0	5.894388290245972e+17
19131.0	5.893301797038762e+17
19132.0	5.892212099383295e+17
19133.0	5.891004000720211e+17
19134.0	5.889838339325951e+17
19135.0	5.888910803249834e+17
19136.0	5.887836216972628e+17
19137.0	5.886552319546707e+17
19138.0	5.885624526918995e+17
19139.0	5.884555640700927e+17
19140.0	5.883464976258388e+17
19141.0	5.882371778456233e+17
19142.0	5.881230480375808e+17
19143.0	5.880114340429823e+17
19144.0	5.879044870504448e+17
19145.0	5.877996988661759e+17
19146.0	5.87615173747234e+17
19147.0	5.875702587632298e+17
19148.0	5.874437293342719e+17
19149.0	5.873302889299967e+17
19150.0	5.872527450570751e+17
19151.0	5.871436201721855e+17
19152.0	5.870281848870228e+17
19153.0	5.868706064935593e+17
19154.0	5.867954261808468e+17
19155.0	5.867039069569023e+17
19156.0	5.865939644623529e+17
19157.0	5.864432971634004e+17
19158.0	5.860888098286248e+17
19159.0	5.862529068695551e+17
19160.0	5.861491414663167e+17
19161.0	5.860342906574164e+17
19162.0	5.853148663687854e+17
19163.0	5.857751615930367e+17
19164.0	5.857184973848575e+17
19165.0	5.855428208492543e+17
19166.0	5.854744660672511e+17
19167.0	5.853371128173908e+17
19168.0	5.852829347130025e+17
19169.0	5.851689173123072e+17
19170.0	5.85069725028625e+17
19171.0	5.849266924115284e+17
19172.0	5.848460019018409e+17
19173.0	5.847436308250623e+17
19174.0	5.846316319331668e+17
19175.0	5.845294753251327e+17
19176.0	5.844203594579967e+17
19177.0	5.842924610781183e+17
19178.0	5.84179444158737e+17
19179.0	5.840425325690879e+17
19180.0	5.839814323950932e+17
19181.0	5.838608206397439e+17
19182.0	5.837652968341504e+17
19183.0	5.836607082987519e+17
19184.0	5.835517619514025e+17
19185.0	5.83442390581248e+17
19186.0	5.833348688991571e+17
19187.0	5.832165891768319e+17
19188.0	5.831159033014954e+17
19189.0	5.830071069005142e+17
19190.0	5.828947355544233e+17
19191.0	5.827794713968639e+17
19192.0	5.826810576459092e+17
19193.0	5.825623415062527e+17
19194.0	5.824465566957567e+17
19195.0	5.823474234818559e+17
19196.0	5.822279718010879e+17
19197.0	5.820980108023124e+17
19198.0	5.818924330035882e+17
19199.0	5.780108639294796e+17
19200.0	5.788811966196406e+17
19201.0	5.815826800181248e+17
19202.0	5.815604178408788e+17
19203.0	5.814604752661161e+17
19204.0	5.813681086529536e+17
19205.0	5.812681136493908e+17
19206.0	5.811623035229524e+17
19207.0	5.810435199948116e+17
19208.0	5.809214012959401e+17
19209.0	5.808409429409791e+17
19210.0	5.807331016529236e+17
19211.0	5.806267454980095e+17
19212.0	5.805176025776127e+17
19213.0	5.803671166124031e+17
19214.0	5.802414911258624e+17
19215.0	5.801762959829674e+17
19216.0	5.800860348405075e+17
19217.0	5.799765851766783e+17
19218.0	5.797726529432232e+17
19219.0	5.797435833406803e+17
19220.0	5.796498340752041e+17
19221.0	5.795096600859988e+17
19222.0	5.794371628695551e+17
19223.0	5.793291766682963e+17
19224.0	5.792183070927529e+17
19225.0	5.790987626479615e+17
19226.0	5.790053698284201e+17
19227.0	5.788974916304895e+17
19228.0	5.787926729676116e+17
19229.0	5.786846262285652e+17
19230.0	5.785744229881172e+17
19231.0	5.784662703428948e+17
19232.0	5.783593590019411e+17
19233.0	5.782436136179028e+17
19234.0	5.781424268727638e+17
19235.0	5.780331132441939e+17
19236.0	5.779292468281343e+17
19237.0	5.778194488273577e+17
19238.0	5.776965840317097e+17
19239.0	5.776056447401983e+17
19240.0	5.774971843728724e+17
19241.0	5.773874407582378e+17
19242.0	5.77280478945826e+17
19243.0	5.771555325870077e+17
19244.0	5.770668506000041e+17
19245.0	5.769582760777044e+17
19246.0	5.768491223220224e+17
19247.0	5.767421875628714e+17
19248.0	5.766341318759764e+17
19249.0	5.76522545004544e+17
19250.0	5.7640534720293536e+17
19251.0	5.762873049481215e+17
19252.0	5.7616961123997e+17
19253.0	5.7609315655789216e+17
19254.0	5.759878322716671e+17
19255.0	5.7585769133725005e+17
19256.0	5.757688388517887e+17
19257.0	5.756586793020074e+17
19258.0	5.755479847687509e+17
19259.0	5.75430372500002e+17
19260.0	5.751948633090728e+17
19261.0	5.752220284878847e+17
19262.0	5.751081674648235e+17
19263.0	5.7499909409996794e+17
19264.0	5.748340192269651e+17
19265.0	5.747676022833151e+17
19266.0	5.7465290198002336e+17
19267.0	5.745771550168404e+17
19268.0	5.7446843257541965e+17
19269.0	5.7436083924063565e+17
19270.0	5.742523030263126e+17
19271.0	5.7410376133072224e+17
19272.0	5.7403277937650336e+17
19273.0	5.738776873664511e+17
19274.0	5.737623070266708e+17
19275.0	5.7371316844844365e+17
19276.0	5.7360279974270285e+17
19277.0	5.734953652322302e+17
19278.0	5.7338558065322643e+17
19279.0	5.732742827693396e+17
19280.0	5.731610242580479e+17
19281.0	5.7306105442030925e+17
19282.0	5.7295172436404896e+17
19283.0	5.727966611548842e+17
19284.0	5.727166785738067e+17
19285.0	5.726077460676607e+17
19286.0	5.725126872705706e+17
19287.0	5.723982325437781e+17
19288.0	5.7063259169095546e+17
19289.0	5.680901110715663e+17
19290.0	5.720697591212713e+17
19291.0	5.7194519325573114e+17
19292.0	5.718702945905322e+17
19293.0	5.717622555410432e+17
19294.0	5.716529563129172e+17
19295.0	5.71546824413457e+17
19296.0	5.714024118004394e+17
19297.0	5.713171405515434e+17
19298.0	5.712171627446271e+17
19299.0	5.7107157209142605e+17
19300.0	5.710014533249706e+17
19301.0	5.708935062006443e+17
19302.0	5.707834442383358e+17
19303.0	5.706645578798419e+17
19304.0	5.705625865202347e+17
19305.0	5.704543908134911e+17
19306.0	5.703428191114581e+17
19307.0	5.702250912896341e+17
19308.0	5.701159301240149e+17
19309.0	5.698723106870611e+17
19310.0	5.697132739340968e+17
19311.0	5.697682593021951e+17
19312.0	5.696807444501843e+17
19313.0	5.69560705147426e+17
19314.0	5.6116766516619795e+17
19315.0	5.6176328289813734e+17
19316.0	5.691636615654058e+17
19317.0	5.691306068847273e+17
19318.0	5.690213435878058e+17
19319.0	5.6890396815742285e+17
19320.0	5.687785297368405e+17
19321.0	5.686507045475669e+17
19322.0	5.6855024467531085e+17
19323.0	5.6840410694505805e+17
19324.0	5.68334112399906e+17
19325.0	5.681108319819092e+17
19326.0	5.681160691296937e+17
19327.0	5.68012022218752e+17
19328.0	5.67840658755857e+17
19329.0	5.6779353714851834e+17
19330.0	5.6767714975634765e+17
19331.0	5.675636850251092e+17
19332.0	5.674554017273173e+17
19333.0	5.673399809824084e+17
19334.0	5.672293021078869e+17
19335.0	5.669893635222188e+17
19336.0	5.670006249488383e+17
19337.0	5.66890871337779e+17
19338.0	5.667521616500052e+17
19339.0	5.6666163277114003e+17
19340.0	5.665301363774805e+17
19341.0	5.663749641164116e+17
19342.0	5.6623089271002445e+17
19343.0	5.661825439891455e+17
19344.0	5.660196462395392e+17
19345.0	5.656805940133883e+17
19346.0	5.657287705580883e+17
19347.0	5.656496896125609e+17
19348.0	5.6560289117634534e+17
19349.0	5.654793365574996e+17
19350.0	5.6533958032097274e+17
19351.0	5.6524052351330976e+17
19352.0	5.650475701501949e+17
19353.0	5.6500309892355405e+17
19354.0	5.6487162461989536e+17
19355.0	5.6472352675157325e+17
19356.0	5.646140491257172e+17
19357.0	5.644939555067219e+17
19358.0	5.643699033735168e+17
19359.0	5.64229564408354e+17
19360.0	5.640725193206441e+17
19361.0	5.6399862833698125e+17
19362.0	5.638803527390547e+17
19363.0	5.637244871595349e+17
19364.0	5.635909496078335e+17
19365.0	5.634647734091775e+17
19366.0	5.6333778624184326e+17
19367.0	5.632091159003135e+17
19368.0	5.630814802935807e+17
19369.0	5.6291597200916474e+17
19370.0	5.6276174822004045e+17
19371.0	5.6263172199983776e+17
19372.0	5.625057554464768e+17
19373.0	5.6236887811031034e+17
19374.0	5.621968415315284e+17
19375.0	5.6203441913637536e+17
19376.0	5.618983801716735e+17
19377.0	5.61758495449634e+17
19378.0	5.6158384057658016e+17
19379.0	5.61416936567603e+17
19380.0	5.612738014696788e+17
19381.0	5.61129038352657e+17
19382.0	5.6097416913005216e+17
19383.0	5.6082269498682016e+17
19384.0	5.6068430937893536e+17
19385.0	5.605330808122026e+17
19386.0	5.6037930106006176e+17
19387.0	5.602216292035242e+17
19388.0	5.6006230423197005e+17
19389.0	5.598851876519935e+17
19390.0	5.5967605007755936e+17
19391.0	5.539929611654405e+17
19392.0	5.592158606196731e+17
19393.0	5.5918469407484576e+17
19394.0	5.5901245239459834e+17
19395.0	5.588114753978368e+17
19396.0	5.5859582357995514e+17
19397.0	5.58418146431249e+17
19398.0	5.582047101146453e+17
19399.0	5.579229840277502e+17
19400.0	5.57778601054481e+17
19401.0	5.5754691986500256e+17
19402.0	5.5733745296779936e+17
19403.0	5.5711029526528e+17
19404.0	5.567725593515349e+17
19405.0	5.5654050249222816e+17
19406.0	5.562196610252798e+17
19407.0	5.558869247918079e+17
19408.0	5.554464618446851e+17
19409.0	5.5519205263059616e+17
19410.0	5.547086804156415e+17
19411.0	5.5429179127452966e+17
19412.0	5.5379877118170445e+17
19413.0	5.531273721632084e+17
19414.0	5.526688504304981e+17
19415.0	5.5223728185453216e+17
19416.0	5.5182607480695456e+17
19417.0	5.514329454193321e+17
19418.0	5.511226315855189e+17
19419.0	5.5072666426190496e+17
19420.0	5.5025091666247654e+17
19421.0	5.4981623863924045e+17
19422.0	5.4935765580950163e+17
19423.0	5.4877972510801914e+17
19424.0	5.482720597639166e+17
19425.0	5.475991392616448e+17
19426.0	5.469192402763774e+17
19427.0	5.461558601711616e+17
19428.0	5.452256833612453e+17
19429.0	5.4403520301192506e+17
19430.0	5.424470130251098e+17
19431.0	5.3970565095314976e+17
19432.0	5.3818503917294957e+17
19433.0	5.361361386558805e+17
19434.0	5.3488881318406816e+17
19435.0	5.333745127129085e+17
19436.0	5.316756847460347e+17
19437.0	5.3059005982965754e+17
19438.0	5.198977634926603e+17
19439.0	5.268057163300869e+17
19440.0	5.2481240208506816e+17
19441.0	5.215914674880515e+17
19442.0	5.167093880193027e+17
19443.0	5.104031482860885e+17
19444.0	5.061441158294184e+17
19445.0	5.016334627416748e+17
19446.0	4.961551191288489e+17
19447.0	4.8876468732340883e+17
19448.0	4.7746513748623405e+17
19449.0	4.5953121583977856e+17
19450.0	4.229202069596868e+17
19451.0	4.01689223189851e+17
19452.0	4.448819434138279e+17
19453.0	4.696102297141256e+17
19454.0	4.834007074209781e+17
19455.0	4.921996950721877e+17
19456.0	4.9825985422076614e+17
19457.0	5.0293614603578e+17
19458.0	4.8837326788365376e+17
19459.0	5.115615240344945e+17
19460.0	5.1786819396348634e+17
19461.0	5.215731055940942e+17
19462.0	5.240926788124672e+17
19463.0	5.259172291543035e+17
19464.0	5.2746006137842323e+17
19465.0	5.2878218974549325e+17
19466.0	5.300040413216766e+17
19467.0	5.3119604769860256e+17
19468.0	5.322991291684182e+17
19469.0	5.334872472857258e+17
19470.0	5.35909107481531e+17
19471.0	5.378264145068032e+17
19472.0	5.393258974806015e+17
19473.0	5.4038189124703526e+17
19474.0	5.411388535777963e+17
19475.0	5.41699194626594e+17
19476.0	5.4239065786722976e+17
19477.0	5.4279996860006374e+17
19478.0	5.432038213550079e+17
19479.0	5.4348909666194746e+17
19480.0	5.438449654606505e+17
19481.0	5.4407803894934163e+17
19482.0	5.44338494951697e+17
19483.0	5.445707794918058e+17
19484.0	5.447536485597183e+17
19485.0	5.449199690711039e+17
19486.0	5.450341447368705e+17
19487.0	5.4525002870947834e+17
19488.0	5.4555737800922464e+17
19489.0	5.458773154638507e+17
19490.0	5.460184933597179e+17
19491.0	5.4651210135415443e+17
19492.0	5.467445759661398e+17
19493.0	5.4689138128977914e+17
19494.0	5.4711416789838483e+17
19495.0	5.471735702181204e+17
19496.0	5.472883411954343e+17
19497.0	5.4735977585486496e+17
19498.0	5.467850752567986e+17
19499.0	5.3882964595615834e+17
19500.0	5.4750968223716685e+17
19501.0	5.475437136314366e+17
19502.0	5.476219667611647e+17
19503.0	5.4762119906372256e+17
19504.0	5.476086850082132e+17
19505.0	5.4759059259828896e+17
19506.0	5.475963463445162e+17
19507.0	5.4759674144795296e+17
19508.0	5.475692162580479e+17
19509.0	5.475308364890111e+17
19510.0	5.474295000072191e+17
19511.0	5.3249640650941984e+17
19512.0	5.460275919934775e+17
19513.0	5.44896207290364e+17
19514.0	5.4553722738442e+17
19515.0	5.471996831159638e+17
19516.0	5.4726571670022816e+17
19517.0	5.4721763452736845e+17
19518.0	5.471606575639209e+17
19519.0	5.4710052270899194e+17
19520.0	5.470113084648106e+17
19521.0	5.4700440338213536e+17
19522.0	5.469321833392809e+17
19523.0	5.4686783383797754e+17
19524.0	5.4680315997716474e+17
19525.0	5.468070598410238e+17
19526.0	5.467432809747796e+17
19527.0	5.4667466069333325e+17
19528.0	5.466260172526931e+17
19529.0	5.4658939853209594e+17
19530.0	5.4652604245169485e+17
19531.0	5.464536036059817e+17
19532.0	5.463801881165823e+17
19533.0	5.4632033728593914e+17
19534.0	5.462777703432191e+17
19535.0	5.4619939313199776e+17
19536.0	5.461198234102442e+17
19537.0	5.460458132384425e+17
19538.0	5.4590998021406726e+17
19539.0	5.458200160283308e+17
19540.0	5.4582931570906445e+17
19541.0	5.4575215806163616e+17
19542.0	5.4567656810523296e+17
19543.0	5.455514855713449e+17
19544.0	5.455135132789417e+17
19545.0	5.453743737449128e+17
19546.0	5.4523885725067936e+17
19547.0	5.4526678096936954e+17
19548.0	5.451828130305364e+17
19549.0	5.450947527092906e+17
19550.0	5.4503839643293e+17
19551.0	5.4495273784005965e+17
19552.0	5.448662225605972e+17
19553.0	5.4477671177912314e+17
19554.0	5.446874576890538e+17
19555.0	5.4459718165681485e+17
19556.0	5.445201820647423e+17
19557.0	5.4443607830036474e+17
19558.0	5.4434815184732154e+17
19559.0	5.4425981267476474e+17
19560.0	5.4415023725172045e+17
19561.0	5.4407813080459936e+17
19562.0	5.43973961699601e+17
19563.0	5.439020806963199e+17
19564.0	5.438274352272723e+17
19565.0	5.4373963306543776e+17
19566.0	5.436453108580351e+17
19567.0	5.4355797405422925e+17
19568.0	5.4346405121447245e+17
19569.0	5.433730308330836e+17
19570.0	5.432835646510419e+17
19571.0	5.431950191187283e+17
19572.0	5.4310036290491725e+17
19573.0	5.4300423721669965e+17
19574.0	5.4290695830459725e+17
19575.0	5.4282812964645536e+17
19576.0	5.427316696023039e+17
19577.0	5.426307214431573e+17
19578.0	5.425451093371562e+17
19579.0	5.424535924899839e+17
19580.0	5.423607503126526e+17
19581.0	5.422687037248852e+17
19582.0	5.421774651697834e+17
19583.0	5.4208396917036365e+17
19584.0	5.419877347098623e+17
19585.0	5.418825305205417e+17
19586.0	5.417820541506901e+17
19587.0	5.41685268279023e+17
19588.0	5.415574021952854e+17
19589.0	5.41517245649169e+17
19590.0	5.414100946037417e+17
19591.0	5.413309547981483e+17
19592.0	5.412465362512554e+17
19593.0	5.4114815360805536e+17
19594.0	5.410253309651625e+17
19595.0	5.409629467049983e+17
19596.0	5.407879656549034e+17
19597.0	5.4077440239424845e+17
19598.0	5.406267996635135e+17
19599.0	5.4058623158626976e+17
19600.0	5.404925665563987e+17
19601.0	5.403892258264405e+17
19602.0	5.40294555771426e+17
19603.0	5.4009645376034106e+17
19604.0	5.400958260827477e+17
19605.0	5.3998042309372576e+17
19606.0	5.3992085027553274e+17
19607.0	5.3982674016010234e+17
19608.0	5.3972935261552634e+17
19609.0	5.396296749809662e+17
19610.0	5.395173685766827e+17
19611.0	5.394110452072448e+17
19612.0	5.3934976048387405e+17
19613.0	5.392529113481215e+17
19614.0	5.3915372053244576e+17
19615.0	5.390611292443988e+17
19616.0	5.388934561398784e+17
19617.0	5.388364763802283e+17
19618.0	5.3870164845090106e+17
19619.0	5.3858279522740896e+17
19620.0	5.384878896622249e+17
19621.0	5.3844058126854816e+17
19622.0	5.383920596025343e+17
19623.0	5.382932527054847e+17
19624.0	5.3819066464337914e+17
19625.0	5.381029673391445e+17
19626.0	5.380049739273557e+17
19627.0	5.379028705170772e+17
19628.0	5.377080699125761e+17
19629.0	5.375619968445096e+17
19630.0	5.371518088729941e+17
19631.0	5.3336903851704314e+17
19632.0	5.373673884090367e+17
19633.0	5.373069312917503e+17
19634.0	5.3723413788753914e+17
19635.0	5.3713100093085e+17
19636.0	5.369941010852521e+17
19637.0	5.3686125035083085e+17
19638.0	5.368511301244244e+17
19639.0	5.367593293927764e+17
19640.0	5.3665399916462074e+17
19641.0	5.364337356395865e+17
19642.0	5.364685329836713e+17
19643.0	5.363712397410303e+17
19644.0	5.3627368826907296e+17
19645.0	5.361524297520468e+17
19646.0	5.360337087889406e+17
19647.0	5.359928246009855e+17
19648.0	5.3589773511557114e+17
19649.0	5.358013621731326e+17
19650.0	5.3570621732290554e+17
19651.0	5.3560942222376954e+17
19652.0	5.355131755298815e+17
19653.0	5.354155675047253e+17
19654.0	5.353210783640234e+17
19655.0	5.352245906374655e+17
19656.0	5.3512911695380474e+17
19657.0	5.3503360111738874e+17
19658.0	5.3493689228110496e+17
19659.0	5.348416069915988e+17
