# Flux units: erg / (cm m2 s)
# Wavelength units: Angstrom
wave	flux
19000.0	7.674695414098602e+17
19001.0	7.673253872358739e+17
19002.0	7.671886021743956e+17
19003.0	7.670471685657939e+17
19004.0	7.669025373596328e+17
19005.0	7.667644403198632e+17
19006.0	7.666258932312744e+17
19007.0	7.664841155499347e+17
19008.0	7.663431298930003e+17
19009.0	7.662082301711699e+17
19010.0	7.660721830275753e+17
19011.0	7.659474058390186e+17
19012.0	7.65803666621508e+17
19013.0	7.656719021419178e+17
19014.0	7.65529977799748e+17
19015.0	7.653924679625386e+17
19016.0	7.65254563860753e+17
19017.0	7.651168547941033e+17
19018.0	7.649771706297002e+17
19019.0	7.64838292750336e+17
19020.0	7.646987235098621e+17
19021.0	7.645628322545663e+17
19022.0	7.644240992185e+17
19023.0	7.642813941765459e+17
19024.0	7.641432512790528e+17
19025.0	7.640040807770794e+17
19026.0	7.638632185724928e+17
19027.0	7.637215359620436e+17
19028.0	7.635869108273152e+17
19029.0	7.634496306981545e+17
19030.0	7.633341169096019e+17
19031.0	7.632000135462911e+17
19032.0	7.630595805588138e+17
19033.0	7.62913235280418e+17
19034.0	7.627740698116093e+17
19035.0	7.626082301072723e+17
19036.0	7.621887637760681e+17
19037.0	7.62335978393873e+17
19038.0	7.622134271224489e+17
19039.0	7.620775522249385e+17
19040.0	7.619265799301802e+17
19041.0	7.617847141684564e+17
19042.0	7.616385345650687e+17
19043.0	7.615039157217961e+17
19044.0	7.61363067638033e+17
19045.0	7.612226930911913e+17
19046.0	7.610802124445012e+17
19047.0	7.609384877512019e+17
19048.0	7.607938698270036e+17
19049.0	7.606538871679658e+17
19050.0	7.605171271325012e+17
19051.0	7.603378301435903e+17
19052.0	7.602197511187114e+17
19053.0	7.600996585482922e+17
19054.0	7.59961141239262e+17
19055.0	7.598058722994858e+17
19056.0	7.596788999520256e+17
19057.0	7.595390187951444e+17
19058.0	7.593973595329875e+17
19059.0	7.592572720163497e+17
19060.0	7.591150370160637e+17
19061.0	7.589740551340032e+17
19062.0	7.588328218733225e+17
19063.0	7.586914229376339e+17
19064.0	7.585461007897939e+17
19065.0	7.58399564251136e+17
19066.0	7.582642743192233e+17
19067.0	7.58127397961728e+17
19068.0	7.579862435539625e+17
19069.0	7.578450178430292e+17
19070.0	7.577027304139433e+17
19071.0	7.57562854150417e+17
19072.0	7.574214721317545e+17
19073.0	7.572802322999978e+17
19074.0	7.571389889729876e+17
19075.0	7.569975564828671e+17
19076.0	7.56855583207151e+17
19077.0	7.567137880495442e+17
19078.0	7.56572234064418e+17
19079.0	7.564317118780756e+17
19080.0	7.562896737304575e+17
19081.0	7.561459557640872e+17
19082.0	7.560057717784575e+17
19083.0	7.558582708294996e+17
19084.0	7.557090971921064e+17
19085.0	7.555816191513939e+17
19086.0	7.554160369773226e+17
19087.0	7.552946174689279e+17
19088.0	7.551501782220799e+17
19089.0	7.550017675285846e+17
19090.0	7.548705522231977e+17
19091.0	7.547301130840748e+17
19092.0	7.545861340921853e+17
19093.0	7.544484792718675e+17
19094.0	7.543070353173161e+17
19095.0	7.541653789911721e+17
19096.0	7.540232361257641e+17
19097.0	7.538817112211453e+17
19098.0	7.537399248715775e+17
19099.0	7.535980567330815e+17
19100.0	7.534558492753919e+17
19101.0	7.533136780285268e+17
19102.0	7.531688085858986e+17
19103.0	7.530304176652287e+17
19104.0	7.528884249559039e+17
19105.0	7.52745595482931e+17
19106.0	7.526033569873917e+17
19107.0	7.524604390146047e+17
19108.0	7.523162640089088e+17
19109.0	7.521636123148288e+17
19110.0	7.520289930521257e+17
19111.0	7.518921910736212e+17
19112.0	7.517512624592212e+17
19113.0	7.516097670545408e+17
19114.0	7.51467598464068e+17
19115.0	7.51323083579938e+17
19116.0	7.511816496917162e+17
19117.0	7.510391756161024e+17
19118.0	7.508885313159168e+17
19119.0	7.505975980326908e+17
19120.0	7.506074152206335e+17
19121.0	7.504692137426943e+17
19122.0	7.503295411825322e+17
19123.0	7.501874392814931e+17
19124.0	7.500420387001684e+17
19125.0	7.499011242065917e+17
19126.0	7.497516394916522e+17
19127.0	7.495533347558739e+17
19128.0	7.49462753448209e+17
19129.0	7.49326249964339e+17
19130.0	7.491897449425576e+17
19131.0	7.490482281469267e+17
19132.0	7.489056766164991e+17
19133.0	7.487601879547901e+17
19134.0	7.486191325325994e+17
19135.0	7.484743454381396e+17
19136.0	7.483299116438867e+17
19137.0	7.481795176038397e+17
19138.0	7.480405513644713e+17
19139.0	7.478993137696768e+17
19140.0	7.477569251180543e+17
19141.0	7.476142432845821e+17
19142.0	7.474699938998953e+17
19143.0	7.473269224155816e+17
19144.0	7.471831152503466e+17
19145.0	7.470429214780072e+17
19146.0	7.468654821463382e+17
19147.0	7.467545695092735e+17
19148.0	7.466139772780543e+17
19149.0	7.464711905869824e+17
19150.0	7.463284076707839e+17
19151.0	7.461854603378688e+17
19152.0	7.460425152419158e+17
19153.0	7.458945403366057e+17
19154.0	7.457479155777536e+17
19155.0	7.456076005900287e+17
19156.0	7.454643814662143e+17
19157.0	7.453188205226666e+17
19158.0	7.451728064544768e+17
19159.0	7.450337129878867e+17
19160.0	7.448911843863209e+17
19161.0	7.447447001366527e+17
19162.0	7.445844602475862e+17
19163.0	7.444539312701439e+17
19164.0	7.44320299766033e+17
19165.0	7.441779386570067e+17
19166.0	7.440311637420712e+17
19167.0	7.43890446660403e+17
19168.0	7.437486914884947e+17
19169.0	7.436058701245097e+17
19170.0	7.434627522232319e+17
19171.0	7.43322734751471e+17
19172.0	7.431814078180008e+17
19173.0	7.43037811766067e+17
19174.0	7.428923811255636e+17
19175.0	7.427501900256595e+17
19176.0	7.426068087220906e+17
19177.0	7.424545430437887e+17
19178.0	7.423185673431722e+17
19179.0	7.421743779370322e+17
19180.0	7.420307165937663e+17
19181.0	7.418831707657555e+17
19182.0	7.41741967843874e+17
19183.0	7.415993136928083e+17
19184.0	7.414550423579306e+17
19185.0	7.413107395657728e+17
19186.0	7.411651243758931e+17
19187.0	7.410151794059945e+17
19188.0	7.408747831885825e+17
19189.0	7.40729001484834e+17
19190.0	7.405839302961832e+17
19191.0	7.404367889388883e+17
19192.0	7.40293477400576e+17
19193.0	7.40147511566882e+17
19194.0	7.400000313098237e+17
19195.0	7.398524931713705e+17
19196.0	7.397011499603284e+17
19197.0	7.395435085823997e+17
19198.0	7.393633878321833e+17
19199.0	7.390962874231464e+17
19200.0	7.389672833548288e+17
19201.0	7.389307498485075e+17
19202.0	7.388162981975382e+17
19203.0	7.386819690408617e+17
19204.0	7.385423051489279e+17
19205.0	7.383999408242687e+17
19206.0	7.382562354408106e+17
19207.0	7.38107235587413e+17
19208.0	7.379661839400957e+17
19209.0	7.378221005100372e+17
19210.0	7.376739699960489e+17
19211.0	7.375239633698815e+17
19212.0	7.373774528359081e+17
19213.0	7.37225524519458e+17
19214.0	7.370798650097663e+17
19215.0	7.369369547265363e+17
19216.0	7.3679051451706e+17
19217.0	7.366403422158847e+17
19218.0	7.364709437844138e+17
19219.0	7.36335324599637e+17
19220.0	7.362001631532372e+17
19221.0	7.360465915084799e+17
19222.0	7.359053624421033e+17
19223.0	7.35760176189713e+17
19224.0	7.356101452365823e+17
19225.0	7.354618695996755e+17
19226.0	7.353164203644242e+17
19227.0	7.351687477286228e+17
19228.0	7.350227091936595e+17
19229.0	7.348744652936531e+17
19230.0	7.347260965431977e+17
19231.0	7.345791941214207e+17
19232.0	7.344396074046803e+17
19233.0	7.342863843065853e+17
19234.0	7.341417138137769e+17
19235.0	7.339927851237377e+17
19236.0	7.338447158465876e+17
19237.0	7.336950456036008e+17
19238.0	7.33541488219477e+17
19239.0	7.333968805014185e+17
19240.0	7.332470827515903e+17
19241.0	7.331000208064513e+17
19242.0	7.329505162384726e+17
19243.0	7.327853618834088e+17
19244.0	7.326400841951914e+17
19245.0	7.324848813856084e+17
19246.0	7.323292604039168e+17
19247.0	7.321785666109437e+17
19248.0	7.320285042005331e+17
19249.0	7.318776549386922e+17
19250.0	7.317304772307625e+17
19251.0	7.315814014604628e+17
19252.0	7.314180625399807e+17
19253.0	7.312842222993408e+17
19254.0	7.311341359813972e+17
19255.0	7.309700067142313e+17
19256.0	7.308284346935978e+17
19257.0	7.306770405916671e+17
19258.0	7.305237439534419e+17
19259.0	7.303622586357075e+17
19260.0	7.302069467742208e+17
19261.0	7.300586398198441e+17
19262.0	7.299013543985152e+17
19263.0	7.297438149421738e+17
19264.0	7.295746178372947e+17
19265.0	7.294310715577684e+17
19266.0	7.292740422686036e+17
19267.0	7.291246327715156e+17
19268.0	7.289607080465747e+17
19269.0	7.287949601974953e+17
19270.0	7.286364630417408e+17
19271.0	7.284697095383721e+17
19272.0	7.283210228596735e+17
19273.0	7.281451633825106e+17
19274.0	7.279795120024233e+17
19275.0	7.278498294355283e+17
19276.0	7.276882802245632e+17
19277.0	7.275287435804671e+17
19278.0	7.27365161530163e+17
19279.0	7.272023306797056e+17
19280.0	7.270394759217151e+17
19281.0	7.268800751730687e+17
19282.0	7.267195507703807e+17
19283.0	7.265562399517353e+17
19284.0	7.263697890181119e+17
19285.0	7.262049190368596e+17
19286.0	7.260306197009748e+17
19287.0	7.258576984735743e+17
19288.0	7.255867249044136e+17
19289.0	7.253496431291048e+17
19290.0	7.253714465193983e+17
19291.0	7.251974786733395e+17
19292.0	7.250482892374016e+17
19293.0	7.248817243379028e+17
19294.0	7.247104857254569e+17
19295.0	7.245439120179199e+17
19296.0	7.243758652708182e+17
19297.0	7.242164311075497e+17
19298.0	7.240307220064938e+17
19299.0	7.238532784805203e+17
19300.0	7.236797088137216e+17
19301.0	7.235018857032361e+17
19302.0	7.233309777417556e+17
19303.0	7.231571161513983e+17
19304.0	7.229881551858345e+17
19305.0	7.22816500638242e+17
19306.0	7.226422712074237e+17
19307.0	7.224558352334847e+17
19308.0	7.222743904813055e+17
19309.0	7.220963896721408e+17
19310.0	7.218984926227113e+17
19311.0	7.21714941071633e+17
19312.0	7.215410360003242e+17
19313.0	7.213614909882368e+17
19314.0	7.209373345862995e+17
19315.0	7.207753188289196e+17
19316.0	7.208330405609471e+17
19317.0	7.206549962708308e+17
19318.0	7.204718391241385e+17
19319.0	7.202956306808832e+17
19320.0	7.201106079077716e+17
19321.0	7.19914413605956e+17
19322.0	7.197124742261417e+17
19323.0	7.195237357191168e+17
19324.0	7.193333312345427e+17
19325.0	7.191402628076883e+17
19326.0	7.189491376018772e+17
19327.0	7.18762764542498e+17
19328.0	7.185460083643732e+17
19329.0	7.183416745962153e+17
19330.0	7.181484255346687e+17
19331.0	7.179502501232637e+17
19332.0	7.177487099013802e+17
19333.0	7.175434128414036e+17
19334.0	7.17341336727279e+17
19335.0	7.171291979186175e+17
19336.0	7.16919373107473e+17
19337.0	7.167067982310058e+17
19338.0	7.164799321025194e+17
19339.0	7.162842103589544e+17
19340.0	7.160660050487977e+17
19341.0	7.158492546028883e+17
19342.0	7.156234364911615e+17
19343.0	7.153667846526291e+17
19344.0	7.151385221005311e+17
19345.0	7.14852503982353e+17
19346.0	7.146462890688511e+17
19347.0	7.144660743662249e+17
19348.0	7.142546116793684e+17
19349.0	7.140441676491434e+17
19350.0	7.138267026336425e+17
19351.0	7.136009232493224e+17
19352.0	7.133724782450004e+17
19353.0	7.131379502415871e+17
19354.0	7.128953943403177e+17
19355.0	7.12615323185971e+17
19356.0	7.123268409141929e+17
19357.0	7.120659294803283e+17
19358.0	7.118056228651007e+17
19359.0	7.115454938087424e+17
19360.0	7.11307001069568e+17
19361.0	7.110404118063786e+17
19362.0	7.107761506615293e+17
19363.0	7.105185899173203e+17
19364.0	7.102287489706666e+17
19365.0	7.099527328694271e+17
19366.0	7.096318549120339e+17
19367.0	7.092956758540288e+17
19368.0	7.08998106063394e+17
19369.0	7.086999796886186e+17
19370.0	7.084066247540735e+17
19371.0	7.081102713115987e+17
19372.0	7.078061827336872e+17
19373.0	7.074872938550611e+17
19374.0	7.07166087483665e+17
19375.0	7.068736183861245e+17
19376.0	7.065377790667434e+17
19377.0	7.061824426650281e+17
19378.0	7.057850042591913e+17
19379.0	7.053907321334442e+17
19380.0	7.050382608607914e+17
19381.0	7.046775117097642e+17
19382.0	7.043128008987987e+17
19383.0	7.039347000519338e+17
19384.0	7.035457544126463e+17
19385.0	7.031196770893824e+17
19386.0	7.027546520551423e+17
19387.0	7.023345019125759e+17
19388.0	7.019267088187391e+17
19389.0	7.01501806809361e+17
19390.0	7.009864504399187e+17
19391.0	7.00263471199027e+17
19392.0	6.999874251784191e+17
19393.0	6.995622628425728e+17
19394.0	6.990876718923775e+17
19395.0	6.986164393913001e+17
19396.0	6.981125338912084e+17
19397.0	6.976106931071657e+17
19398.0	6.970706604589056e+17
19399.0	6.965024534123859e+17
19400.0	6.95967546413329e+17
19401.0	6.953909489412778e+17
19402.0	6.947992530234026e+17
19403.0	6.941327572161876e+17
19404.0	6.934922887430143e+17
19405.0	6.928482693720745e+17
19406.0	6.922015619416063e+17
19407.0	6.915138622499497e+17
19408.0	6.907919531857236e+17
19409.0	6.900935520769364e+17
19410.0	6.893328344459946e+17
19411.0	6.885411116810239e+17
19412.0	6.877206245190313e+17
19413.0	6.868226367553535e+17
19414.0	6.859466458092884e+17
19415.0	6.850728167473151e+17
19416.0	6.841500592417449e+17
19417.0	6.831827787797843e+17
19418.0	6.821704860958719e+17
19419.0	6.811071844537684e+17
19420.0	6.799945756224169e+17
19421.0	6.788334425385642e+17
19422.0	6.776469476169044e+17
19423.0	6.764194615525375e+17
19424.0	6.751384059073876e+17
19425.0	6.737968923759955e+17
19426.0	6.723590807704915e+17
19427.0	6.708394498981887e+17
19428.0	6.692694242536106e+17
19429.0	6.675842924369236e+17
19430.0	6.657929929992874e+17
19431.0	6.639021607004842e+17
19432.0	6.619933629393576e+17
19433.0	6.59926777069568e+17
19434.0	6.576964218038954e+17
19435.0	6.553156917220691e+17
19436.0	6.527718264231254e+17
19437.0	6.500872594915327e+17
19438.0	6.468568974273193e+17
19439.0	6.439519611344214e+17
19440.0	6.406289209600682e+17
19441.0	6.36883284734771e+17
19442.0	6.327885179300524e+17
19443.0	6.28266525261824e+17
19444.0	6.231886805685586e+17
19445.0	6.174643151612588e+17
19446.0	6.108998976318121e+17
19447.0	6.032624330648229e+17
19448.0	5.941707606589444e+17
19449.0	5.830060161018538e+17
19450.0	5.681509517579596e+17
19451.0	5.5892969227550714e+17
19452.0	5.762504299555498e+17
19453.0	5.886510902891864e+17
19454.0	5.984185882421925e+17
19455.0	6.064806475158868e+17
19456.0	6.133031202979841e+17
19457.0	6.191778071139666e+17
19458.0	6.238747709756762e+17
19459.0	6.288324303344983e+17
19460.0	6.329153339697832e+17
19461.0	6.365895679016959e+17
19462.0	6.399111072142678e+17
19463.0	6.429064376789673e+17
19464.0	6.457189231930025e+17
19465.0	6.482710309284521e+17
19466.0	6.506181294729897e+17
19467.0	6.528295698956287e+17
19468.0	6.548642046760276e+17
19469.0	6.567650239621801e+17
19470.0	6.585059300256426e+17
19471.0	6.601611613481642e+17
19472.0	6.617300979417087e+17
19473.0	6.63204745323042e+17
19474.0	6.645675843037866e+17
19475.0	6.658292090667005e+17
19476.0	6.670696407804585e+17
19477.0	6.682097304819028e+17
19478.0	6.692575374562643e+17
19479.0	6.702527691096061e+17
19480.0	6.711983234263724e+17
19481.0	6.721112582914047e+17
19482.0	6.729875423494143e+17
19483.0	6.738192571039743e+17
19484.0	6.745874540178089e+17
19485.0	6.753243949083306e+17
19486.0	6.760051189131946e+17
19487.0	6.766421316993023e+17
19488.0	6.772333812034218e+17
19489.0	6.77868000649762e+17
19490.0	6.784275697369087e+17
19491.0	6.79007637086754e+17
19492.0	6.795286511528617e+17
19493.0	6.800086597457235e+17
19494.0	6.804483477252777e+17
19495.0	6.808790739451903e+17
19496.0	6.812691396034559e+17
19497.0	6.816482263214762e+17
19498.0	6.819394086065492e+17
19499.0	6.820715767878995e+17
19500.0	6.827766714466301e+17
19501.0	6.831191939001002e+17
19502.0	6.834224963955369e+17
19503.0	6.837005972056744e+17
19504.0	6.839828275178153e+17
19505.0	6.84233780835123e+17
19506.0	6.84478374678801e+17
19507.0	6.84699318100514e+17
19508.0	6.849146234688852e+17
19509.0	6.851144940082516e+17
19510.0	6.852923232703827e+17
19511.0	6.850727623611729e+17
19512.0	6.856713675560276e+17
19513.0	6.858356750112083e+17
19514.0	6.860181021392893e+17
19515.0	6.862500941965994e+17
19516.0	6.863928360785235e+17
19517.0	6.865156892699305e+17
19518.0	6.866704674062336e+17
19519.0	6.867946590000468e+17
19520.0	6.868960459532969e+17
19521.0	6.869938691462484e+17
19522.0	6.870825095397375e+17
19523.0	6.871881021216084e+17
19524.0	6.873130756035923e+17
19525.0	6.874440670729556e+17
19526.0	6.875148585358676e+17
19527.0	6.875566446389929e+17
19528.0	6.875996925984768e+17
19529.0	6.876567347134463e+17
19530.0	6.877020705958569e+17
19531.0	6.877369643390291e+17
19532.0	6.877611507231402e+17
19533.0	6.878015566905341e+17
19534.0	6.878306537657684e+17
19535.0	6.878680634621951e+17
19536.0	6.879515851270825e+17
19537.0	6.879822042453332e+17
19538.0	6.879755321562452e+17
19539.0	6.879837218843305e+17
19540.0	6.879931243954175e+17
19541.0	6.879985598638761e+17
19542.0	6.879815614682452e+17
19543.0	6.879688106442751e+17
19544.0	6.879621039521791e+17
19545.0	6.879327336180394e+17
19546.0	6.879227910903123e+17
19547.0	6.879947543019519e+17
19548.0	6.879802639603027e+17
19549.0	6.879502880385705e+17
19550.0	6.879240367286953e+17
19551.0	6.87889612607761e+17
19552.0	6.878449954892457e+17
19553.0	6.877875285611859e+17
19554.0	6.877389302792191e+17
19555.0	6.877003209419434e+17
19556.0	6.876612154185044e+17
19557.0	6.876214473348436e+17
19558.0	6.875773918336339e+17
19559.0	6.875453669244927e+17
19560.0	6.87531578429713e+17
19561.0	6.874820743877971e+17
19562.0	6.874350622517929e+17
19563.0	6.873731497809236e+17
19564.0	6.87324484809523e+17
19565.0	6.872756700315647e+17
19566.0	6.872213054903636e+17
19567.0	6.871682409736874e+17
19568.0	6.871108314376874e+17
19569.0	6.870537984103763e+17
19570.0	6.869901023117311e+17
19571.0	6.869256170547882e+17
19572.0	6.868548615929855e+17
19573.0	6.867934917252436e+17
19574.0	6.867250943710548e+17
19575.0	6.866618100132522e+17
19576.0	6.865949814685695e+17
19577.0	6.865252924085588e+17
19578.0	6.864505582299817e+17
19579.0	6.863757684768765e+17
19580.0	6.863065843411625e+17
19581.0	6.862414323296937e+17
19582.0	6.861652694313641e+17
19583.0	6.86089643893282e+17
19584.0	6.860062266665642e+17
19585.0	6.859108636426239e+17
19586.0	6.858266627801088e+17
19587.0	6.857490713717417e+17
19588.0	6.8564485682845e+17
19589.0	6.855665579808084e+17
19590.0	6.854792045395968e+17
19591.0	6.854001677740713e+17
19592.0	6.853356528773801e+17
19593.0	6.852451891500372e+17
19594.0	6.851422320590847e+17
19595.0	6.850763758239743e+17
19596.0	6.849857472604841e+17
19597.0	6.849002699314516e+17
19598.0	6.847889543615827e+17
19599.0	6.847125637125459e+17
19600.0	6.846220351133011e+17
19601.0	6.84526329274914e+17
19602.0	6.844338614392148e+17
19603.0	6.8433653806749e+17
19604.0	6.842729124331519e+17
19605.0	6.841639049887743e+17
19606.0	6.840779148361727e+17
19607.0	6.839692694301354e+17
19608.0	6.838768783501993e+17
19609.0	6.837781037492906e+17
19610.0	6.836825562458793e+17
19611.0	6.83584569544977e+17
19612.0	6.834879491386025e+17
19613.0	6.834127687559849e+17
19614.0	6.83311745868322e+17
19615.0	6.832108735561727e+17
19616.0	6.831199081201663e+17
19617.0	6.830180346975572e+17
19618.0	6.829015388826281e+17
19619.0	6.827983782980266e+17
19620.0	6.827061361857875e+17
19621.0	6.826259285803005e+17
19622.0	6.825258282298025e+17
19623.0	6.824266120385876e+17
19624.0	6.823245441400831e+17
19625.0	6.822208741572607e+17
19626.0	6.821155765048659e+17
19627.0	6.820058026912425e+17
19628.0	6.818904511523497e+17
19629.0	6.817751331678889e+17
19630.0	6.816089372273321e+17
19631.0	6.814103127457791e+17
19632.0	6.814485767520255e+17
19633.0	6.813627562590207e+17
19634.0	6.812926843289599e+17
19635.0	6.812008991162368e+17
19636.0	6.810962529091583e+17
19637.0	6.809656034153812e+17
19638.0	6.808818464500394e+17
19639.0	6.807707164082175e+17
19640.0	6.806538800158036e+17
19641.0	6.805235428578644e+17
19642.0	6.804443806127444e+17
19643.0	6.803358016165204e+17
19644.0	6.802177190963881e+17
19645.0	6.800941212762111e+17
19646.0	6.799910195516755e+17
19647.0	6.798782366744573e+17
19648.0	6.797603916917417e+17
19649.0	6.796490643079167e+17
19650.0	6.795376253556052e+17
19651.0	6.794256895879849e+17
19652.0	6.793139067726506e+17
19653.0	6.792017919082496e+17
19654.0	6.790894964790611e+17
19655.0	6.789813054559571e+17
19656.0	6.788689269795498e+17
19657.0	6.787658206412799e+17
19658.0	6.786597424988159e+17
19659.0	6.785467253697193e+17
19660.0	6.784335809434966e+17
19661.0	6.783171353903104e+17
19662.0	6.782029714685951e+17
19663.0	6.780878355169279e+17
19664.0	6.779750274738857e+17
19665.0	6.778564352060073e+17
