# Flux units: erg / (cm m2 s)
# Wavelength units: Angstrom
wave	flux
19000.0	8.351839709123922e+17
19001.0	8.350104012455935e+17
19002.0	8.348786581569535e+17
19003.0	8.34725062325043e+17
19004.0	8.345724822137513e+17
19005.0	8.34418557408597e+17
19006.0	8.342657067646975e+17
19007.0	8.341065202051752e+17
19008.0	8.339453902847999e+17
19009.0	8.337953383601491e+17
19010.0	8.335574589680294e+17
19011.0	8.334926285897727e+17
19012.0	8.333211605488978e+17
19013.0	8.331890563306836e+17
19014.0	8.3302160545437e+17
19015.0	8.328738929726803e+17
19016.0	8.327185928552447e+17
19017.0	8.325553977993897e+17
19018.0	8.324166354031956e+17
19019.0	8.322628952872275e+17
19020.0	8.321002958225407e+17
19021.0	8.319519553137321e+17
19022.0	8.318010797675859e+17
19023.0	8.316375216248148e+17
19024.0	8.314881565873489e+17
19025.0	8.313369519281491e+17
19026.0	8.311780090576893e+17
19027.0	8.310221729082024e+17
19028.0	8.308724558288211e+17
19029.0	8.307141727223808e+17
19030.0	8.305648486492841e+17
19031.0	8.304110779148968e+17
19032.0	8.30255910617088e+17
19033.0	8.300816361674067e+17
19034.0	8.299410050689706e+17
19035.0	8.297814551429117e+17
19036.0	8.290445118756177e+17
19037.0	8.294763583941289e+17
19038.0	8.293180888492713e+17
19039.0	8.291671392037545e+17
19040.0	8.290127115015508e+17
19041.0	8.288551492561577e+17
19042.0	8.286815781912575e+17
19043.0	8.285457055307092e+17
19044.0	8.283870320743764e+17
19045.0	8.282340104426838e+17
19046.0	8.280648668850858e+17
19047.0	8.27920277901585e+17
19048.0	8.277223994469032e+17
19049.0	8.275947892856148e+17
19050.0	8.274436199983786e+17
19051.0	8.271903106007036e+17
19052.0	8.271299519097513e+17
19053.0	8.269839105785855e+17
19054.0	8.268289555125587e+17
19055.0	8.266189563581783e+17
19056.0	8.265107968622591e+17
19057.0	8.263586978376361e+17
19058.0	8.261996241048918e+17
19059.0	8.260469587094186e+17
19060.0	8.25886366498816e+17
19061.0	8.257352504792404e+17
19062.0	8.255778406268927e+17
19063.0	8.25421772112964e+17
19064.0	8.252377059207849e+17
19065.0	8.250682023520936e+17
19066.0	8.24937998153591e+17
19067.0	8.247924854445395e+17
19068.0	8.246388244611072e+17
19069.0	8.244824367606441e+17
19070.0	8.24319123005986e+17
19071.0	8.241674459283453e+17
19072.0	8.240121474886313e+17
19073.0	8.238532197176659e+17
19074.0	8.236984719900672e+17
19075.0	8.235415788759722e+17
19076.0	8.233800474208937e+17
19077.0	8.232257539364179e+17
19078.0	8.230596736188417e+17
19079.0	8.229130010449236e+17
19080.0	8.227532000198656e+17
19081.0	8.225898040568489e+17
19082.0	8.224312174226089e+17
19083.0	8.222577443646122e+17
19084.0	8.220727885605545e+17
19085.0	8.219681099175254e+17
19086.0	8.217268859873961e+17
19087.0	8.216383598886911e+17
19088.0	8.214808799914664e+17
19089.0	8.21291237192499e+17
19090.0	8.211771459720532e+17
19091.0	8.210215599428948e+17
19092.0	8.208534484637012e+17
19093.0	8.207121557837142e+17
19094.0	8.205539287411368e+17
19095.0	8.203961279796564e+17
19096.0	8.202371440050173e+17
19097.0	8.2008311084701e+17
19098.0	8.199249879629821e+17
19099.0	8.197669519010472e+17
19100.0	8.196095030416723e+17
19101.0	8.194535040133804e+17
19102.0	8.192781818265597e+17
19103.0	8.191368107130881e+17
19104.0	8.189809027011923e+17
19105.0	8.188224198060714e+17
19106.0	8.18662241014033e+17
19107.0	8.185035960789672e+17
19108.0	8.183497796266666e+17
19109.0	8.18129108485188e+17
19110.0	8.180322884299433e+17
19111.0	8.178769746111148e+17
19112.0	8.177193502900224e+17
19113.0	8.175615953862655e+17
19114.0	8.174025821913088e+17
19115.0	8.172352589616468e+17
19116.0	8.170827672103592e+17
19117.0	8.16925022512742e+17
19118.0	8.167528213075283e+17
19119.0	8.161807151661048e+17
19120.0	8.164472349436585e+17
19121.0	8.162945407472979e+17
19122.0	8.161403873525757e+17
19123.0	8.159808509881002e+17
19124.0	8.15820325466931e+17
19125.0	8.156648823237289e+17
19126.0	8.155063920186708e+17
19127.0	8.150099790834342e+17
19128.0	8.151478518677503e+17
19129.0	8.150133071238484e+17
19130.0	8.148714817672532e+17
19131.0	8.147156282813098e+17
19132.0	8.145573102223357e+17
19133.0	8.143192915793236e+17
19134.0	8.142203377418239e+17
19135.0	8.140824787987114e+17
19136.0	8.139255104667647e+17
19137.0	8.137342574744918e+17
19138.0	8.136040160864936e+17
19139.0	8.134499481157633e+17
19140.0	8.132918909424979e+17
19141.0	8.131334306966186e+17
19142.0	8.129696172605439e+17
19143.0	8.128040141149524e+17
19144.0	8.12649279669316e+17
19145.0	8.124978423660543e+17
19146.0	8.122164695793664e+17
19147.0	8.121634489630719e+17
19148.0	8.120218340207276e+17
19149.0	8.118623907698003e+17
19150.0	8.117032302149628e+17
19151.0	8.11544961229346e+17
19152.0	8.113846763214164e+17
19153.0	8.112239958906195e+17
19154.0	8.110432465540436e+17
19155.0	8.109104516737706e+17
19156.0	8.107506643501055e+17
19157.0	8.105886418818387e+17
19158.0	8.103910601042602e+17
19159.0	8.102688969457663e+17
19160.0	8.101097626752339e+17
19161.0	8.099496602195283e+17
19162.0	8.096965230679382e+17
19163.0	8.096327388889088e+17
19164.0	8.094774821126144e+17
19165.0	8.093151524814848e+17
19166.0	8.091376054960125e+17
19167.0	8.089899883648339e+17
19168.0	8.088198574680745e+17
19169.0	8.086683530559488e+17
19170.0	8.085200683313834e+17
19171.0	8.083550537864532e+17
19172.0	8.082007468802048e+17
19173.0	8.08041231627059e+17
19174.0	8.078695084326911e+17
19175.0	8.077217112260608e+17
19176.0	8.075602900811775e+17
19177.0	8.073701169823743e+17
19178.0	8.072388681225555e+17
19179.0	8.0707397367453e+17
19180.0	8.069140201166164e+17
19181.0	8.067411662777002e+17
19182.0	8.065908794720253e+17
19183.0	8.064394123892051e+17
19184.0	8.062625490752851e+17
19185.0	8.061151559199402e+17
19186.0	8.059579132805117e+17
19187.0	8.05778917442628e+17
19188.0	8.056361606709245e+17
19189.0	8.054746566186324e+17
19190.0	8.053129196426582e+17
19191.0	8.0514636606778e+17
19192.0	8.049924474142719e+17
19193.0	8.048261926136489e+17
19194.0	8.046648958997844e+17
19195.0	8.044735847464957e+17
19196.0	8.042935558515369e+17
19197.0	8.041328955533992e+17
19198.0	8.03965854880017e+17
19199.0	8.032179623821308e+17
19200.0	8.032354708051286e+17
19201.0	8.034821992000169e+17
19202.0	8.033266577702911e+17
19203.0	8.031649839884969e+17
19204.0	8.029995948922196e+17
19205.0	8.028400541936298e+17
19206.0	8.026763024138239e+17
19207.0	8.0249856472733e+17
19208.0	8.023159608093353e+17
19209.0	8.021893926529706e+17
19210.0	8.02027169976593e+17
19211.0	8.018670849971539e+17
19212.0	8.01704177251123e+17
19213.0	8.015209493605032e+17
19214.0	8.013538207465472e+17
19215.0	8.012129242884778e+17
19216.0	8.010485208536403e+17
19217.0	8.008864490323969e+17
19218.0	8.00558465644407e+17
19219.0	8.005238935344467e+17
19220.0	8.003911684194301e+17
19221.0	8.001653180115626e+17
19222.0	8.000675821999444e+17
19223.0	7.998986501750783e+17
19224.0	7.997240986217132e+17
19225.0	7.995422745646419e+17
19226.0	7.994030777783638e+17
19227.0	7.992376421253119e+17
19228.0	7.990797826435753e+17
19229.0	7.989142375191892e+17
19230.0	7.987447595357523e+17
19231.0	7.985778505635156e+17
19232.0	7.984111784296445e+17
19233.0	7.982350287066451e+17
19234.0	7.980785255230121e+17
19235.0	7.979097366637225e+17
19236.0	7.977512172781567e+17
19237.0	7.975803012076883e+17
19238.0	7.973981143433215e+17
19239.0	7.972503912360617e+17
19240.0	7.970465248531794e+17
19241.0	7.968985739952125e+17
19242.0	7.967420789205676e+17
19243.0	7.96538527949346e+17
19244.0	7.964106040541183e+17
19245.0	7.962406975526228e+17
19246.0	7.960694228691625e+17
19247.0	7.959018394528426e+17
19248.0	7.95734938170163e+17
19249.0	7.955648534107476e+17
19250.0	7.953907781905064e+17
19251.0	7.951770788211368e+17
19252.0	7.949204583000745e+17
19253.0	7.948139635234132e+17
19254.0	7.946421433008128e+17
19255.0	7.944327442115241e+17
19256.0	7.94298097406225e+17
19257.0	7.941321574580224e+17
19258.0	7.939602016195923e+17
19259.0	7.937711621013503e+17
19260.0	7.936031157736787e+17
19261.0	7.934387847604906e+17
19262.0	7.932552975220736e+17
19263.0	7.930837306354344e+17
19264.0	7.928176627242323e+17
19265.0	7.927088125662547e+17
19266.0	7.925453103475369e+17
19267.0	7.923951049113599e+17
19268.0	7.922175446439254e+17
19269.0	7.92042092293871e+17
19270.0	7.918657612371283e+17
19271.0	7.916240844619777e+17
19272.0	7.915022609022975e+17
19273.0	7.903863910694899e+17
19274.0	7.906474170078541e+17
19275.0	7.9097510246045e+17
19276.0	7.907923176281428e+17
19277.0	7.906131864540499e+17
19278.0	7.904330602512381e+17
19279.0	7.901376242428585e+17
19280.0	7.899418044923903e+17
19281.0	7.897755319358804e+17
19282.0	7.895961588902569e+17
19283.0	7.894051686012244e+17
19284.0	7.892077986359977e+17
19285.0	7.890022174818301e+17
19286.0	7.888525658335912e+17
19287.0	7.88675259461359e+17
19288.0	7.883413168062463e+17
19289.0	7.879148880702112e+17
19290.0	7.881152482945705e+17
19291.0	7.878701751118508e+17
19292.0	7.87738207068706e+17
19293.0	7.875469043040253e+17
19294.0	7.873555499494057e+17
19295.0	7.871669885818196e+17
19296.0	7.868887736866132e+17
19297.0	7.866691406353747e+17
19298.0	7.86473912841011e+17
19299.0	7.862864159877802e+17
19300.0	7.860907985425746e+17
19301.0	7.858927641995945e+17
19302.0	7.856944644969812e+17
19303.0	7.854809050775552e+17
19304.0	7.852893568062804e+17
19305.0	7.850957211697152e+17
19306.0	7.848962923604649e+17
19307.0	7.846847227188563e+17
19308.0	7.843933988061183e+17
19309.0	7.841345853631145e+17
19310.0	7.839165826378409e+17
19311.0	7.837347441803264e+17
19312.0	7.8353186961053e+17
19313.0	7.833176024722088e+17
19314.0	7.828975483792041e+17
19315.0	7.826966865160878e+17
19316.0	7.826916860668586e+17
19317.0	7.824077262334634e+17
19318.0	7.820975792630441e+17
19319.0	7.818889429778432e+17
19320.0	7.8167409716538e+17
19321.0	7.814558921348438e+17
19322.0	7.812114827706367e+17
19323.0	7.809808988110847e+17
19324.0	7.807385435373565e+17
19325.0	7.804038398956884e+17
19326.0	7.801871034307926e+17
19327.0	7.79955493544482e+17
19328.0	7.79726978215663e+17
19329.0	7.794932577555795e+17
19330.0	7.79249276769621e+17
19331.0	7.790106054929064e+17
19332.0	7.78779446074846e+17
19333.0	7.78534915215633e+17
19334.0	7.782909405211304e+17
19335.0	7.780479422605994e+17
19336.0	7.777990027684522e+17
19337.0	7.775470646285651e+17
19338.0	7.772529487074644e+17
19339.0	7.770386017375572e+17
19340.0	7.767712851820543e+17
19341.0	7.765177610360148e+17
19342.0	7.761414889056938e+17
19343.0	7.759100658057215e+17
19344.0	7.756379290162515e+17
19345.0	7.749970495711905e+17
19346.0	7.749628440434003e+17
19347.0	7.748004329029632e+17
19348.0	7.745306115091114e+17
19349.0	7.742375905809747e+17
19350.0	7.739497949167615e+17
19351.0	7.73653839234116e+17
19352.0	7.733500555821055e+17
19353.0	7.730459558193833e+17
19354.0	7.726573206984018e+17
19355.0	7.723281313082025e+17
19356.0	7.720332207063039e+17
19357.0	7.71713910579746e+17
19358.0	7.713822594127191e+17
19359.0	7.710163044313769e+17
19360.0	7.707229356556287e+17
19361.0	7.703289143492605e+17
19362.0	7.699136028955987e+17
19363.0	7.695641877326505e+17
19364.0	7.692089352170154e+17
19365.0	7.688473943212032e+17
19366.0	7.684813147690323e+17
19367.0	7.680022159207081e+17
19368.0	7.67549622976512e+17
19369.0	7.671385737745747e+17
19370.0	7.666652767671636e+17
19371.0	7.663477338406913e+17
19372.0	7.657333398874794e+17
19373.0	7.653100381448874e+17
19374.0	7.648869606577492e+17
19375.0	7.643588733173755e+17
19376.0	7.637355879989247e+17
19377.0	7.632786988291412e+17
19378.0	7.627431710730921e+17
19379.0	7.620169014706173e+17
19380.0	7.61531561078511e+17
19381.0	7.608338144209578e+17
19382.0	7.601242816293548e+17
19383.0	7.594976384909311e+17
19384.0	7.586227231741267e+17
19385.0	7.58036025328708e+17
19386.0	7.572577381078356e+17
19387.0	7.566793400909824e+17
19388.0	7.560885149106175e+17
19389.0	7.554829970833407e+17
19390.0	7.548625496309757e+17
19391.0	7.538025683397283e+17
19392.0	7.535718424728914e+17
19393.0	7.529039895986175e+17
19394.0	7.521761465729025e+17
19395.0	7.51464982336853e+17
19396.0	7.507461408467625e+17
19397.0	7.500104613232639e+17
19398.0	7.492516948126378e+17
19399.0	7.483727656867155e+17
19400.0	7.476304742623913e+17
19401.0	7.467941461229565e+17
19402.0	7.459583640819028e+17
19403.0	7.450941453587795e+17
19404.0	7.441453370310653e+17
19405.0	7.431718611626666e+17
19406.0	7.42221480390383e+17
19407.0	7.411618735106729e+17
19408.0	7.399747618865153e+17
19409.0	7.389864153929047e+17
19410.0	7.377462463823871e+17
19411.0	7.365545530403496e+17
19412.0	7.352068712955903e+17
19413.0	7.338018717302781e+17
19414.0	7.323197326229503e+17
19415.0	7.306941530723671e+17
19416.0	7.288566860917423e+17
19417.0	7.269065382952954e+17
19418.0	7.247787326439419e+17
19419.0	7.226723556917249e+17
19420.0	7.209074991038463e+17
19421.0	7.191932381254998e+17
19422.0	7.174087049390761e+17
19423.0	7.15573148463923e+17
19424.0	7.136223265030144e+17
19425.0	7.115442453042518e+17
19426.0	7.094031220386474e+17
19427.0	7.070849390258858e+17
19428.0	7.046708418576383e+17
19429.0	7.020693725467987e+17
19430.0	6.992720912449535e+17
19431.0	6.962111383775917e+17
19432.0	6.930495100507475e+17
19433.0	6.894503006830591e+17
19434.0	6.855115913472682e+17
19435.0	6.812314998494545e+17
19436.0	6.772269957950124e+17
19437.0	6.731689141207039e+17
19438.0	6.685413361407315e+17
19439.0	6.640147628032001e+17
19440.0	6.587043486367741e+17
19441.0	6.529228315033597e+17
19442.0	6.466008685827418e+17
19443.0	6.396520892989439e+17
19444.0	6.324125107399334e+17
19445.0	6.24435534810317e+17
19446.0	6.156408051466239e+17
19447.0	6.059699310952443e+17
19448.0	5.952879084961797e+17
19449.0	5.828262445274452e+17
19450.0	5.6416168959453414e+17
19451.0	5.5568638812706234e+17
19452.0	5.742851825947998e+17
19453.0	5.89191740688521e+17
19454.0	6.002927588780709e+17
19455.0	6.102052142841856e+17
19456.0	6.191883423667543e+17
19457.0	6.273069732943185e+17
19458.0	6.345382745341953e+17
19459.0	6.414748443388589e+17
19460.0	6.478867302012242e+17
19461.0	6.536541302161405e+17
19462.0	6.589528117258924e+17
19463.0	6.637304722489341e+17
19464.0	6.68024006840593e+17
19465.0	6.719689744274774e+17
19466.0	6.756590570263891e+17
19467.0	6.795976446574588e+17
19468.0	6.834590587726508e+17
19469.0	6.868927718096896e+17
19470.0	6.900371527390548e+17
19471.0	6.92893617348062e+17
19472.0	6.955218542176937e+17
19473.0	6.979281746569897e+17
19474.0	7.00189793915153e+17
19475.0	7.021657721929724e+17
19476.0	7.04188727374643e+17
19477.0	7.060129644019711e+17
19478.0	7.077583157985279e+17
19479.0	7.093697267105791e+17
19480.0	7.108795255750656e+17
19481.0	7.123630578903721e+17
19482.0	7.137504169121108e+17
19483.0	7.154410551508996e+17
19484.0	7.173609522287955e+17
19485.0	7.190829423307434e+17
19486.0	7.206466159116283e+17
19487.0	7.2205533750231e+17
19488.0	7.233178253830825e+17
19489.0	7.245217477776726e+17
19490.0	7.253506731103569e+17
19491.0	7.265549388786345e+17
19492.0	7.274480938254337e+17
19493.0	7.283512959478441e+17
19494.0	7.29093623722803e+17
19495.0	7.29939886350882e+17
19496.0	7.305696956295848e+17
19497.0	7.31264278803251e+17
19498.0	7.319566662587732e+17
19499.0	7.319091157139448e+17
19500.0	7.331321038766079e+17
19501.0	7.33666975363891e+17
19502.0	7.342408199045117e+17
19503.0	7.347460021507411e+17
19504.0	7.352168917674664e+17
19505.0	7.356713577480191e+17
19506.0	7.361086831460352e+17
19507.0	7.365234901647357e+17
19508.0	7.369558373433343e+17
19509.0	7.373599360243027e+17
19510.0	7.376979312159402e+17
19511.0	7.37555896563575e+17
19512.0	7.383160074884435e+17
19513.0	7.384862688280572e+17
19514.0	7.388969404028241e+17
19515.0	7.392463919164077e+17
19516.0	7.396920163041279e+17
19517.0	7.400970043173544e+17
19518.0	7.404839505319254e+17
19519.0	7.410099022725117e+17
19520.0	7.41247545245696e+17
19521.0	7.41800961987925e+17
19522.0	7.420132178176681e+17
19523.0	7.422699964639914e+17
19524.0	7.426890753813161e+17
19525.0	7.428462565042857e+17
19526.0	7.430212274880511e+17
19527.0	7.43408977191458e+17
19528.0	7.435448694254249e+17
19529.0	7.436718617657343e+17
19530.0	7.43857490056533e+17
19531.0	7.441152469543594e+17
19532.0	7.442176991210153e+17
19533.0	7.443142004091562e+17
19534.0	7.444025345485481e+17
19535.0	7.445897366820177e+17
19536.0	7.447192770620074e+17
19537.0	7.447955053215743e+17
19538.0	7.448467349700607e+17
19539.0	7.448161775080792e+17
19540.0	7.44961833242897e+17
19541.0	7.450966924197887e+17
19542.0	7.451800454037503e+17
19543.0	7.452150510649341e+17
19544.0	7.452462147436543e+17
19545.0	7.451982530172241e+17
19546.0	7.451289527691948e+17
19547.0	7.453111208990036e+17
19548.0	7.453251940472147e+17
19549.0	7.45367085077845e+17
19550.0	7.454322681970687e+17
19551.0	7.454333967444649e+17
19552.0	7.45430097784559e+17
19553.0	7.454195902141782e+17
19554.0	7.454055267128662e+17
19555.0	7.453970546382164e+17
19556.0	7.453832643259049e+17
19557.0	7.45362459599394e+17
19558.0	7.453392146268157e+17
19559.0	7.453108670038015e+17
19560.0	7.452791312220157e+17
19561.0	7.452857330565117e+17
19562.0	7.452825876081322e+17
19563.0	7.452465937689254e+17
19564.0	7.452117806262956e+17
19565.0	7.4517106917376e+17
19566.0	7.451211794655913e+17
19567.0	7.450803247076691e+17
19568.0	7.45024891667524e+17
19569.0	7.449765763612671e+17
19570.0	7.449276595918164e+17
19571.0	7.448726262688425e+17
19572.0	7.448080613900287e+17
19573.0	7.447533753554262e+17
19574.0	7.446753887038122e+17
19575.0	7.446326667815593e+17
19576.0	7.445683643263657e+17
19577.0	7.444956286637396e+17
19578.0	7.444532754208084e+17
19579.0	7.444463288145236e+17
19580.0	7.443760113079635e+17
19581.0	7.443059250473641e+17
19582.0	7.442591289180157e+17
19583.0	7.442005096049321e+17
19584.0	7.44122963215428e+17
19585.0	7.440219085908649e+17
19586.0	7.44008413417745e+17
19587.0	7.440229752023722e+17
19588.0	7.43854797033745e+17
19589.0	7.438564386843306e+17
19590.0	7.437624882320723e+17
19591.0	7.436895785058303e+17
19592.0	7.436037761881427e+17
19593.0	7.435110722830335e+17
19594.0	7.433754933635753e+17
19595.0	7.433296086564861e+17
19596.0	7.4319977775104e+17
19597.0	7.432652021825535e+17
19598.0	7.431261442277375e+17
19599.0	7.430807826901674e+17
19600.0	7.4298729445021e+17
19601.0	7.428772149417299e+17
19602.0	7.427850842581674e+17
19603.0	7.426129304485887e+17
19604.0	7.425864771130708e+17
19605.0	7.424342490436948e+17
19606.0	7.423953133196627e+17
19607.0	7.422962922334889e+17
19608.0	7.421912249182889e+17
19609.0	7.42088250560785e+17
19610.0	7.420823107272701e+17
19611.0	7.419763556177236e+17
19612.0	7.41873869197585e+17
19613.0	7.417659475187028e+17
19614.0	7.416534972497917e+17
19615.0	7.415560923687593e+17
19616.0	7.414446741782527e+17
19617.0	7.41340686197282e+17
19618.0	7.411312215370408e+17
19619.0	7.409930327818236e+17
19620.0	7.408889732180648e+17
19621.0	7.409030198023508e+17
19622.0	7.407941531467773e+17
19623.0	7.406831826283178e+17
19624.0	7.405694442886483e+17
19625.0	7.404596487345492e+17
19626.0	7.403447323546964e+17
19627.0	7.402340497053011e+17
19628.0	7.401059120403796e+17
19629.0	7.399879847094953e+17
19630.0	7.399323960606717e+17
19631.0	7.392242215245139e+17
19632.0	7.397319196540927e+17
19633.0	7.396091736271529e+17
19634.0	7.395031741977939e+17
19635.0	7.393776822998355e+17
19636.0	7.39267945046562e+17
19637.0	7.390633014591488e+17
19638.0	7.390346153558015e+17
19639.0	7.389153511604224e+17
19640.0	7.387920758123178e+17
19641.0	7.386010834261335e+17
19642.0	7.385834906976255e+17
19643.0	7.384620351182164e+17
19644.0	7.383350013941076e+17
19645.0	7.381761589073235e+17
19646.0	7.381084206181034e+17
19647.0	7.379882816307199e+17
19648.0	7.378667786556755e+17
19649.0	7.377454849764009e+17
19650.0	7.376260921556991e+17
19651.0	7.375033094985044e+17
19652.0	7.373812386146985e+17
19653.0	7.372611481414313e+17
19654.0	7.371372014250666e+17
19655.0	7.370138640012627e+17
19656.0	7.368933640241151e+17
19657.0	7.367703625640616e+17
19658.0	7.366486927955284e+17
19659.0	7.365251393650688e+17
19660.0	7.364027058137769e+17
19661.0	7.362785228182866e+17
19662.0	7.361553682661373e+17
19663.0	7.360217925462697e+17
19664.0	7.359031972025684e+17
19665.0	7.35807018176785e+17
19666.0	7.357082235830271e+17
