# Flux units: erg / (cm m2 s)
# Wavelength units: Angstrom
wave	flux
19000.0	5.4911299765316256e+17
19001.0	5.4899651861544954e+17
19002.0	5.489093284025684e+17
19003.0	5.4880687973116576e+17
19004.0	5.4870515115185485e+17
19005.0	5.486021488323241e+17
19006.0	5.485010438062079e+17
19007.0	5.483990470710613e+17
19008.0	5.4828855071866874e+17
19009.0	5.481835782646441e+17
19010.0	5.480179015090175e+17
19011.0	5.4798734796171936e+17
19012.0	5.478603801580884e+17
19013.0	5.477879531962367e+17
19014.0	5.476791069529428e+17
19015.0	5.47578394513681e+17
19016.0	5.4747435731954336e+17
19017.0	5.473817814106111e+17
19018.0	5.472778305492309e+17
19019.0	5.4717705121082016e+17
19020.0	5.470741780059476e+17
19021.0	5.469750761095167e+17
19022.0	5.468728446331562e+17
19023.0	5.467665237103957e+17
19024.0	5.466661610061823e+17
19025.0	5.4656720926583456e+17
19026.0	5.4646183311005e+17
19027.0	5.463488312901631e+17
19028.0	5.4626433039510176e+17
19029.0	5.4616030012156576e+17
19030.0	5.4606253907421856e+17
19031.0	5.459617823850494e+17
19032.0	5.45859243745826e+17
19033.0	5.4574526619101856e+17
19034.0	5.4565461525790714e+17
19035.0	5.45546905391377e+17
19036.0	5.4411336848069914e+17
19037.0	5.453488316918441e+17
19038.0	5.4524859530608634e+17
19039.0	5.4515049486964045e+17
19040.0	5.4505005582909434e+17
19041.0	5.449477376704511e+17
19042.0	5.448119388995583e+17
19043.0	5.4474665343931725e+17
19044.0	5.446437845685588e+17
19045.0	5.4454359480948045e+17
19046.0	5.4443375605405005e+17
19047.0	5.443397103910911e+17
19048.0	5.442035994241705e+17
19049.0	5.4408453655538323e+17
19050.0	5.4403072237677216e+17
19051.0	5.4373960433445504e+17
19052.0	5.4380702483524256e+17
19053.0	5.4373573075490125e+17
19054.0	5.436350016782334e+17
19055.0	5.434910432384341e+17
19056.0	5.43426574618897e+17
19057.0	5.4333130282106874e+17
19058.0	5.432062632088917e+17
19059.0	5.4312085166052685e+17
19060.0	5.430262428423509e+17
19061.0	5.429290604691456e+17
19062.0	5.4282748868689914e+17
19063.0	5.427270160220158e+17
19064.0	5.4260803675968845e+17
19065.0	5.4250154268207776e+17
19066.0	5.42408623469363e+17
19067.0	5.423226164696404e+17
19068.0	5.4222367633353376e+17
19069.0	5.421232329588735e+17
19070.0	5.4201819821943456e+17
19071.0	5.419206018684244e+17
19072.0	5.418123530338302e+17
19073.0	5.4172011001282554e+17
19074.0	5.4162032311664634e+17
19075.0	5.4151978187489274e+17
19076.0	5.414161904653653e+17
19077.0	5.413163417032021e+17
19078.0	5.412117166773588e+17
19079.0	5.4111736818565114e+17
19080.0	5.4101532118876154e+17
19081.0	5.4091048393113594e+17
19082.0	5.408101205278719e+17
19083.0	5.4070304602849274e+17
19084.0	5.405857296678912e+17
19085.0	5.405132374846121e+17
19086.0	5.403520872917675e+17
19087.0	5.4026343836986016e+17
19088.0	5.4019049564842656e+17
19089.0	5.4007329316317856e+17
19090.0	5.400095219165866e+17
19091.0	5.399080272396288e+17
19092.0	5.3978257364964685e+17
19093.0	5.397133790980778e+17
19094.0	5.39613385143091e+17
19095.0	5.395132740971178e+17
19096.0	5.394106374509909e+17
19097.0	5.3931272932338336e+17
19098.0	5.3920299472650234e+17
19099.0	5.391004732839252e+17
19100.0	5.3900870435908256e+17
19101.0	5.3891178147348474e+17
19102.0	5.387942345659732e+17
19103.0	5.3871245269838496e+17
19104.0	5.386129995988992e+17
19105.0	5.384911042467158e+17
19106.0	5.3840729485257376e+17
19107.0	5.383047385273683e+17
19108.0	5.3820473045155834e+17
19109.0	5.380303656146259e+17
19110.0	5.3801020170786125e+17
19111.0	5.379071059252564e+17
19112.0	5.3780670610145274e+17
19113.0	5.377136865050624e+17
19114.0	5.3761016143544314e+17
19115.0	5.375048109348181e+17
19116.0	5.3741202496116045e+17
19117.0	5.3731190587610445e+17
19118.0	5.371984022077438e+17
19119.0	5.358766056800237e+17
19120.0	5.3700327269990394e+17
19121.0	5.369089235790505e+17
19122.0	5.3681725133291514e+17
19123.0	5.367177317537108e+17
19124.0	5.366123963525802e+17
19125.0	5.365180166133076e+17
19126.0	5.364174922186751e+17
19127.0	5.3605054458538656e+17
19128.0	5.3621073966530554e+17
19129.0	5.361093234218324e+17
19130.0	5.360189556042409e+17
19131.0	5.359213748420607e+17
19132.0	5.358218965767509e+17
19133.0	5.357131384138411e+17
19134.0	5.356197155351211e+17
19135.0	5.355235386763947e+17
19136.0	5.3542520510655136e+17
19137.0	5.353016697815039e+17
19138.0	5.352244364268885e+17
19139.0	5.3512738121099936e+17
19140.0	5.350283529945087e+17
19141.0	5.349291479881044e+17
19142.0	5.348262601031679e+17
19143.0	5.3472185492875936e+17
19144.0	5.346262783448404e+17
19145.0	5.345319750817108e+17
19146.0	5.343447592468481e+17
19147.0	5.343196012522154e+17
19148.0	5.3422694788846925e+17
19149.0	5.3412592073659725e+17
19150.0	5.340359560615253e+17
19151.0	5.3393730889755296e+17
19152.0	5.3383739987722234e+17
19153.0	5.337213885044052e+17
19154.0	5.3362064125242016e+17
19155.0	5.335420772548607e+17
19156.0	5.334427231409492e+17
19157.0	5.3333631588543136e+17
19158.0	5.331799495759189e+17
19159.0	5.331427040165887e+17
19160.0	5.3304512045820576e+17
19161.0	5.3294719876901536e+17
19162.0	5.3272020261710515e+17
19163.0	5.3274631600428365e+17
19164.0	5.326521020099242e+17
19165.0	5.325322570432511e+17
19166.0	5.3243240143039136e+17
19167.0	5.323441615230292e+17
19168.0	5.322566572965887e+17
19169.0	5.3215573304497485e+17
19170.0	5.3206024419191456e+17
19171.0	5.3195359408619514e+17
19172.0	5.3186227444121594e+17
19173.0	5.3176427774388896e+17
19174.0	5.3165695752820045e+17
19175.0	5.315671796394666e+17
19176.0	5.314685554742612e+17
19177.0	5.313485500055551e+17
19178.0	5.3126851674330445e+17
19179.0	5.311619137535999e+17
19180.0	5.310733936667307e+17
19181.0	5.309548341144234e+17
19182.0	5.3087598818973005e+17
19183.0	5.307800171315198e+17
19184.0	5.3068074424729594e+17
19185.0	5.305816134800724e+17
19186.0	5.3048457608997536e+17
19187.0	5.303776774717439e+17
19188.0	5.3028766679913805e+17
19189.0	5.30189855559953e+17
19190.0	5.300909603728043e+17
19191.0	5.29987942883874e+17
19192.0	5.298951378960383e+17
19193.0	5.297937218622804e+17
19194.0	5.296931846051156e+17
19195.0	5.29599835546146e+17
19196.0	5.294986283188223e+17
19197.0	5.2940041547502925e+17
19198.0	5.292968551033515e+17
19199.0	5.2842083570592403e+17
19200.0	5.2856753966721715e+17
19201.0	5.2900379195255456e+17
19202.0	5.2891148636651514e+17
19203.0	5.2881239628404045e+17
19204.0	5.287128483932841e+17
19205.0	5.286179538031955e+17
19206.0	5.285192448431444e+17
19207.0	5.284077896029523e+17
19208.0	5.282889486128468e+17
19209.0	5.282263990272e+17
19210.0	5.2812833857645216e+17
19211.0	5.2803236667938125e+17
19212.0	5.279339364308308e+17
19213.0	5.278189869159764e+17
19214.0	5.277159439116971e+17
19215.0	5.276377167866539e+17
19216.0	5.2754293851859616e+17
19217.0	5.274438737417557e+17
19218.0	5.2722717880046906e+17
19219.0	5.272288145790292e+17
19220.0	5.2714795364078925e+17
19221.0	5.270062378953386e+17
19222.0	5.269552164241406e+17
19223.0	5.268555671710378e+17
19224.0	5.2675460628916896e+17
19225.0	5.2664144983927456e+17
19226.0	5.265620661349035e+17
19227.0	5.2646487949748896e+17
19228.0	5.263706395683498e+17
19229.0	5.2627287544517965e+17
19230.0	5.2617403792971085e+17
19231.0	5.2607586940573005e+17
19232.0	5.2597905864785914e+17
19233.0	5.2587275995490976e+17
19234.0	5.257814089225556e+17
19235.0	5.256826084567722e+17
19236.0	5.255896749834239e+17
19237.0	5.254894629246292e+17
19238.0	5.253802622626474e+17
19239.0	5.2529749690067616e+17
19240.0	5.251986616920745e+17
19241.0	5.250992140451838e+17
19242.0	5.25002808037649e+17
19243.0	5.248851014669653e+17
19244.0	5.248102959153151e+17
19245.0	5.247120595135146e+17
19246.0	5.2461284332229965e+17
19247.0	5.245167355297791e+17
19248.0	5.2442066485684896e+17
19249.0	5.243218609657173e+17
19250.0	5.2421954399546016e+17
19251.0	5.241091058739881e+17
19252.0	5.239922697611946e+17
19253.0	5.23929885291315e+17
19254.0	5.2383632001597434e+17
19255.0	5.237132150964223e+17
19256.0	5.236375275525459e+17
19257.0	5.2354417779452576e+17
19258.0	5.2344707434414074e+17
19259.0	5.233399204326057e+17
19260.0	5.23221815403042e+17
19261.0	5.231533143097343e+17
19262.0	5.2304951080823475e+17
19263.0	5.2295093662515194e+17
19264.0	5.227789807867219e+17
19265.0	5.227346707611647e+17
19266.0	5.2262331953971194e+17
19267.0	5.225717818195966e+17
19268.0	5.2247355352678394e+17
19269.0	5.223767411610964e+17
19270.0	5.222794923780779e+17
19271.0	5.221301727789058e+17
19272.0	5.2208024958621005e+17
19273.0	5.219183707728553e+17
19274.0	5.2182069528930976e+17
19275.0	5.2179382748665165e+17
19276.0	5.2169373804134394e+17
19277.0	5.215973757244756e+17
19278.0	5.215000984201897e+17
19279.0	5.214011693989888e+17
19280.0	5.212935999717375e+17
19281.0	5.212078098874367e+17
19282.0	5.211129487818751e+17
19283.0	5.2100472371500365e+17
19284.0	5.2091328397312e+17
19285.0	5.2079636257614483e+17
19286.0	5.2071840116026016e+17
19287.0	5.206256536343892e+17
19288.0	5.201725027778556e+17
19289.0	5.195325620180293e+17
19290.0	5.2033370553931085e+17
19291.0	5.202019955856726e+17
19292.0	5.201404062160212e+17
19293.0	5.200421173854207e+17
19294.0	5.1994436962003616e+17
19295.0	5.198485467605674e+17
19296.0	5.19740264022016e+17
19297.0	5.196484642690388e+17
19298.0	5.1955189426421754e+17
19299.0	5.194473202690729e+17
19300.0	5.193599072687445e+17
19301.0	5.192630117859326e+17
19302.0	5.191643743387647e+17
19303.0	5.190576599203839e+17
19304.0	5.1896635146021536e+17
19305.0	5.1887082660604576e+17
19306.0	5.187677322914474e+17
19307.0	5.186540156922538e+17
19308.0	5.185595437481983e+17
19309.0	5.1843606756283725e+17
19310.0	5.183274376757247e+17
19311.0	5.1826275472725325e+17
19312.0	5.18171103662353e+17
19313.0	5.180742072008703e+17
19314.0	5.155679937495038e+17
19315.0	5.15676399311261e+17
19316.0	5.1776396858490874e+17
19317.0	5.1768170185577805e+17
19318.0	5.1758366957677216e+17
19319.0	5.174883425539413e+17
19320.0	5.173855928713215e+17
19321.0	5.1728300424997536e+17
19322.0	5.171820036620287e+17
19323.0	5.1708281669113165e+17
19324.0	5.1699486080805536e+17
19325.0	5.168711389063849e+17
19326.0	5.1679927223364256e+17
19327.0	5.1669887548566176e+17
19328.0	5.1658389577181856e+17
19329.0	5.165042817302528e+17
19330.0	5.163996044154196e+17
19331.0	5.162863824644779e+17
19332.0	5.161891871588351e+17
19333.0	5.160880716469588e+17
19334.0	5.1599036184002554e+17
19335.0	5.158538218657109e+17
19336.0	5.1579093680564896e+17
19337.0	5.15691954446882e+17
19338.0	5.155624890750292e+17
19339.0	5.1549260022633805e+17
19340.0	5.1536441432692045e+17
19341.0	5.1527170923342496e+17
19342.0	5.1513091141140474e+17
19343.0	5.150915787664042e+17
19344.0	5.1497625449048736e+17
19345.0	5.145680067340964e+17
19346.0	5.146619040585044e+17
19347.0	5.1466118284793165e+17
19348.0	5.1458336571610445e+17
19349.0	5.1445873609714336e+17
19350.0	5.143513381470207e+17
19351.0	5.1425449788921165e+17
19352.0	5.141284350066687e+17
19353.0	5.140560837520042e+17
19354.0	5.139539365811541e+17
19355.0	5.138370429364906e+17
19356.0	5.137476762293588e+17
19357.0	5.136447126372351e+17
19358.0	5.135402457366527e+17
19359.0	5.134259473175893e+17
19360.0	5.133121266297513e+17
19361.0	5.132224565346304e+17
19362.0	5.1312338770329594e+17
19363.0	5.1301798966722534e+17
19364.0	5.1291206475666765e+17
19365.0	5.127981208961024e+17
19366.0	5.12667262456081e+17
19367.0	5.1256029533088403e+17
19368.0	5.1245295085813754e+17
19369.0	5.1233796415378765e+17
19370.0	5.122283742603945e+17
19371.0	5.121194942529535e+17
19372.0	5.120174580913492e+17
19373.0	5.119043672823124e+17
19374.0	5.1179532880008525e+17
19375.0	5.116628460459349e+17
19376.0	5.1152940727009274e+17
19377.0	5.1141464202499405e+17
19378.0	5.1129985874438803e+17
19379.0	5.111807581967701e+17
19380.0	5.1106515059561805e+17
19381.0	5.109477690135892e+17
19382.0	5.1077086459549005e+17
19383.0	5.1064069241350816e+17
19384.0	5.1053541468405754e+17
19385.0	5.104152927535103e+17
19386.0	5.1028900253969043e+17
19387.0	5.1010016057316685e+17
19388.0	5.099452666740736e+17
19389.0	5.0981089396654074e+17
19390.0	5.096539166867455e+17
19391.0	5.0823473576017734e+17
19392.0	5.0931686800971085e+17
19393.0	5.091856239733419e+17
19394.0	5.090115170861056e+17
19395.0	5.088668050696874e+17
19396.0	5.087311487653204e+17
19397.0	5.085921368080383e+17
19398.0	5.084375019771221e+17
19399.0	5.081751268010665e+17
19400.0	5.081125289809236e+17
19401.0	5.079286192362837e+17
19402.0	5.0777252045346125e+17
19403.0	5.0760827654198605e+17
19404.0	5.074457395025237e+17
19405.0	5.0727379757520205e+17
19406.0	5.070987082421589e+17
19407.0	5.068201118750036e+17
19408.0	5.065192873743703e+17
19409.0	5.0645018223138125e+17
19410.0	5.0625266644418554e+17
19411.0	5.0591621140097696e+17
19412.0	5.0570471488006816e+17
19413.0	5.0544077543833594e+17
19414.0	5.0506718472656205e+17
19415.0	5.048188513113428e+17
19416.0	5.043155343420074e+17
19417.0	5.039589238505467e+17
19418.0	5.034954295607296e+17
19419.0	5.028513906163713e+17
19420.0	5.021694374707197e+17
19421.0	5.013332936010412e+17
19422.0	5.003102483993941e+17
19423.0	4.994301962485757e+17
19424.0	4.9897421451646285e+17
19425.0	4.9850301794658976e+17
19426.0	4.97956719427584e+17
19427.0	4.9741175980031994e+17
19428.0	4.9686428743543443e+17
19429.0	4.961860431730004e+17
19430.0	4.955325435565399e+17
19431.0	4.945947850528088e+17
19432.0	4.939131122963794e+17
19433.0	4.9280982859120614e+17
19434.0	4.913706890690567e+17
19435.0	4.8914309798953005e+17
19436.0	4.8545003135303686e+17
19437.0	4.830179091633493e+17
19438.0	4.790583965690539e+17
19439.0	4.791582233111212e+17
19440.0	4.7704519999487994e+17
19441.0	4.747781316367699e+17
19442.0	4.724065864515584e+17
19443.0	4.700063033633451e+17
19444.0	4.6742776487171405e+17
19445.0	4.6403422935231085e+17
19446.0	4.5650022938706086e+17
19447.0	4.4708503563359546e+17
19448.0	4.390024478283097e+17
19449.0	4.2384662728103046e+17
19450.0	3.8311228985399066e+17
19451.0	3.612782909281635e+17
19452.0	4.079780326539263e+17
19453.0	4.332102198405799e+17
19454.0	4.4292480518062054e+17
19455.0	4.507297502636695e+17
19456.0	4.605304223651168e+17
19457.0	4.649745159727783e+17
19458.0	4.608636672977691e+17
19459.0	4.69767523104633e+17
19460.0	4.721287661005481e+17
19461.0	4.7427588218770765e+17
19462.0	4.763208334180352e+17
19463.0	4.781996753900883e+17
19464.0	4.7990140574542496e+17
19465.0	4.816400415719423e+17
19466.0	4.8499245054252435e+17
19467.0	4.8762286299764115e+17
19468.0	4.892032939414868e+17
19469.0	4.90188913787972e+17
19470.0	4.9100888505057286e+17
19471.0	4.9161757789607264e+17
19472.0	4.921507811688446e+17
19473.0	4.925981238930089e+17
19474.0	4.9301835966928205e+17
19475.0	4.93251670066244e+17
19476.0	4.937481963175935e+17
19477.0	4.940720881620309e+17
19478.0	4.943490351191381e+17
19479.0	4.947696411825491e+17
19480.0	4.9558048319296877e+17
19481.0	4.963218148207275e+17
19482.0	4.969247400787971e+17
19483.0	4.9735986402645325e+17
19484.0	4.97664544280849e+17
19485.0	4.979948764790783e+17
19486.0	4.9815706699912525e+17
19487.0	4.98366702157824e+17
19488.0	4.984605773223251e+17
19489.0	4.986199247334058e+17
19490.0	4.984300862701564e+17
19491.0	4.987266280368809e+17
19492.0	4.988309656130901e+17
19493.0	4.988377615040511e+17
19494.0	4.988378971897855e+17
19495.0	4.9886249342730234e+17
19496.0	4.988477833740286e+17
19497.0	4.9889694292377594e+17
19498.0	4.987677491331073e+17
19499.0	4.9685597432490515e+17
19500.0	4.988321351947604e+17
19501.0	4.988047997272062e+17
19502.0	4.988199178862592e+17
19503.0	4.987974452248574e+17
19504.0	4.9875842225930234e+17
19505.0	4.987159993210196e+17
19506.0	4.986733736580436e+17
19507.0	4.9862298580637e+17
19508.0	4.985782379653802e+17
19509.0	4.985743276856661e+17
19510.0	4.984877220888575e+17
19511.0	4.9443914694437235e+17
19512.0	4.981901722910714e+17
19513.0	4.978436069479755e+17
19514.0	4.979763330416635e+17
19515.0	4.9824954804688224e+17
19516.0	4.983459651693225e+17
19517.0	4.9827906455251616e+17
19518.0	4.982220157266602e+17
19519.0	4.981544115153578e+17
19520.0	4.980746078213461e+17
19521.0	4.9806686751293434e+17
19522.0	4.980002102356651e+17
19523.0	4.979331679911935e+17
19524.0	4.978558532670805e+17
19525.0	4.9779238750562976e+17
19526.0	4.977217667508906e+17
19527.0	4.9764723096289274e+17
19528.0	4.9760203978397005e+17
19529.0	4.975356075311104e+17
19530.0	4.974640780804096e+17
19531.0	4.9738813454417914e+17
19532.0	4.9731163414418765e+17
19533.0	4.9723958900381005e+17
19534.0	4.9716208812250445e+17
19535.0	4.970817348348585e+17
19536.0	4.970000117574313e+17
19537.0	4.9692693544741536e+17
19538.0	4.9682008233738234e+17
19539.0	4.967049937114455e+17
19540.0	4.9671283153742496e+17
19541.0	4.966329550722389e+17
19542.0	4.9655319059496954e+17
19543.0	4.9645984475163296e+17
19544.0	4.9639109822163616e+17
19545.0	4.9623866994414906e+17
19546.0	4.960871195344896e+17
19547.0	4.9614668752923296e+17
19548.0	4.960642857435135e+17
19549.0	4.959675444712789e+17
19550.0	4.95898361663761e+17
19551.0	4.9581547284944205e+17
19552.0	4.9573182234951674e+17
19553.0	4.9564474125844474e+17
19554.0	4.955579880920405e+17
19555.0	4.954765419784874e+17
19556.0	4.953951201219925e+17
19557.0	4.9531110793325216e+17
19558.0	4.952276454080511e+17
19559.0	4.9515601396585805e+17
19560.0	4.9507182121233056e+17
19561.0	4.9499141633474554e+17
19562.0	4.9490435628509856e+17
19563.0	4.9482513112541856e+17
19564.0	4.947397237713578e+17
19565.0	4.9465418289861965e+17
19566.0	4.9456397761030816e+17
19567.0	4.944826720059391e+17
19568.0	4.943936078479359e+17
19569.0	4.943076620850515e+17
19570.0	4.942249031543466e+17
19571.0	4.9413797990891514e+17
19572.0	4.9404760328328525e+17
19573.0	4.9396166423128736e+17
19574.0	4.9386631302130336e+17
19575.0	4.9379331150970874e+17
19576.0	4.93705282855458e+17
19577.0	4.936141948758697e+17
19578.0	4.9352661144698874e+17
19579.0	4.934426877580628e+17
19580.0	4.9335609194796365e+17
19581.0	4.9327036268107085e+17
19582.0	4.9318616685172045e+17
19583.0	4.93099194323217e+17
19584.0	4.930112364827989e+17
19585.0	4.929088644972543e+17
19586.0	4.928176690735787e+17
19587.0	4.9274557954348365e+17
19588.0	4.92592317857792e+17
19589.0	4.925729304565077e+17
19590.0	4.924702552926889e+17
19591.0	4.9240036972953594e+17
19592.0	4.9231371100487674e+17
19593.0	4.9222268733794976e+17
19594.0	4.921023276602708e+17
19595.0	4.920472277876736e+17
19596.0	4.9194537449772365e+17
19597.0	4.918747012442793e+17
19598.0	4.917123437210281e+17
19599.0	4.917007386411008e+17
19600.0	4.9161450808497485e+17
19601.0	4.915169970880511e+17
19602.0	4.9143184355928736e+17
19603.0	4.912772648621395e+17
19604.0	4.9125653877882874e+17
19605.0	4.9113215767237965e+17
19606.0	4.9108742031714976e+17
19607.0	4.91000997941521e+17
19608.0	4.9091070268538874e+17
19609.0	4.908177002157396e+17
19610.0	4.90730882596864e+17
19611.0	4.9063865886965754e+17
19612.0	4.905623047110655e+17
19613.0	4.9047302321821005e+17
19614.0	4.903811658634581e+17
19615.0	4.902986829878612e+17
19616.0	4.901935763161087e+17
19617.0	4.9011131357156685e+17
19618.0	4.899450116549289e+17
19619.0	4.8983309119651814e+17
19620.0	4.897515892987219e+17
19621.0	4.897576275585706e+17
19622.0	4.896841468477439e+17
19623.0	4.895956212383743e+17
19624.0	4.895051144495103e+17
19625.0	4.894206157914111e+17
19626.0	4.893320679522303e+17
19627.0	4.8924442419527674e+17
19628.0	4.8913628266496e+17
19629.0	4.8902131357668685e+17
19630.0	4.8892865545939616e+17
19631.0	4.8801679818096614e+17
19632.0	4.8880111946738336e+17
19633.0	4.887100737803603e+17
19634.0	4.886447106555903e+17
19635.0	4.8855045066369696e+17
19636.0	4.8845361159427405e+17
19637.0	4.883205241612971e+17
19638.0	4.882907931869183e+17
19639.0	4.8820462659392845e+17
19640.0	4.881038028658005e+17
19641.0	4.8783729972565376e+17
19642.0	4.8794048715380045e+17
19643.0	4.8785229932571296e+17
19644.0	4.877578589787476e+17
19645.0	4.8763682800271354e+17
19646.0	4.8757543681392634e+17
19647.0	4.8750373288017914e+17
19648.0	4.874159158984703e+17
19649.0	4.873396705820672e+17
19650.0	4.872541973774336e+17
19651.0	4.871658508648447e+17
19652.0	4.870778562543615e+17
19653.0	4.869905252526762e+17
19654.0	4.8690246674896205e+17
19655.0	4.8681419398621856e+17
