# Flux units: erg / (cm m2 s)
# Wavelength units: Angstrom
wave	flux
19000.0	5.483360089189034e+17
19001.0	5.482274207651156e+17
19002.0	5.481397110177791e+17
19003.0	5.4804121960229536e+17
19004.0	5.4794328560981325e+17
19005.0	5.478437846253567e+17
19006.0	5.4774558785972896e+17
19007.0	5.476472602318164e+17
19008.0	5.4754480093484365e+17
19009.0	5.4743248376517965e+17
19010.0	5.473250242286932e+17
19011.0	5.4724943657915725e+17
19012.0	5.471467795207508e+17
19013.0	5.4705868256925005e+17
19014.0	5.4695610604148045e+17
19015.0	5.468584232179028e+17
19016.0	5.4676303446889805e+17
19017.0	5.466671481356287e+17
19018.0	5.465686124702377e+17
19019.0	5.4647110440932685e+17
19020.0	5.463725007962111e+17
19021.0	5.462761992268457e+17
19022.0	5.461777816311124e+17
19023.0	5.460761809081685e+17
19024.0	5.4597904355382605e+17
19025.0	5.4588358392108365e+17
19026.0	5.45784984572177e+17
19027.0	5.456869323702271e+17
19028.0	5.455903485941076e+17
19029.0	5.454912441810943e+17
19030.0	5.453960266295977e+17
19031.0	5.4529852653786445e+17
19032.0	5.451995382371668e+17
19033.0	5.450919138645332e+17
19034.0	5.4499816348057594e+17
19035.0	5.448733239366998e+17
19036.0	5.446057761352362e+17
19037.0	5.4468646328948045e+17
19038.0	5.446076488919721e+17
19039.0	5.445153189789696e+17
19040.0	5.4441934519446176e+17
19041.0	5.4432150075037e+17
19042.0	5.441805002735614e+17
19043.0	5.4412786637209594e+17
19044.0	5.4402930288448845e+17
19045.0	5.439319047842474e+17
19046.0	5.438304586214057e+17
19047.0	5.437311024802474e+17
19048.0	5.436229104085673e+17
19049.0	5.4345961028539725e+17
19050.0	5.434350536141481e+17
19051.0	5.4331538501795834e+17
19052.0	5.4323253576990714e+17
19053.0	5.43150614581521e+17
19054.0	5.430558428845396e+17
19055.0	5.429234733066922e+17
19056.0	5.428562262403753e+17
19057.0	5.427647228848811e+17
19058.0	5.426295628365823e+17
19059.0	5.4255604241967776e+17
19060.0	5.4247311795377485e+17
19061.0	5.423766771335167e+17
19062.0	5.4227924051558394e+17
19063.0	5.4218138111180794e+17
19064.0	5.42077847863296e+17
19065.0	5.4197307449890125e+17
19066.0	5.4187159806716576e+17
19067.0	5.41793228755217e+17
19068.0	5.416977081652564e+17
19069.0	5.41600800518963e+17
19070.0	5.415015469285375e+17
19071.0	5.414064456990719e+17
19072.0	5.412961657028606e+17
19073.0	5.4121319964344314e+17
19074.0	5.411164513107967e+17
19075.0	5.4101948214804474e+17
19076.0	5.4092185028526074e+17
19077.0	5.4082383618157216e+17
19078.0	5.4072570988025165e+17
19079.0	5.406319733374975e+17
19080.0	5.405343082698068e+17
19081.0	5.404336876858026e+17
19082.0	5.403403743483221e+17
19083.0	5.402362383783253e+17
19084.0	5.401273594893652e+17
19085.0	5.400500463031637e+17
19086.0	5.3990044939059194e+17
19087.0	5.3982478086089376e+17
19088.0	5.397348413516457e+17
19089.0	5.3964690105739936e+17
19090.0	5.395654074084009e+17
19091.0	5.394682780232363e+17
19092.0	5.3934158900101114e+17
19093.0	5.3927947862889805e+17
19094.0	5.3918322906890234e+17
19095.0	5.3908680684339194e+17
19096.0	5.389898007707647e+17
19097.0	5.3889368389058554e+17
19098.0	5.387817913242964e+17
19099.0	5.386820735642281e+17
19100.0	5.386026263860565e+17
19101.0	5.38505933697843e+17
19102.0	5.384041581423274e+17
19103.0	5.383147576011434e+17
19104.0	5.38219539210786e+17
19105.0	5.3808895864340474e+17
19106.0	5.380261130098004e+17
19107.0	5.379206287108777e+17
19108.0	5.378193311662079e+17
19109.0	5.377329450014037e+17
19110.0	5.376388993384447e+17
19111.0	5.3753533658999456e+17
19112.0	5.374376560732842e+17
19113.0	5.373529054773247e+17
19114.0	5.372494875022676e+17
19115.0	5.37155292242466e+17
19116.0	5.370601211778389e+17
19117.0	5.369596875199828e+17
19118.0	5.368174628656469e+17
19119.0	5.3603244882001837e+17
19120.0	5.3665065532566176e+17
19121.0	5.3657751435345914e+17
19122.0	5.3648654584162976e+17
19123.0	5.363916160193876e+17
19124.0	5.3629328244954445e+17
19125.0	5.3619591923193165e+17
19126.0	5.36082777252386e+17
19127.0	5.3590762521449805e+17
19128.0	5.358876968179028e+17
19129.0	5.35804889932322e+17
19130.0	5.35719749685521e+17
19131.0	5.3562656455393274e+17
19132.0	5.3553121390318925e+17
19133.0	5.354322698523988e+17
19134.0	5.353398761160703e+17
19135.0	5.352444649974442e+17
19136.0	5.3514789093812896e+17
19137.0	5.350463146120533e+17
19138.0	5.349552779427839e+17
19139.0	5.348625056705193e+17
19140.0	5.347676296052736e+17
19141.0	5.346722300908885e+17
19142.0	5.3457402074234874e+17
19143.0	5.344780882018302e+17
19144.0	5.3438117230673914e+17
19145.0	5.3428949237104634e+17
19146.0	5.3413114376355834e+17
19147.0	5.340946600296447e+17
19148.0	5.339915550894761e+17
19149.0	5.338937971179519e+17
19150.0	5.3381335889565005e+17
19151.0	5.337174580920319e+17
19152.0	5.336219649048574e+17
19153.0	5.334980142039038e+17
19154.0	5.3342425331357005e+17
19155.0	5.3333456273626445e+17
19156.0	5.332403242751317e+17
19157.0	5.331363901909673e+17
19158.0	5.3302954798612474e+17
19159.0	5.3295310043436365e+17
19160.0	5.3285800556625914e+17
19161.0	5.327618401020585e+17
19162.0	5.3266115779188045e+17
19163.0	5.3257000577925114e+17
19164.0	5.324782002241535e+17
19165.0	5.3235469265141754e+17
19166.0	5.3228101704526496e+17
19167.0	5.3219266766656845e+17
19168.0	5.320996080844799e+17
19169.0	5.3200501611342496e+17
19170.0	5.3191036800860154e+17
19171.0	5.3181473277433165e+17
19172.0	5.3172066495146656e+17
19173.0	5.3162545236322976e+17
19174.0	5.315277041085099e+17
19175.0	5.314349737093802e+17
19176.0	5.3134079711423136e+17
19177.0	5.312313975024296e+17
19178.0	5.3115133411109536e+17
19179.0	5.3105629411846816e+17
19180.0	5.3096035612535456e+17
19181.0	5.3085772737850016e+17
19182.0	5.3076837479219194e+17
19183.0	5.306777116955988e+17
19184.0	5.3058319431325e+17
19185.0	5.3048787861504e+17
19186.0	5.3039388852660896e+17
19187.0	5.302934517230249e+17
19188.0	5.302042889289728e+17
19189.0	5.3010980796716365e+17
19190.0	5.300149524540074e+17
19191.0	5.2991714939371514e+17
19192.0	5.2982490546394445e+17
19193.0	5.297255507208875e+17
19194.0	5.296265247413589e+17
19195.0	5.2953649512448e+17
19196.0	5.2943674842371405e+17
19197.0	5.2933452960017056e+17
19198.0	5.292198918619136e+17
19199.0	5.29075324129553e+17
19200.0	5.289886211549865e+17
19201.0	5.2893875759131296e+17
19202.0	5.2886358874303136e+17
19203.0	5.287769391759359e+17
19204.0	5.286861894669653e+17
19205.0	5.2859331478377805e+17
19206.0	5.2850075865797965e+17
19207.0	5.2839277609178445e+17
19208.0	5.283007709577215e+17
19209.0	5.2821894449070074e+17
19210.0	5.281262627454975e+17
19211.0	5.280337772238164e+17
19212.0	5.2793906942006605e+17
19213.0	5.27835473256994e+17
19214.0	5.2774522560621216e+17
19215.0	5.276554452708009e+17
19216.0	5.275604654664363e+17
19217.0	5.274582456642219e+17
19218.0	5.273367164048724e+17
19219.0	5.272539534196735e+17
19220.0	5.2717897743947085e+17
19221.0	5.27078036550451e+17
19222.0	5.269921133669034e+17
19223.0	5.2690189395776845e+17
19224.0	5.2680515002914125e+17
19225.0	5.2671160991962445e+17
19226.0	5.266209749947732e+17
19227.0	5.26528700166963e+17
19228.0	5.264376572062378e+17
19229.0	5.263438960569002e+17
19230.0	5.262496578054825e+17
19231.0	5.2615504814844576e+17
19232.0	5.260620454690815e+17
19233.0	5.2596306017430176e+17
19234.0	5.2587430394811725e+17
19235.0	5.2577809101837645e+17
19236.0	5.256876528762879e+17
19237.0	5.2559283713911456e+17
19238.0	5.2549264108858003e+17
19239.0	5.2540703597308576e+17
19240.0	5.253133826173611e+17
19241.0	5.2521819169969485e+17
19242.0	5.2512501817234765e+17
19243.0	5.250175355671892e+17
19244.0	5.249396452447573e+17
19245.0	5.2484540818172576e+17
19246.0	5.2475188813496314e+17
19247.0	5.2465796837102925e+17
19248.0	5.24565608468753e+17
19249.0	5.2447128227676154e+17
19250.0	5.2437139786301434e+17
19251.0	5.242719647563775e+17
19252.0	5.241617871011839e+17
19253.0	5.2409628297789434e+17
19254.0	5.2400512516314445e+17
19255.0	5.238921185897129e+17
19256.0	5.2381720000157005e+17
19257.0	5.237247790721706e+17
19258.0	5.2363156458045434e+17
19259.0	5.235301340763477e+17
19260.0	5.234365472702464e+17
19261.0	5.233490631764651e+17
19262.0	5.232496534880256e+17
19263.0	5.231493595703977e+17
19264.0	5.2303412512249165e+17
19265.0	5.229557336506368e+17
19266.0	5.2285878580893005e+17
19267.0	5.227903900625578e+17
19268.0	5.2269761953791994e+17
19269.0	5.226043019362304e+17
19270.0	5.225064060420096e+17
19271.0	5.2239967002296314e+17
19272.0	5.22321496445201e+17
19273.0	5.2221376791401805e+17
19274.0	5.2210005809561574e+17
19275.0	5.220474514571262e+17
19276.0	5.2195278580613114e+17
19277.0	5.2186043450217805e+17
19278.0	5.217668432920575e+17
19279.0	5.2167188054452896e+17
19280.0	5.215774697674068e+17
19281.0	5.2148691299642016e+17
19282.0	5.213959281967103e+17
19283.0	5.2130206694331725e+17
19284.0	5.21205932237346e+17
19285.0	5.211101299299668e+17
19286.0	5.2101658695434234e+17
19287.0	5.2092197764683085e+17
19288.0	5.20743200821521e+17
19289.0	5.2061168632244896e+17
19290.0	5.2064231445845325e+17
19291.0	5.205333353955328e+17
19292.0	5.20467144454963e+17
19293.0	5.203751451230206e+17
19294.0	5.202814917672959e+17
19295.0	5.2019039190384634e+17
19296.0	5.2008034776733005e+17
19297.0	5.2000051289565856e+17
19298.0	5.199091954876414e+17
19299.0	5.198006805943637e+17
19300.0	5.197257666898602e+17
19301.0	5.1963377665529165e+17
19302.0	5.1953949296558074e+17
19303.0	5.194418729167529e+17
19304.0	5.1935430102220794e+17
19305.0	5.192607572776277e+17
19306.0	5.1916858779675296e+17
19307.0	5.1907222016709965e+17
19308.0	5.189802917188949e+17
19309.0	5.1888683780232525e+17
19310.0	5.1879167939051514e+17
19311.0	5.1869867789953696e+17
19312.0	5.186063122650451e+17
19313.0	5.1850233609803085e+17
19314.0	5.177316348351828e+17
19315.0	5.1768643617641875e+17
19316.0	5.1820315828114765e+17
19317.0	5.1814289165516794e+17
19318.0	5.1805440659073696e+17
19319.0	5.1796462031339514e+17
19320.0	5.1786589275859616e+17
19321.0	5.177639620138324e+17
19322.0	5.176845386033834e+17
19323.0	5.1759285419376634e+17
19324.0	5.1750112196908365e+17
19325.0	5.174088920902313e+17
19326.0	5.173168967428778e+17
19327.0	5.172241002834602e+17
19328.0	5.1710162381045754e+17
19329.0	5.170397367850325e+17
19330.0	5.1694584029948576e+17
19331.0	5.168497771063977e+17
19332.0	5.167621948659028e+17
19333.0	5.16668515155968e+17
19334.0	5.165764751392767e+17
19335.0	5.164226298161835e+17
19336.0	5.163908423046485e+17
19337.0	5.162980017351338e+17
19338.0	5.161850963842389e+17
19339.0	5.1611099946024954e+17
19340.0	5.160009034541738e+17
19341.0	5.1588944569739936e+17
19342.0	5.158067082275498e+17
19343.0	5.1573095930702496e+17
19344.0	5.1560447636493645e+17
19345.0	5.1541646382202874e+17
19346.0	5.153578928832511e+17
19347.0	5.1532200837556896e+17
19348.0	5.1527061710656845e+17
19349.0	5.1517806223906125e+17
19350.0	5.15075404271889e+17
19351.0	5.1499279319039994e+17
19352.0	5.148681122611198e+17
19353.0	5.148117024374783e+17
19354.0	5.147191349870591e+17
19355.0	5.146161069424638e+17
19356.0	5.1453255493877754e+17
19357.0	5.144384156729343e+17
19358.0	5.143442630552234e+17
19359.0	5.1424175063039994e+17
19360.0	5.141300294014293e+17
19361.0	5.140619192172543e+17
19362.0	5.139698256532821e+17
19363.0	5.1387630791338656e+17
19364.0	5.1378238577268045e+17
19365.0	5.136883324900692e+17
19366.0	5.1359415673378125e+17
19367.0	5.1349982194346656e+17
19368.0	5.134052367532032e+17
19369.0	5.133080148137299e+17
19370.0	5.132140996635307e+17
19371.0	5.131156538261502e+17
19372.0	5.1302613367739725e+17
19373.0	5.129285506083498e+17
19374.0	5.128338114172245e+17
19375.0	5.1273869683589114e+17
19376.0	5.126428832038911e+17
19377.0	5.125458765021183e+17
19378.0	5.124498235850751e+17
19379.0	5.1235371858875725e+17
19380.0	5.122571882900138e+17
19381.0	5.1215936551649274e+17
19382.0	5.120541732110335e+17
19383.0	5.1195775958384634e+17
19384.0	5.118638027702272e+17
19385.0	5.117670907882154e+17
19386.0	5.116690849333246e+17
19387.0	5.1156974591890765e+17
19388.0	5.1146938482251085e+17
19389.0	5.1136688372230816e+17
19390.0	5.11253993960243e+17
19391.0	5.1099099502127763e+17
19392.0	5.1101810644309325e+17
19393.0	5.109586275074046e+17
19394.0	5.1085998390859085e+17
19395.0	5.107485619432106e+17
19396.0	5.1065126723256314e+17
19397.0	5.1054678614125216e+17
19398.0	5.1042576530145274e+17
19399.0	5.102820838954325e+17
19400.0	5.1019670639083514e+17
19401.0	5.1011259682433696e+17
19402.0	5.10005481710114e+17
19403.0	5.098924897468415e+17
19404.0	5.097809666987349e+17
19405.0	5.09663046078737e+17
19406.0	5.095440788400809e+17
19407.0	5.0941046914635085e+17
19408.0	5.0926127635496954e+17
19409.0	5.0916805228625914e+17
19410.0	5.0905633441273165e+17
19411.0	5.0892925741738656e+17
19412.0	5.087942818485588e+17
19413.0	5.086479745985193e+17
19414.0	5.0851712965017594e+17
19415.0	5.0837300931024205e+17
19416.0	5.082096924098559e+17
19417.0	5.0806850193107616e+17
19418.0	5.079115028409003e+17
19419.0	5.0774728640211616e+17
19420.0	5.075711927429802e+17
19421.0	5.0739161061130234e+17
19422.0	5.0719849094403405e+17
19423.0	5.06994861609233e+17
19424.0	5.0678283639630496e+17
19425.0	5.065552246603775e+17
19426.0	5.0630656548754765e+17
19427.0	5.060543864548009e+17
19428.0	5.057832033102506e+17
19429.0	5.0548640177629856e+17
19430.0	5.0515219592861e+17
19431.0	5.0479198420773536e+17
19432.0	5.044368324952062e+17
19433.0	5.0401251601066656e+17
19434.0	5.035487460152661e+17
19435.0	5.030340928208894e+17
19436.0	5.024437199263061e+17
19437.0	5.0178630108228256e+17
19438.0	5.0072868565811194e+17
19439.0	5.001240174570154e+17
19440.0	4.9925304639378765e+17
19441.0	4.981506028077054e+17
19442.0	4.9684652385894406e+17
19443.0	4.952753709252607e+17
19444.0	4.9341638450872294e+17
19445.0	4.9113918061499744e+17
19446.0	4.8826320501254803e+17
19447.0	4.846247267532796e+17
19448.0	4.795784249737218e+17
19449.0	4.71959798354193e+17
19450.0	4.566526624879952e+17
19451.0	4.4288888872632403e+17
19452.0	4.660312429734567e+17
19453.0	4.7600983451456877e+17
19454.0	4.818594913320957e+17
19455.0	4.859264608763903e+17
19456.0	4.8893288786165754e+17
19457.0	4.912818037282131e+17
19458.0	4.909682983086786e+17
19459.0	4.944154733838341e+17
19460.0	4.9594421106879123e+17
19461.0	4.969694150088021e+17
19462.0	4.97833614508032e+17
19463.0	4.985628266244778e+17
19464.0	4.991726218029738e+17
19465.0	4.996753865222826e+17
19466.0	5.0010850657129805e+17
19467.0	5.004666359600468e+17
19468.0	5.007663997211989e+17
19469.0	5.009980386181119e+17
19470.0	5.012490682717525e+17
19471.0	5.014354074970793e+17
19472.0	5.0158353353714336e+17
19473.0	5.0170921222144e+17
19474.0	5.017853626766677e+17
19475.0	5.018317915247955e+17
19476.0	5.019452064836265e+17
19477.0	5.02019180724224e+17
19478.0	5.0206155479886496e+17
19479.0	5.020713121480702e+17
19480.0	5.0210723943765325e+17
19481.0	5.0210994846870176e+17
19482.0	5.021118590440788e+17
19483.0	5.021029585911807e+17
19484.0	5.020837021220864e+17
19485.0	5.0205542685081594e+17
19486.0	5.020082092638208e+17
19487.0	5.019982654778026e+17
19488.0	5.0195676207076685e+17
19489.0	5.018785803141119e+17
19490.0	5.017916454644394e+17
19491.0	5.01815085052723e+17
19492.0	5.0177565160461645e+17
19493.0	5.017225329115136e+17
19494.0	5.0166399384944634e+17
19495.0	5.0160025049497594e+17
19496.0	5.0150778021259936e+17
19497.0	5.0146042666024954e+17
19498.0	5.013077428098388e+17
19499.0	5.010693075326293e+17
19500.0	5.012583316018517e+17
19501.0	5.0120810124629325e+17
19502.0	5.011420750020607e+17
19503.0	5.0107278048624634e+17
19504.0	5.010004893499392e+17
19505.0	5.0092693614755834e+17
19506.0	5.0085359468762445e+17
19507.0	5.0077662263814816e+17
19508.0	5.007001914441727e+17
19509.0	5.0061533284488525e+17
19510.0	5.0049295347002016e+17
19511.0	4.994556630138875e+17
19512.0	5.0025558228773536e+17
19513.0	5.001840466154836e+17
19514.0	5.0012963460874234e+17
19515.0	5.0012126529454086e+17
19516.0	5.000634677854208e+17
19517.0	4.999892270667092e+17
19518.0	4.999104539131902e+17
19519.0	4.9983008398813856e+17
19520.0	4.9973275893869203e+17
19521.0	4.9967636050957645e+17
19522.0	4.9958784440729594e+17
19523.0	4.9950698773326496e+17
19524.0	4.9941312354385914e+17
19525.0	4.9934636294690125e+17
19526.0	4.992647217982122e+17
19527.0	4.9918066920434336e+17
19528.0	4.990954298321577e+17
19529.0	4.9901085644554234e+17
19530.0	4.9893161073377274e+17
19531.0	4.988487008780287e+17
19532.0	4.987651123139924e+17
19533.0	4.986808702074879e+17
19534.0	4.985962418055849e+17
19535.0	4.985095147836756e+17
19536.0	4.984223507152895e+17
19537.0	4.983388690361001e+17
19538.0	4.9821640220999674e+17
19539.0	4.9814085755207674e+17
19540.0	4.9808064768901114e+17
19541.0	4.9799581886928205e+17
19542.0	4.979133501145087e+17
19543.0	4.9780695243598496e+17
19544.0	4.9773737249778336e+17
19545.0	4.9761156274148685e+17
19546.0	4.975181447561215e+17
19547.0	4.9748243018765645e+17
19548.0	4.974034996778325e+17
19549.0	4.973099253847381e+17
19550.0	4.972357919003989e+17
19551.0	4.971505490329598e+17
19552.0	4.9706477768321696e+17
19553.0	4.9697741634273274e+17
19554.0	4.9689102940897274e+17
19555.0	4.968036987568128e+17
19556.0	4.967207479366998e+17
19557.0	4.966362659859114e+17
19558.0	4.965505576206334e+17
19559.0	4.964649708901715e+17
19560.0	4.96368702665523e+17
19561.0	4.9629058088741536e+17
19562.0	4.9619876764276045e+17
19563.0	4.961215784681471e+17
19564.0	4.9603556741393056e+17
19565.0	4.9594914042456736e+17
19566.0	4.9586154350400845e+17
19567.0	4.9577703275233274e+17
19568.0	4.9568904394397005e+17
19569.0	4.956034973390164e+17
19570.0	4.955190286701909e+17
19571.0	4.954327772823551e+17
19572.0	4.9534346321373856e+17
19573.0	4.9525750794376525e+17
19574.0	4.9516438223148365e+17
19575.0	4.9508886700359674e+17
19576.0	4.950007141280425e+17
19577.0	4.9491000824954874e+17
19578.0	4.9482781897523194e+17
19579.0	4.9474098597724154e+17
19580.0	4.9465526691648845e+17
19581.0	4.945711166652415e+17
19582.0	4.9448579746146976e+17
19583.0	4.9439967714563405e+17
19584.0	4.943133320151038e+17
19585.0	4.942151790799529e+17
19586.0	4.9412619174761805e+17
19587.0	4.9404877503201274e+17
19588.0	4.939416425114281e+17
19589.0	4.938736299147262e+17
19590.0	4.9378429885917856e+17
19591.0	4.9370856343033165e+17
19592.0	4.936239422985557e+17
19593.0	4.93534126870801e+17
19594.0	4.934244302323711e+17
19595.0	4.933637013940906e+17
19596.0	4.9327806216492365e+17
19597.0	4.931901701750782e+17
19598.0	4.9306359167276365e+17
19599.0	4.9301694164500474e+17
19600.0	4.9293413965277856e+17
19601.0	4.928424192420522e+17
19602.0	4.9275109638144e+17
19603.0	4.9265396587779405e+17
19604.0	4.925812022531413e+17
19605.0	4.924805432912555e+17
19606.0	4.924172138446847e+17
19607.0	4.9233324310964896e+17
19608.0	4.9224617425196365e+17
19609.0	4.921579762876415e+17
19610.0	4.9206496228365645e+17
19611.0	4.9197337657999354e+17
19612.0	4.919039644838571e+17
19613.0	4.918168911522474e+17
19614.0	4.9172775121715194e+17
19615.0	4.9164462025168205e+17
19616.0	4.915456097910784e+17
19617.0	4.914485362600619e+17
19618.0	4.913335998174549e+17
19619.0	4.912323698010794e+17
19620.0	4.9116534188714656e+17
19621.0	4.910992813894313e+17
19622.0	4.910425765664085e+17
19623.0	4.9095715502161914e+17
19624.0	4.9086868274981536e+17
19625.0	4.907871976991402e+17
19626.0	4.90700121781043e+17
19627.0	4.906133906347349e+17
19628.0	4.9052327000145914e+17
19629.0	4.903694409662462e+17
19630.0	4.9031484517908474e+17
19631.0	4.901978657609044e+17
19632.0	4.9016648146179405e+17
19633.0	4.900912245331283e+17
19634.0	4.900136255750142e+17
19635.0	4.899240855732222e+17
19636.0	4.898192944529407e+17
19637.0	4.897028056285183e+17
19638.0	4.896715436632746e+17
19639.0	4.895861453968725e+17
19640.0	4.894723572847957e+17
19641.0	4.893187093736107e+17
19642.0	4.893258217947136e+17
19643.0	4.8924209453902496e+17
19644.0	4.8915120858507936e+17
19645.0	4.890606609017514e+17
19646.0	4.8896194481138336e+17
19647.0	4.889047997961556e+17
19648.0	4.888200782807038e+17
19649.0	4.8873478116693325e+17
19650.0	4.886498948153343e+17
19651.0	4.8856413520964256e+17
19652.0	4.8847874449298765e+17
19653.0	4.883940961681407e+17
19654.0	4.883080228285098e+17
19655.0	4.882222563022164e+17
