# Flux units: erg / (cm m2 s)
# Wavelength units: Angstrom
wave	flux
19000.0	6.522600440900265e+17
19001.0	6.521314888821418e+17
19002.0	6.520174802894847e+17
19003.0	6.518959892682068e+17
19004.0	6.51774543335697e+17
19005.0	6.516533852722516e+17
19006.0	6.515319908597757e+17
19007.0	6.514065637638143e+17
19008.0	6.512846932978346e+17
19009.0	6.511607193883988e+17
19010.0	6.510126235473235e+17
19011.0	6.509217189986304e+17
19012.0	6.507848339729065e+17
19013.0	6.506810445922304e+17
19014.0	6.505555093531305e+17
19015.0	6.504355261142356e+17
19016.0	6.503130404836692e+17
19017.0	6.501950948376575e+17
19018.0	6.500725589453482e+17
19019.0	6.499518349923667e+17
19020.0	6.49828927414818e+17
19021.0	6.497089940182356e+17
19022.0	6.495885382909951e+17
19023.0	6.4946403540992e+17
19024.0	6.493435301199871e+17
19025.0	6.492226630713343e+17
19026.0	6.490989647276713e+17
19027.0	6.489669520151892e+17
19028.0	6.48858651660561e+17
19029.0	6.487368738886995e+17
19030.0	6.486165276327935e+17
19031.0	6.484950216518313e+17
19032.0	6.483732342330708e+17
19033.0	6.482453235499005e+17
19034.0	6.481293564968959e+17
19035.0	6.480052442453331e+17
19036.0	6.469297438894761e+17
19037.0	6.477644555441491e+17
19038.0	6.476425354455721e+17
19039.0	6.475251607142399e+17
19040.0	6.474093295566847e+17
19041.0	6.472877316505599e+17
19042.0	6.471589256232959e+17
19043.0	6.470448369893375e+17
19044.0	6.469231629565951e+17
19045.0	6.468018148212736e+17
19046.0	6.466765523517439e+17
19047.0	6.465574539711828e+17
19048.0	6.464220665916074e+17
19049.0	6.463094581275305e+17
19050.0	6.461911546374826e+17
19051.0	6.459302815115944e+17
19052.0	6.459244042431146e+17
19053.0	6.458288860998314e+17
19054.0	6.457083994745514e+17
19055.0	6.455683720063658e+17
19056.0	6.454640459644927e+17
19057.0	6.453435370394963e+17
19058.0	6.452205708115967e+17
19059.0	6.451012480357715e+17
19060.0	6.449782248352425e+17
19061.0	6.448585633693695e+17
19062.0	6.447368039825407e+17
19063.0	6.446155529453567e+17
19064.0	6.444858473097898e+17
19065.0	6.443602038576467e+17
19066.0	6.442473599533055e+17
19067.0	6.441300935049215e+17
19068.0	6.440089041939114e+17
19069.0	6.438876165264723e+17
19070.0	6.437645307609087e+17
19071.0	6.43645034201088e+17
19072.0	6.435237263310847e+17
19073.0	6.434020476846079e+17
19074.0	6.432811569381373e+17
19075.0	6.431598843002879e+17
19076.0	6.430371080743593e+17
19077.0	6.429162915670698e+17
19078.0	6.427941391739561e+17
19079.0	6.426747283876521e+17
19080.0	6.425523748077568e+17
19081.0	6.42429441155618e+17
19082.0	6.423079779565565e+17
19083.0	6.421821201055741e+17
19084.0	6.420519771439103e+17
19085.0	6.41947619435042e+17
19086.0	6.417987857459882e+17
19087.0	6.416773423300608e+17
19088.0	6.415775670381226e+17
19089.0	6.414359401420116e+17
19090.0	6.413395012091903e+17
19091.0	6.412185757199017e+17
19092.0	6.410896285543082e+17
19093.0	6.409786527230633e+17
19094.0	6.408573458317311e+17
19095.0	6.407362197848063e+17
19096.0	6.406142984978431e+17
19097.0	6.404943183347711e+17
19098.0	6.403732446467412e+17
19099.0	6.40252164247825e+17
19100.0	6.401296228330154e+17
19101.0	6.400102853072211e+17
19102.0	6.398822487949311e+17
19103.0	6.397686328590335e+17
19104.0	6.396476733259775e+17
19105.0	6.395259990835197e+17
19106.0	6.394007833105748e+17
19107.0	6.392834896691199e+17
19108.0	6.391634711980714e+17
19109.0	6.389657040322557e+17
19110.0	6.389193824185001e+17
19111.0	6.388010573976916e+17
19112.0	6.386802394923007e+17
19113.0	6.385596480094208e+17
19114.0	6.384386538733567e+17
19115.0	6.383128752248148e+17
19116.0	6.381955107695273e+17
19117.0	6.380746713333759e+17
19118.0	6.379453838000127e+17
19119.0	6.375105268198053e+17
19120.0	6.377052701021524e+17
19121.0	6.375873299786409e+17
19122.0	6.374725604693332e+17
19123.0	6.373517689880575e+17
19124.0	6.372264861761535e+17
19125.0	6.371096355231059e+17
19126.0	6.369891102403241e+17
19127.0	6.367407560633001e+17
19128.0	6.367237526345044e+17
19129.0	6.366218078388223e+17
19130.0	6.365054045082963e+17
19131.0	6.363861000475988e+17
19132.0	6.362653846230356e+17
19133.0	6.361315284440404e+17
19134.0	6.360131586140841e+17
19135.0	6.359031895556095e+17
19136.0	6.357833175356756e+17
19137.0	6.356509081818452e+17
19138.0	6.355402517468502e+17
19139.0	6.354214956214953e+17
19140.0	6.353010907152383e+17
19141.0	6.351805379597652e+17
19142.0	6.350582154876244e+17
19143.0	6.34935609200913e+17
19144.0	6.348161886978047e+17
19145.0	6.346982528385023e+17
19146.0	6.345350506523306e+17
19147.0	6.344497754887508e+17
19148.0	6.343363051651071e+17
19149.0	6.342159295490729e+17
19150.0	6.340953976952148e+17
19151.0	6.339755874014548e+17
19152.0	6.338538198357331e+17
19153.0	6.337328445740372e+17
19154.0	6.336048609099775e+17
19155.0	6.334938311819264e+17
19156.0	6.333731195322365e+17
19157.0	6.332511099551743e+17
19158.0	6.330796994461695e+17
19159.0	6.330102948298751e+17
19160.0	6.328904922256724e+17
19161.0	6.327688467841023e+17
19162.0	6.32531112025566e+17
19163.0	6.325265997933225e+17
19164.0	6.324101905208659e+17
19165.0	6.322869948645376e+17
19166.0	6.321583220763305e+17
19167.0	6.32037870473489e+17
19168.0	6.319267847514793e+17
19169.0	6.318051497257641e+17
19170.0	6.316880657995091e+17
19171.0	6.315605816770559e+17
19172.0	6.314468599747924e+17
19173.0	6.313268957500756e+17
19174.0	6.312028693419348e+17
19175.0	6.310868070083242e+17
19176.0	6.309664922796031e+17
19177.0	6.308350970385748e+17
19178.0	6.307225795908948e+17
19179.0	6.30595474353903e+17
19180.0	6.30483324117538e+17
19181.0	6.303565406535679e+17
19182.0	6.302427222026921e+17
19183.0	6.301241119692116e+17
19184.0	6.300023083324756e+17
19185.0	6.298832173618516e+17
19186.0	6.297632143398227e+17
19187.0	6.296377944440831e+17
19188.0	6.295224570260137e+17
19189.0	6.294015495722324e+17
19190.0	6.292805441115476e+17
19191.0	6.291583044769108e+17
19192.0	6.290413385504084e+17
19193.0	6.289202163482623e+17
19194.0	6.287994915564201e+17
19195.0	6.286801859073364e+17
19196.0	6.285587992543232e+17
19197.0	6.284378866275668e+17
19198.0	6.283150804822697e+17
19199.0	6.274905611960317e+17
19200.0	6.275845175203159e+17
19201.0	6.279545764883114e+17
19202.0	6.27836934440004e+17
19203.0	6.277153771487232e+17
19204.0	6.275951857325396e+17
19205.0	6.274758576439296e+17
19206.0	6.27355288670481e+17
19207.0	6.272283418383699e+17
19208.0	6.271004626124799e+17
19209.0	6.269943004441257e+17
19210.0	6.268748221994324e+17
19211.0	6.267543159308287e+17
19212.0	6.266338243422889e+17
19213.0	6.265022067332435e+17
19214.0	6.263778392582826e+17
19215.0	6.262693732286463e+17
19216.0	6.26151498326562e+17
19217.0	6.260311074013183e+17
19218.0	6.258503570161663e+17
19219.0	6.255612363014141e+17
19220.0	6.253714260798121e+17
19221.0	6.252292437180415e+17
19222.0	6.251309750900052e+17
19223.0	6.250099839598591e+17
19224.0	6.248864738006356e+17
19225.0	6.247586737072809e+17
19226.0	6.246467189953875e+17
19227.0	6.245256286699519e+17
19228.0	6.244066541611689e+17
19229.0	6.242856614931114e+17
19230.0	6.241635194459475e+17
19231.0	6.24042052681728e+17
19232.0	6.239217449435135e+17
19233.0	6.237963828592639e+17
19234.0	6.236786523111423e+17
19235.0	6.23557604487987e+17
19236.0	6.234379602187604e+17
19237.0	6.23315547918609e+17
19238.0	6.231879188829524e+17
19239.0	6.230741617388202e+17
19240.0	6.229493993701375e+17
19241.0	6.228286596186112e+17
19242.0	6.227085292994559e+17
19243.0	6.225764703797247e+17
19244.0	6.22466883981585e+17
19245.0	6.223452502840659e+17
19246.0	6.222224365191168e+17
19247.0	6.221017653444608e+17
19248.0	6.219800585961472e+17
19249.0	6.218579737313279e+17
19250.0	6.217348157538303e+17
19251.0	6.216048869812905e+17
19252.0	6.214725773120852e+17
19253.0	6.2136837486237e+17
19254.0	6.212474347629225e+17
19255.0	6.21112871564083e+17
19256.0	6.210002223453524e+17
19257.0	6.208810263773183e+17
19258.0	6.207584927918761e+17
19259.0	6.206309675652435e+17
19260.0	6.204951677457748e+17
19261.0	6.203902654764371e+17
19262.0	6.202635782018388e+17
19263.0	6.201402280553129e+17
19264.0	6.199828855914495e+17
19265.0	6.198845395085994e+17
19266.0	6.197613156805289e+17
19267.0	6.196524393081514e+17
19268.0	6.19529062387985e+17
19269.0	6.194055744585727e+17
19270.0	6.192817964930388e+17
19271.0	6.191339344145066e+17
19272.0	6.190317889912832e+17
19273.0	6.188012833953107e+17
19274.0	6.187141692391423e+17
19275.0	6.186621997853354e+17
19276.0	6.185364911117652e+17
19277.0	6.184123985734313e+17
19278.0	6.182880796125865e+17
19279.0	6.181624115538602e+17
19280.0	6.178246505441957e+17
19281.0	6.175623520539988e+17
19282.0	6.174379448729599e+17
19283.0	6.173014613819391e+17
19284.0	6.171764997139113e+17
19285.0	6.170460988724564e+17
19286.0	6.169310904276308e+17
19287.0	6.168070674448381e+17
19288.0	6.164050080344742e+17
19289.0	6.15949998751743e+17
19290.0	6.164263735394303e+17
19291.0	6.162806780985344e+17
19292.0	6.161717179099818e+17
19293.0	6.160434215605588e+17
19294.0	6.159152084680703e+17
19295.0	6.157878138940074e+17
19296.0	6.15659301048593e+17
19297.0	6.155297234791082e+17
19298.0	6.154003476556458e+17
19299.0	6.152724143931391e+17
19300.0	6.151425414747475e+17
19301.0	6.150125665648639e+17
19302.0	6.148816333264212e+17
19303.0	6.147471034722985e+17
19304.0	6.146189658073769e+17
19305.0	6.144892620592468e+17
19306.0	6.143583876808704e+17
19307.0	6.13989956731972e+17
19308.0	6.136788656936276e+17
19309.0	6.135221489500159e+17
19310.0	6.133804827672575e+17
19311.0	6.132747154227199e+17
19312.0	6.131445045133311e+17
19313.0	6.130098637198675e+17
19314.0	6.120385382711301e+17
19315.0	6.119511888145073e+17
19316.0	6.125996886807892e+17
19317.0	6.124650638955859e+17
19318.0	6.123271092524372e+17
19319.0	6.121904702226431e+17
19320.0	6.120517503287295e+17
19321.0	6.119127529816063e+17
19322.0	6.117660499290793e+17
19323.0	6.115056072785917e+17
19324.0	6.112503154431316e+17
19325.0	6.110852316222803e+17
19326.0	6.109649483508393e+17
19327.0	6.108206195539965e+17
19328.0	6.106767881317034e+17
19329.0	6.105323458789373e+17
19330.0	6.103837286159699e+17
19331.0	6.10236635353361e+17
19332.0	6.100920253983402e+17
19333.0	6.09944082649361e+17
19334.0	6.097946912576852e+17
19335.0	6.096438122162857e+17
19336.0	6.094937319800831e+17
19337.0	6.093415836723882e+17
19338.0	6.091741271337641e+17
19339.0	6.090349473344169e+17
19340.0	6.088741466669055e+17
19341.0	6.087216923847337e+17
19342.0	6.085393276818771e+17
19343.0	6.084087530564265e+17
19344.0	6.082490605939369e+17
19345.0	6.07953441014852e+17
19346.0	6.078631543570431e+17
19347.0	6.077587249255764e+17
19348.0	6.075998752385705e+17
19349.0	6.074320786117971e+17
19350.0	6.072644013129727e+17
19351.0	6.070956072807082e+17
19352.0	6.069211485612713e+17
19353.0	6.067547928177322e+17
19354.0	6.065811324840617e+17
19355.0	6.06398723531298e+17
19356.0	6.062280370290688e+17
19357.0	6.060489168300714e+17
19358.0	6.058667849110867e+17
19359.0	6.05678264717585e+17
19360.0	6.054958357020672e+17
19361.0	6.053093116477439e+17
19362.0	6.051225156627113e+17
19363.0	6.049305460036947e+17
19364.0	6.047363193197908e+17
19365.0	6.045401503935146e+17
19366.0	6.043413633826815e+17
19367.0	6.041400211319465e+17
19368.0	6.039360038939306e+17
19369.0	6.03724342956305e+17
19370.0	6.035077144947369e+17
19371.0	6.033026774816084e+17
19372.0	6.030903029530623e+17
19373.0	6.028697647710207e+17
19374.0	6.026484739211263e+17
19375.0	6.024221385818111e+17
19376.0	6.021926179482282e+17
19377.0	6.019589039893161e+17
19378.0	6.017217836264105e+17
19379.0	6.01480481612322e+17
19380.0	6.012350116484436e+17
19381.0	6.00985267479074e+17
19382.0	6.007263128278356e+17
19383.0	6.004660489945088e+17
19384.0	6.002116211157673e+17
19385.0	5.999447813827242e+17
19386.0	5.996731220448595e+17
19387.0	5.993960201781247e+17
19388.0	5.991136213248682e+17
19389.0	5.988198245903018e+17
19390.0	5.984999306865321e+17
19391.0	5.973950856516938e+17
19392.0	5.978768206899881e+17
19393.0	5.975836683403263e+17
19394.0	5.972651831634602e+17
19395.0	5.969400024094036e+17
19396.0	5.966095074721791e+17
19397.0	5.962766250672127e+17
19398.0	5.959333786069673e+17
19399.0	5.955375315899731e+17
19400.0	5.95225069293841e+17
19401.0	5.948668260297386e+17
19402.0	5.944959386167977e+17
19403.0	5.941156124120404e+17
19404.0	5.937300487099732e+17
19405.0	5.932838091576659e+17
19406.0	5.928618332345684e+17
19407.0	5.924481488912383e+17
19408.0	5.919687546940074e+17
19409.0	5.915834271312554e+17
19410.0	5.911426569513642e+17
19411.0	5.906436427786922e+17
19412.0	5.901203138063017e+17
19413.0	5.896521352478719e+17
19414.0	5.891731630675283e+17
19415.0	5.885632493300396e+17
19416.0	5.880041521719977e+17
19417.0	5.874363216341674e+17
19418.0	5.867183237584212e+17
19419.0	5.860685945416364e+17
19420.0	5.852602430390271e+17
19421.0	5.843383343906815e+17
19422.0	5.833553953335978e+17
19423.0	5.821608844678486e+17
19424.0	5.807432192928426e+17
19425.0	5.789021747806204e+17
19426.0	5.766462351693139e+17
19427.0	5.7461348803543034e+17
19428.0	5.7339518015679136e+17
19429.0	5.720998187193684e+17
19430.0	5.706960141112662e+17
19431.0	5.690973241038167e+17
19432.0	5.6768802411861325e+17
19433.0	5.660487119973034e+17
19434.0	5.643172766023679e+17
19435.0	5.62527573516834e+17
19436.0	5.60592228258065e+17
19437.0	5.5857140245463034e+17
19438.0	5.549622595769688e+17
19439.0	5.5305322679500883e+17
19440.0	5.486948760857252e+17
19441.0	5.4212786549773485e+17
19442.0	5.37463989661423e+17
19443.0	5.3295873799837e+17
19444.0	5.278909095826771e+17
19445.0	5.2183324268953626e+17
19446.0	5.13094358086451e+17
19447.0	5.006657094418416e+17
19448.0	4.877690114233693e+17
19449.0	4.665102769498782e+17
19450.0	4.246048446873583e+17
19451.0	4.10620696111784e+17
19452.0	4.478321203784366e+17
19453.0	4.7879834762390246e+17
19454.0	4.944106948831909e+17
19455.0	5.064066329127594e+17
19456.0	5.171956845030061e+17
19457.0	5.2404095339724774e+17
19458.0	5.2765472322136966e+17
19459.0	5.3376446882993555e+17
19460.0	5.379062247019859e+17
19461.0	5.437264403715411e+17
19462.0	5.490602656748885e+17
19463.0	5.5240573048586195e+17
19464.0	5.548631921437354e+17
19465.0	5.5689472202069344e+17
19466.0	5.586512177528829e+17
19467.0	5.602359339472213e+17
19468.0	5.61815987753233e+17
19469.0	5.6324495482989203e+17
19470.0	5.6464727185817594e+17
19471.0	5.6593554240525645e+17
19472.0	5.671597789325993e+17
19473.0	5.6827310093544096e+17
19474.0	5.693117506955947e+17
19475.0	5.7047515604363974e+17
19476.0	5.727550125550249e+17
19477.0	5.744547374738085e+17
19478.0	5.758270450259284e+17
19479.0	5.769318704873468e+17
19480.0	5.778291112454828e+17
19481.0	5.785247027298304e+17
19482.0	5.790801295922516e+17
19483.0	5.796684773370538e+17
19484.0	5.800719244328959e+17
19485.0	5.80540517388561e+17
19486.0	5.80835165217314e+17
19487.0	5.812328308146173e+17
19488.0	5.815354508967936e+17
19489.0	5.8177832353792e+17
19490.0	5.819363246473215e+17
19491.0	5.823681717250729e+17
19492.0	5.825956293203284e+17
19493.0	5.828121381044223e+17
19494.0	5.8302134236829e+17
19495.0	5.832185131739818e+17
19496.0	5.833778932307283e+17
19497.0	5.836163071169878e+17
19498.0	5.836994694698324e+17
19499.0	5.826913109016571e+17
19500.0	5.841227576508415e+17
19501.0	5.842662099779583e+17
19502.0	5.844007130584404e+17
19503.0	5.84529006821376e+17
19504.0	5.846491808311978e+17
19505.0	5.847625039347712e+17
19506.0	5.848697732595712e+17
19507.0	5.849706919886848e+17
19508.0	5.850679848118953e+17
19509.0	5.851572233830399e+17
19510.0	5.85225974456866e+17
19511.0	5.837336868814842e+17
19512.0	5.851750751797245e+17
19513.0	5.850916284530682e+17
19514.0	5.852712414827857e+17
19515.0	5.855555818094592e+17
19516.0	5.856435695692457e+17
19517.0	5.856842609590272e+17
19518.0	5.857272599150591e+17
19519.0	5.857603202580477e+17
19520.0	5.857884283863039e+17
19521.0	5.858163746144255e+17
19522.0	5.858357657206783e+17
19523.0	5.858553796143786e+17
19524.0	5.858686984869203e+17
19525.0	5.858769623842815e+17
19526.0	5.858835768715946e+17
19527.0	5.858853683986432e+17
19528.0	5.858833825355092e+17
19529.0	5.858787881648127e+17
19530.0	5.858709479620608e+17
19531.0	5.85859526033408e+17
19532.0	5.858450426822655e+17
19533.0	5.858276059119615e+17
19534.0	5.858070794076159e+17
19535.0	5.85783499170338e+17
19536.0	5.857557755199487e+17
19537.0	5.857304614972074e+17
19538.0	5.856912104314195e+17
19539.0	5.856298415423488e+17
19540.0	5.856303912757929e+17
19541.0	5.855950300075348e+17
19542.0	5.855555363711657e+17
19543.0	5.855139285958655e+17
19544.0	5.854709953505962e+17
19545.0	5.853914706477055e+17
19546.0	5.853173245105492e+17
19547.0	5.853300659672403e+17
19548.0	5.85279213806114e+17
19549.0	5.852203943548244e+17
19550.0	5.85173158732322e+17
19551.0	5.851178356528467e+17
19552.0	5.850607543211347e+17
19553.0	5.850005667577855e+17
19554.0	5.849398463081129e+17
19555.0	5.848802335741268e+17
19556.0	5.848187834553684e+17
19557.0	5.847546884085075e+17
19558.0	5.846898096559444e+17
19559.0	5.846235204288512e+17
19560.0	5.845544923911508e+17
19561.0	5.844859213228714e+17
19562.0	5.844186184723114e+17
19563.0	5.843481735288148e+17
19564.0	5.842767762685951e+17
19565.0	5.842044059298474e+17
19566.0	5.841289137007274e+17
19567.0	5.840567953697449e+17
19568.0	5.839800025568596e+17
19569.0	5.839052769067007e+17
19570.0	5.838291797191337e+17
19571.0	5.837512913540436e+17
19572.0	5.836713187693908e+17
19573.0	5.835926745208148e+17
19574.0	5.835082848447145e+17
19575.0	5.834341450689194e+17
19576.0	5.833531241179817e+17
19577.0	5.832703449847124e+17
19578.0	5.83185967751714e+17
19579.0	5.831039493952852e+17
19580.0	5.830203815930538e+17
19581.0	5.829371441621674e+17
19582.0	5.828536259226282e+17
19583.0	5.827683866203476e+17
19584.0	5.826961973357228e+17
19585.0	5.828054660153344e+17
19586.0	5.82715389771776e+17
19587.0	5.826331964429652e+17
19588.0	5.825158208727721e+17
19589.0	5.824587888241321e+17
19590.0	5.823643204452351e+17
19591.0	5.822812024821075e+17
19592.0	5.821910695455401e+17
19593.0	5.820992602854739e+17
19594.0	5.819931828420608e+17
19595.0	5.819154750417577e+17
19596.0	5.817742403130708e+17
19597.0	5.817324007325695e+17
19598.0	5.816171725761194e+17
19599.0	5.815501774476628e+17
19600.0	5.814579600818173e+17
19601.0	5.813599443703126e+17
19602.0	5.812675386802175e+17
19603.0	5.811386809232041e+17
19604.0	5.810786491083434e+17
19605.0	5.809685405892607e+17
19606.0	5.810868050023762e+17
19607.0	5.811653857072467e+17
19608.0	5.810687748778665e+17
19609.0	5.809696195739647e+17
19610.0	5.808769450988884e+17
19611.0	5.807799314066089e+17
19612.0	5.806840052973567e+17
19613.0	5.805864006975487e+17
19614.0	5.804871338950655e+17
19615.0	5.803925454192639e+17
19616.0	5.802879869430441e+17
19617.0	5.801970529643178e+17
19618.0	5.800586824559273e+17
19619.0	5.799518779998205e+17
19620.0	5.798558887662932e+17
19621.0	5.798053007764138e+17
19622.0	5.797073446939306e+17
19623.0	5.796088093081599e+17
19624.0	5.79509406330607e+17
19625.0	5.794112280898217e+17
19626.0	5.793122692890623e+17
19627.0	5.792129833325908e+17
19628.0	5.790968283048617e+17
19629.0	5.790066710413311e+17
19630.0	5.788630942831956e+17
19631.0	5.780517260973398e+17
19632.0	5.787144956149759e+17
19633.0	5.786125166357161e+17
19634.0	5.785160728095401e+17
19635.0	5.784133431896745e+17
19636.0	5.783157037771433e+17
19637.0	5.781891743481855e+17
19638.0	5.781149246816255e+17
19639.0	5.780140363612159e+17
19640.0	5.779064045087402e+17
19641.0	5.777555207837014e+17
19642.0	5.77713453662208e+17
19643.0	5.7761192228509e+17
19644.0	5.775154861484713e+17
19645.0	5.774008505073664e+17
19646.0	5.773192387887101e+17
19647.0	5.772186486134099e+17
19648.0	5.771175477815978e+17
19649.0	5.770161484551507e+17
19650.0	5.769150735581183e+17
19651.0	5.768137337907882e+17
19652.0	5.767558537237844e+17
19653.0	5.769106760400895e+17
19654.0	5.768089466219178e+17
19655.0	5.767066718044159e+17
19656.0	5.76604540641826e+17
19657.0	5.765030023441065e+17
19658.0	5.764009324882602e+17
19659.0	5.762986885687977e+17
19660.0	5.7619664010390176e+17
19661.0	5.760944279213396e+17
19662.0	5.759921639391231e+17
19663.0	5.758864346229418e+17
19664.0	5.757847257568596e+17
