# Flux units: erg / (cm m2 s)
# Wavelength units: Angstrom
wave	flux
19000.0	4.625775779119102e+17
19001.0	4.624780799333716e+17
19002.0	4.6241265501252256e+17
19003.0	4.623297541046271e+17
19004.0	4.6224479910625274e+17
19005.0	4.621608726910292e+17
19006.0	4.6206096933300896e+17
19007.0	4.620001491987115e+17
19008.0	4.6190677609239885e+17
19009.0	4.618235532017664e+17
19010.0	4.616571232889512e+17
19011.0	4.6166434595034445e+17
19012.0	4.615581011542015e+17
19013.0	4.6150504027258874e+17
19014.0	4.6141555989981856e+17
19015.0	4.613300001527123e+17
19016.0	4.6124546185844045e+17
19017.0	4.6117567178560845e+17
19018.0	4.610911813064021e+17
19019.0	4.610071947029162e+17
19020.0	4.6092730250909005e+17
19021.0	4.608468033994751e+17
19022.0	4.6076436400482976e+17
19023.0	4.606755155039572e+17
19024.0	4.60589130317824e+17
19025.0	4.6051751404503034e+17
19026.0	4.604303577361067e+17
19027.0	4.6034118354752845e+17
19028.0	4.6027184652943354e+17
19029.0	4.601873231249408e+17
19030.0	4.6010916541562874e+17
19031.0	4.600269344778921e+17
19032.0	4.5994386789498874e+17
19033.0	4.598491048662357e+17
19034.0	4.5977976610051405e+17
19035.0	4.5969548841233056e+17
19036.0	4.585758828527607e+17
19037.0	4.5953433633204896e+17
19038.0	4.594504015282175e+17
19039.0	4.593697263277397e+17
19040.0	4.592892687417344e+17
19041.0	4.592065812540074e+17
19042.0	4.588901370254674e+17
19043.0	4.590456424540842e+17
19044.0	4.589618629094057e+17
19045.0	4.588803292048042e+17
19046.0	4.587888058564608e+17
19047.0	4.587175028282708e+17
19048.0	4.5856368945179296e+17
19049.0	4.580856339365882e+17
19050.0	4.5846205300735994e+17
19051.0	4.58220627191398e+17
19052.0	4.582964555240789e+17
19053.0	4.5822855631339514e+17
19054.0	4.581464692402858e+17
19055.0	4.579592970960896e+17
19056.0	4.579571519193087e+17
19057.0	4.57901519929344e+17
19058.0	4.575829133273766e+17
19059.0	4.576459278516222e+17
19060.0	4.5765384683738445e+17
19061.0	4.5757597531941536e+17
19062.0	4.5749412347685536e+17
19063.0	4.5741306855205536e+17
19064.0	4.573113833138857e+17
19065.0	4.5722551961954976e+17
19066.0	4.570732959541931e+17
19067.0	4.5708578169815034e+17
19068.0	4.570069385696596e+17
19069.0	4.569255042001578e+17
19070.0	4.568391675980457e+17
19071.0	4.567614927230294e+17
19072.0	4.5659020559646694e+17
19073.0	4.5659912667135994e+17
19074.0	4.565192032998741e+17
19075.0	4.5643817535842976e+17
19076.0	4.5634339855837856e+17
19077.0	4.562726436558164e+17
19078.0	4.5618566078136314e+17
19079.0	4.5611288757971616e+17
19080.0	4.560301024346111e+17
19081.0	4.5594275346732365e+17
19082.0	4.5586211056298656e+17
19083.0	4.5577735227746976e+17
19084.0	4.556783486675626e+17
19085.0	4.556238754239828e+17
19086.0	4.553805949566974e+17
19087.0	4.55246392607812e+17
19088.0	4.5526100346579603e+17
19089.0	4.552648392267093e+17
19090.0	4.552183290789887e+17
19091.0	4.551207965513045e+17
19092.0	4.5487070285660205e+17
19093.0	4.549794329176746e+17
19094.0	4.5489818987834016e+17
19095.0	4.5481738891864736e+17
19096.0	4.5473367228852896e+17
19097.0	4.5465566249833805e+17
19098.0	4.5447912375364256e+17
19099.0	4.543795783794688e+17
19100.0	4.544068441516714e+17
19101.0	4.5433063875106125e+17
19102.0	4.542264925749247e+17
19103.0	4.5417009337685325e+17
19104.0	4.54090696040994e+17
19105.0	4.538031133775194e+17
19106.0	4.539228938917204e+17
19107.0	4.5379536363192294e+17
19108.0	4.536914722597546e+17
19109.0	4.536324286928212e+17
19110.0	4.5360647643682125e+17
19111.0	4.53468511937058e+17
19112.0	4.533664078976339e+17
19113.0	4.53363485306607e+17
19114.0	4.5324558279202125e+17
19115.0	4.531780100379989e+17
19116.0	4.531150063490389e+17
19117.0	4.530390858814804e+17
19118.0	4.529366860737194e+17
19119.0	4.505047377379291e+17
19120.0	4.5278571280029e+17
19121.0	4.527139391012863e+17
19122.0	4.5264054912723616e+17
19123.0	4.5256042960213325e+17
19124.0	4.5247612318296736e+17
19125.0	4.523994311731881e+17
19126.0	4.5231975617440416e+17
19127.0	4.5191683392580224e+17
19128.0	4.521574550645418e+17
19129.0	4.520669742803626e+17
19130.0	4.519965982632618e+17
19131.0	4.519176567783423e+17
19132.0	4.518371103429972e+17
19133.0	4.517501976532309e+17
19134.0	4.5167683319453005e+17
19135.0	4.5159651751581e+17
19136.0	4.5151668530053114e+17
19137.0	4.5140816949848736e+17
19138.0	4.513550635980117e+17
19139.0	4.5127727540688205e+17
19140.0	4.5119725689460045e+17
19141.0	4.5111698819208525e+17
19142.0	4.5103249149132794e+17
19143.0	4.50945369435887e+17
19144.0	4.5087202084563616e+17
19145.0	4.507966008983551e+17
19146.0	4.506188911738881e+17
19147.0	4.5060642968698874e+17
19148.0	4.5047837080507744e+17
19149.0	4.503854413163178e+17
19150.0	4.503958770941951e+17
19151.0	4.503168092209151e+17
19152.0	4.502365045871957e+17
19153.0	4.499937981803175e+17
19154.0	4.500406707159039e+17
19155.0	4.4999801569279994e+17
19156.0	4.4991811336273914e+17
19157.0	4.49785048788719e+17
19158.0	4.4960998196510726e+17
19159.0	4.49669272506641e+17
19160.0	4.495974620375723e+17
19161.0	4.4951933236019194e+17
19162.0	4.493555067606357e+17
19163.0	4.493598783438847e+17
19164.0	4.4927975749058554e+17
19165.0	4.490217834676221e+17
19166.0	4.490938391636649e+17
19167.0	4.490247964459007e+17
19168.0	4.489619319379285e+17
19169.0	4.488794601073321e+17
19170.0	4.4880304757800954e+17
19171.0	4.4871608113124685e+17
19172.0	4.4864367933521914e+17
19173.0	4.485639627429205e+17
19174.0	4.484738830740139e+17
19175.0	4.484045722004138e+17
19176.0	4.4832553193963514e+17
19177.0	4.48221949338146e+17
19178.0	4.481555412025344e+17
19179.0	4.48065314033937e+17
19180.0	4.480068924822868e+17
19181.0	4.478949388189695e+17
19182.0	4.4784431601636685e+17
19183.0	4.4777025020013216e+17
19184.0	4.4768651972881056e+17
19185.0	4.4760934076033696e+17
19186.0	4.47532147740945e+17
19187.0	4.4744406728703994e+17
19188.0	4.4737071764821325e+17
19189.0	4.4729461633624723e+17
19190.0	4.4721565947221325e+17
19191.0	4.4712823752403616e+17
19192.0	4.4705695735480314e+17
19193.0	4.469575811508907e+17
19194.0	4.468642794176512e+17
19195.0	4.4681920358208845e+17
19196.0	4.4673735516487674e+17
19197.0	4.4665994886512634e+17
19198.0	4.465826828648447e+17
19199.0	4.459151200266921e+17
19200.0	4.4605266313871386e+17
19201.0	4.463433220445526e+17
19202.0	4.462664153563134e+17
19203.0	4.461857885301418e+17
19204.0	4.46103637074466e+17
19205.0	4.4602816155265696e+17
19206.0	4.459477313694379e+17
19207.0	4.4585554790754976e+17
19208.0	4.457424990415529e+17
19209.0	4.457118026082987e+17
19210.0	4.456326579792553e+17
19211.0	4.4555529711779834e+17
19212.0	4.454770284691455e+17
19213.0	4.453813708652543e+17
19214.0	4.4529706640343046e+17
19215.0	4.452392071681365e+17
19216.0	4.451624171514537e+17
19217.0	4.450828725955242e+17
19218.0	4.448665247328936e+17
19219.0	4.4490620620417696e+17
19220.0	4.4484347801108474e+17
19221.0	4.4471273505423354e+17
19222.0	4.446901195767808e+17
19223.0	4.446079663035734e+17
19224.0	4.445263268326057e+17
19225.0	4.44427498894131e+17
19226.0	4.4437202642752845e+17
19227.0	4.442941595232938e+17
19228.0	4.4421869322895354e+17
19229.0	4.441397860674218e+17
19230.0	4.4405997699071994e+17
19231.0	4.439811896464723e+17
19232.0	4.439037160281427e+17
19233.0	4.4381561103755936e+17
19234.0	4.437427160612863e+17
19235.0	4.436643380112043e+17
19236.0	4.435909007114239e+17
19237.0	4.435090410394965e+17
19238.0	4.4341676383491405e+17
19239.0	4.4335572391908685e+17
19240.0	4.4327689323369805e+17
19241.0	4.4319603474213536e+17
19242.0	4.431182284455934e+17
19243.0	4.4301969368896845e+17
19244.0	4.4296373685015885e+17
19245.0	4.4288311708439885e+17
19246.0	4.428043560244564e+17
19247.0	4.4272791043003725e+17
19248.0	4.4265107902955514e+17
19249.0	4.425689105869481e+17
19250.0	4.42460413169937e+17
19251.0	4.423702394787155e+17
19252.0	4.422970535575551e+17
19253.0	4.422551465885695e+17
19254.0	4.421820168011775e+17
19255.0	4.420753265000446e+17
19256.0	4.420210269006506e+17
19257.0	4.419475807928319e+17
19258.0	4.418698325874004e+17
19259.0	4.4178085888655354e+17
19260.0	4.4168159495017805e+17
19261.0	4.4163396142803616e+17
19262.0	4.41547505078545e+17
19263.0	4.414680318956885e+17
19264.0	4.413002658873342e+17
19265.0	4.4128441281631565e+17
19266.0	4.411704962886315e+17
19267.0	4.4116802011135994e+17
19268.0	4.4108905660634445e+17
19269.0	4.410119307657215e+17
19270.0	4.4093462750603936e+17
19271.0	4.407926559779501e+17
19272.0	4.407728845881343e+17
19273.0	4.4065724839581005e+17
19274.0	4.405597020968275e+17
19275.0	4.405456348905472e+17
19276.0	4.404646788115113e+17
19277.0	4.4038805712622925e+17
19278.0	4.4030777374365005e+17
19279.0	4.4023042427671885e+17
19280.0	4.401404747710464e+17
19281.0	4.4007619692243616e+17
19282.0	4.400012359718229e+17
19283.0	4.3991634388800845e+17
19284.0	4.3984248359266976e+17
19285.0	4.3973968490659834e+17
19286.0	4.3968525647216634e+17
19287.0	4.396132145474218e+17
19288.0	4.3929055603807565e+17
19289.0	4.387238678189382e+17
19290.0	4.393809620937387e+17
19291.0	4.3926595546644486e+17
19292.0	4.392255453047467e+17
19293.0	4.391471923505834e+17
19294.0	4.390683811687082e+17
19295.0	4.3899354849389216e+17
19296.0	4.388186239270914e+17
19297.0	4.388181362693461e+17
19298.0	4.3875654354425165e+17
19299.0	4.3857372187197446e+17
19300.0	4.386017665264298e+17
19301.0	4.3852768610003616e+17
19302.0	4.3844987169450656e+17
19303.0	4.383611904764586e+17
19304.0	4.382917820852906e+17
19305.0	4.3821659345387514e+17
19306.0	4.381409398838613e+17
19307.0	4.3805516643696634e+17
19308.0	4.3798321741605536e+17
19309.0	4.3788697184064845e+17
19310.0	4.378048433837397e+17
19311.0	4.3774875861865805e+17
19312.0	4.3767514417943885e+17
19313.0	4.375953718028971e+17
19314.0	4.340059279633037e+17
19315.0	4.341237287660262e+17
19316.0	4.372368250809005e+17
19317.0	4.3728843976649376e+17
19318.0	4.372136532290218e+17
19319.0	4.37139220131567e+17
19320.0	4.370227269031252e+17
19321.0	4.3689938123052365e+17
19322.0	4.368978510086143e+17
19323.0	4.3682257282880845e+17
19324.0	4.367540871146153e+17
19325.0	4.3665652914148685e+17
19326.0	4.366013423069865e+17
19327.0	4.365203326107647e+17
19328.0	4.3626130714569395e+17
19329.0	4.3637092821674656e+17
19330.0	4.3628697544731296e+17
19331.0	4.362099936810325e+17
19332.0	4.361402762395647e+17
19333.0	4.3606143618689696e+17
19334.0	4.359815434338304e+17
19335.0	4.3553202316683994e+17
19336.0	4.358288845395284e+17
19337.0	4.357556015901353e+17
19338.0	4.356458654553427e+17
19339.0	4.356020136574976e+17
19340.0	4.354634785925801e+17
19341.0	4.3530424491704326e+17
19342.0	4.352663507785045e+17
19343.0	4.352960091215187e+17
19344.0	4.3508217113040237e+17
19345.0	4.346714957108557e+17
19346.0	4.349354648622421e+17
19347.0	4.3480695907723936e+17
19348.0	4.349131935973376e+17
19349.0	4.348318002621098e+17
19350.0	4.3469386540209485e+17
19351.0	4.346751978831872e+17
19352.0	4.34410429437269e+17
19353.0	4.345304637068629e+17
19354.0	4.3445459860411725e+17
19355.0	4.3436308371428685e+17
19356.0	4.343012675026944e+17
19357.0	4.342251640236713e+17
19358.0	4.3414866453244576e+17
19359.0	4.340241664748201e+17
19360.0	4.338463959329449e+17
19361.0	4.339126613923157e+17
19362.0	4.338438664880127e+17
19363.0	4.3376745325963936e+17
19364.0	4.336910501675007e+17
19365.0	4.336139974475775e+17
19366.0	4.335381633826815e+17
19367.0	4.3346225892338336e+17
19368.0	4.333862728149674e+17
19369.0	4.333022994934442e+17
19370.0	4.332290765225983e+17
19371.0	4.331493258865321e+17
19372.0	4.330807794947413e+17
19373.0	4.3300259340397216e+17
19374.0	4.329284591506773e+17
19375.0	4.3285248988938234e+17
19376.0	4.3277716179735885e+17
19377.0	4.326993306845183e+17
19378.0	4.326239576435371e+17
19379.0	4.325484102593194e+17
19380.0	4.324719023095806e+17
19381.0	4.323949338252629e+17
19382.0	4.3230969780852045e+17
19383.0	4.3222672979176096e+17
19384.0	4.3216507198504954e+17
19385.0	4.32092020141807e+17
19386.0	4.3201708554540365e+17
19387.0	4.3194117283730765e+17
19388.0	4.318615350280191e+17
19389.0	4.3177372580577274e+17
19390.0	4.316975117369343e+17
19391.0	4.306444550318746e+17
19392.0	4.315413060692649e+17
19393.0	4.314680364018346e+17
19394.0	4.313900610748415e+17
19395.0	4.3125882395907424e+17
19396.0	4.312239551720106e+17
19397.0	4.311625734903125e+17
19398.0	4.310355568929449e+17
19399.0	4.3079702088253414e+17
19400.0	4.3088633425210016e+17
19401.0	4.308550594942291e+17
19402.0	4.307796774354942e+17
19403.0	4.3070006437259936e+17
19404.0	4.3062599401253536e+17
19405.0	4.3054639451122336e+17
19406.0	4.304712187423402e+17
19407.0	4.303295087291049e+17
19408.0	4.3016417408887514e+17
19409.0	4.3023995111123616e+17
19410.0	4.3016491270580896e+17
19411.0	4.300876085373611e+17
19412.0	4.3000860197082445e+17
19413.0	4.2986338873507834e+17
19414.0	4.2984751399348896e+17
19415.0	4.2977425131656525e+17
19416.0	4.2966980643607885e+17
19417.0	4.296082430711125e+17
19418.0	4.295416598233087e+17
19419.0	4.294620806643711e+17
19420.0	4.2938397999759354e+17
19421.0	4.2930455162388474e+17
19422.0	4.292178065664681e+17
19423.0	4.291430094034261e+17
19424.0	4.2906294517323085e+17
19425.0	4.2898121839083514e+17
19426.0	4.2889932614314656e+17
19427.0	4.2881566914205e+17
19428.0	4.2873180382385485e+17
19429.0	4.286463337649493e+17
19430.0	4.285502081466368e+17
19431.0	4.282682530507438e+17
19432.0	4.2837994470987085e+17
19433.0	4.28285495415057e+17
19434.0	4.281877966531242e+17
19435.0	4.280676950649514e+17
19436.0	4.2787308914606054e+17
19437.0	4.2785893420892154e+17
19438.0	4.2558125370245146e+17
19439.0	4.2753264916452704e+17
19440.0	4.274477051412479e+17
19441.0	4.2727775977253536e+17
19442.0	4.2706720277572256e+17
19443.0	4.2680234576008525e+17
19444.0	4.264527505915904e+17
19445.0	4.2595452844332365e+17
19446.0	4.251865090883583e+17
19447.0	4.238668731165353e+17
19448.0	4.211782846862679e+17
19449.0	4.136226488232618e+17
19450.0	3.813097307373553e+17
19451.0	3.532642834885281e+17
19452.0	3.9296600193542906e+17
19453.0	4.1630628930300634e+17
19454.0	4.216357397375656e+17
19455.0	4.236739663801002e+17
19456.0	4.2464894807354016e+17
19457.0	4.2516800332977485e+17
19458.0	4.126076683594647e+17
19459.0	4.2538772369244416e+17
19460.0	4.257556963437225e+17
19461.0	4.2581533487267846e+17
19462.0	4.2583214368576845e+17
19463.0	4.2583182526818976e+17
19464.0	4.258110912157012e+17
19465.0	4.257845063188479e+17
19466.0	4.2573948479952205e+17
19467.0	4.2570180408115194e+17
19468.0	4.256518361492137e+17
19469.0	4.2541126128762854e+17
19470.0	4.255398300570965e+17
19471.0	4.2548250224011936e+17
19472.0	4.254117460792661e+17
19473.0	4.253457783455743e+17
19474.0	4.251545282194088e+17
19475.0	4.2504381963523386e+17
19476.0	4.2514695456467616e+17
19477.0	4.250854588678143e+17
19478.0	4.2502337170418336e+17
19479.0	4.248220636370259e+17
19480.0	4.2488029029335034e+17
19481.0	4.247978284591787e+17
19482.0	4.247400891110741e+17
19483.0	4.2467443028787194e+17
19484.0	4.246009402796714e+17
19485.0	4.2451983166778016e+17
19486.0	4.243121230228142e+17
19487.0	4.243856290392746e+17
19488.0	4.24316813582882e+17
19489.0	4.2423772438855686e+17
19490.0	4.238715318697979e+17
19491.0	4.2409389639161165e+17
19492.0	4.2402749272992416e+17
19493.0	4.2395496671259296e+17
19494.0	4.238811986919423e+17
19495.0	4.238073652401493e+17
19496.0	4.2364330147403066e+17
19497.0	4.2365720188682234e+17
19498.0	4.235493393476269e+17
19499.0	4.218885426031259e+17
19500.0	4.234422333909674e+17
19501.0	4.233833803852457e+17
19502.0	4.2331669053221536e+17
19503.0	4.232436867137536e+17
19504.0	4.231696674542933e+17
19505.0	4.2309307589809485e+17
19506.0	4.2302260264304634e+17
19507.0	4.2294277902609056e+17
19508.0	4.228742093559125e+17
19509.0	4.227985056639659e+17
19510.0	4.226637904216063e+17
19511.0	4.171037472893553e+17
19512.0	4.223659205984247e+17
19513.0	4.2199410701325555e+17
19514.0	4.2211452548109606e+17
19515.0	4.222602782441475e+17
19516.0	4.2226507911441056e+17
19517.0	4.2219142210300576e+17
19518.0	4.2209888610986656e+17
19519.0	4.2202281087249056e+17
19520.0	4.2185697382454586e+17
19521.0	4.219149500110164e+17
19522.0	4.2181907451303245e+17
19523.0	4.217352673558528e+17
19524.0	4.215974852384087e+17
19525.0	4.216162548886186e+17
19526.0	4.215469366050814e+17
19527.0	4.2146967214271136e+17
19528.0	4.21389312074274e+17
19529.0	4.213101280187733e+17
19530.0	4.2125221397790714e+17
19531.0	4.2117888586984096e+17
19532.0	4.2110491365649056e+17
19533.0	4.210314741197482e+17
19534.0	4.209579764918954e+17
19535.0	4.208819391430656e+17
19536.0	4.208045094950228e+17
19537.0	4.207361869392553e+17
19538.0	4.20532007521485e+17
19539.0	4.2047581999595565e+17
19540.0	4.205126189318143e+17
19541.0	4.2041777977644365e+17
19542.0	4.203582502993919e+17
19543.0	4.201678566501034e+17
19544.0	4.2021525759808845e+17
19545.0	4.200752533383847e+17
19546.0	4.198926934605824e+17
19547.0	4.2000359225644365e+17
19548.0	4.1993006988219725e+17
19549.0	4.198421383959893e+17
19550.0	4.197826967197012e+17
19551.0	4.197103474922836e+17
19552.0	4.196363104769364e+17
19553.0	4.19560007139328e+17
19554.0	4.1948100714386765e+17
19555.0	4.194014555974314e+17
19556.0	4.193341409329151e+17
19557.0	4.1926881108295674e+17
19558.0	4.1919677579919354e+17
19559.0	4.191243392603477e+17
19560.0	4.190032392880127e+17
19561.0	4.1897392222153376e+17
19562.0	4.1885964421474976e+17
19563.0	4.188321081196543e+17
19564.0	4.1875825243805e+17
19565.0	4.1868556780612256e+17
19566.0	4.186074769959593e+17
19567.0	4.185399600261802e+17
19568.0	4.184640169093802e+17
19569.0	4.183901074707797e+17
19570.0	4.1831959311155194e+17
19571.0	4.182465154034346e+17
19572.0	4.181699196529323e+17
19573.0	4.180849673808555e+17
19574.0	4.1801032324000416e+17
19575.0	4.179558341978794e+17
19576.0	4.1787556507593376e+17
19577.0	4.1778711083963725e+17
19578.0	4.1772935261716474e+17
19579.0	4.176593266846378e+17
19580.0	4.175880511291391e+17
19581.0	4.1751528449856845e+17
19582.0	4.17446185996561e+17
19583.0	4.173735601547946e+17
19584.0	4.172999745164628e+17
19585.0	4.1721008415047674e+17
19586.0	4.1713366525979315e+17
19587.0	4.17078594048273e+17
19588.0	4.1692229624572595e+17
19589.0	4.1693384057815034e+17
19590.0	4.168365515298132e+17
19591.0	4.167903637842602e+17
19592.0	4.1671760805887994e+17
19593.0	4.1663242887495674e+17
19594.0	4.165227255955455e+17
19595.0	4.164968124863829e+17
19596.0	4.1642307501424634e+17
19597.0	4.163540058024618e+17
19598.0	4.1615976527735443e+17
19599.0	4.162096821086891e+17
19600.0	4.161382359149225e+17
19601.0	4.1605472221921274e+17
19602.0	4.1598685104046074e+17
19603.0	4.158360314183678e+17
19604.0	4.158430699498155e+17
19605.0	4.1572682075996154e+17
19606.0	4.157019769886036e+17
19607.0	4.15630976160017e+17
19608.0	4.155558055641087e+17
19609.0	4.154771979457877e+17
19610.0	4.153510011950422e+17
19611.0	4.152485365852843e+17
19612.0	4.152695000662015e+17
19613.0	4.151953089800874e+17
19614.0	4.151190870119765e+17
19615.0	4.150522615431168e+17
19616.0	4.1490976957180595e+17
19617.0	4.148115270882645e+17
19618.0	4.14729323623219e+17
19619.0	4.1460504548693286e+17
19620.0	4.1452834592740666e+17
19621.0	4.144888561358164e+17
19622.0	4.1454671292443296e+17
19623.0	4.1446902987052365e+17
19624.0	4.1438490080051194e+17
19625.0	4.1433001763362125e+17
19626.0	4.142569751576574e+17
19627.0	4.1418637125003936e+17
19628.0	4.140993813151744e+17
19629.0	4.1371096919135546e+17
19630.0	4.1396229706001056e+17
19631.0	4.1332205724631e+17
19632.0	4.1382463874443936e+17
19633.0	4.1374520058402125e+17
19634.0	4.1368112930488314e+17
19635.0	4.135889810052435e+17
19636.0	4.1338713508850323e+17
19637.0	4.1327674541124243e+17
19638.0	4.133795417205417e+17
19639.0	4.1332014597188256e+17
19640.0	4.132378021374634e+17
19641.0	4.12846511882241e+17
19642.0	4.130959277774165e+17
19643.0	4.1302328571767456e+17
19644.0	4.1295225287256736e+17
19645.0	4.1283778738039443e+17
19646.0	4.126591973414226e+17
19647.0	4.12743941296401e+17
19648.0	4.1267501497057274e+17
19649.0	4.126021761280682e+17
19650.0	4.125318362518868e+17
19651.0	4.1245956133355514e+17
19652.0	4.1238756869188256e+17
19653.0	4.123159752780457e+17
19654.0	4.122442514213546e+17
19655.0	4.1217092562015565e+17
