# Flux units: erg / (cm m2 s)
# Wavelength units: Angstrom
wave	flux
19000.0	7.402402210643965e+17
19001.0	7.400991976587261e+17
19002.0	7.39971346464768e+17
19003.0	7.398366627495933e+17
19004.0	7.397020113305599e+17
19005.0	7.395674094043133e+17
19006.0	7.394325923102719e+17
19007.0	7.392969269881513e+17
19008.0	7.391596597215232e+17
19009.0	7.390181796959572e+17
19010.0	7.388702663071059e+17
19011.0	7.387549567811581e+17
19012.0	7.386126745250472e+17
19013.0	7.385010491359232e+17
19014.0	7.383705991512061e+17
19015.0	7.382368448937983e+17
19016.0	7.38102207595588e+17
19017.0	7.379689451902292e+17
19018.0	7.378328839258111e+17
19019.0	7.376978076237824e+17
19020.0	7.375614162676394e+17
19021.0	7.374273179374931e+17
19022.0	7.372924805709824e+17
19023.0	7.371539599065087e+17
19024.0	7.370194318000127e+17
19025.0	7.368843665429844e+17
19026.0	7.367471289161044e+17
19027.0	7.366079644259667e+17
19028.0	7.36477161141043e+17
19029.0	7.363415253188607e+17
19030.0	7.362068583809024e+17
19031.0	7.360708935854762e+17
19032.0	7.359347197739007e+17
19033.0	7.357920758289746e+17
19034.0	7.356588307600723e+17
19035.0	7.355024082468863e+17
19036.0	7.349823420934825e+17
19037.0	7.352373486463657e+17
19038.0	7.351146688894291e+17
19039.0	7.349824596738045e+17
19040.0	7.348471248628393e+17
19041.0	7.347113854413481e+17
19042.0	7.345681482820268e+17
19043.0	7.34439448720179e+17
19044.0	7.343025406257833e+17
19045.0	7.341669705143636e+17
19046.0	7.340282081181696e+17
19047.0	7.338914877887828e+17
19048.0	7.337484655176361e+17
19049.0	7.336141861333676e+17
19050.0	7.334797403750399e+17
19051.0	7.332874912355667e+17
19052.0	7.331874828102313e+17
19053.0	7.330750962947411e+17
19054.0	7.329404841623551e+17
19055.0	7.32787592134656e+17
19056.0	7.326669931719338e+17
19057.0	7.325316361311572e+17
19058.0	7.323939164389375e+17
19059.0	7.322592499204096e+17
19060.0	7.321222354305024e+17
19061.0	7.31986726555921e+17
19062.0	7.318500726363475e+17
19063.0	7.317134233305088e+17
19064.0	7.315709917571756e+17
19065.0	7.314290987324755e+17
19066.0	7.313000864153599e+17
19067.0	7.311680925073407e+17
19068.0	7.31031664660753e+17
19069.0	7.308951856436563e+17
19070.0	7.307573241839615e+17
19071.0	7.306221811924991e+17
19072.0	7.304856742133756e+17
19073.0	7.303489678650025e+17
19074.0	7.302126247433556e+17
19075.0	7.300760219942911e+17
19076.0	7.299385995384148e+17
19077.0	7.298017683395923e+17
19078.0	7.296650134771028e+17
19079.0	7.295295979956905e+17
19080.0	7.293920718006953e+17
19081.0	7.292533934303913e+17
19082.0	7.29117886652962e+17
19083.0	7.289750307558739e+17
19084.0	7.288299862709587e+17
19085.0	7.287091236263251e+17
19086.0	7.285450399372627e+17
19087.0	7.284291571897684e+17
19088.0	7.282907591387817e+17
19089.0	7.281464892020054e+17
19090.0	7.280224785924093e+17
19091.0	7.278872329803092e+17
19092.0	7.277473367239338e+17
19093.0	7.276160551485439e+17
19094.0	7.274797732637353e+17
19095.0	7.273432169316352e+17
19096.0	7.272059521815892e+17
19097.0	7.270697072066557e+17
19098.0	7.269328367211859e+17
19099.0	7.267960513800874e+17
19100.0	7.266587462249129e+17
19101.0	7.265224394539005e+17
19102.0	7.263813675341139e+17
19103.0	7.262495352466089e+17
19104.0	7.261127582941183e+17
19105.0	7.259745217238356e+17
19106.0	7.258377821006505e+17
19107.0	7.257002510123007e+17
19108.0	7.255615383885139e+17
19109.0	7.254064067422889e+17
19110.0	7.252835889927508e+17
19111.0	7.251534941257727e+17
19112.0	7.250178032183977e+17
19113.0	7.2488175271936e+17
19114.0	7.247448264496467e+17
19115.0	7.246049053070676e+17
19116.0	7.244695035270484e+17
19117.0	7.243324265420118e+17
19118.0	7.241875548624212e+17
19119.0	7.238484726469969e+17
19120.0	7.239169341740372e+17
19121.0	7.237836993112745e+17
19122.0	7.236502509584383e+17
19123.0	7.235135901881683e+17
19124.0	7.233734197641215e+17
19125.0	7.232386409780564e+17
19126.0	7.230960742083241e+17
19127.0	7.22877875888674e+17
19128.0	7.228176894438058e+17
19129.0	7.226853957828608e+17
19130.0	7.225543130174804e+17
19131.0	7.224186763564374e+17
19132.0	7.222816362812756e+17
19133.0	7.221410082586624e+17
19134.0	7.220061852925951e+17
19135.0	7.218709458321407e+17
19136.0	7.217338273234944e+17
19137.0	7.215901266935805e+17
19138.0	7.214589850681343e+17
19139.0	7.213235416246953e+17
19140.0	7.211868582051839e+17
19141.0	7.210499029947731e+17
19142.0	7.209112173543423e+17
19143.0	7.207734358660435e+17
19144.0	7.20635877934148e+17
19145.0	7.205017524808362e+17
19146.0	7.203250193301504e+17
19147.0	7.202240051107156e+17
19148.0	7.200900390409558e+17
19149.0	7.199530186790228e+17
19150.0	7.198121789838675e+17
19151.0	7.196750660676266e+17
19152.0	7.195377708389716e+17
19153.0	7.193979611250687e+17
19154.0	7.192574627064489e+17
19155.0	7.19125025600307e+17
19156.0	7.189875628791123e+17
19157.0	7.188470007070719e+17
19158.0	7.187023595743914e+17
19159.0	7.185726698771795e+17
19160.0	7.184373821822292e+17
19161.0	7.182964846056787e+17
19162.0	7.18129878462191e+17
19163.0	7.180153194370387e+17
19164.0	7.178885326176255e+17
19165.0	7.177514227772074e+17
19166.0	7.176094680962387e+17
19167.0	7.174753472566611e+17
19168.0	7.173404697646419e+17
19169.0	7.172038178024105e+17
19170.0	7.170669519306752e+17
19171.0	7.169288139265364e+17
19172.0	7.167922177485481e+17
19173.0	7.166550321310378e+17
19174.0	7.165151453817513e+17
19175.0	7.163801546435241e+17
19176.0	7.162428567584768e+17
19177.0	7.160951590966611e+17
19178.0	7.159662077367636e+17
19179.0	7.158279611001514e+17
19180.0	7.15691134235443e+17
19181.0	7.155389412584106e+17
19182.0	7.154047878430719e+17
19183.0	7.152685972542804e+17
19184.0	7.151306465957203e+17
19185.0	7.149928368657748e+17
19186.0	7.148550845977939e+17
19187.0	7.147121726368425e+17
19188.0	7.145789695109802e+17
19189.0	7.144409387412138e+17
19190.0	7.143024246478164e+17
19191.0	7.14162047164962e+17
19192.0	7.14025801490978e+17
19193.0	7.138868018369875e+17
19194.0	7.137463935959039e+17
19195.0	7.136065704602281e+17
19196.0	7.134631834244436e+17
19197.0	7.133141632985769e+17
19198.0	7.131402621419519e+17
19199.0	7.127991437317459e+17
19200.0	7.1269168985757e+17
19201.0	7.127302627743059e+17
19202.0	7.126241327622824e+17
19203.0	7.124949442843987e+17
19204.0	7.123608971247612e+17
19205.0	7.122247528131241e+17
19206.0	7.1208791979677e+17
19207.0	7.119426117697535e+17
19208.0	7.118023085260799e+17
19209.0	7.116731884153514e+17
19210.0	7.115351059158358e+17
19211.0	7.113969593832787e+17
19212.0	7.112577452605439e+17
19213.0	7.111117476899497e+17
19214.0	7.109728878460927e+17
19215.0	7.108378712429908e+17
19216.0	7.106862133193385e+17
19217.0	7.105442050910889e+17
19218.0	7.103704150835199e+17
19219.0	7.102535174542676e+17
19220.0	7.101268156394153e+17
19221.0	7.099765630872234e+17
19222.0	7.098472992516777e+17
19223.0	7.097096570142719e+17
19224.0	7.095677556009641e+17
19225.0	7.0942583699101e+17
19226.0	7.092903018321236e+17
19227.0	7.091505663574015e+17
19228.0	7.090126440802986e+17
19229.0	7.088724210876415e+17
19230.0	7.087321031639037e+17
19231.0	7.085908943699968e+17
19232.0	7.08450861519121e+17
19233.0	7.083062813436585e+17
19234.0	7.08169266434321e+17
19235.0	7.080278979772415e+17
19236.0	7.078884734402559e+17
19237.0	7.077467902705663e+17
19238.0	7.07600665612561e+17
19239.0	7.07465302699759e+17
19240.0	7.073183542804479e+17
19241.0	7.071688529281024e+17
19242.0	7.07027849515281e+17
19243.0	7.068758704477526e+17
19244.0	7.067456459767807e+17
19245.0	7.066036700446719e+17
19246.0	7.064609982775296e+17
19247.0	7.063191980867583e+17
19248.0	7.061770461336916e+17
19249.0	7.060290313824938e+17
19250.0	7.05882505609216e+17
19251.0	7.057346773647359e+17
19252.0	7.055774761091071e+17
19253.0	7.054536111816701e+17
19254.0	7.053118168629247e+17
19255.0	7.051549620568061e+17
19256.0	7.050234981690025e+17
19257.0	7.048811664201044e+17
19258.0	7.047371783405568e+17
19259.0	7.045875396946602e+17
19260.0	7.044399646463316e+17
19261.0	7.043029927985151e+17
19262.0	7.041550164951037e+17
19263.0	7.040075798588074e+17
19264.0	7.038416945763668e+17
19265.0	7.037125246233257e+17
19266.0	7.035687459094527e+17
19267.0	7.034333795013972e+17
19268.0	7.032877394952191e+17
19269.0	7.031415215838548e+17
19270.0	7.029931075349162e+17
19271.0	7.028322301116415e+17
19272.0	7.026987003194025e+17
19273.0	7.025275285362004e+17
19274.0	7.023739217990995e+17
19275.0	7.022597292163072e+17
19276.0	7.021112947550889e+17
19277.0	7.019636427412819e+17
19278.0	7.018155637473279e+17
19279.0	7.016661138451113e+17
19280.0	7.015145060433919e+17
19281.0	7.01367505195281e+17
19282.0	7.012189193196884e+17
19283.0	7.010672678273023e+17
19284.0	7.009030497107967e+17
19285.0	7.007473426759679e+17
19286.0	7.005989789586772e+17
19287.0	7.004469847916543e+17
19288.0	7.00157750690884e+17
19289.0	6.998894263140348e+17
19290.0	6.999902920551081e+17
19291.0	6.99825518472943e+17
19292.0	6.996909977064787e+17
19293.0	6.99537818788386e+17
19294.0	6.993835051013459e+17
19295.0	6.992300926304255e+17
19296.0	6.990747736386218e+17
19297.0	6.989191776130387e+17
19298.0	6.987624182273364e+17
19299.0	6.986073920678569e+17
19300.0	6.984510608506879e+17
19301.0	6.982935757105834e+17
19302.0	6.981345983070207e+17
19303.0	6.979722681865555e+17
19304.0	6.978147787822419e+17
19305.0	6.976341817688063e+17
19306.0	6.974740766567081e+17
19307.0	6.973102463735123e+17
19308.0	6.971487409231188e+17
19309.0	6.969801313703252e+17
19310.0	6.968134098135722e+17
19311.0	6.966576667776339e+17
19312.0	6.964971946639359e+17
19313.0	6.96331401306658e+17
19314.0	6.958152268382207e+17
19315.0	6.956769524492974e+17
19316.0	6.958311625370281e+17
19317.0	6.956673385452883e+17
19318.0	6.954994460786687e+17
19319.0	6.953131971007827e+17
19320.0	6.951304000350889e+17
19321.0	6.949520294281215e+17
19322.0	6.947763363250173e+17
19323.0	6.946056760371881e+17
19324.0	6.944345090774355e+17
19325.0	6.942585812331178e+17
19326.0	6.940872541208575e+17
19327.0	6.93912657338914e+17
19328.0	6.937363789905919e+17
19329.0	6.93560492879599e+17
19330.0	6.933487192550057e+17
19331.0	6.931564281724927e+17
19332.0	6.929790614022825e+17
19333.0	6.927967216555348e+17
19334.0	6.926127571053225e+17
19335.0	6.924256820592639e+17
19336.0	6.922408499172692e+17
19337.0	6.920526705109673e+17
19338.0	6.918501872697343e+17
19339.0	6.916267509634387e+17
19340.0	6.91418760810769e+17
19341.0	6.912242812802387e+17
19342.0	6.910164942716927e+17
19343.0	6.908350171534675e+17
19344.0	6.906334090537642e+17
19345.0	6.903436316508157e+17
19346.0	6.901682277449727e+17
19347.0	6.899362449850367e+17
19348.0	6.897376874725375e+17
19349.0	6.895288496510292e+17
19350.0	6.893184713315667e+17
19351.0	6.891057295218004e+17
19352.0	6.888875038692691e+17
19353.0	6.886339254069929e+17
19354.0	6.883710372675581e+17
19355.0	6.88144671309824e+17
19356.0	6.879284269765971e+17
19357.0	6.877037825010345e+17
19358.0	6.874762646476116e+17
19359.0	6.872135085588479e+17
19360.0	6.869607772760745e+17
19361.0	6.867099785188692e+17
19362.0	6.864610232980819e+17
19363.0	6.8622161557149e+17
19364.0	6.859742820783444e+17
19365.0	6.857300434922153e+17
19366.0	6.854830635089919e+17
19367.0	6.852335191982079e+17
19368.0	6.849821110086313e+17
19369.0	6.847244356900179e+17
19370.0	6.844617870453418e+17
19371.0	6.84165731258641e+17
19372.0	6.838717778668202e+17
19373.0	6.835942616727551e+17
19374.0	6.833146971903316e+17
19375.0	6.830289584827049e+17
19376.0	6.827385211759274e+17
19377.0	6.824423707377663e+17
19378.0	6.821408159389012e+17
19379.0	6.817865701960362e+17
19380.0	6.814454754137428e+17
19381.0	6.811263594135551e+17
19382.0	6.807952166660778e+17
19383.0	6.804627773893289e+17
19384.0	6.801271833668266e+17
19385.0	6.797646782704297e+17
19386.0	6.793171858096127e+17
19387.0	6.789355787343188e+17
19388.0	6.78550046839057e+17
19389.0	6.7816616113821e+17
19390.0	6.777692152135679e+17
19391.0	6.770304509192872e+17
19392.0	6.768152920719359e+17
19393.0	6.764372254086484e+17
19394.0	6.760193019521706e+17
19395.0	6.755921773811028e+17
19396.0	6.751414537682943e+17
19397.0	6.745695824379904e+17
19398.0	6.740909634879487e+17
19399.0	6.735418695352319e+17
19400.0	6.73065982824721e+17
19401.0	6.725492217828691e+17
19402.0	6.718712140791807e+17
19403.0	6.713313258547882e+17
19404.0	6.707761489029801e+17
19405.0	6.702002395065002e+17
19406.0	6.695424630281556e+17
19407.0	6.687487455221078e+17
19408.0	6.680718473516372e+17
19409.0	6.674461958864895e+17
19410.0	6.667691035197437e+17
19411.0	6.660597831696383e+17
19412.0	6.652421089176233e+17
19413.0	6.642565402416468e+17
19414.0	6.634600835055615e+17
19415.0	6.62635331854882e+17
19416.0	6.617562409686355e+17
19417.0	6.608607685989714e+17
19418.0	6.598015823380479e+17
19419.0	6.588471924402858e+17
19420.0	6.578432332092755e+17
19421.0	6.567727247043242e+17
19422.0	6.556476293600596e+17
19423.0	6.54375511077683e+17
19424.0	6.530158290097492e+17
19425.0	6.517062981648383e+17
19426.0	6.503140478855848e+17
19427.0	6.488315894519126e+17
19428.0	6.472686630862847e+17
19429.0	6.45599038030916e+17
19430.0	6.438026239890772e+17
19431.0	6.419363483615231e+17
19432.0	6.399972271106729e+17
19433.0	6.378596773221716e+17
19434.0	6.355739369712297e+17
19435.0	6.330933833629695e+17
19436.0	6.303537362720086e+17
19437.0	6.275081523866282e+17
19438.0	6.239968976437245e+17
19439.0	6.20968654405632e+17
19440.0	6.173019141570559e+17
19441.0	6.132311397498877e+17
19442.0	6.086967834618541e+17
19443.0	6.036309155337558e+17
19444.0	5.978771702153212e+17
19445.0	5.913194874099031e+17
19446.0	5.836806752130388e+17
19447.0	5.7460430264948e+17
19448.0	5.634644712794799e+17
19449.0	5.4908093415642445e+17
19450.0	5.284605938630641e+17
19451.0	5.155371709977945e+17
19452.0	5.400099573552468e+17
19453.0	5.566181049455963e+17
19454.0	5.689110626129232e+17
19455.0	5.786745477354836e+17
19456.0	5.867279423460695e+17
19457.0	5.935523280803153e+17
19458.0	5.988346919299763e+17
19459.0	6.045715610468355e+17
19460.0	6.091450191533395e+17
19461.0	6.132101398484308e+17
19462.0	6.168478884386134e+17
19463.0	6.201757097000957e+17
19464.0	6.231656662127956e+17
19465.0	6.258862668294828e+17
19466.0	6.284441087377405e+17
19467.0	6.307909740090707e+17
19468.0	6.329170181925546e+17
19469.0	6.348711583372627e+17
19470.0	6.36698025402914e+17
19471.0	6.38356125000226e+17
19472.0	6.399019121814185e+17
19473.0	6.413938277919401e+17
19474.0	6.427478992792234e+17
19475.0	6.439870836768767e+17
19476.0	6.452050990727167e+17
19477.0	6.463089994104831e+17
19478.0	6.473524271819433e+17
19479.0	6.484990762156032e+17
19480.0	6.493973278709076e+17
19481.0	6.502433807837865e+17
19482.0	6.510319624344916e+17
19483.0	6.517549728530431e+17
19484.0	6.525083440207187e+17
19485.0	6.532396620972031e+17
19486.0	6.538714568895146e+17
19487.0	6.544655416033279e+17
19488.0	6.550221637724842e+17
19489.0	6.556245491537236e+17
19490.0	6.562772686995456e+17
19491.0	6.568066140514985e+17
19492.0	6.572527012107604e+17
19493.0	6.576670200823805e+17
19494.0	6.580536329196883e+17
19495.0	6.585261683813036e+17
19496.0	6.589860910115497e+17
19497.0	6.593431254073343e+17
19498.0	6.595636308038998e+17
19499.0	6.594503411848531e+17
19500.0	6.603027567869951e+17
19501.0	6.606565751302825e+17
19502.0	6.609095528284159e+17
19503.0	6.611526991478783e+17
19504.0	6.614171187675136e+17
19505.0	6.61668492214272e+17
19506.0	6.619353933938687e+17
19507.0	6.621112163106813e+17
19508.0	6.622808981372927e+17
19509.0	6.624397081182208e+17
19510.0	6.626127455977472e+17
19511.0	6.6221665475188e+17
19512.0	6.628772779043497e+17
19513.0	6.62956301038387e+17
19514.0	6.631201153832275e+17
19515.0	6.633598241909417e+17
19516.0	6.635308124733439e+17
19517.0	6.636909756066472e+17
19518.0	6.637846267953151e+17
19519.0	6.638655302358355e+17
19520.0	6.639375325943123e+17
19521.0	6.640067906895872e+17
19522.0	6.640656999688873e+17
19523.0	6.641816438833151e+17
19524.0	6.642420821961385e+17
19525.0	6.642858926101844e+17
19526.0	6.643242946090324e+17
19527.0	6.643572428242943e+17
19528.0	6.643845601864361e+17
19529.0	6.644083702715734e+17
19530.0	6.644277341847551e+17
19531.0	6.644846461364905e+17
19532.0	6.645023563055104e+17
19533.0	6.645060941993299e+17
19534.0	6.645038698900137e+17
19535.0	6.644986213477033e+17
19536.0	6.64490367656482e+17
19537.0	6.644829094150143e+17
19538.0	6.6446033434269e+17
19539.0	6.644348172457299e+17
19540.0	6.6444241417885e+17
19541.0	6.644448001086804e+17
19542.0	6.644326197799596e+17
19543.0	6.644481726087167e+17
19544.0	6.644277862640298e+17
19545.0	6.643698989968041e+17
19546.0	6.643258892135082e+17
19547.0	6.64333471326754e+17
19548.0	6.642991833808895e+17
19549.0	6.643290626239146e+17
19550.0	6.643031717445631e+17
19551.0	6.642618579899731e+17
19552.0	6.642183223028393e+17
19553.0	6.641715363097257e+17
19554.0	6.641224739280211e+17
19555.0	6.640892523839488e+17
19556.0	6.640996269948927e+17
19557.0	6.640492303351807e+17
19558.0	6.639937269006336e+17
19559.0	6.639365913924948e+17
19560.0	6.63875775242786e+17
19561.0	6.638151952323923e+17
19562.0	6.637550294794237e+17
19563.0	6.637135349503315e+17
19564.0	6.636785636125353e+17
19565.0	6.636123061223423e+17
19566.0	6.6354309234688e+17
19567.0	6.634755684564992e+17
19568.0	6.63403681231667e+17
19569.0	6.633336555088553e+17
19570.0	6.632610028934484e+17
19571.0	6.631860005590355e+17
19572.0	6.631210142225748e+17
19573.0	6.630715308725588e+17
19574.0	6.629879668452009e+17
19575.0	6.629156705359188e+17
19576.0	6.628359133986813e+17
19577.0	6.627548363838804e+17
19578.0	6.626718208316756e+17
19579.0	6.625892691694931e+17
19580.0	6.62506400907264e+17
19581.0	6.624240067411968e+17
19582.0	6.623403240849407e+17
19583.0	6.622607949081257e+17
19584.0	6.622039733436415e+17
19585.0	6.621098918892884e+17
19586.0	6.620205837626026e+17
19587.0	6.619394777371988e+17
19588.0	6.618306077261823e+17
19589.0	6.617606040234665e+17
19590.0	6.61668686340642e+17
19591.0	6.61583336518451e+17
19592.0	6.614921540272127e+17
19593.0	6.613989326847999e+17
19594.0	6.612919431200765e+17
19595.0	6.612130665769642e+17
19596.0	6.611107237418324e+17
19597.0	6.610255523872765e+17
19598.0	6.609146640072703e+17
19599.0	6.608547498426367e+17
19600.0	6.607597041876991e+17
19601.0	6.606589477082452e+17
19602.0	6.60559601074176e+17
19603.0	6.604464428067497e+17
19604.0	6.603641260255914e+17
19605.0	6.602538011503274e+17
19606.0	6.601723978885802e+17
19607.0	6.600734942429183e+17
19608.0	6.599725908929193e+17
19609.0	6.59870446658082e+17
19610.0	6.597721362268159e+17
19611.0	6.596707810803711e+17
19612.0	6.595701431599103e+17
19613.0	6.594675109877076e+17
19614.0	6.593632291258368e+17
19615.0	6.592629706500777e+17
19616.0	6.591579387068415e+17
19617.0	6.590764776336042e+17
19618.0	6.589412634088788e+17
19619.0	6.588286715822079e+17
19620.0	6.587416298476884e+17
19621.0	6.58671511081233e+17
19622.0	6.585691326644223e+17
19623.0	6.584642941485056e+17
19624.0	6.583581702881279e+17
19625.0	6.582528533419347e+17
19626.0	6.581461833831764e+17
19627.0	6.580376664626518e+17
19628.0	6.579238266907306e+17
19629.0	6.578049955572394e+17
19630.0	6.576241254247081e+17
19631.0	6.573556179664895e+17
19632.0	6.574786608103423e+17
19633.0	6.573888077037565e+17
19634.0	6.57288375444002e+17
19635.0	6.571793719143081e+17
19636.0	6.570740719550463e+17
19637.0	6.569403137829546e+17
19638.0	6.568580612445523e+17
19639.0	6.567489594982399e+17
19640.0	6.566323916111872e+17
19641.0	6.564915652678998e+17
19642.0	6.564218715941545e+17
19643.0	6.563125871859027e+17
19644.0	6.561984631799807e+17
19645.0	6.560811374521002e+17
19646.0	6.559831212512595e+17
19647.0	6.558745425346559e+17
19648.0	6.55764468338961e+17
19649.0	6.556540598572372e+17
19650.0	6.555436836716543e+17
19651.0	6.554325902600873e+17
19652.0	6.553221085877588e+17
19653.0	6.552112538320895e+17
19654.0	6.55100251227204e+17
19655.0	6.549888038862847e+17
19656.0	6.548774463034708e+17
19657.0	6.547663342971562e+17
19658.0	6.546597238975145e+17
19659.0	6.545494104866815e+17
19660.0	6.544376733193558e+17
19661.0	6.543259021781673e+17
19662.0	6.542212041714346e+17
19663.0	6.541069196634793e+17
19664.0	6.539960522549929e+17
19665.0	6.538845725480276e+17
