# Flux units: erg / (cm m2 s)
# Wavelength units: Angstrom
wave	flux
19000.0	7.765380962800982e+17
19001.0	7.763947950877354e+17
19002.0	7.762611096169126e+17
19003.0	7.761222768962216e+17
19004.0	7.759833333060947e+17
19005.0	7.75844450533376e+17
19006.0	7.757052871617193e+17
19007.0	7.755659732145492e+17
19008.0	7.754236431433727e+17
19009.0	7.752831703100073e+17
19010.0	7.751258198769664e+17
19011.0	7.750059879126356e+17
19012.0	7.748623172020906e+17
19013.0	7.747275656790015e+17
19014.0	7.745837133550931e+17
19015.0	7.744447968881322e+17
19016.0	7.743040024914602e+17
19017.0	7.741651511760212e+17
19018.0	7.740246032646143e+17
19019.0	7.738846587737427e+17
19020.0	7.737422070677501e+17
19021.0	7.736026985048744e+17
19022.0	7.73462050209792e+17
19023.0	7.733186307380566e+17
19024.0	7.731782684945064e+17
19025.0	7.730378707391828e+17
19026.0	7.728952716733098e+17
19027.0	7.727530781966333e+17
19028.0	7.726136831595859e+17
19029.0	7.724719426677417e+17
19030.0	7.7233015226368e+17
19031.0	7.721882409238525e+17
19032.0	7.720462391268692e+17
19033.0	7.718997259365033e+17
19034.0	7.717619150880767e+17
19035.0	7.716174108295165e+17
19036.0	7.71334572553011e+17
19037.0	7.713345972994047e+17
19038.0	7.711911726546944e+17
19039.0	7.710498933964799e+17
19040.0	7.709072597975039e+17
19041.0	7.70764509037636e+17
19042.0	7.706176981914964e+17
19043.0	7.704788450585257e+17
19044.0	7.703357776287058e+17
19045.0	7.701928494497791e+17
19046.0	7.700473922453503e+17
19047.0	7.699058288929449e+17
19048.0	7.697537944606036e+17
19049.0	7.696167845844308e+17
19050.0	7.694745175676246e+17
19051.0	7.693074643113299e+17
19052.0	7.691856582279167e+17
19053.0	7.690460885680127e+17
19054.0	7.689024709853181e+17
19055.0	7.687461824102399e+17
19056.0	7.68613944393728e+17
19057.0	7.684707252699135e+17
19058.0	7.683267069913769e+17
19059.0	7.681832924129961e+17
19060.0	7.680382261177e+17
19061.0	7.678952759885824e+17
19062.0	7.67750922585156e+17
19063.0	7.676068036433236e+17
19064.0	7.674571480804009e+17
19065.0	7.673093778571261e+17
19066.0	7.671708573324627e+17
19067.0	7.670295442401961e+17
19068.0	7.668851098867028e+17
19069.0	7.667406386233343e+17
19070.0	7.66595587707153e+17
19071.0	7.6645142640285e+17
19072.0	7.663067437465599e+17
19073.0	7.661617553255081e+17
19074.0	7.660172138774525e+17
19075.0	7.658723679229267e+17
19076.0	7.657264686388564e+17
19077.0	7.655819357192191e+17
19078.0	7.654362804038313e+17
19079.0	7.652925072124586e+17
19080.0	7.651470919510698e+17
19081.0	7.650001948420777e+17
19082.0	7.64854910862404e+17
19083.0	7.647057443553276e+17
19084.0	7.645578537555283e+17
19085.0	7.644555720174249e+17
19086.0	7.6429064709079e+17
19087.0	7.641605051077974e+17
19088.0	7.640148077095593e+17
19089.0	7.638619085515433e+17
19090.0	7.637258218416808e+17
19091.0	7.635804033646592e+17
19092.0	7.634328123779753e+17
19093.0	7.632901618619731e+17
19094.0	7.631431759735464e+17
19095.0	7.62997038592819e+17
19096.0	7.628516524119378e+17
19097.0	7.627063434062505e+17
19098.0	7.625604341956607e+17
19099.0	7.624143098172756e+17
19100.0	7.622681699199658e+17
19101.0	7.621218621106858e+17
19102.0	7.619714728241833e+17
19103.0	7.618294373329578e+17
19104.0	7.616830923341821e+17
19105.0	7.6153666680477e+17
19106.0	7.613895226512723e+17
19107.0	7.612430230224893e+17
19108.0	7.610970883664553e+17
19109.0	7.609376862197074e+17
19110.0	7.608031421748564e+17
19111.0	7.606573976606036e+17
19112.0	7.60510758920738e+17
19113.0	7.603640269275136e+17
19114.0	7.602172269865642e+17
19115.0	7.600691516975786e+17
19116.0	7.599222861856765e+17
19117.0	7.597754508727636e+17
19118.0	7.59625130512657e+17
19119.0	7.593474685665276e+17
19120.0	7.593340955874644e+17
19121.0	7.591873368905044e+17
19122.0	7.590411690311679e+17
19123.0	7.588938750012072e+17
19124.0	7.587457921624748e+17
19125.0	7.58599184879889e+17
19126.0	7.584514128390825e+17
19127.0	7.582241152565247e+17
19128.0	7.581542904408744e+17
19129.0	7.580052943623508e+17
19130.0	7.578617631823187e+17
19131.0	7.577144632803325e+17
19132.0	7.575666361543338e+17
19133.0	7.574114554347517e+17
19134.0	7.57270417069397e+17
19135.0	7.571237172325033e+17
19136.0	7.569758832558079e+17
19137.0	7.568204826148863e+17
19138.0	7.566793207971837e+17
19139.0	7.56532021174818e+17
19140.0	7.563840518619135e+17
19141.0	7.56235950428433e+17
19142.0	7.560865593862825e+17
19143.0	7.55937107526724e+17
19144.0	7.557907854568105e+17
19145.0	7.55642932745557e+17
19146.0	7.554663272415232e+17
19147.0	7.553418816826025e+17
19148.0	7.551974695589204e+17
19149.0	7.550489141619369e+17
19150.0	7.548999288487935e+17
19151.0	7.54751601202517e+17
19152.0	7.546025905837396e+17
19153.0	7.544529818572115e+17
19154.0	7.542990957794644e+17
19155.0	7.541560824561663e+17
19156.0	7.540069097974441e+17
19157.0	7.538571811138217e+17
19158.0	7.537004388548607e+17
19159.0	7.535583644964182e+17
19160.0	7.534099654071636e+17
19161.0	7.532606427321684e+17
19162.0	7.530910661825875e+17
19163.0	7.529606806503424e+17
19164.0	7.528123832030547e+17
19165.0	7.526623929346728e+17
19166.0	7.525078683440468e+17
19167.0	7.523613555731114e+17
19168.0	7.522118862372861e+17
19169.0	7.520622141767679e+17
19170.0	7.519133175032488e+17
19171.0	7.517622897038676e+17
19172.0	7.516130193178624e+17
19173.0	7.514628141613053e+17
19174.0	7.513098646716415e+17
19175.0	7.511620573986815e+17
19176.0	7.510115297001471e+17
19177.0	7.508535466262527e+17
19178.0	7.5070950094493e+17
19179.0	7.505579466205864e+17
19180.0	7.504080020701183e+17
19181.0	7.50252659730022e+17
19182.0	7.501052776196778e+17
19183.0	7.499550899393876e+17
19184.0	7.498025816905044e+17
19185.0	7.496521185842518e+17
19186.0	7.49500847235618e+17
19187.0	7.493460287640915e+17
19188.0	7.491974641396393e+17
19189.0	7.490459052015615e+17
19190.0	7.488938752431444e+17
19191.0	7.487416912139603e+17
19192.0	7.485897307411795e+17
19193.0	7.484373456650237e+17
19194.0	7.482851289202687e+17
19195.0	7.481326240268287e+17
19196.0	7.479793619217066e+17
19197.0	7.478263261691903e+17
19198.0	7.476713627145556e+17
19199.0	7.473981109392723e+17
19200.0	7.472786410831872e+17
19201.0	7.472128662874793e+17
19202.0	7.470618651918335e+17
19203.0	7.469090497800872e+17
19204.0	7.467545675519315e+17
19205.0	7.466021630421676e+17
19206.0	7.46447844951108e+17
19207.0	7.462905627454122e+17
19208.0	7.461312643377833e+17
19209.0	7.459863441440768e+17
19210.0	7.458319779583315e+17
19211.0	7.456774212113748e+17
19212.0	7.455227466044755e+17
19213.0	7.45363768222242e+17
19214.0	7.452072865693696e+17
19215.0	7.450572136731987e+17
19216.0	7.449022015646378e+17
19217.0	7.447466714595327e+17
19218.0	7.445529393539756e+17
19219.0	7.444270169806164e+17
19220.0	7.442780730512726e+17
19221.0	7.441082173008556e+17
19222.0	7.439662469611519e+17
19223.0	7.438100686962688e+17
19224.0	7.436517490993833e+17
19225.0	7.434897255126356e+17
19226.0	7.433384550028628e+17
19227.0	7.431808894020266e+17
19228.0	7.430245409882111e+17
19229.0	7.42866731278882e+17
19230.0	7.42708584067891e+17
19231.0	7.425506218257066e+17
19232.0	7.423915434792275e+17
19233.0	7.422299233845247e+17
19234.0	7.42073507582225e+17
19235.0	7.419143850557439e+17
19236.0	7.41756164444433e+17
19237.0	7.415958403896659e+17
19238.0	7.414323669718358e+17
19239.0	7.412767696180564e+17
19240.0	7.411138058081619e+17
19241.0	7.409537991223978e+17
19242.0	7.407941370686122e+17
19243.0	7.406252685175464e+17
19244.0	7.404726021434025e+17
19245.0	7.403109374492671e+17
19246.0	7.401484309583187e+17
19247.0	7.399871521401513e+17
19248.0	7.398250055204863e+17
19249.0	7.396624096908628e+17
19250.0	7.394993529072296e+17
19251.0	7.393306122824361e+17
19252.0	7.391586193943209e+17
19253.0	7.390088435946835e+17
19254.0	7.388448542774612e+17
19255.0	7.386714386814292e+17
19256.0	7.384901541516628e+17
19257.0	7.383156151812093e+17
19258.0	7.381501308742313e+17
19259.0	7.379806918978216e+17
19260.0	7.378155256588969e+17
19261.0	7.376516760119977e+17
19262.0	7.374823410543272e+17
19263.0	7.373146308302164e+17
19264.0	7.371257934774271e+17
19265.0	7.369731209516372e+17
19266.0	7.368064100903594e+17
19267.0	7.366446170505215e+17
19268.0	7.364753570310825e+17
19269.0	7.363056465433939e+17
19270.0	7.361353090072575e+17
19271.0	7.359498568772266e+17
19272.0	7.357919448268799e+17
19273.0	7.355421146043731e+17
19274.0	7.353982073350825e+17
19275.0	7.35277852201233e+17
19276.0	7.351041786555049e+17
19277.0	7.349318081402195e+17
19278.0	7.347579176091647e+17
19279.0	7.345833362762408e+17
19280.0	7.344049898564266e+17
19281.0	7.34232852963874e+17
19282.0	7.340568715722751e+17
19283.0	7.33878793028676e+17
19284.0	7.337007670536874e+17
19285.0	7.335165972621994e+17
19286.0	7.333451515909459e+17
19287.0	7.331681729336658e+17
19288.0	7.32949257527842e+17
19289.0	7.327162408719697e+17
19290.0	7.326259876986879e+17
19291.0	7.324311214533289e+17
19292.0	7.322613111412051e+17
19293.0	7.320776938793642e+17
19294.0	7.318941500178432e+17
19295.0	7.317096575445674e+17
19296.0	7.31524511179298e+17
19297.0	7.313386433937408e+17
19298.0	7.311514447555241e+17
19299.0	7.309652576436223e+17
19300.0	7.307774423029075e+17
19301.0	7.305887910374058e+17
19302.0	7.303993611692713e+17
19303.0	7.302067671181993e+17
19304.0	7.300182207102973e+17
19305.0	7.298280312537087e+17
19306.0	7.296373334474752e+17
19307.0	7.294420644091219e+17
19308.0	7.292497803171155e+17
19309.0	7.290533723854163e+17
19310.0	7.288560341570899e+17
19311.0	7.286650154866003e+17
19312.0	7.284700642366803e+17
19313.0	7.282137152268969e+17
19314.0	7.279325309042687e+17
19315.0	7.277384769557846e+17
19316.0	7.276121863225343e+17
19317.0	7.274120970502143e+17
19318.0	7.272096887472127e+17
19319.0	7.270082189896361e+17
19320.0	7.268047411391145e+17
19321.0	7.265993938873e+17
19322.0	7.263877765704361e+17
19323.0	7.261812434490708e+17
19324.0	7.259726828011517e+17
19325.0	7.257585270915071e+17
19326.0	7.255490076256936e+17
19327.0	7.253348278687059e+17
19328.0	7.251205362636116e+17
19329.0	7.249042965441193e+17
19330.0	7.246848750256127e+17
19331.0	7.244654679075497e+17
19332.0	7.242470702186496e+17
19333.0	7.240256098489683e+17
19334.0	7.237935838877014e+17
19335.0	7.23474325770513e+17
19336.0	7.232475814166527e+17
19337.0	7.230191443815081e+17
19338.0	7.227796877912744e+17
19339.0	7.225580087585449e+17
19340.0	7.223208759525375e+17
19341.0	7.220838042435581e+17
19342.0	7.218307874684927e+17
19343.0	7.216089089267028e+17
19344.0	7.213683135829331e+17
19345.0	7.210410190394706e+17
19346.0	7.208439465902079e+17
19347.0	7.205616201586003e+17
19348.0	7.202320721554088e+17
19349.0	7.199781766736553e+17
19350.0	7.197231244028586e+17
19351.0	7.194655370947241e+17
19352.0	7.192032481116157e+17
19353.0	7.189441035982164e+17
19354.0	7.18678852178193e+17
19355.0	7.184065301402964e+17
19356.0	7.179303288569856e+17
19357.0	7.176537793800872e+17
19358.0	7.173749333819391e+17
19359.0	7.170900649224874e+17
19360.0	7.168076908156244e+17
19361.0	7.165197837227348e+17
19362.0	7.160456284209148e+17
19363.0	7.156551356426922e+17
19364.0	7.153529715512662e+17
19365.0	7.150467015158442e+17
19366.0	7.147367551729663e+17
19367.0	7.141606833171118e+17
19368.0	7.137489241593172e+17
19369.0	7.134187697995773e+17
19370.0	7.130804716393812e+17
19371.0	7.124073593875114e+17
19372.0	7.119681248821245e+17
19373.0	7.116126119002111e+17
19374.0	7.109838120506711e+17
19375.0	7.103580304222889e+17
19376.0	7.099764895470931e+17
19377.0	7.090987682409132e+17
19378.0	7.08559370400563e+17
19379.0	7.078028008663718e+17
19380.0	7.069944810307583e+17
19381.0	7.063870511600984e+17
19382.0	7.056854504964093e+17
19383.0	7.052238624478547e+17
19384.0	7.047620437125802e+17
19385.0	7.042884749142698e+17
19386.0	7.038020809829033e+17
19387.0	7.032964255492777e+17
19388.0	7.028007835271167e+17
19389.0	7.022976877374121e+17
19390.0	7.017869759305044e+17
19391.0	7.011595625081512e+17
19392.0	7.007196355231743e+17
19393.0	7.001654827504979e+17
19394.0	6.995979477013844e+17
19395.0	6.990193526920532e+17
19396.0	6.984287217079635e+17
19397.0	6.978172990696106e+17
19398.0	6.971576038369961e+17
19399.0	6.965058651990697e+17
19400.0	6.958897782150484e+17
19401.0	6.952398211776511e+17
19402.0	6.945725777357481e+17
19403.0	6.938625242213034e+17
19404.0	6.930884103329107e+17
19405.0	6.923677287317504e+17
19406.0	6.916299585574228e+17
19407.0	6.908023355561299e+17
19408.0	6.899095269889363e+17
19409.0	6.891270818146985e+17
19410.0	6.881269182889983e+17
19411.0	6.872248819733844e+17
19412.0	6.86155893554108e+17
19413.0	6.851418110208681e+17
19414.0	6.838902264430587e+17
19415.0	6.827575145223511e+17
19416.0	6.813511490819412e+17
19417.0	6.798904533538131e+17
19418.0	6.782449614848e+17
19419.0	6.763921615967569e+17
19420.0	6.742830763125414e+17
19421.0	6.719288680032942e+17
19422.0	6.697472152480425e+17
19423.0	6.681535724563114e+17
19424.0	6.665537495673514e+17
19425.0	6.648861348418899e+17
19426.0	6.631050224599039e+17
19427.0	6.612802375166636e+17
19428.0	6.594003150918996e+17
19429.0	6.573583966928892e+17
19430.0	6.553088899590828e+17
19431.0	6.53003643158528e+17
19432.0	6.505943375631699e+17
19433.0	6.479242920110761e+17
19434.0	6.449666654732287e+17
19435.0	6.416355208549715e+17
19436.0	6.379031436634799e+17
19437.0	6.337437331969362e+17
19438.0	6.290302545428467e+17
19439.0	6.239972083018417e+17
19440.0	6.19124250186001e+17
19441.0	6.140478154779302e+17
19442.0	6.08411206933982e+17
19443.0	6.018254424244223e+17
19444.0	5.943470926943567e+17
19445.0	5.856801105554093e+17
19446.0	5.7569919669807776e+17
19447.0	5.640763673848485e+17
19448.0	5.503605957547354e+17
19449.0	5.338111072534528e+17
19450.0	5.138246032599701e+17
19451.0	5.055950145366702e+17
19452.0	5.2404743010167443e+17
19453.0	5.42400896582725e+17
19454.0	5.5714019030684954e+17
19455.0	5.694948084372821e+17
19456.0	5.800127462987098e+17
19457.0	5.890873910886396e+17
19458.0	5.967672513309357e+17
19459.0	6.036544766170455e+17
19460.0	6.094886966482258e+17
19461.0	6.145534000278185e+17
19462.0	6.1920663568384e+17
19463.0	6.240466165738144e+17
19464.0	6.286888478441472e+17
19465.0	6.328256417846612e+17
19466.0	6.364577318393165e+17
19467.0	6.397817426455208e+17
19468.0	6.426454904537089e+17
19469.0	6.451758688982354e+17
19470.0	6.475151890361001e+17
19471.0	6.495867987034111e+17
19472.0	6.514871145332733e+17
19473.0	6.532776174725802e+17
19474.0	6.549830081271126e+17
19475.0	6.565510545495379e+17
19476.0	6.581322561967444e+17
19477.0	6.59592910610978e+17
19478.0	6.609692493086719e+17
19479.0	6.622763995365375e+17
19480.0	6.638459431157756e+17
19481.0	6.659300181147642e+17
19482.0	6.679600290944339e+17
19483.0	6.69618283181943e+17
19484.0	6.711438893296297e+17
19485.0	6.724451806740485e+17
19486.0	6.734879221175636e+17
19487.0	6.745102537981951e+17
19488.0	6.754771908864682e+17
19489.0	6.76240212238882e+17
19490.0	6.770811488698368e+17
19491.0	6.777603428625065e+17
19492.0	6.784971349251414e+17
19493.0	6.791080778749267e+17
19494.0	6.796496595495594e+17
19495.0	6.802931594559488e+17
19496.0	6.807629463202473e+17
19497.0	6.812386684043263e+17
19498.0	6.816955312198998e+17
19499.0	6.820401109794813e+17
19500.0	6.826165175407955e+17
19501.0	6.830104204978857e+17
19502.0	6.833895448947368e+17
19503.0	6.83755635352098e+17
19504.0	6.841218096955391e+17
19505.0	6.845009068294143e+17
19506.0	6.848295301982889e+17
19507.0	6.851456667047252e+17
19508.0	6.854506444750847e+17
19509.0	6.857436094791679e+17
19510.0	6.860181593915391e+17
19511.0	6.86131054396484e+17
19512.0	6.865092043866111e+17
19513.0	6.867133408826707e+17
19514.0	6.869672711072425e+17
19515.0	6.872079083241472e+17
19516.0	6.874621300528468e+17
19517.0	6.876684174579027e+17
19518.0	6.878707336260266e+17
19519.0	6.880637029974015e+17
19520.0	6.883067709532842e+17
19521.0	6.888201889251327e+17
19522.0	6.89015660618274e+17
19523.0	6.898228541434537e+17
19524.0	6.899626685409961e+17
19525.0	6.905234264337069e+17
19526.0	6.907955593783977e+17
19527.0	6.909024754029908e+17
19528.0	6.914802844696576e+17
19529.0	6.915799906953897e+17
19530.0	6.916614798005587e+17
19531.0	6.919990905143296e+17
19532.0	6.922091987905193e+17
19533.0	6.92268825715234e+17
19534.0	6.923233108426751e+17
19535.0	6.925879252877307e+17
19536.0	6.927413426520063e+17
19537.0	6.927807330385919e+17
19538.0	6.928100584237737e+17
19539.0	6.928209866129407e+17
19540.0	6.930262830437716e+17
19541.0	6.931466142700883e+17
19542.0	6.931624084810409e+17
19543.0	6.931747384066047e+17
19544.0	6.931836853463721e+17
19545.0	6.931694925905919e+17
19546.0	6.931751506367827e+17
19547.0	6.933867736858624e+17
19548.0	6.933827061896531e+17
19549.0	6.933712388926121e+17
19550.0	6.933664325697535e+17
19551.0	6.933544690166442e+17
19552.0	6.933398332724564e+17
19553.0	6.933218388694355e+17
19554.0	6.933018151922346e+17
19555.0	6.93329584979968e+17
19556.0	6.933960541427027e+17
19557.0	6.93368619409954e+17
19558.0	6.933393993717076e+17
19559.0	6.933079558630057e+17
19560.0	6.932736294693546e+17
19561.0	6.932392619715242e+17
19562.0	6.932032342982655e+17
19563.0	6.931646035700394e+17
19564.0	6.931242827470163e+17
19565.0	6.930822633706835e+17
19566.0	6.930376980518228e+17
19567.0	6.929968795047252e+17
19568.0	6.929491530787497e+17
19569.0	6.929916865369428e+17
19570.0	6.929451155718143e+17
19571.0	6.928934349657428e+17
19572.0	6.928392227476819e+17
19573.0	6.927854838568276e+17
19574.0	6.927262971942227e+17
19575.0	6.926739386488148e+17
19576.0	6.926157770741075e+17
19577.0	6.92555882832418e+17
19578.0	6.924938715157843e+17
19579.0	6.924325927343444e+17
19580.0	6.923696644030461e+17
19581.0	6.923053579632639e+17
19582.0	6.922391911399423e+17
19583.0	6.921709807818067e+17
19584.0	6.921016406179839e+17
19585.0	6.920265708251817e+17
19586.0	6.919541965717504e+17
19587.0	6.918882082160637e+17
19588.0	6.917958448185343e+17
19589.0	6.917419645796351e+17
19590.0	6.916651167514623e+17
19591.0	6.915934776197119e+17
19592.0	6.915174782293332e+17
19593.0	6.914789762662399e+17
19594.0	6.914084671498921e+17
19595.0	6.913395041938089e+17
19596.0	6.912505776788819e+17
19597.0	6.911811536289791e+17
19598.0	6.910882308511059e+17
19599.0	6.9102022964893e+17
19600.0	6.909382144382291e+17
19601.0	6.908523386503167e+17
19602.0	6.907698224300031e+17
19603.0	6.906690333048831e+17
19604.0	6.906009930257748e+17
19605.0	6.905042930674346e+17
19606.0	6.904324554751999e+17
19607.0	6.903461369085952e+17
19608.0	6.902587768264019e+17
19609.0	6.901691130227369e+17
19610.0	6.90082894979618e+17
19611.0	6.899937316962304e+17
19612.0	6.899044922862249e+17
19613.0	6.898144019917481e+17
19614.0	6.897215168927059e+17
19615.0	6.896316286238719e+17
19616.0	6.895380431459668e+17
19617.0	6.894458838712319e+17
19618.0	6.893271626984105e+17
19619.0	6.892266961851731e+17
19620.0	6.891335113332052e+17
19621.0	6.890678197245267e+17
19622.0	6.889720854347775e+17
19623.0	6.888757598180691e+17
19624.0	6.887789097036457e+17
19625.0	6.886815582999894e+17
19626.0	6.885837169317204e+17
19627.0	6.88485320237602e+17
19628.0	6.883836793891497e+17
19629.0	6.882827619882323e+17
19630.0	6.881767474593792e+17
19631.0	6.879560154305876e+17
19632.0	6.879861977819818e+17
19633.0	6.878849482620927e+17
19634.0	6.877848522457087e+17
19635.0	6.876811250106367e+17
19636.0	6.875810877145087e+17
19637.0	6.87459018019089e+17
19638.0	6.873753109659647e+17
19639.0	6.872715838707027e+17
19640.0	6.871645666235731e+17
19641.0	6.870359551421098e+17
19642.0	6.869604697636863e+17
19643.0	6.868556355119785e+17
19644.0	6.867477104077481e+17
19645.0	6.866331117464234e+17
19646.0	6.865398003662847e+17
19647.0	6.864338718905686e+17
19648.0	6.863275938196137e+17
19649.0	6.862208809391446e+17
19650.0	6.861141247874387e+17
19651.0	6.860069498344787e+17
19652.0	6.858994879212201e+17
19653.0	6.857916487303165e+17
19654.0	6.856837120218452e+17
19655.0	6.855751994354346e+17
19656.0	6.854665568255999e+17
19657.0	6.853582482920787e+17
19658.0	6.852493935902719e+17
19659.0	6.851402108239872e+17
19660.0	6.850309261361151e+17
19661.0	6.849213209335124e+17
19662.0	6.848114669387775e+17
19663.0	6.846993775897257e+17
19664.0	6.845906044671316e+17
19665.0	6.844805504040959e+17
