# Flux units: erg / (cm m2 s)
# Wavelength units: Angstrom
wave	flux
19000.0	7.41293427995443e+17
19001.0	7.411512728267433e+17
19002.0	7.41023394509619e+17
19003.0	7.408880960492884e+17
19004.0	7.40752818700288e+17
19005.0	7.406176631259135e+17
19006.0	7.404822508601344e+17
19007.0	7.403461149371049e+17
19008.0	7.40207449149713e+17
19009.0	7.400671756855977e+17
19010.0	7.399116078317568e+17
19011.0	7.398018255596202e+17
19012.0	7.396593935668564e+17
19013.0	7.39531871485952e+17
19014.0	7.393918776421033e+17
19015.0	7.392576031511892e+17
19016.0	7.391217257370964e+17
19017.0	7.389885210733225e+17
19018.0	7.388516828839935e+17
19019.0	7.38715896206677e+17
19020.0	7.386129608562004e+17
19021.0	7.38479447351842e+17
19022.0	7.383439190436522e+17
19023.0	7.382043763671037e+17
19024.0	7.380690892313939e+17
19025.0	7.379336252358653e+17
19026.0	7.377955516841983e+17
19027.0	7.376567382573055e+17
19028.0	7.375239797276672e+17
19029.0	7.373872068296701e+17
19030.0	7.372517828198399e+17
19031.0	7.371150353672874e+17
19032.0	7.369781942419455e+17
19033.0	7.368346652988756e+17
19034.0	7.367025036186963e+17
19035.0	7.365571876225023e+17
19036.0	7.361202940979881e+17
19037.0	7.362871755276284e+17
19038.0	7.361543125598207e+17
19039.0	7.36019922026496e+17
19040.0	7.358831720573612e+17
19041.0	7.357462648018262e+17
19042.0	7.356020087062527e+17
19043.0	7.354722162485932e+17
19044.0	7.353349586288637e+17
19045.0	7.351978394211668e+17
19046.0	7.350574966112255e+17
19047.0	7.349210746366633e+17
19048.0	7.34774028070639e+17
19049.0	7.34642940551714e+17
19050.0	7.3450755471005e+17
19051.0	7.34323468804642e+17
19052.0	7.342224840851453e+17
19053.0	7.340992217393833e+17
19054.0	7.339624495404372e+17
19055.0	7.338067629877932e+17
19056.0	7.336862807665321e+17
19057.0	7.335498538986153e+17
19058.0	7.334116259965612e+17
19059.0	7.332753597704872e+17
19060.0	7.331368529472169e+17
19061.0	7.330006253087402e+17
19062.0	7.328628119437311e+17
19063.0	7.327252162630995e+17
19064.0	7.325809737291092e+17
19065.0	7.324372781323604e+17
19066.0	7.323081619363155e+17
19067.0	7.321752412269225e+17
19068.0	7.320376497405951e+17
19069.0	7.319000582542676e+17
19070.0	7.317608007903913e+17
19071.0	7.316247494524927e+17
19072.0	7.31487076177237e+17
19073.0	7.313491176893097e+17
19074.0	7.312116921576106e+17
19075.0	7.310739461810857e+17
19076.0	7.309350466311508e+17
19077.0	7.307973389626025e+17
19078.0	7.306590981980157e+17
19079.0	7.305227919862441e+17
19080.0	7.303839821944147e+17
19081.0	7.302440835612672e+17
19082.0	7.301069365313535e+17
19083.0	7.299628624685738e+17
19084.0	7.298160948237651e+17
19085.0	7.2969552410269e+17
19086.0	7.295292214870015e+17
19087.0	7.294135638338217e+17
19088.0	7.292747060871165e+17
19089.0	7.291271522899283e+17
19090.0	7.290029293087402e+17
19091.0	7.28866124673843e+17
19092.0	7.28725038633233e+17
19093.0	7.285922917078355e+17
19094.0	7.284545072835242e+17
19095.0	7.283165852860416e+17
19096.0	7.281778126837076e+17
19097.0	7.280405108839764e+17
19098.0	7.279025730879488e+17
19099.0	7.277645258205864e+17
19100.0	7.276264227689812e+17
19101.0	7.274882781937664e+17
19102.0	7.273445908458153e+17
19103.0	7.272125797411497e+17
19104.0	7.27074506608913e+17
19105.0	7.269356675967658e+17
19106.0	7.26797061787921e+17
19107.0	7.266587845328893e+17
19108.0	7.265204191974739e+17
19109.0	7.26363219759377e+17
19110.0	7.262408250753023e+17
19111.0	7.26107134711125e+17
19112.0	7.259694789121364e+17
19113.0	7.258314500997119e+17
19114.0	7.256931457215145e+17
19115.0	7.255516212363263e+17
19116.0	7.254150284137812e+17
19117.0	7.252767780022953e+17
19118.0	7.251319812609364e+17
19119.0	7.247644996927484e+17
19120.0	7.24858886492433e+17
19121.0	7.247232727602516e+17
19122.0	7.245874704242004e+17
19123.0	7.244492555244884e+17
19124.0	7.243087835299839e+17
19125.0	7.24171958203187e+17
19126.0	7.240302758723583e+17
19127.0	7.237872485313194e+17
19128.0	7.237504119166291e+17
19129.0	7.236123881373693e+17
19130.0	7.234797775268522e+17
19131.0	7.233426075680768e+17
19132.0	7.232040220317011e+17
19133.0	7.230607455857321e+17
19134.0	7.229257085703508e+17
19135.0	7.227888831037439e+17
19136.0	7.226505200052905e+17
19137.0	7.225028930874025e+17
19138.0	7.223726171663017e+17
19139.0	7.2223547223354e+17
19140.0	7.22097213014016e+17
19141.0	7.219587348518227e+17
19142.0	7.218183877077674e+17
19143.0	7.216785019371519e+17
19144.0	7.215400367773012e+17
19145.0	7.214012426442067e+17
19146.0	7.212093705726634e+17
19147.0	7.211086042365951e+17
19148.0	7.209747066738003e+17
19149.0	7.208361321824255e+17
19150.0	7.206972368267944e+17
19151.0	7.20558849401378e+17
19152.0	7.204199964082173e+17
19153.0	7.20279564259601e+17
19154.0	7.201350310603433e+17
19155.0	7.200031835335338e+17
19156.0	7.198642635713193e+17
19157.0	7.197231912321023e+17
19158.0	7.195756575675731e+17
19159.0	7.194453293574825e+17
19160.0	7.193084283934036e+17
19161.0	7.191681637373267e+17
19162.0	7.189990787601747e+17
19163.0	7.188855256689322e+17
19164.0	7.187530531908266e+17
19165.0	7.186141449726633e+17
19166.0	7.184683508258131e+17
19167.0	7.18333725970705e+17
19168.0	7.181968995254271e+17
19169.0	7.180580716980906e+17
19170.0	7.179196756044458e+17
19171.0	7.177795220974249e+17
19172.0	7.176413948586666e+17
19173.0	7.175024241453738e+17
19174.0	7.173599356693161e+17
19175.0	7.172240144946516e+17
19176.0	7.170848796442623e+17
19177.0	7.169346479237802e+17
19178.0	7.168048021984595e+17
19179.0	7.166645792058025e+17
19180.0	7.165261232734207e+17
19181.0	7.163808218174803e+17
19182.0	7.162469882877267e+17
19183.0	7.161088019092819e+17
19184.0	7.159688072265725e+17
19185.0	7.158292746163539e+17
19186.0	7.156897956932266e+17
19187.0	7.155446362843817e+17
19188.0	7.154101035641514e+17
19189.0	7.152705884301993e+17
19190.0	7.151304308686847e+17
19191.0	7.149880086626301e+17
19192.0	7.148503843209215e+17
19193.0	7.147099598618623e+17
19194.0	7.145684591443965e+17
19195.0	7.144282645331968e+17
19196.0	7.142855968205481e+17
19197.0	7.14141058727936e+17
19198.0	7.139834570560854e+17
19199.0	7.136489320917672e+17
19200.0	7.135462321815551e+17
19201.0	7.135651159168339e+17
19202.0	7.134402688232106e+17
19203.0	7.13303369257233e+17
19204.0	7.131638000167594e+17
19205.0	7.130244923610451e+17
19206.0	7.128845447943508e+17
19207.0	7.12736902357538e+17
19208.0	7.125914078238035e+17
19209.0	7.124624181559296e+17
19210.0	7.123226323495594e+17
19211.0	7.121815910481917e+17
19212.0	7.120402652332032e+17
19213.0	7.118924428607487e+17
19214.0	7.117499492117161e+17
19215.0	7.116152540321108e+17
19216.0	7.114745752584191e+17
19217.0	7.113313146109952e+17
19218.0	7.111426836179625e+17
19219.0	7.110354443523412e+17
19220.0	7.109057742285481e+17
19221.0	7.107481616515072e+17
19222.0	7.106217823786323e+17
19223.0	7.104815153457833e+17
19224.0	7.103364614935891e+17
19225.0	7.101876851965952e+17
19226.0	7.100326125502463e+17
19227.0	7.098902055834964e+17
19228.0	7.09749879410961e+17
19229.0	7.096071526984361e+17
19230.0	7.094642373820415e+17
19231.0	7.093204790105428e+17
19232.0	7.091778651247958e+17
19233.0	7.090302609959594e+17
19234.0	7.08890821079859e+17
19235.0	7.087470906703871e+17
19236.0	7.086051905153706e+17
19237.0	7.084606823421268e+17
19238.0	7.08311478505745e+17
19239.0	7.081741088980991e+17
19240.0	7.080145493251411e+17
19241.0	7.078667388365481e+17
19242.0	7.077231873840468e+17
19243.0	7.075675634663424e+17
19244.0	7.074354943404713e+17
19245.0	7.072907045896191e+17
19246.0	7.071449497294163e+17
19247.0	7.070005555014314e+17
19248.0	7.068554679549951e+17
19249.0	7.067099186156883e+17
19250.0	7.065629234997929e+17
19251.0	7.064113365996883e+17
19252.0	7.062505562046463e+17
19253.0	7.061248313830057e+17
19254.0	7.059800310065834e+17
19255.0	7.058191375051433e+17
19256.0	7.056851226416467e+17
19257.0	7.055398775291901e+17
19258.0	7.053883912923817e+17
19259.0	7.05208162329122e+17
19260.0	7.050595641502378e+17
19261.0	7.049172591050751e+17
19262.0	7.047656745817428e+17
19263.0	7.046157810619731e+17
19264.0	7.044398417532244e+17
19265.0	7.043113958069587e+17
19266.0	7.041637624578047e+17
19267.0	7.040260079528617e+17
19268.0	7.038765478445055e+17
19269.0	7.037266706825215e+17
19270.0	7.035752414183424e+17
19271.0	7.034058214561108e+17
19272.0	7.032723740120404e+17
19273.0	7.030844043908435e+17
19274.0	7.029322304279891e+17
19275.0	7.028215095405225e+17
19276.0	7.026687533383679e+17
19277.0	7.025169697953108e+17
19278.0	7.023275104272381e+17
19279.0	7.021672151034537e+17
19280.0	7.020103427511636e+17
19281.0	7.018603357754706e+17
19282.0	7.017076903728468e+17
19283.0	7.015515021115391e+17
19284.0	7.013946335341225e+17
19285.0	7.012345309386067e+17
19286.0	7.010848424503977e+17
19287.0	7.009310180988244e+17
19288.0	7.006818406498301e+17
19289.0	7.004200618338982e+17
19290.0	7.004609266581504e+17
19291.0	7.002863984530772e+17
19292.0	7.001301037263529e+17
19293.0	6.999298275278847e+17
19294.0	6.997704564888916e+17
19295.0	6.996119733141504e+17
19296.0	6.994520472289279e+17
19297.0	6.992907150032895e+17
19298.0	6.991285140673876e+17
19299.0	6.989689774232916e+17
19300.0	6.988066167543123e+17
19301.0	6.986435328475135e+17
19302.0	6.98473431171072e+17
19303.0	6.982737495851007e+17
19304.0	6.980736660449961e+17
19305.0	6.978711445656916e+17
19306.0	6.977059360342015e+17
19307.0	6.975365910102015e+17
19308.0	6.973705320835753e+17
19309.0	6.9719732270749e+17
19310.0	6.970253377186474e+17
19311.0	6.968633492941481e+17
19312.0	6.966963822308009e+17
19313.0	6.964548181426176e+17
19314.0	6.960158043974313e+17
19315.0	6.9586312467142e+17
19316.0	6.95912667091217e+17
19317.0	6.957399309025279e+17
19318.0	6.955648838620499e+17
19319.0	6.953905944526847e+17
19320.0	6.951921142551892e+17
19321.0	6.949717330799274e+17
19322.0	6.947882568865107e+17
19323.0	6.946108318853801e+17
19324.0	6.944318753341439e+17
19325.0	6.942467468645716e+17
19326.0	6.940186499175763e+17
19327.0	6.93816119140898e+17
19328.0	6.936317307562666e+17
19329.0	6.934454175356244e+17
19330.0	6.932554951163901e+17
19331.0	6.930649840265898e+17
19332.0	6.928777955246079e+17
19333.0	6.926858676688212e+17
19334.0	6.924921898795005e+17
19335.0	6.922967582419625e+17
19336.0	6.921013597394259e+17
19337.0	6.919039717386921e+17
19338.0	6.916909205291007e+17
19339.0	6.915045060859219e+17
19340.0	6.912975404619092e+17
19341.0	6.910107408749908e+17
19342.0	6.907634914776403e+17
19343.0	6.905758055312041e+17
19344.0	6.903643849971028e+17
19345.0	6.9003962786775e+17
19346.0	6.898786114732031e+17
19347.0	6.897197565433172e+17
19348.0	6.895064593377962e+17
19349.0	6.892841145292116e+17
19350.0	6.890607549786793e+17
19351.0	6.887057628594173e+17
19352.0	6.8844612747264e+17
19353.0	6.882198679104169e+17
19354.0	6.879855468959059e+17
19355.0	6.877415459870036e+17
19356.0	6.875076942452052e+17
19357.0	6.872640991352148e+17
19358.0	6.869534974323369e+17
19359.0	6.865488987903316e+17
19360.0	6.862904382980095e+17
19361.0	6.860300108169215e+17
19362.0	6.857487399518205e+17
19363.0	6.854760122548223e+17
19364.0	6.851720546091007e+17
19365.0	6.846514673134249e+17
19366.0	6.843727428801876e+17
19367.0	6.840904842564948e+17
19368.0	6.838045878430377e+17
19369.0	6.83485678691942e+17
19370.0	6.828708760038057e+17
19371.0	6.82574477402658e+17
19372.0	6.822781261971455e+17
19373.0	6.819730035135828e+17
19374.0	6.813598425459368e+17
19375.0	6.809332500922365e+17
19376.0	6.806186244440064e+17
19377.0	6.802481461155155e+17
19378.0	6.794412542306986e+17
19379.0	6.790751438503935e+17
19380.0	6.787310401443156e+17
19381.0	6.781255335717549e+17
19382.0	6.77434141844002e+17
19383.0	6.770739878647124e+17
19384.0	6.766179560805716e+17
19385.0	6.759567880181074e+17
19386.0	6.755294563882324e+17
19387.0	6.751444601754964e+17
19388.0	6.747526108894548e+17
19389.0	6.743533690727081e+17
19390.0	6.739461840830461e+17
19391.0	6.731972602757116e+17
19392.0	6.729429901727059e+17
19393.0	6.725257992514217e+17
19394.0	6.720857085487785e+17
19395.0	6.715934760763392e+17
19396.0	6.709426894755155e+17
19397.0	6.704663244046336e+17
19398.0	6.699754852100777e+17
19399.0	6.692558469420375e+17
19400.0	6.686355786563583e+17
19401.0	6.681064608453972e+17
19402.0	6.6734337280355e+17
19403.0	6.6656757874688e+17
19404.0	6.659648330050217e+17
19405.0	6.649485131601235e+17
19406.0	6.64199958171921e+17
19407.0	6.632603023048703e+17
19408.0	6.6220890011293e+17
19409.0	6.613078840617637e+17
19410.0	6.601066012125865e+17
19411.0	6.590524136532649e+17
19412.0	6.577674283646976e+17
19413.0	6.56467508627593e+17
19414.0	6.551575636650666e+17
19415.0	6.538821065768964e+17
19416.0	6.528154429904212e+17
19417.0	6.518650822109865e+17
19418.0	6.5088253343389e+17
19419.0	6.498466236727296e+17
19420.0	6.487900030675625e+17
19421.0	6.476970237187412e+17
19422.0	6.465487465261738e+17
19423.0	6.453426802130941e+17
19424.0	6.440672253618857e+17
19425.0	6.427354092710569e+17
19426.0	6.413914454272681e+17
19427.0	6.399996327537322e+17
19428.0	6.384266292931241e+17
19429.0	6.368045969353385e+17
19430.0	6.350690332966913e+17
19431.0	6.330716261799252e+17
19432.0	6.311235115723433e+17
19433.0	6.288340054354605e+17
19434.0	6.264331278046548e+17
19435.0	6.238671336374271e+17
19436.0	6.210310815176022e+17
19437.0	6.180545395774803e+17
19438.0	6.142915947877716e+17
19439.0	6.108927514465622e+17
19440.0	6.069202247658153e+17
19441.0	6.025067894931453e+17
19442.0	5.974806964294999e+17
19443.0	5.918459117786452e+17
19444.0	5.854227959469394e+17
19445.0	5.780371810200237e+17
19446.0	5.693686537693866e+17
19447.0	5.590135052348068e+17
19448.0	5.4618560918104794e+17
19449.0	5.2941859659448326e+17
19450.0	5.052449529615686e+17
19451.0	4.9091219550808845e+17
19452.0	5.187587259323735e+17
19453.0	5.383205326684165e+17
19454.0	5.525927562488484e+17
19455.0	5.6381031471295136e+17
19456.0	5.730066923956909e+17
19457.0	5.807547840375461e+17
19458.0	5.870288912078171e+17
19459.0	5.931307246813185e+17
19460.0	5.982579122853202e+17
19461.0	6.02716086800657e+17
19462.0	6.066550322757632e+17
19463.0	6.102406402146301e+17
19464.0	6.136017122405033e+17
19465.0	6.165670244210006e+17
19466.0	6.19196847296785e+17
19467.0	6.216887414642004e+17
19468.0	6.238697900998656e+17
19469.0	6.260318701355007e+17
19470.0	6.278942282132137e+17
19471.0	6.296224805508438e+17
19472.0	6.312275276551507e+17
19473.0	6.326417634273961e+17
19474.0	6.340173914701823e+17
19475.0	6.35194574128196e+17
19476.0	6.363514725029206e+17
19477.0	6.374365270638591e+17
19478.0	6.385170561804969e+17
19479.0	6.394999297365331e+17
19480.0	6.404309505802239e+17
19481.0	6.413006854422525e+17
19482.0	6.421245688720042e+17
19483.0	6.429287579473236e+17
19484.0	6.436868086300671e+17
19485.0	6.444060286560937e+17
19486.0	6.451000744695123e+17
19487.0	6.461796302979067e+17
19488.0	6.469515813934424e+17
19489.0	6.483709990185641e+17
19490.0	6.490316991365119e+17
19491.0	6.502305511069011e+17
19492.0	6.5089933616524e+17
19493.0	6.518730232168447e+17
19494.0	6.523929472532479e+17
19495.0	6.533221638471679e+17
19496.0	6.53707797733922e+17
19497.0	6.544813799942825e+17
19498.0	6.549004731023359e+17
19499.0	6.549311484941652e+17
19500.0	6.559852191023104e+17
19501.0	6.562788156287657e+17
19502.0	6.565539038800553e+17
19503.0	6.571012529324032e+17
19504.0	6.5735270348445e+17
19505.0	6.575819143686825e+17
19506.0	6.578788182436521e+17
19507.0	6.582195626617514e+17
19508.0	6.58411542876433e+17
19509.0	6.585918590113107e+17
19510.0	6.587500545966077e+17
19511.0	6.586132522685777e+17
19512.0	6.591584058124969e+17
19513.0	6.59247772100198e+17
19514.0	6.594278522355711e+17
19515.0	6.596246784092842e+17
19516.0	6.597764833432916e+17
19517.0	6.600696954617853e+17
19518.0	6.604272404441769e+17
19519.0	6.605343758308691e+17
19520.0	6.606978479205033e+17
19521.0	6.612921008958121e+17
19522.0	6.613808395758249e+17
19523.0	6.614677857501183e+17
19524.0	6.618370505266514e+17
19525.0	6.621083210525354e+17
19526.0	6.622025286156287e+17
19527.0	6.622578029013674e+17
19528.0	6.626280775963988e+17
19529.0	6.62759593353762e+17
19530.0	6.628049471318697e+17
19531.0	6.62846202445824e+17
19532.0	6.630196568391681e+17
19533.0	6.632451674385066e+17
19534.0	6.632752545092948e+17
19535.0	6.633010385037993e+17
19536.0	6.633221671703891e+17
19537.0	6.634335721488385e+17
19538.0	6.636107505947988e+17
19539.0	6.636017852000938e+17
19540.0	6.63642661139251e+17
19541.0	6.636677174220116e+17
19542.0	6.636696572177065e+17
19543.0	6.636820079050753e+17
19544.0	6.638564355866623e+17
19545.0	6.638129984656723e+17
19546.0	6.637776284592809e+17
19547.0	6.638106677608447e+17
19548.0	6.637901137838079e+17
19549.0	6.637590593667071e+17
19550.0	6.63739137471283e+17
19551.0	6.637663570362367e+17
19552.0	6.638207764529151e+17
19553.0	6.637843285803008e+17
19554.0	6.63746257232418e+17
19555.0	6.637077500963498e+17
19556.0	6.636668587780778e+17
19557.0	6.63622473744384e+17
19558.0	6.635763340236116e+17
19559.0	6.635282559751508e+17
19560.0	6.634761801957375e+17
19561.0	6.634345092262569e+17
19562.0	6.634698423227731e+17
19563.0	6.634142948480339e+17
19564.0	6.633570092537172e+17
19565.0	6.632980221700776e+17
19566.0	6.632355102632617e+17
19567.0	6.631757934406313e+17
19568.0	6.631114220590419e+17
19569.0	6.630488882020351e+17
19570.0	6.629838962731689e+17
19571.0	6.629168069825876e+17
19572.0	6.628463489668436e+17
19573.0	6.627780963161427e+17
19574.0	6.627014312897193e+17
19575.0	6.626364258691753e+17
19576.0	6.625632822405802e+17
19577.0	6.625277833292457e+17
19578.0	6.624710338368852e+17
19579.0	6.623947036557311e+17
19580.0	6.623173084708863e+17
19581.0	6.622398881202175e+17
19582.0	6.622029885210623e+17
19583.0	6.621334032700755e+17
19584.0	6.620520172049748e+17
19585.0	6.619619434779988e+17
19586.0	6.618793654616061e+17
19587.0	6.618060907610111e+17
19588.0	6.616954448117759e+17
19589.0	6.616554373032617e+17
19590.0	6.616308230302377e+17
19591.0	6.615494778596009e+17
19592.0	6.614617943965696e+17
19593.0	6.613719705802068e+17
19594.0	6.612672399977129e+17
19595.0	6.611926447205034e+17
19596.0	6.610943226849962e+17
19597.0	6.610118492465833e+17
19598.0	6.609160046466388e+17
19599.0	6.608956021538815e+17
19600.0	6.608037098465961e+17
19601.0	6.607058006704127e+17
19602.0	6.606189051772927e+17
19603.0	6.605277296066559e+17
19604.0	6.604538286265684e+17
19605.0	6.603430525840042e+17
19606.0	6.602670007648255e+17
19607.0	6.601707872758441e+17
19608.0	6.60073126891793e+17
19609.0	6.599726288513706e+17
19610.0	6.598779146163539e+17
19611.0	6.598253721507155e+17
19612.0	6.597316969846099e+17
19613.0	6.596315228143615e+17
19614.0	6.595294745591807e+17
19615.0	6.594320442327039e+17
19616.0	6.593291027305812e+17
19617.0	6.592295762307754e+17
19618.0	6.590912444497917e+17
19619.0	6.589799629935955e+17
19620.0	6.588843077664765e+17
19621.0	6.588215612582569e+17
19622.0	6.587197051021993e+17
19623.0	6.586211250470911e+17
19624.0	6.58536311956002e+17
19625.0	6.584564496116393e+17
19626.0	6.583660632692052e+17
19627.0	6.582606481063935e+17
19628.0	6.581504087949311e+17
19629.0	6.58040205274863e+17
19630.0	6.578925885631145e+17
19631.0	6.57614520328738e+17
19632.0	6.577244896668329e+17
19633.0	6.576241863819263e+17
19634.0	6.575221259632639e+17
19635.0	6.574133621380435e+17
19636.0	6.573098688752297e+17
19637.0	6.571751667750228e+17
19638.0	6.570953518962003e+17
19639.0	6.569873936569684e+17
19640.0	6.56873185415441e+17
19641.0	6.56725547802078e+17
19642.0	6.566636637825705e+17
19643.0	6.565552919150591e+17
19644.0	6.564422924719444e+17
19645.0	6.563235560598186e+17
19646.0	6.562555422048255e+17
19647.0	6.561467251818496e+17
19648.0	6.560374212001791e+17
19649.0	6.559277648270676e+17
19650.0	6.558182059016191e+17
19651.0	6.557083223370409e+17
19652.0	6.555982561105236e+17
19653.0	6.554879180931072e+17
19654.0	6.553776310364842e+17
19655.0	6.552667694301184e+17
19656.0	6.551559507454633e+17
19657.0	6.55045514371618e+17
19658.0	6.549345074326185e+17
19659.0	6.548232719040511e+17
19660.0	6.547120747533652e+17
19661.0	6.546006290901674e+17
19662.0	6.544889371514198e+17
19663.0	6.543745791033343e+17
19664.0	6.542646919735978e+17
19665.0	6.541535509566804e+17
19666.0	6.540406573498367e+17
