# Flux units: erg / (cm m2 s)
# Wavelength units: Angstrom
wave	flux
19000.0	8.745793850703871e+17
19001.0	8.744471051108348e+17
19002.0	8.743117405203114e+17
19003.0	8.74180706129237e+17
19004.0	8.740551338404522e+17
19005.0	8.739102186799101e+17
19006.0	8.737639382734166e+17
19007.0	8.73606890249694e+17
19008.0	8.734685137294675e+17
19009.0	8.733179942797311e+17
19010.0	8.731623955278505e+17
19011.0	8.730222013360812e+17
19012.0	8.728440587594409e+17
19013.0	8.727306488337748e+17
19014.0	8.725791360330408e+17
19015.0	8.724312664047613e+17
19016.0	8.72282275778833e+17
19017.0	8.721332738282836e+17
19018.0	8.719827979993085e+17
19019.0	8.718337865416701e+17
19020.0	8.716822777954303e+17
19021.0	8.71532749599539e+17
19022.0	8.713818585344681e+17
19023.0	8.712285532280147e+17
19024.0	8.710774759358463e+17
19025.0	8.709206774732118e+17
19026.0	8.707656557177513e+17
19027.0	8.705863493615613e+17
19028.0	8.704671505973247e+17
19029.0	8.703162131152893e+17
19030.0	8.701630950146048e+17
19031.0	8.700091495175507e+17
19032.0	8.698542038188031e+17
19033.0	8.696935719021225e+17
19034.0	8.695327115356841e+17
19035.0	8.692925058427561e+17
19036.0	8.669349563509416e+17
19037.0	8.690085011303081e+17
19038.0	8.689152978234025e+17
19039.0	8.687705251293866e+17
19040.0	8.686183314533033e+17
19041.0	8.684642388759891e+17
19042.0	8.683052096028672e+17
19043.0	8.681539044201812e+17
19044.0	8.679977562144767e+17
19045.0	8.678397847448233e+17
19046.0	8.676833991415123e+17
19047.0	8.675261883787944e+17
19048.0	8.673642242113535e+17
19049.0	8.672055253095764e+17
19050.0	8.670383160251731e+17
19051.0	8.665592778544467e+17
19052.0	8.666006441776466e+17
19053.0	8.66570183184657e+17
19054.0	8.664229745786879e+17
19055.0	8.662568742682624e+17
19056.0	8.661087574556671e+17
19057.0	8.659509455093757e+17
19058.0	8.657891584813737e+17
19059.0	8.656341618917375e+17
19060.0	8.655135065855315e+17
19061.0	8.653992397635581e+17
19062.0	8.652394904682493e+17
19063.0	8.650795549458431e+17
19064.0	8.649162297267539e+17
19065.0	8.647522644568744e+17
19066.0	8.645964495585279e+17
19067.0	8.644387491807231e+17
19068.0	8.642781140484093e+17
19069.0	8.641172637483007e+17
19070.0	8.639559989111466e+17
19071.0	8.637934722875391e+17
19072.0	8.6363325085341e+17
19073.0	8.634720290777769e+17
19074.0	8.633104503668735e+17
19075.0	8.63148569666082e+17
19076.0	8.629860486348799e+17
19077.0	8.628238133755901e+17
19078.0	8.62661266060083e+17
19079.0	8.624994232478378e+17
19080.0	8.623364253242707e+17
19081.0	8.621716905394175e+17
19082.0	8.620090587785898e+17
19083.0	8.61841682141457e+17
19084.0	8.616712734419626e+17
19085.0	8.615157989812908e+17
19086.0	8.613268822163455e+17
19087.0	8.611592695797076e+17
19088.0	8.610038848771411e+17
19089.0	8.60834877214993e+17
19090.0	8.606886047776765e+17
19091.0	8.605287812431871e+17
19092.0	8.603607042970964e+17
19093.0	8.602050273913516e+17
19094.0	8.600424539313491e+17
19095.0	8.59878670554453e+17
19096.0	8.597143821833556e+17
19097.0	8.595499767911764e+17
19098.0	8.593847754599081e+17
19099.0	8.592194348777468e+17
19100.0	8.590496923735379e+17
19101.0	8.588865735142058e+17
19102.0	8.587198664278012e+17
19103.0	8.585561258328063e+17
19104.0	8.583891375882239e+17
19105.0	8.582198529622013e+17
19106.0	8.580488001574228e+17
19107.0	8.578808497395028e+17
19108.0	8.576987708085588e+17
19109.0	8.574037254296918e+17
19110.0	8.573335517877588e+17
19111.0	8.5721029293725e+17
19112.0	8.570519936128338e+17
19113.0	8.568874109414058e+17
19114.0	8.56720627938099e+17
19115.0	8.565480098190676e+17
19116.0	8.563847201117523e+17
19117.0	8.562158066816339e+17
19118.0	8.560416224094889e+17
19119.0	8.558039718865577e+17
19120.0	8.556922012347049e+17
19121.0	8.555281576711506e+17
19122.0	8.553768875808083e+17
19123.0	8.552089925277011e+17
19124.0	8.550214361153535e+17
19125.0	8.548695077989032e+17
19126.0	8.546988439459155e+17
19127.0	8.544811490825556e+17
19128.0	8.54297379287859e+17
19129.0	8.541894567701161e+17
19130.0	8.540235103906473e+17
19131.0	8.538517411987455e+17
19132.0	8.536833039619414e+17
19133.0	8.5350202474496e+17
19134.0	8.533135451663018e+17
19135.0	8.531718555653459e+17
19136.0	8.530009140494335e+17
19137.0	8.528257677437612e+17
19138.0	8.526579413374292e+17
19139.0	8.524876896447148e+17
19140.0	8.523164397076476e+17
19141.0	8.521448135415124e+17
19142.0	8.519709048351401e+17
19143.0	8.517994003038207e+17
19144.0	8.516280908076372e+17
19145.0	8.514557307781119e+17
19146.0	8.512582732917421e+17
19147.0	8.5110824122013e+17
19148.0	8.509364430875304e+17
19149.0	8.507632992823977e+17
19150.0	8.505904692112041e+17
19151.0	8.504167380637011e+17
19152.0	8.502393005495634e+17
19153.0	8.500667787597139e+17
19154.0	8.498888598792872e+17
19155.0	8.497140271677439e+17
19156.0	8.495346482500948e+17
19157.0	8.493407022350335e+17
19158.0	8.491257984013651e+17
19159.0	8.489930920209064e+17
19160.0	8.488237894991868e+17
19161.0	8.486220883558399e+17
19162.0	8.482509079707647e+17
19163.0	8.482318779940861e+17
19164.0	8.481234313281533e+17
19165.0	8.479566439907328e+17
19166.0	8.477784654828884e+17
19167.0	8.475840434143231e+17
19168.0	8.473954006772392e+17
19169.0	8.47212209976115e+17
19170.0	8.470286338184531e+17
19171.0	8.468481199221417e+17
19172.0	8.466726801549994e+17
19173.0	8.464980076658685e+17
19174.0	8.463204234909012e+17
19175.0	8.461438048447145e+17
19176.0	8.459649380515839e+17
19177.0	8.4577879078557e+17
19178.0	8.456001366436521e+17
19179.0	8.45418461484373e+17
19180.0	8.452449949974527e+17
19181.0	8.450646772547583e+17
19182.0	8.448865850097663e+17
19183.0	8.44707686200115e+17
19184.0	8.445256774538579e+17
19185.0	8.443455348932608e+17
19186.0	8.441637603289768e+17
19187.0	8.439777839109459e+17
19188.0	8.437971717281106e+17
19189.0	8.436111006586196e+17
19190.0	8.434246771277821e+17
19191.0	8.432408691649192e+17
19192.0	8.43054791664162e+17
19193.0	8.428636818374653e+17
19194.0	8.426698601136127e+17
19195.0	8.424680054587391e+17
19196.0	8.4224944139578e+17
19197.0	8.419900176815443e+17
19198.0	8.415845462048765e+17
19199.0	8.401917460523686e+17
19200.0	8.40186326871791e+17
19201.0	8.410580620673025e+17
19202.0	8.410729364673875e+17
19203.0	8.409512174856873e+17
19204.0	8.408018517491711e+17
19205.0	8.406345669672957e+17
19206.0	8.404578609397757e+17
19207.0	8.402306936602621e+17
19208.0	8.400425451519999e+17
19209.0	8.398630334147242e+17
19210.0	8.396765813626194e+17
19211.0	8.394885930767698e+17
19212.0	8.392983851652436e+17
19213.0	8.390973102314833e+17
19214.0	8.389020540556628e+17
19215.0	8.387253544594089e+17
19216.0	8.385421864075263e+17
19217.0	8.383522730759506e+17
19218.0	8.381405952212991e+17
19219.0	8.379638060067498e+17
19220.0	8.377794263602515e+17
19221.0	8.375809878261757e+17
19222.0	8.373955373738664e+17
19223.0	8.372043156990633e+17
19224.0	8.37009332712243e+17
19225.0	8.368132814361939e+17
19226.0	8.366224912154621e+17
19227.0	8.364267252918953e+17
19228.0	8.362323778819411e+17
19229.0	8.360363671508308e+17
19230.0	8.358374097813501e+17
19231.0	8.356414999931561e+17
19232.0	8.354118643657385e+17
19233.0	8.351826705383424e+17
19234.0	8.3498694096541e+17
19235.0	8.347873070546943e+17
19236.0	8.345881757614079e+17
19237.0	8.343869166977024e+17
19238.0	8.341809679826943e+17
19239.0	8.339841842413565e+17
19240.0	8.337815708368893e+17
19241.0	8.335780798442152e+17
19242.0	8.333750857367552e+17
19243.0	8.331643002901843e+17
19244.0	8.329666718160212e+17
19245.0	8.327338617995263e+17
19246.0	8.325115950049961e+17
19247.0	8.323049029195092e+17
19248.0	8.320973317079041e+17
19249.0	8.318879296826025e+17
19250.0	8.316795605745663e+17
19251.0	8.314486287674025e+17
19252.0	8.311683534902611e+17
19253.0	8.309692701518505e+17
19254.0	8.307575881028948e+17
19255.0	8.305370019659775e+17
19256.0	8.303286216731306e+17
19257.0	8.301169615743658e+17
19258.0	8.299005883361961e+17
19259.0	8.29676309673847e+17
19260.0	8.294257685168125e+17
19261.0	8.292447945053523e+17
19262.0	8.290246350689619e+17
19263.0	8.288022488765779e+17
19264.0	8.285683992319315e+17
19265.0	8.283535627867475e+17
19266.0	8.281311784118952e+17
19267.0	8.279087579660288e+17
19268.0	8.275884599410688e+17
19269.0	8.273617048218281e+17
19270.0	8.271330501023059e+17
19271.0	8.26896003838771e+17
19272.0	8.266734452604927e+17
19273.0	8.264118872047615e+17
19274.0	8.261828256377516e+17
19275.0	8.259807012891305e+17
19276.0	8.257475869059754e+17
19277.0	8.255143355088896e+17
19278.0	8.252742187352061e+17
19279.0	8.24965463434854e+17
19280.0	8.2472847015936e+17
19281.0	8.243985627043156e+17
19282.0	8.241364201024172e+17
19283.0	8.238896486460072e+17
19284.0	8.236319322931199e+17
19285.0	8.234113695044947e+17
19286.0	8.231664664707071e+17
19287.0	8.229081562043731e+17
19288.0	8.219477517445797e+17
19289.0	8.210456184706372e+17
19290.0	8.221655868375039e+17
19291.0	8.219283748989609e+17
19292.0	8.216942206080339e+17
19293.0	8.213828502989481e+17
19294.0	8.211304300937216e+17
19295.0	8.208786221170688e+17
19296.0	8.206254034561705e+17
19297.0	8.203696837317972e+17
19298.0	8.201150690667176e+17
19299.0	8.198580110797484e+17
19300.0	8.195043935038118e+17
19301.0	8.192202169647103e+17
19302.0	8.189513343959039e+17
19303.0	8.186786379464703e+17
19304.0	8.1840745480192e+17
19305.0	8.18132396959334e+17
19306.0	8.178552264458239e+17
19307.0	8.175718501799251e+17
19308.0	8.172854600269821e+17
19309.0	8.169581640854185e+17
19310.0	8.166482979935572e+17
19311.0	8.164166906238292e+17
19312.0	8.161455221593428e+17
19313.0	8.158523091320831e+17
19314.0	8.145627864454483e+17
19315.0	8.14343280202002e+17
19316.0	8.14876447403759e+17
19317.0	8.145137930600447e+17
19318.0	8.141982956956328e+17
19319.0	8.138895394166098e+17
19320.0	8.135817823606102e+17
19321.0	8.13269667422754e+17
19322.0	8.129465397805056e+17
19323.0	8.126231818709673e+17
19324.0	8.123114094679378e+17
19325.0	8.119799199214246e+17
19326.0	8.116684955058175e+17
19327.0	8.113461919044948e+17
19328.0	8.110167606427647e+17
19329.0	8.105345318649853e+17
19330.0	8.101405382410239e+17
19331.0	8.097996948373505e+17
19332.0	8.094571985982804e+17
19333.0	8.091067344399017e+17
19334.0	8.087545377543508e+17
19335.0	8.083961013425492e+17
19336.0	8.080349176616275e+17
19337.0	8.07671035924753e+17
19338.0	8.072949016472233e+17
19339.0	8.069288114694824e+17
19340.0	8.064971072776873e+17
19341.0	8.05911537979665e+17
19342.0	8.054786476386988e+17
19343.0	8.050808007076521e+17
19344.0	8.046820571742207e+17
19345.0	8.042331719947603e+17
19346.0	8.038456184449706e+17
19347.0	8.034617659490301e+17
19348.0	8.030497755452756e+17
19349.0	8.026285470471508e+17
19350.0	8.022029928235004e+17
19351.0	8.014882014931624e+17
19352.0	8.010552878039039e+17
19353.0	8.006235167828649e+17
19354.0	8.001839649084756e+17
19355.0	7.99736780099857e+17
19356.0	7.992902105956353e+17
19357.0	7.988097339184467e+17
19358.0	7.98281771847953e+17
19359.0	7.978134046856532e+17
19360.0	7.973177560924155e+17
19361.0	7.965519367198036e+17
19362.0	7.960763838758911e+17
19363.0	7.955826675985066e+17
19364.0	7.950765233187497e+17
19365.0	7.945625102450685e+17
19366.0	7.940402062906708e+17
19367.0	7.935076625022977e+17
19368.0	7.929638947564202e+17
19369.0	7.922835738940756e+17
19370.0	7.917253840338945e+17
19371.0	7.90888283024042e+17
19372.0	7.902712978298195e+17
19373.0	7.896925649676969e+17
19374.0	7.891048193851391e+17
19375.0	7.885057303074131e+17
19376.0	7.878945266816339e+17
19377.0	7.87269327781888e+17
19378.0	7.865865884838565e+17
19379.0	7.857999466288468e+17
19380.0	7.851328196487849e+17
19381.0	7.844523413602301e+17
19382.0	7.837537912138409e+17
19383.0	7.83026346087765e+17
19384.0	7.820428294750207e+17
19385.0	7.813169811204777e+17
19386.0	7.805775952303446e+17
19387.0	7.79808552255488e+17
19388.0	7.788470363051348e+17
19389.0	7.780688662451539e+17
19390.0	7.77259793392162e+17
19391.0	7.750641142551877e+17
19392.0	7.755444421743955e+17
19393.0	7.748264473744723e+17
19394.0	7.739632001919658e+17
19395.0	7.730602701400745e+17
19396.0	7.721371801660072e+17
19397.0	7.711484738011135e+17
19398.0	7.70006642205218e+17
19399.0	7.690076639898281e+17
19400.0	7.680060869836799e+17
19401.0	7.669664877729106e+17
19402.0	7.658968892222122e+17
19403.0	7.648013434486784e+17
19404.0	7.636794616403283e+17
19405.0	7.625313578822313e+17
19406.0	7.613520497606655e+17
19407.0	7.601381513538217e+17
19408.0	7.588766434022739e+17
19409.0	7.575910609846271e+17
19410.0	7.562836807690922e+17
19411.0	7.549317083911508e+17
19412.0	7.535281934696447e+17
19413.0	7.521389526035114e+17
19414.0	7.506549678626131e+17
19415.0	7.491092400308224e+17
19416.0	7.474906272191828e+17
19417.0	7.458264525220521e+17
19418.0	7.441293859531434e+17
19419.0	7.42374258333013e+17
19420.0	7.40568840169062e+17
19421.0	7.387065361978708e+17
19422.0	7.367277910775123e+17
19423.0	7.346917718971731e+17
19424.0	7.326085262518956e+17
19425.0	7.304396235516586e+17
19426.0	7.281763381062313e+17
19427.0	7.25825222676753e+17
19428.0	7.233694673316522e+17
19429.0	7.207808947366569e+17
19430.0	7.180488849140394e+17
19431.0	7.151386756120575e+17
19432.0	7.123941480289619e+17
19433.0	7.093326851342336e+17
19434.0	7.061145802244096e+17
19435.0	7.027169907703804e+17
19436.0	6.99129590116079e+17
19437.0	6.95427360043827e+17
19438.0	6.904109876292266e+17
19439.0	6.872353997499052e+17
19440.0	6.828889084351828e+17
19441.0	6.782062434451452e+17
19442.0	6.731983751916204e+17
19443.0	6.6785930917533e+17
19444.0	6.621386256678907e+17
19445.0	6.560040192311296e+17
19446.0	6.493858101024084e+17
19447.0	6.422188679408294e+17
19448.0	6.344113630041431e+17
19449.0	6.258511828047188e+17
19450.0	6.16039871921083e+17
19451.0	6.103366122515114e+17
19452.0	6.210976694490451e+17
19453.0	6.29900645813453e+17
19454.0	6.378286247925073e+17
19455.0	6.450628470854998e+17
19456.0	6.517000664077654e+17
19457.0	6.578195446890492e+17
19458.0	6.627868206781791e+17
19459.0	6.687299274975917e+17
19460.0	6.736817776754684e+17
19461.0	6.782609796715859e+17
19462.0	6.82572692446686e+17
19463.0	6.86605965162359e+17
19464.0	6.903915554187946e+17
19465.0	6.939725221505706e+17
19466.0	6.97346696622899e+17
19467.0	7.005325425115135e+17
19468.0	7.03547716927488e+17
19469.0	7.064168107256488e+17
19470.0	7.091231830048768e+17
19471.0	7.11699992814114e+17
19472.0	7.141526720566611e+17
19473.0	7.165050970876586e+17
19474.0	7.187478637182975e+17
19475.0	7.208468746338301e+17
19476.0	7.228817044493651e+17
19477.0	7.248204683455145e+17
19478.0	7.266488819209555e+17
19479.0	7.284231818444799e+17
19480.0	7.301475187993258e+17
19481.0	7.317745866287785e+17
19482.0	7.333168624085674e+17
19483.0	7.348087125879466e+17
19484.0	7.362504334245888e+17
19485.0	7.376432703471615e+17
19486.0	7.389864890728445e+17
19487.0	7.402691171625642e+17
19488.0	7.414958276302164e+17
19489.0	7.426330379419649e+17
19490.0	7.437076204442964e+17
19491.0	7.448141172659539e+17
19492.0	7.458419553686868e+17
19493.0	7.468557749889706e+17
19494.0	7.478264985550847e+17
19495.0	7.487596747117908e+17
19496.0	7.496461636512424e+17
19497.0	7.505027362979837e+17
19498.0	7.510163629364566e+17
19499.0	7.500775626375159e+17
19500.0	7.529141912644264e+17
19501.0	7.537007040746835e+17
19502.0	7.544326577979391e+17
19503.0	7.551342500730195e+17
19504.0	7.559288208403114e+17
19505.0	7.566809874737833e+17
19506.0	7.573138974616233e+17
19507.0	7.579267683232425e+17
19508.0	7.585098922022228e+17
19509.0	7.590549489975293e+17
19510.0	7.595525178829481e+17
19511.0	7.581302075861664e+17
19512.0	7.601062858282322e+17
19513.0	7.603853641908214e+17
19514.0	7.611470594441208e+17
19515.0	7.621443005186047e+17
19516.0	7.626210066563071e+17
19517.0	7.630545055907836e+17
19518.0	7.63747571544883e+17
19519.0	7.641598045192191e+17
19520.0	7.645584961830911e+17
19521.0	7.649429246967807e+17
19522.0	7.65311025623859e+17
19523.0	7.657435763660115e+17
19524.0	7.661776205600083e+17
19525.0	7.665035104310611e+17
19526.0	7.668172705147561e+17
19527.0	7.671170265164457e+17
19528.0	7.674057062001321e+17
19529.0	7.676838608371713e+17
19530.0	7.67981184002731e+17
19531.0	7.685219441530195e+17
19532.0	7.687773709751638e+17
19533.0	7.691082921934848e+17
19534.0	7.693882035448489e+17
19535.0	7.696168932169044e+17
19536.0	7.69837525630976e+17
19537.0	7.700504321370794e+17
19538.0	7.702497390318931e+17
19539.0	7.704370383334058e+17
19540.0	7.706263727112192e+17
19541.0	7.710548258979836e+17
19542.0	7.712623007804072e+17
19543.0	7.714257988048212e+17
19544.0	7.716135420035071e+17
19545.0	7.718053198430207e+17
19546.0	7.719434026221565e+17
19547.0	7.721048159376723e+17
19548.0	7.722406820271444e+17
19549.0	7.723676842939731e+17
19550.0	7.724969745536339e+17
19551.0	7.72863789786726e+17
19552.0	7.730085682129577e+17
19553.0	7.731224631399766e+17
19554.0	7.732321515995133e+17
19555.0	7.733383797582505e+17
19556.0	7.734391575587497e+17
19557.0	7.735353286153556e+17
19558.0	7.736272172875777e+17
19559.0	7.737147958930089e+17
19560.0	7.738355794051071e+17
19561.0	7.740931228128595e+17
19562.0	7.742294396502015e+17
19563.0	7.742971371148625e+17
19564.0	7.743604402072233e+17
19565.0	7.744195140430506e+17
19566.0	7.744743228309501e+17
19567.0	7.7452617463453e+17
19568.0	7.745726360584192e+17
19569.0	7.746173662134271e+17
19570.0	7.746569650569215e+17
19571.0	7.746915022143487e+17
19572.0	7.747620474716157e+17
19573.0	7.74939157410611e+17
19574.0	7.749614060961791e+17
19575.0	7.749871788359679e+17
19576.0	7.750060964052991e+17
19577.0	7.750216452494676e+17
19578.0	7.750335766462461e+17
19579.0	7.750434180213417e+17
19580.0	7.750504331345919e+17
19581.0	7.750550313500671e+17
19582.0	7.75056751853568e+17
19583.0	7.75055313347106e+17
19584.0	7.750568783817385e+17
19585.0	7.751123515473917e+17
19586.0	7.75190165253871e+17
19587.0	7.751808463492434e+17
19588.0	7.751595531261267e+17
19589.0	7.75155578324036e+17
19590.0	7.7513608935069e+17
19591.0	7.75119535551283e+17
19592.0	7.750982859489276e+17
19593.0	7.750738318983169e+17
19594.0	7.750389579382783e+17
19595.0	7.750197888505172e+17
19596.0	7.748513352559276e+17
19597.0	7.749568347242497e+17
19598.0	7.749173924681044e+17
19599.0	7.748891185250303e+17
19600.0	7.748512765356714e+17
19601.0	7.74810185638434e+17
19602.0	7.748609729276585e+17
19603.0	7.747833482444799e+17
19604.0	7.747542875897853e+17
19605.0	7.747043797062995e+17
19606.0	7.746630680488617e+17
19607.0	7.746234438997332e+17
19608.0	7.746128000144723e+17
19609.0	7.745560292709718e+17
19610.0	7.745003139541673e+17
19611.0	7.744422818436436e+17
19612.0	7.743837673881599e+17
19613.0	7.743235294931626e+17
19614.0	7.74260379353088e+17
19615.0	7.741978218681684e+17
19616.0	7.741196324918612e+17
19617.0	7.740698880464211e+17
19618.0	7.739871595943251e+17
19619.0	7.739744595214336e+17
19620.0	7.739506671921833e+17
19621.0	7.738995716216148e+17
19622.0	7.738309729408339e+17
19623.0	7.738044018851839e+17
19624.0	7.737511651224233e+17
19625.0	7.736762867296938e+17
19626.0	7.735980635193343e+17
19627.0	7.735095751693651e+17
19628.0	7.733863139420841e+17
19629.0	7.732822926863017e+17
19630.0	7.727108342852264e+17
19631.0	7.715313216214358e+17
19632.0	7.730388045310633e+17
19633.0	7.731012297555967e+17
19634.0	7.73051368009455e+17
19635.0	7.729794247906646e+17
19636.0	7.729041655551315e+17
19637.0	7.728082836258816e+17
19638.0	7.727430089310208e+17
19639.0	7.726592360972287e+17
19640.0	7.725699944502612e+17
19641.0	7.724700857095506e+17
19642.0	7.723984591607123e+17
19643.0	7.723091628479828e+17
19644.0	7.72216096694818e+17
19645.0	7.721205626131795e+17
19646.0	7.720354120903338e+17
19647.0	7.719539048797523e+17
19648.0	7.71920630068019e+17
19649.0	7.718266808740522e+17
19650.0	7.717319933427711e+17
19651.0	7.716364929553748e+17
19652.0	7.715402680718675e+17
19653.0	7.714422769669459e+17
19654.0	7.713456871789906e+17
19655.0	7.71247248961263e+17
19656.0	7.71148243813444e+17
19657.0	7.710789561483263e+17
19658.0	7.709838125563901e+17
19659.0	7.70882880685124e+17
19660.0	7.707813892937044e+17
19661.0	7.706791855696552e+17
19662.0	7.705760825868288e+17
19663.0	7.704694362559827e+17
19664.0	7.703639538444969e+17
19665.0	7.703165816973996e+17
19666.0	7.702917723892393e+17
