# Flux units: erg / (cm m2 s)
# Wavelength units: Angstrom
wave	flux
19000.0	6.493970070066516e+17
19001.0	6.492234226597887e+17
19002.0	6.491572517120682e+17
19003.0	6.490333866448212e+17
19004.0	6.489121583267839e+17
19005.0	6.487897694448297e+17
19006.0	6.486699969697108e+17
19007.0	6.485245625543338e+17
19008.0	6.483942117649066e+17
19009.0	6.482523008445097e+17
19010.0	6.479355788132348e+17
19011.0	6.480443089442131e+17
19012.0	6.47844796318788e+17
19013.0	6.478201296169641e+17
19014.0	6.476679033651197e+17
19015.0	6.47558822031087e+17
19016.0	6.47430197547281e+17
19017.0	6.473227282939904e+17
19018.0	6.472059804013907e+17
19019.0	6.470880429342719e+17
19020.0	6.469570048382292e+17
19021.0	6.468474333997738e+17
19022.0	6.467293949198335e+17
19023.0	6.465888587524777e+17
19024.0	6.464777500317012e+17
19025.0	6.463606347879763e+17
19026.0	6.462272006258687e+17
19027.0	6.460675833113257e+17
19028.0	6.460039856390143e+17
19029.0	6.458737120946857e+17
19030.0	6.457676629628244e+17
19031.0	6.456499240959997e+17
19032.0	6.455266943259988e+17
19033.0	6.453544448862889e+17
19034.0	6.452767620420948e+17
19035.0	6.451424553948499e+17
19036.0	6.406291263411539e+17
19037.0	6.449153746578089e+17
19038.0	6.447889180000255e+17
19039.0	6.446788424062291e+17
19040.0	6.445602254618623e+17
19041.0	6.444352861634559e+17
19042.0	6.442677738405887e+17
19043.0	6.441970743727444e+17
19044.0	6.440710346986835e+17
19045.0	6.439547904021844e+17
19046.0	6.438004358206804e+17
19047.0	6.437031084643667e+17
19048.0	6.434778678383954e+17
19049.0	6.434311821590527e+17
19050.0	6.43324433137664e+17
19051.0	6.425587686047734e+17
19052.0	6.429767166678356e+17
19053.0	6.429829436014591e+17
19054.0	6.428633200241321e+17
19055.0	6.426055978691245e+17
19056.0	6.426123571997353e+17
19057.0	6.425012433758889e+17
19058.0	6.423713791257258e+17
19059.0	6.422625104429055e+17
19060.0	6.421306817205587e+17
19061.0	6.420240936206333e+17
19062.0	6.418997556456106e+17
19063.0	6.417813050053972e+17
19064.0	6.415879769511252e+17
19065.0	6.414427490353151e+17
19066.0	6.41387652518161e+17
19067.0	6.41291307467844e+17
19068.0	6.411774914636457e+17
19069.0	6.410583413533353e+17
19070.0	6.409218463279785e+17
19071.0	6.408134766275242e+17
19072.0	6.406958255614633e+17
19073.0	6.405726895341567e+17
19074.0	6.404572722145961e+17
19075.0	6.403367932089684e+17
19076.0	6.402048713730729e+17
19077.0	6.400877375346004e+17
19078.0	6.399505958174717e+17
19079.0	6.398520998581588e+17
19080.0	6.397238422361427e+17
19081.0	6.395903018882387e+17
19082.0	6.394676647733929e+17
19083.0	6.393120413450237e+17
19084.0	6.39123614265071e+17
19085.0	6.391240487250602e+17
19086.0	6.388019346363734e+17
19087.0	6.387524899438592e+17
19088.0	6.387218583126015e+17
19089.0	6.384841892648278e+17
19090.0	6.385128352426666e+17
19091.0	6.383920339047763e+17
19092.0	6.38228435706402e+17
19093.0	6.381668807300436e+17
19094.0	6.380466905022463e+17
19095.0	6.379284848093865e+17
19096.0	6.377988794176852e+17
19097.0	6.376867666504362e+17
19098.0	6.375649576310099e+17
19099.0	6.374438251528191e+17
19100.0	6.373179492663295e+17
19101.0	6.372033774485503e+17
19102.0	6.370311960264703e+17
19103.0	6.36963681014033e+17
19104.0	6.368475115159552e+17
19105.0	6.367230995813716e+17
19106.0	6.365818782045524e+17
19107.0	6.364756833905321e+17
19108.0	6.363659846549501e+17
19109.0	6.358674025654948e+17
19110.0	6.361150304987817e+17
19111.0	6.360050562673321e+17
19112.0	6.358863062936233e+17
19113.0	6.357657385784659e+17
19114.0	6.356437315878911e+17
19115.0	6.35492779495697e+17
19116.0	6.353944946496851e+17
19117.0	6.35272199929856e+17
19118.0	6.35102847705634e+17
19119.0	6.32805024263916e+17
19120.0	6.348822373815636e+17
19121.0	6.347792202421588e+17
19122.0	6.346878538306902e+17
19123.0	6.345658734040403e+17
19124.0	6.344250985807871e+17
19125.0	6.343221804269568e+17
19126.0	6.342041401294847e+17
19127.0	6.33126067966225e+17
19128.0	6.337890668423848e+17
19129.0	6.338042600794793e+17
19130.0	6.337166448437929e+17
19131.0	6.336018364672681e+17
19132.0	6.334869555292842e+17
19133.0	6.332363691436714e+17
19134.0	6.331691669564074e+17
19135.0	6.331261268961961e+17
19136.0	6.330111876573866e+17
19137.0	6.328021847201108e+17
19138.0	6.327552826146815e+17
19139.0	6.326509017672362e+17
19140.0	6.325327624841898e+17
19141.0	6.324129784048297e+17
19142.0	6.322777447464959e+17
19143.0	6.32141579952674e+17
19144.0	6.320308422879914e+17
19145.0	6.319309391396863e+17
19146.0	6.314891122748077e+17
19147.0	6.316361843561812e+17
19148.0	6.315717360790185e+17
19149.0	6.314506605035519e+17
19150.0	6.31330678383138e+17
19151.0	6.312141366405802e+17
19152.0	6.310896134870356e+17
19153.0	6.309663349932031e+17
19154.0	6.307876034663763e+17
19155.0	6.307383475175423e+17
19156.0	6.306177772858026e+17
19157.0	6.304918107324415e+17
19158.0	6.301156653400059e+17
19159.0	6.302502993526783e+17
19160.0	6.301291742145193e+17
19161.0	6.300052542717951e+17
19162.0	6.293129679689048e+17
19163.0	6.297649675588947e+17
19164.0	6.296645659175593e+17
19165.0	6.29528210912051e+17
19166.0	6.293494280050003e+17
19167.0	6.292502191538175e+17
19168.0	6.291620977355433e+17
19169.0	6.290420684292096e+17
19170.0	6.289479776774828e+17
19171.0	6.287909463610708e+17
19172.0	6.287046590420308e+17
19173.0	6.285891955152212e+17
19174.0	6.284382660023638e+17
19175.0	6.283513333896534e+17
19176.0	6.282307684007935e+17
19177.0	6.28030076686609e+17
19178.0	6.279801085449556e+17
19179.0	6.27824829329135e+17
19180.0	6.277365272761684e+17
19181.0	6.275755226256724e+17
19182.0	6.274984971687251e+17
19183.0	6.273959361598803e+17
19184.0	6.272558454276095e+17
19185.0	6.271516323523242e+17
19186.0	6.270396245824851e+17
19187.0	6.268787874245289e+17
19188.0	6.26797866787362e+17
19189.0	6.266752157614077e+17
19190.0	6.265544562267476e+17
19191.0	6.264224270166698e+17
19192.0	6.263242116562943e+17
19193.0	6.261962044342271e+17
19194.0	6.260738421161983e+17
19195.0	6.259643917533183e+17
19196.0	6.258375937490944e+17
19197.0	6.257215157567487e+17
19198.0	6.255990211084287e+17
19199.0	6.221370025312246e+17
19200.0	6.230336207148384e+17
19201.0	6.252434849180329e+17
19202.0	6.251315176931327e+17
19203.0	6.250053331058687e+17
19204.0	6.248786238111743e+17
19205.0	6.247685211641172e+17
19206.0	6.246445573909161e+17
19207.0	6.244740441833471e+17
19208.0	6.243046809141245e+17
19209.0	6.242895075300691e+17
19210.0	6.241731123784362e+17
19211.0	6.240612009377791e+17
19212.0	6.239407254973098e+17
19213.0	6.237523027514708e+17
19214.0	6.236038508838913e+17
19215.0	6.235708257031508e+17
19216.0	6.234624064400042e+17
19217.0	6.233417014312959e+17
19218.0	6.227719581510307e+17
19219.0	6.230227973133651e+17
19220.0	6.229726767087615e+17
19221.0	6.226871950420652e+17
19222.0	6.227424552768852e+17
19223.0	6.22616150802432e+17
19224.0	6.224805982371839e+17
19225.0	6.223053327433727e+17
19226.0	6.22257058681105e+17
19227.0	6.221376592194218e+17
19228.0	6.220308858710697e+17
19229.0	6.219116215358804e+17
19230.0	6.217818068484095e+17
19231.0	6.216626171718314e+17
19232.0	6.21545603989504e+17
19233.0	6.213946336520873e+17
19234.0	6.213004000843092e+17
19235.0	6.211752398858922e+17
19236.0	6.210758110434644e+17
19237.0	6.209458550079487e+17
19238.0	6.207830298897065e+17
19239.0	6.20717651735347e+17
19240.0	6.205538575930708e+17
19241.0	6.204516282837674e+17
19242.0	6.203465042056532e+17
19243.0	6.201443390324733e+17
19244.0	6.201181192497834e+17
19245.0	6.199962655610195e+17
19246.0	6.198688680509439e+17
19247.0	6.197524907950079e+17
19248.0	6.196379865754282e+17
19249.0	6.195161003808084e+17
19250.0	6.193880793874431e+17
19251.0	6.192028826905257e+17
19252.0	6.190091174499668e+17
19253.0	6.19024765489425e+17
19254.0	6.189116368617471e+17
19255.0	6.187008314922322e+17
19256.0	6.186477997610324e+17
19257.0	6.185549873632596e+17
19258.0	6.184358177494356e+17
19259.0	6.182774325815977e+17
19260.0	6.181053976805373e+17
19261.0	6.180661546538324e+17
19262.0	6.179215670684329e+17
19263.0	6.177975212965885e+17
19264.0	6.174149570811217e+17
19265.0	6.174826335043581e+17
19266.0	6.173665722892288e+17
19267.0	6.173496210096127e+17
19268.0	6.172244297733459e+17
19269.0	6.171030787020116e+17
19270.0	6.169831138481492e+17
19271.0	6.16676277931213e+17
19272.0	6.167211297909417e+17
19273.0	6.153479627560266e+17
19274.0	6.157239728821578e+17
19275.0	6.163773147927892e+17
19276.0	6.162446709773652e+17
19277.0	6.161238552390314e+17
19278.0	6.160039175782399e+17
19279.0	6.1586508101277e+17
19280.0	6.157117420819795e+17
19281.0	6.156336850359635e+17
19282.0	6.155203476018516e+17
19283.0	6.153429021185364e+17
19284.0	6.152096307653289e+17
19285.0	6.150449094721533e+17
19286.0	6.150124627558399e+17
19287.0	6.149097123042643e+17
19288.0	6.134770388609691e+17
19289.0	6.118805942741635e+17
19290.0	6.145402728349695e+17
19291.0	6.142740632261975e+17
19292.0	6.142916924451497e+17
19293.0	6.141644899003049e+17
19294.0	6.140386152721065e+17
19295.0	6.139202395002196e+17
19296.0	6.137914727596031e+17
19297.0	6.136531713174186e+17
19298.0	6.135289939143337e+17
19299.0	6.134191914396329e+17
19300.0	6.132932234881705e+17
19301.0	6.131655938932735e+17
19302.0	6.130318880800765e+17
19303.0	6.128737877753855e+17
19304.0	6.127664150609919e+17
19305.0	6.126526521846442e+17
19306.0	6.125294053578067e+17
19307.0	6.123782831166806e+17
19308.0	6.122613134852095e+17
19309.0	6.120227734203048e+17
19310.0	6.118491193081852e+17
19311.0	6.118657253266772e+17
19312.0	6.1176257431907e+17
19313.0	6.116338066696874e+17
19314.0	6.080485922963483e+17
19315.0	6.080940488349043e+17
19316.0	6.112434225938431e+17
19317.0	6.1111964008448e+17
19318.0	6.109874081497087e+17
19319.0	6.108645915186516e+17
19320.0	6.107324952696148e+17
19321.0	6.106028510106963e+17
19322.0	6.104161719768403e+17
19323.0	6.102813102134612e+17
19324.0	6.102022129800531e+17
19325.0	6.099589727081812e+17
19326.0	6.099383185571839e+17
19327.0	6.097983890959018e+17
19328.0	6.096720861593599e+17
19329.0	6.09538934903057e+17
19330.0	6.093821401453908e+17
19331.0	6.09243709448738e+17
19332.0	6.091278258623828e+17
19333.0	6.089838605718867e+17
19334.0	6.088525337679188e+17
19335.0	6.087145972301823e+17
19336.0	6.085759944272553e+17
19337.0	6.084371931638442e+17
19338.0	6.081839540207613e+17
19339.0	6.081556665161044e+17
19340.0	6.079702145258836e+17
19341.0	6.078566942201172e+17
19342.0	6.075127344485714e+17
19343.0	6.075848253767679e+17
19344.0	6.074341118006612e+17
19345.0	6.062686973110938e+17
19346.0	6.066566788197028e+17
19347.0	6.069648367113555e+17
19348.0	6.068555806146559e+17
19349.0	6.066867433111551e+17
19350.0	6.065400469695146e+17
19351.0	6.063849859274068e+17
19352.0	6.062106357006336e+17
19353.0	6.061011211649024e+17
19354.0	6.059475437879295e+17
19355.0	6.05737478852881e+17
19356.0	6.05634310578722e+17
19357.0	6.054751353438207e+17
19358.0	6.053012371931135e+17
19359.0	6.050853701375316e+17
19360.0	6.049670019852969e+17
19361.0	6.048087703988905e+17
19362.0	6.04624423887394e+17
19363.0	6.044451617112063e+17
19364.0	6.042751915961002e+17
19365.0	6.041031586523817e+17
19366.0	6.039325945539242e+17
19367.0	6.037580791414783e+17
19368.0	6.035836941019818e+17
19369.0	6.033561926063444e+17
19370.0	6.030802189374806e+17
19371.0	6.030150933501268e+17
19372.0	6.028590061016404e+17
19373.0	6.026590545423017e+17
19374.0	6.02480127770624e+17
19375.0	6.022905879418196e+17
19376.0	6.020980820410367e+17
19377.0	6.018959622362452e+17
19378.0	6.016986858039978e+17
19379.0	6.014978157619882e+17
19380.0	6.012920143369556e+17
19381.0	6.010806250504191e+17
19382.0	6.008322663295658e+17
19383.0	6.005946381762559e+17
19384.0	6.004370190980436e+17
19385.0	6.002156375812777e+17
19386.0	5.999913789816831e+17
19387.0	5.997594454349139e+17
19388.0	5.99524142953267e+17
19389.0	5.99223635681826e+17
19390.0	5.989583016340137e+17
19391.0	5.948809483212064e+17
19392.0	5.983584726810616e+17
19393.0	5.982012945640106e+17
19394.0	5.9793328832512e+17
19395.0	5.976606074645161e+17
19396.0	5.973883888162132e+17
19397.0	5.971198924729002e+17
19398.0	5.968217073778687e+17
19399.0	5.960487211980116e+17
19400.0	5.960690109338966e+17
19401.0	5.957990811172863e+17
19402.0	5.954919675374249e+17
19403.0	5.95161546629666e+17
19404.0	5.947931857955498e+17
19405.0	5.943162140884991e+17
19406.0	5.939693629734912e+17
19407.0	5.936158062848682e+17
19408.0	5.9274110103279e+17
19409.0	5.926112834792105e+17
19410.0	5.922311999149395e+17
19411.0	5.916061656416252e+17
19412.0	5.910932182007808e+17
19413.0	5.904342006278828e+17
19414.0	5.898026261763412e+17
19415.0	5.88956601295394e+17
19416.0	5.880806815126871e+17
19417.0	5.871531449472338e+17
19418.0	5.860858004854098e+17
19419.0	5.847359865662121e+17
19420.0	5.833237448359935e+17
19421.0	5.82308501319407e+17
19422.0	5.814459057220266e+17
19423.0	5.806014601363455e+17
19424.0	5.797073054771882e+17
19425.0	5.787669801992192e+17
19426.0	5.777652798805332e+17
19427.0	5.767057625492137e+17
19428.0	5.7559281663563085e+17
19429.0	5.7439268141793274e+17
19430.0	5.730804220384599e+17
19431.0	5.711063613964295e+17
19432.0	5.703923585952424e+17
19433.0	5.687908321897131e+17
19434.0	5.669632392298499e+17
19435.0	5.6477278025372966e+17
19436.0	5.61875645016746e+17
19437.0	5.5858878204258925e+17
19438.0	5.4877979228678944e+17
19439.0	5.4995689567245677e+17
19440.0	5.469185714946047e+17
19441.0	5.433049288977064e+17
19442.0	5.3933620770897926e+17
19443.0	5.3491908319641574e+17
19444.0	5.2936950100787117e+17
19445.0	5.208268090987869e+17
19446.0	5.111457786101759e+17
19447.0	5.015526699608742e+17
19448.0	4.8722119834118803e+17
19449.0	4.6610491200853344e+17
19450.0	4.248217612976113e+17
19451.0	4.125625928734018e+17
19452.0	4.473596513266355e+17
19453.0	4.778462122344457e+17
19454.0	4.949980062154739e+17
19455.0	5.060940217188352e+17
19456.0	5.149214659051535e+17
19457.0	5.2470046184352403e+17
19458.0	5.247622057732851e+17
19459.0	5.353828535413441e+17
19460.0	5.3972373105978e+17
19461.0	5.4330097912162976e+17
19462.0	5.4652508125702816e+17
19463.0	5.494486861174097e+17
19464.0	5.537208187835724e+17
19465.0	5.578083464992076e+17
19466.0	5.6054694305682746e+17
19467.0	5.6278089759457254e+17
19468.0	5.644954358164136e+17
19469.0	5.6572456339155584e+17
19470.0	5.6725196155562643e+17
19471.0	5.6843382708415136e+17
19472.0	5.695008847254867e+17
19473.0	5.704470302294014e+17
19474.0	5.714546445167274e+17
19475.0	5.7190064464418086e+17
19476.0	5.730611613051562e+17
19477.0	5.7384258670428154e+17
19478.0	5.745430714034856e+17
19479.0	5.751934577978026e+17
19480.0	5.758122017335979e+17
19481.0	5.764464927659347e+17
19482.0	5.775260292306262e+17
19483.0	5.786957677679963e+17
19484.0	5.796552673766057e+17
19485.0	5.80405524483277e+17
19486.0	5.811737531340116e+17
19487.0	5.817223172063236e+17
19488.0	5.821545622536191e+17
19489.0	5.826180903075837e+17
19490.0	5.822385656343204e+17
19491.0	5.833289798167209e+17
19492.0	5.836200699669161e+17
19493.0	5.83789024780834e+17
19494.0	5.841434204700668e+17
19495.0	5.843019442596521e+17
19496.0	5.842290803212283e+17
19497.0	5.845569163493376e+17
19498.0	5.842575118303232e+17
19499.0	5.789918607441906e+17
19500.0	5.850353230675968e+17
19501.0	5.851212616302592e+17
19502.0	5.851975304347647e+17
19503.0	5.853068766390953e+17
19504.0	5.854604113040724e+17
19505.0	5.855201755922431e+17
19506.0	5.855786817989289e+17
19507.0	5.856125900903764e+17
19508.0	5.856663839965183e+17
19509.0	5.856999745694378e+17
19510.0	5.856256488461652e+17
19511.0	5.788312146367807e+17
19512.0	5.847380406566904e+17
19513.0	5.839644684626577e+17
19514.0	5.845718771520836e+17
19515.0	5.856150543837871e+17
19516.0	5.858932872445951e+17
19517.0	5.8587190132736e+17
19518.0	5.859009114406911e+17
19519.0	5.858890327523327e+17
19520.0	5.858644200871252e+17
19521.0	5.858685267301716e+17
19522.0	5.858302725805396e+17
19523.0	5.858312390879914e+17
19524.0	5.858064790629033e+17
19525.0	5.857683821996713e+17
19526.0	5.857509486450004e+17
19527.0	5.857138872156159e+17
19528.0	5.856812461632169e+17
19529.0	5.856422175353514e+17
19530.0	5.85608821158707e+17
19531.0	5.855708685096275e+17
19532.0	5.855267714149033e+17
19533.0	5.854834707486036e+17
19534.0	5.854345149022207e+17
19535.0	5.853767257817087e+17
19536.0	5.853145151657299e+17
19537.0	5.852819828157097e+17
19538.0	5.851614423635286e+17
19539.0	5.848875397720753e+17
19540.0	5.850991524052991e+17
19541.0	5.850547284344832e+17
19542.0	5.849918370829651e+17
19543.0	5.849276423514793e+17
19544.0	5.848667495159124e+17
19545.0	5.845398522429437e+17
19546.0	5.843101309119146e+17
19547.0	5.847198236060329e+17
19548.0	5.846497044900521e+17
19549.0	5.845271018384041e+17
19550.0	5.845104370996566e+17
19551.0	5.844398972949844e+17
19552.0	5.843659728966995e+17
19553.0	5.842785428395348e+17
19554.0	5.841953890850132e+17
19555.0	5.841332376786259e+17
19556.0	5.84063892202018e+17
19557.0	5.839852284499284e+17
19558.0	5.839062383809876e+17
19559.0	5.838236174428841e+17
19560.0	5.837337714666154e+17
19561.0	5.836522960628394e+17
19562.0	5.835823606573737e+17
19563.0	5.835047371625812e+17
19564.0	5.834206066245631e+17
19565.0	5.833365993990825e+17
19566.0	5.832365734974804e+17
19567.0	5.831689443999743e+17
19568.0	5.830678126701225e+17
19569.0	5.829854276616191e+17
19570.0	5.829108321047891e+17
19571.0	5.828213675305642e+17
19572.0	5.827178148484436e+17
19573.0	5.826358489907199e+17
19574.0	5.825111465306793e+17
19575.0	5.824695681854121e+17
19576.0	5.823806061587113e+17
19577.0	5.822707084034045e+17
19578.0	5.821760994454185e+17
19579.0	5.820956334708052e+17
19580.0	5.820044849534292e+17
19581.0	5.819203534367402e+17
19582.0	5.818374844055551e+17
19583.0	5.817452770361343e+17
19584.0	5.816464008631636e+17
19585.0	5.814997526162088e+17
19586.0	5.813877440774145e+17
19587.0	5.813491209688406e+17
19588.0	5.810204632066734e+17
19589.0	5.811694077651625e+17
19590.0	5.810384014060202e+17
19591.0	5.809908767959721e+17
19592.0	5.808993765862058e+17
19593.0	5.807937288492371e+17
19594.0	5.805798947028991e+17
19595.0	5.805862254455466e+17
19596.0	5.801418659201027e+17
19597.0	5.803987124442452e+17
19598.0	5.801325001790803e+17
19599.0	5.802245255157075e+17
19600.0	5.801318232184148e+17
19601.0	5.799981721408852e+17
19602.0	5.799083530780671e+17
19603.0	5.795720360274598e+17
19604.0	5.797064503984128e+17
19605.0	5.7948102459392e+17
19606.0	5.795414183772159e+17
19607.0	5.794452585054205e+17
19608.0	5.793407151986003e+17
19609.0	5.792202584926889e+17
19610.0	5.791523917179562e+17
19611.0	5.790481510301695e+17
19612.0	5.78956724150818e+17
19613.0	5.788515233169408e+17
19614.0	5.787360400769023e+17
19615.0	5.786569749299199e+17
19616.0	5.78525457355025e+17
19617.0	5.784569967367508e+17
19618.0	5.780455406174202e+17
19619.0	5.778837986781861e+17
19620.0	5.777945940109992e+17
19621.0	5.780547064998569e+17
19622.0	5.779598435068586e+17
19623.0	5.778608752689151e+17
19624.0	5.777552116634964e+17
19625.0	5.776598426277203e+17
19626.0	5.775529159775571e+17
19627.0	5.774583673476436e+17
19628.0	5.772680963817472e+17
19629.0	5.772047805666644e+17
19630.0	5.769052780407466e+17
19631.0	5.734084990992389e+17
19632.0	5.769472724609705e+17
19633.0	5.768251731957076e+17
19634.0	5.767511853236223e+17
19635.0	5.766293547035305e+17
19636.0	5.76542299267618e+17
19637.0	5.762411657865899e+17
19638.0	5.7633944189446816e+17
19639.0	5.7623461323516576e+17
19640.0	5.760791050103467e+17
19641.0	5.7562065618862144e+17
19642.0	5.759340645799254e+17
19643.0	5.7582786962609485e+17
19644.0	5.757013232801108e+17
19645.0	5.7548499492099386e+17
19646.0	5.755322970931198e+17
19647.0	5.7543206322394445e+17
19648.0	5.753276772035241e+17
19649.0	5.75223849025536e+17
19650.0	5.751255462139221e+17
19651.0	5.7502070238522016e+17
19652.0	5.749167304824149e+17
19653.0	5.748169626703188e+17
19654.0	5.7471105523602765e+17
19655.0	5.746056656584702e+17
19656.0	5.7450817004066125e+17
19657.0	5.7440563328887456e+17
19658.0	5.7430596774789114e+17
19659.0	5.7420320135796045e+17
19660.0	5.741034720635562e+17
19661.0	5.73998582726656e+17
19662.0	5.7389851593058976e+17
19663.0	5.7376800519837005e+17
19664.0	5.7367514030189216e+17
