# Flux units: erg / (cm m2 s)
# Wavelength units: Angstrom
wave	flux
19000.0	6.435998537875455e+17
19001.0	6.43404981809971e+17
19002.0	6.433678991993514e+17
19003.0	6.432460641752404e+17
19004.0	6.431297414452564e+17
19005.0	6.43004085969442e+17
19006.0	6.428856319038803e+17
19007.0	6.427631681535999e+17
19008.0	6.426179547780435e+17
19009.0	6.424145670351529e+17
19010.0	6.422604883689472e+17
19011.0	6.422375060996095e+17
19012.0	6.420582975406079e+17
19013.0	6.42055682531874e+17
19014.0	6.419078498134697e+17
19015.0	6.418027830575104e+17
19016.0	6.417126798305961e+17
19017.0	6.415948305137663e+17
19018.0	6.414758040655188e+17
19019.0	6.413622073535145e+17
19020.0	6.412398268601686e+17
19021.0	6.411359434571773e+17
19022.0	6.410141328299348e+17
19023.0	6.408649172495017e+17
19024.0	6.407524743905279e+17
19025.0	6.406343363657727e+17
19026.0	6.404988439887871e+17
19027.0	6.403724868059135e+17
19028.0	6.402792664421716e+17
19029.0	6.401586161691305e+17
19030.0	6.400588325584895e+17
19031.0	6.399333115800233e+17
19032.0	6.39788090724625e+17
19033.0	6.39546511606852e+17
19034.0	6.393295586459645e+17
19035.0	6.38360157893427e+17
19036.0	6.350472369668096e+17
19037.0	6.383102836342781e+17
19038.0	6.388793387690665e+17
19039.0	6.389188342928724e+17
19040.0	6.388553442044585e+17
19041.0	6.387574795578025e+17
19042.0	6.383922762656422e+17
19043.0	6.385464670595754e+17
19044.0	6.384248946688e+17
19045.0	6.383026975364435e+17
19046.0	6.381616133832703e+17
19047.0	6.380307266316969e+17
19048.0	6.378435720336723e+17
19049.0	6.373086391697402e+17
19050.0	6.375088955850751e+17
19051.0	6.369747478249472e+17
19052.0	6.370478746763263e+17
19053.0	6.372485856144042e+17
19054.0	6.372155813352788e+17
19055.0	6.368876895229276e+17
19056.0	6.369947319358804e+17
19057.0	6.369213167261011e+17
19058.0	6.365945945653244e+17
19059.0	6.366187398452563e+17
19060.0	6.365798631910057e+17
19061.0	6.364675739833683e+17
19062.0	6.363481747314004e+17
19063.0	6.362293784106324e+17
19064.0	6.360728498514602e+17
19065.0	6.358927244875094e+17
19066.0	6.357657105465343e+17
19067.0	6.357634534517417e+17
19068.0	6.356589984350208e+17
19069.0	6.355431760155988e+17
19070.0	6.35412409570645e+17
19071.0	6.353024947585024e+17
19072.0	6.351203489983144e+17
19073.0	6.35078098166306e+17
19074.0	6.349647965934932e+17
19075.0	6.348475920110932e+17
19076.0	6.347268695960233e+17
19077.0	6.346018356461567e+17
19078.0	6.344736729552212e+17
19079.0	6.343777026659667e+17
19080.0	6.342519245067604e+17
19081.0	6.341047820309843e+17
19082.0	6.340184935934633e+17
19083.0	6.338320634216447e+17
19084.0	6.33613191356962e+17
19085.0	6.336516243936596e+17
19086.0	6.331360095851858e+17
19087.0	6.332206986646867e+17
19088.0	6.331257594052604e+17
19089.0	6.330399591148206e+17
19090.0	6.330474829272404e+17
19091.0	6.329349349310464e+17
19092.0	6.32640352463531e+17
19093.0	6.32738862473762e+17
19094.0	6.326285041139711e+17
19095.0	6.325179917533183e+17
19096.0	6.324018743345151e+17
19097.0	6.322882730786815e+17
19098.0	6.320830664758611e+17
19099.0	6.319486584662698e+17
19100.0	6.319184581492735e+17
19101.0	6.318033612745385e+17
19102.0	6.316671110567252e+17
19103.0	6.315812147866282e+17
19104.0	6.314718374745427e+17
19105.0	6.311531599888388e+17
19106.0	6.312184827783849e+17
19107.0	6.310382060000595e+17
19108.0	6.308724199129087e+17
19109.0	6.307732453152084e+17
19110.0	6.30693432463633e+17
19111.0	6.305609913729021e+17
19112.0	6.304580036635304e+17
19113.0	6.304162144146772e+17
19114.0	6.302570639261693e+17
19115.0	6.301458910325418e+17
19116.0	6.300393898246141e+17
19117.0	6.298928378369364e+17
19118.0	6.294556385476608e+17
19119.0	6.266867951861738e+17
19120.0	6.293650944294911e+17
19121.0	6.294201053129385e+17
19122.0	6.293594830099796e+17
19123.0	6.292535737581567e+17
19124.0	6.290737537395368e+17
19125.0	6.289818001954132e+17
19126.0	6.287444041269245e+17
19127.0	6.28278505242624e+17
19128.0	6.284736989932201e+17
19129.0	6.28462350325077e+17
19130.0	6.28438635450641e+17
19131.0	6.283486542779732e+17
19132.0	6.282394988445695e+17
19133.0	6.280971750648489e+17
19134.0	6.279998493862569e+17
19135.0	6.278947636161193e+17
19136.0	6.277747952670038e+17
19137.0	6.276341619316052e+17
19138.0	6.275372342924627e+17
19139.0	6.274393434314067e+17
19140.0	6.273291973733033e+17
19141.0	6.27215013249024e+17
19142.0	6.27076157809186e+17
19143.0	6.269664379622739e+17
19144.0	6.2683539846813e+17
19145.0	6.267471288511145e+17
19146.0	6.261717201846277e+17
19147.0	6.264978847126868e+17
19148.0	6.263336846316886e+17
19149.0	6.26207504867874e+17
19150.0	6.261730836829524e+17
19151.0	6.260533352551764e+17
19152.0	6.259262732894207e+17
19153.0	6.256549671119526e+17
19154.0	6.256607323226111e+17
19155.0	6.255632070650537e+17
19156.0	6.254473363412308e+17
19157.0	6.252677702178134e+17
19158.0	6.250730752398678e+17
19159.0	6.250658797016404e+17
19160.0	6.249338783836842e+17
19161.0	6.247808558432255e+17
19162.0	6.245771329754452e+17
19163.0	6.245221576736767e+17
19164.0	6.244767542629716e+17
19165.0	6.242291342289574e+17
19166.0	6.242482728381097e+17
19167.0	6.241653905948672e+17
19168.0	6.24070850912802e+17
19169.0	6.239663704506367e+17
19170.0	6.238601917846867e+17
19171.0	6.237434468281002e+17
19172.0	6.236253903126528e+17
19173.0	6.235191385260031e+17
19174.0	6.233930151755776e+17
19175.0	6.232870502094164e+17
19176.0	6.231755731588436e+17
19177.0	6.22949687448917e+17
19178.0	6.229408392850089e+17
19179.0	6.228244428051795e+17
19180.0	6.227027887652863e+17
19181.0	6.225509308432383e+17
19182.0	6.224550806508884e+17
19183.0	6.223679009237674e+17
19184.0	6.222525535791785e+17
19185.0	6.22127690617105e+17
19186.0	6.220158903954089e+17
19187.0	6.218395826869588e+17
19188.0	6.21768290214434e+17
19189.0	6.216411008816468e+17
19190.0	6.215110434138793e+17
19191.0	6.213525877817344e+17
19192.0	6.212309824656726e+17
19193.0	6.210489149991593e+17
19194.0	6.208483997952682e+17
19195.0	6.206817777134249e+17
19196.0	6.20406545457698e+17
19197.0	6.200413950137684e+17
19198.0	6.19481785311778e+17
19199.0	6.185625648627712e+17
19200.0	6.185472861317801e+17
19201.0	6.191821832410452e+17
19202.0	6.194968234994345e+17
19203.0	6.196104314661546e+17
19204.0	6.19655485002001e+17
19205.0	6.196302735998976e+17
19206.0	6.195767009432916e+17
19207.0	6.194074160376489e+17
19208.0	6.193580889953619e+17
19209.0	6.193170544416084e+17
19210.0	6.19229994951202e+17
19211.0	6.19138883133986e+17
19212.0	6.190250107863039e+17
19213.0	6.188389704051369e+17
19214.0	6.187612130421418e+17
19215.0	6.186834849693695e+17
19216.0	6.185663358915924e+17
19217.0	6.184003999279788e+17
19218.0	6.181733836434089e+17
19219.0	6.180545304898216e+17
19220.0	6.18081046110754e+17
19221.0	6.17958089040418e+17
19222.0	6.17881495806498e+17
19223.0	6.177874594409129e+17
19224.0	6.176606391369727e+17
19225.0	6.175669074875731e+17
19226.0	6.17462602207505e+17
19227.0	6.173602658036394e+17
19228.0	6.172692066249385e+17
19229.0	6.171579904600744e+17
19230.0	6.170435792142336e+17
19231.0	6.169234773464404e+17
19232.0	6.168172513547604e+17
19233.0	6.16662208418065e+17
19234.0	6.165888277413888e+17
19235.0	6.164530381979647e+17
19236.0	6.163678785874602e+17
19237.0	6.162474331362644e+17
19238.0	6.160879078866941e+17
19239.0	6.16029423210769e+17
19240.0	6.159167399482708e+17
19241.0	6.157901645217792e+17
19242.0	6.156804011240106e+17
19243.0	6.154534371284306e+17
19244.0	6.154670092670292e+17
19245.0	6.153474785935359e+17
19246.0	6.152360343284393e+17
19247.0	6.15116111277807e+17
19248.0	6.150102233470292e+17
19249.0	6.148880967488852e+17
19250.0	6.147388736886099e+17
19251.0	6.145732111936165e+17
19252.0	6.143217720360959e+17
19253.0	6.144296172388351e+17
19254.0	6.143288466385578e+17
19255.0	6.140625866282321e+17
19256.0	6.140912763666432e+17
19257.0	6.139849089570134e+17
19258.0	6.138687912585898e+17
19259.0	6.136714867944105e+17
19260.0	6.135013544296447e+17
19261.0	6.134898705651028e+17
19262.0	6.133372137679529e+17
19263.0	6.131874466365439e+17
19264.0	6.129704276153683e+17
19265.0	6.129254430758228e+17
19266.0	6.128214162975402e+17
19267.0	6.128261119606783e+17
19268.0	6.127159461893459e+17
19269.0	6.125975008619178e+17
19270.0	6.124520914026495e+17
19271.0	6.122765806119594e+17
19272.0	6.122288809596244e+17
19273.0	6.120026601947136e+17
19274.0	6.117421133157709e+17
19275.0	6.119256540315647e+17
19276.0	6.118007831702185e+17
19277.0	6.116891614860628e+17
19278.0	6.115681412055039e+17
19279.0	6.114329292876457e+17
19280.0	6.113146901102591e+17
19281.0	6.112109695860735e+17
19282.0	6.111019101323264e+17
19283.0	6.109742348894208e+17
19284.0	6.108187681882112e+17
19285.0	6.106694463520767e+17
19286.0	6.104819511765674e+17
19287.0	6.101423429255167e+17
19288.0	6.080942998639953e+17
19289.0	6.073186945510052e+17
19290.0	6.097311590165161e+17
19291.0	6.097443677186739e+17
19292.0	6.099088570668372e+17
19293.0	6.098308586012672e+17
19294.0	6.097223761439401e+17
19295.0	6.096289970257919e+17
19296.0	6.094173332220589e+17
19297.0	6.093668858811732e+17
19298.0	6.092712882558292e+17
19299.0	6.090678121529344e+17
19300.0	6.09060683583761e+17
19301.0	6.089480970698751e+17
19302.0	6.088191425642495e+17
19303.0	6.086666504634367e+17
19304.0	6.085873465207465e+17
19305.0	6.084582057181183e+17
19306.0	6.083382215005524e+17
19307.0	6.081868666153641e+17
19308.0	6.080560870981631e+17
19309.0	6.079065112270163e+17
19310.0	6.077476757307392e+17
19311.0	6.076247989813247e+17
19312.0	6.074634971643904e+17
19313.0	6.070262391548586e+17
19314.0	5.975931340455962e+17
19315.0	5.979666176628095e+17
19316.0	6.065605895520256e+17
19317.0	6.068993605500928e+17
19318.0	6.068723651706879e+17
19319.0	6.068021028891305e+17
19320.0	6.066605251362815e+17
19321.0	6.06496871293474e+17
19322.0	6.064613240777385e+17
19323.0	6.063408898812585e+17
19324.0	6.062286765206185e+17
19325.0	6.061163155903827e+17
19326.0	6.060088610171562e+17
19327.0	6.058975910952959e+17
19328.0	6.056187118223361e+17
19329.0	6.056750736911018e+17
19330.0	6.055523767375188e+17
19331.0	6.05409484419891e+17
19332.0	6.053227494987091e+17
19333.0	6.051927358614186e+17
19334.0	6.050820293044906e+17
19335.0	6.0461699535558e+17
19336.0	6.048348601581567e+17
19337.0	6.047187804181844e+17
19338.0	6.044457878508882e+17
19339.0	6.044590410126676e+17
19340.0	6.042647868560724e+17
19341.0	6.040114847984301e+17
19342.0	6.039275787255808e+17
19343.0	6.038894490768724e+17
19344.0	6.035348438821548e+17
19345.0	6.0295992049664e+17
19346.0	6.029869811673769e+17
19347.0	6.031596364059988e+17
19348.0	6.033074078875645e+17
19349.0	6.031884285553321e+17
19350.0	6.030177520495273e+17
19351.0	6.029543075392169e+17
19352.0	6.026460846358523e+17
19353.0	6.027444756676608e+17
19354.0	6.026221869596671e+17
19355.0	6.024181550415875e+17
19356.0	6.023660896081236e+17
19357.0	6.02235944898833e+17
19358.0	6.02099798769664e+17
19359.0	6.019208407504211e+17
19360.0	6.016869327350442e+17
19361.0	6.017010437718015e+17
19362.0	6.01577617498658e+17
19363.0	6.0144643721571e+17
19364.0	6.013127465020074e+17
19365.0	6.011734471649962e+17
19366.0	6.010419798518442e+17
19367.0	6.009024515757395e+17
19368.0	6.007642813453651e+17
19369.0	6.006031053575507e+17
19370.0	6.004696714051583e+17
19371.0	6.003051589184169e+17
19372.0	6.002053003695444e+17
19373.0	6.000477016337066e+17
19374.0	5.99915619295778e+17
19375.0	5.99770669252608e+17
19376.0	5.996247761900884e+17
19377.0	5.994720189393577e+17
19378.0	5.993223040270335e+17
19379.0	5.9917180338176e+17
19380.0	5.990152980310697e+17
19381.0	5.988541789459795e+17
19382.0	5.98631748014353e+17
19383.0	5.984964905882963e+17
19384.0	5.983605444575231e+17
19385.0	5.981992725599572e+17
19386.0	5.980257297367037e+17
19387.0	5.978349973973674e+17
19388.0	5.976228193020586e+17
19389.0	5.973423772314282e+17
19390.0	5.967231022967465e+17
19391.0	5.934845074429257e+17
19392.0	5.955290123294036e+17
19393.0	5.964959055172948e+17
19394.0	5.964877154396841e+17
19395.0	5.963029001448106e+17
19396.0	5.961721911618218e+17
19397.0	5.959901724191401e+17
19398.0	5.956938407870463e+17
19399.0	5.953364927272276e+17
19400.0	5.952133524357119e+17
19401.0	5.95142345105954e+17
19402.0	5.949450237946537e+17
19403.0	5.94711865930547e+17
19404.0	5.944888175274666e+17
19405.0	5.942314899166548e+17
19406.0	5.939771156550996e+17
19407.0	5.936272013000701e+17
19408.0	5.932445833276074e+17
19409.0	5.930863236393641e+17
19410.0	5.928934109609983e+17
19411.0	5.926203042387284e+17
19412.0	5.923185366488406e+17
19413.0	5.919534672947882e+17
19414.0	5.916802422931455e+17
19415.0	5.913366195339263e+17
19416.0	5.908907456550227e+17
19417.0	5.90624992596241e+17
19418.0	5.902590090936319e+17
19419.0	5.898739560480767e+17
19420.0	5.894667388321791e+17
19421.0	5.890346659610623e+17
19422.0	5.885457025990655e+17
19423.0	5.880864261013503e+17
19424.0	5.875876670821715e+17
19425.0	5.870552906465279e+17
19426.0	5.864911750736553e+17
19427.0	5.858892621807615e+17
19428.0	5.852354586170708e+17
19429.0	5.844998694808233e+17
19430.0	5.83533080870912e+17
19431.0	5.825936758931457e+17
19432.0	5.821640543830016e+17
19433.0	5.813911938225492e+17
19434.0	5.80427836363025e+17
19435.0	5.792309266350079e+17
19436.0	5.779577155267242e+17
19437.0	5.762606501462015e+17
19438.0	5.6956173505877395e+17
19439.0	5.7200545855351424e+17
19440.0	5.728393774847317e+17
19441.0	5.715844363452415e+17
19442.0	5.6991290567775584e+17
19443.0	5.6792320356734285e+17
19444.0	5.656055173698899e+17
19445.0	5.629392767505749e+17
19446.0	5.597333871220053e+17
19447.0	5.558400636507474e+17
19448.0	5.508724557523629e+17
19449.0	5.4413267807764474e+17
19450.0	5.332388413789518e+17
19451.0	5.2486421767782426e+17
19452.0	5.394900475095722e+17
19453.0	5.474974774416727e+17
19454.0	5.529418034315261e+17
19455.0	5.5703317921136634e+17
19456.0	5.601524212301825e+17
19457.0	5.62101410140433e+17
19458.0	5.419759646539942e+17
19459.0	5.619274688583045e+17
19460.0	5.685513976195753e+17
19461.0	5.704332364218367e+17
19462.0	5.7189197480809805e+17
19463.0	5.731451936964606e+17
19464.0	5.74241219088657e+17
19465.0	5.752456564004181e+17
19466.0	5.760775489934675e+17
19467.0	5.768894641864704e+17
19468.0	5.77609945649425e+17
19469.0	5.781252478424402e+17
19470.0	5.788645773890902e+17
19471.0	5.794504931366228e+17
19472.0	5.799430987623082e+17
19473.0	5.80384490188527e+17
19474.0	5.806417730600956e+17
19475.0	5.808749395924308e+17
19476.0	5.814352630251517e+17
19477.0	5.818493359008425e+17
19478.0	5.821714703319039e+17
19479.0	5.823318709327186e+17
19480.0	5.826763924613801e+17
19481.0	5.82913295908864e+17
19482.0	5.831372421027156e+17
19483.0	5.833276468669098e+17
19484.0	5.834770335050409e+17
19485.0	5.83617071948322e+17
19486.0	5.836325580177409e+17
19487.0	5.838677647294463e+17
19488.0	5.839383536074751e+17
19489.0	5.838325715828736e+17
19490.0	5.837459950665727e+17
19491.0	5.841273310500179e+17
19492.0	5.842910678002346e+17
19493.0	5.843546291918163e+17
19494.0	5.843819921320617e+17
19495.0	5.843558208634877e+17
19496.0	5.841519399403517e+17
19497.0	5.83915806986513e+17
19498.0	5.816430376605009e+17
19499.0	5.7883578321251e+17
19500.0	5.836306159151786e+17
19501.0	5.843017884412586e+17
19502.0	5.844711494735187e+17
19503.0	5.845282552020991e+17
19504.0	5.845364209527466e+17
19505.0	5.845217397702655e+17
19506.0	5.845024825322154e+17
19507.0	5.844391924421972e+17
19508.0	5.8435527784093e+17
19509.0	5.841225646429524e+17
19510.0	5.831132003521874e+17
19511.0	5.697908116553694e+17
19512.0	5.809960624237224e+17
19513.0	5.816466034480463e+17
19514.0	5.821026510307323e+17
19515.0	5.836968613117951e+17
19516.0	5.839696915595263e+17
19517.0	5.840405163671551e+17
19518.0	5.84020583916066e+17
19519.0	5.839845367392937e+17
19520.0	5.838475018371068e+17
19521.0	5.83946276577826e+17
19522.0	5.83842528301329e+17
19523.0	5.837980263863638e+17
19524.0	5.836727843990188e+17
19525.0	5.837025410285567e+17
19526.0	5.836461049206099e+17
19527.0	5.83567190139426e+17
19528.0	5.834903926429012e+17
19529.0	5.83410859970833e+17
19530.0	5.833624385486848e+17
19531.0	5.832928979670356e+17
19532.0	5.832159541592063e+17
19533.0	5.83139574485265e+17
19534.0	5.83062342738466e+17
19535.0	5.829639224164351e+17
19536.0	5.828677059215359e+17
19537.0	5.827863831904255e+17
19538.0	5.824904677031936e+17
19539.0	5.824891273434452e+17
19540.0	5.825138464041641e+17
19541.0	5.824419829470547e+17
19542.0	5.823768681250815e+17
19543.0	5.821603456395946e+17
19544.0	5.821538003582976e+17
19545.0	5.81862661693986e+17
19546.0	5.817483402062506e+17
19547.0	5.819048700936192e+17
19548.0	5.81872228831505e+17
19549.0	5.817252237890899e+17
19550.0	5.817248425268564e+17
19551.0	5.816397055655935e+17
19552.0	5.815485533432489e+17
19553.0	5.814516050122067e+17
19554.0	5.813575752876031e+17
19555.0	5.812561593936554e+17
19556.0	5.811817401374035e+17
19557.0	5.811029444744532e+17
19558.0	5.81011597566498e+17
19559.0	5.809206614207146e+17
19560.0	5.807608719299924e+17
19561.0	5.807156802617344e+17
19562.0	5.805890027039401e+17
19563.0	5.805503631676756e+17
19564.0	5.80454859145216e+17
19565.0	5.803597456823636e+17
19566.0	5.802540311161514e+17
19567.0	5.801703282573311e+17
19568.0	5.800563393779028e+17
19569.0	5.799763953844223e+17
19570.0	5.798945343842985e+17
19571.0	5.798005253515946e+17
19572.0	5.796778845317804e+17
19573.0	5.795879213247145e+17
19574.0	5.794325844372136e+17
19575.0	5.794143146781354e+17
19576.0	5.793066645105322e+17
19577.0	5.791771193769983e+17
19578.0	5.791132661317631e+17
19579.0	5.790034412175357e+17
19580.0	5.789097470372522e+17
19581.0	5.788290900819967e+17
19582.0	5.78735087690274e+17
19583.0	5.786360826822655e+17
19584.0	5.78531871564322e+17
19585.0	5.783437024340648e+17
19586.0	5.782213982071469e+17
19587.0	5.781890512453631e+17
19588.0	5.779979412788563e+17
19589.0	5.779721328874836e+17
19590.0	5.77865155486242e+17
19591.0	5.778303318578516e+17
19592.0	5.777456501183828e+17
19593.0	5.776200192491519e+17
19594.0	5.773472758934182e+17
19595.0	5.774315385520127e+17
19596.0	5.772985157812223e+17
19597.0	5.77222550224896e+17
19598.0	5.769280640166569e+17
19599.0	5.770132979362474e+17
19600.0	5.769349412072105e+17
19601.0	5.767946670440448e+17
19602.0	5.76662527873297e+17
19603.0	5.765049024337235e+17
19604.0	5.7645434939637754e+17
19605.0	5.762654559797253e+17
19606.0	5.7632754321326074e+17
19607.0	5.7623976488905363e+17
19608.0	5.7613867405366605e+17
19609.0	5.760211960725503e+17
19610.0	5.7588518807579296e+17
19611.0	5.7575239382466566e+17
19612.0	5.757481849804117e+17
19613.0	5.7563682012747085e+17
19614.0	5.755072140367188e+17
19615.0	5.754161445819732e+17
19616.0	5.7521754603520006e+17
19617.0	5.7505439676716365e+17
19618.0	5.747987463187113e+17
19619.0	5.7460782544541e+17
19620.0	5.746141126372008e+17
19621.0	5.746003651067903e+17
19622.0	5.7468266748750496e+17
19623.0	5.7458341550489594e+17
19624.0	5.744531340612949e+17
19625.0	5.743652626934442e+17
19626.0	5.742192561050964e+17
19627.0	5.740557877903358e+17
19628.0	5.738136139901611e+17
19629.0	5.7310818798141414e+17
19630.0	5.7274618613159226e+17
19631.0	5.7216281884317005e+17
19632.0	5.729863170960042e+17
19633.0	5.7322856639365114e+17
19634.0	5.7333430332948474e+17
19635.0	5.7326904611089043e+17
19636.0	5.7310339025687866e+17
19637.0	5.7276443072484717e+17
19638.0	5.7306992369554765e+17
19639.0	5.729758553134421e+17
19640.0	5.7270207274898765e+17
19641.0	5.7236259661851334e+17
19642.0	5.7265912041963514e+17
19643.0	5.725716958849705e+17
19644.0	5.724460081829204e+17
19645.0	5.7233854640947194e+17
19646.0	5.7214781260212864e+17
19647.0	5.7221530936934394e+17
19648.0	5.721203418682708e+17
19649.0	5.72021935247633e+17
19650.0	5.719263852975445e+17
19651.0	5.718220017238014e+17
19652.0	5.717201394860031e+17
19653.0	5.71624142353203e+17
19654.0	5.7151816193802234e+17
19655.0	5.714136869284521e+17
19656.0	5.713221707104256e+17
19657.0	5.712166132208979e+17
19658.0	5.711201218592768e+17
19659.0	5.7101923332915194e+17
19660.0	5.709212489351167e+17
19661.0	5.708154355231402e+17
19662.0	5.7071327010706765e+17
19663.0	5.7060158970265594e+17
19664.0	5.7050115919052794e+17
19665.0	5.7041231341595296e+17
