# Flux units: erg / (cm m2 s)
# Wavelength units: Angstrom
wave	flux
19000.0	6.672388814361939e+17
19001.0	6.67106985255458e+17
19002.0	6.669912560194899e+17
19003.0	6.668672078009684e+17
19004.0	6.667432018750121e+17
19005.0	6.666195111510015e+17
19006.0	6.66495544861218e+17
19007.0	6.663708552637097e+17
19008.0	6.662426007874217e+17
19009.0	6.661169803340457e+17
19010.0	6.659609416695805e+17
19011.0	6.658727669137408e+17
19012.0	6.65742457647923e+17
19013.0	6.656262545954132e+17
19014.0	6.654976340262911e+17
19015.0	6.653751702760105e+17
19016.0	6.652499921818964e+17
19017.0	6.651300814345555e+17
19018.0	6.650050993542484e+17
19019.0	6.648812326791849e+17
19020.0	6.647555845434026e+17
19021.0	6.646331190454953e+17
19022.0	6.645100037799936e+17
19023.0	6.643824401754793e+17
19024.0	6.642624940561748e+17
19025.0	6.641468916279978e+17
19026.0	6.640206375550975e+17
19027.0	6.638951252448595e+17
19028.0	6.637738227575466e+17
19029.0	6.636492296989353e+17
19030.0	6.635262854212266e+17
19031.0	6.634020084733267e+17
19032.0	6.632777194318506e+17
19033.0	6.631460515610623e+17
19034.0	6.630279651961513e+17
19035.0	6.629014512162131e+17
19036.0	6.625151978307581e+17
19037.0	6.626549877615273e+17
19038.0	6.625298993556138e+17
19039.0	6.624076368620202e+17
19040.0	6.622833455835817e+17
19041.0	6.621590097756159e+17
19042.0	6.620272198505812e+17
19043.0	6.619104461630121e+17
19044.0	6.61785952649216e+17
19045.0	6.616618133443924e+17
19046.0	6.615333613163859e+17
19047.0	6.614120448480595e+17
19048.0	6.612717189551444e+17
19049.0	6.611589806074537e+17
19050.0	6.610367810284201e+17
19051.0	6.608710921792169e+17
19052.0	6.607851259341482e+17
19053.0	6.606673642782717e+17
19054.0	6.605430657996116e+17
19055.0	6.603979939119104e+17
19056.0	6.602927368743593e+17
19057.0	6.60169528844834e+17
19058.0	6.600450674174633e+17
19059.0	6.599216114346665e+17
19060.0	6.597954914396842e+17
19061.0	6.596731674995369e+17
19062.0	6.595485020192767e+17
19063.0	6.594243933328723e+17
19064.0	6.592909900688041e+17
19065.0	6.591617567817727e+17
19066.0	6.590469743400275e+17
19067.0	6.589274977031508e+17
19068.0	6.588033367976617e+17
19069.0	6.586791775698943e+17
19070.0	6.585529620146857e+17
19071.0	6.584307757875197e+17
19072.0	6.583065624532307e+17
19073.0	6.581819290593962e+17
19074.0	6.580581741625343e+17
19075.0	6.579339832677716e+17
19076.0	6.578080924215978e+17
19077.0	6.576845135456937e+17
19078.0	6.575592678533801e+17
19079.0	6.574371503428948e+17
19080.0	6.573117955287721e+17
19081.0	6.571858170216447e+17
19082.0	6.570611711148031e+17
19083.0	6.569319243360938e+17
19084.0	6.567977605748052e+17
19085.0	6.566924461451946e+17
19086.0	6.565381981689172e+17
19087.0	6.564366696579072e+17
19088.0	6.563141705356628e+17
19089.0	6.561776037178025e+17
19090.0	6.560695030120447e+17
19091.0	6.559457149102762e+17
19092.0	6.558185502539775e+17
19093.0	6.556997890954579e+17
19094.0	6.555755348667049e+17
19095.0	6.554514475712511e+17
19096.0	6.553263542719828e+17
19097.0	6.552035083507028e+17
19098.0	6.550797212276052e+17
19099.0	6.549557084509523e+17
19100.0	6.548311585237674e+17
19101.0	6.547075438564691e+17
19102.0	6.545755189805055e+17
19103.0	6.544598070110889e+17
19104.0	6.543358489001983e+17
19105.0	6.542118675109204e+17
19106.0	6.540865458317993e+17
19107.0	6.539627777927849e+17
19108.0	6.538399626996393e+17
19109.0	6.536949461068457e+17
19110.0	6.535914287966889e+17
19111.0	6.534683492526761e+17
19112.0	6.533444987955881e+17
19113.0	6.532206279262207e+17
19114.0	6.530966041744723e+17
19115.0	6.52968933335586e+17
19116.0	6.52847175696384e+17
19117.0	6.527234834344617e+17
19118.0	6.525939610200745e+17
19119.0	6.521197699967653e+17
19120.0	6.523502979623594e+17
19121.0	6.522281057233578e+17
19122.0	6.521060868489215e+17
19123.0	6.51982242193954e+17
19124.0	6.518571363117738e+17
19125.0	6.517345008746496e+17
19126.0	6.516102743283027e+17
19127.0	6.513454380744703e+17
19128.0	6.513595052108457e+17
19129.0	6.512328800818515e+17
19130.0	6.51114335698944e+17
19131.0	6.509919286416723e+17
19132.0	6.508680942627497e+17
19133.0	6.507351886528511e+17
19134.0	6.506186734043135e+17
19135.0	6.504968406171648e+17
19136.0	6.503736528601087e+17
19137.0	6.502368615071743e+17
19138.0	6.501250598174719e+17
19139.0	6.500025472734548e+17
19140.0	6.498789952410964e+17
19141.0	6.49755328913954e+17
19142.0	6.496296410720938e+17
19143.0	6.495036093672106e+17
19144.0	6.493813416307369e+17
19145.0	6.492607209974441e+17
19146.0	6.490895415246848e+17
19147.0	6.490055276582227e+17
19148.0	6.488897198489599e+17
19149.0	6.487661343320746e+17
19150.0	6.486418842277203e+17
19151.0	6.485189877650771e+17
19152.0	6.483950009232041e+17
19153.0	6.482700695240704e+17
19154.0	6.481378541567999e+17
19155.0	6.480245336397139e+17
19156.0	6.479007204420265e+17
19157.0	6.477766909580627e+17
19158.0	6.476392495579133e+17
19159.0	6.47528455619652e+17
19160.0	6.474062112314708e+17
19161.0	6.472827861467135e+17
19162.0	6.471259930667689e+17
19163.0	6.470347231941972e+17
19164.0	6.469123113833812e+17
19165.0	6.467880041665876e+17
19166.0	6.466553123962879e+17
19167.0	6.465385250772308e+17
19168.0	6.464165343046313e+17
19169.0	6.462928430912852e+17
19170.0	6.461708329549823e+17
19171.0	6.460453725842089e+17
19172.0	6.459237501414057e+17
19173.0	6.458002163542698e+17
19174.0	6.456720631704234e+17
19175.0	6.455531790488916e+17
19176.0	6.454296228222292e+17
19177.0	6.452937493927252e+17
19178.0	6.451814806672723e+17
19179.0	6.450561500403028e+17
19180.0	6.449346775438675e+17
19181.0	6.448021755658239e+17
19182.0	6.446864345858047e+17
19183.0	6.445643895668735e+17
19184.0	6.44439460684322e+17
19185.0	6.443167036822868e+17
19186.0	6.44193380658927e+17
19187.0	6.440640313294847e+17
19188.0	6.43945975652898e+17
19189.0	6.438227762916009e+17
19190.0	6.436989834362879e+17
19191.0	6.435726377877504e+17
19192.0	6.434517002747903e+17
19193.0	6.433277741804202e+17
19194.0	6.432031930056703e+17
19195.0	6.430804344657236e+17
19196.0	6.429557173955242e+17
19197.0	6.428318440095744e+17
19198.0	6.427072301192531e+17
19199.0	6.423857335719252e+17
19200.0	6.42323836829696e+17
19201.0	6.423362793024169e+17
19202.0	6.422138715460948e+17
19203.0	6.420904013026644e+17
19204.0	6.419645757478227e+17
19205.0	6.418418945927849e+17
19206.0	6.417179235494569e+17
19207.0	6.415870788807337e+17
19208.0	6.414539362227539e+17
19209.0	6.413463849009151e+17
19210.0	6.412235434535594e+17
19211.0	6.410995608758954e+17
19212.0	6.409755897626624e+17
19213.0	6.408439128741203e+17
19214.0	6.40717755060497e+17
19215.0	6.406026785980415e+17
19216.0	6.404792080749908e+17
19217.0	6.403550927476054e+17
19218.0	6.401651158024191e+17
19219.0	6.400943135042217e+17
19220.0	6.399807621606057e+17
19221.0	6.39832573415697e+17
19222.0	6.397336534821546e+17
19223.0	6.396089365517652e+17
19224.0	6.394817270863188e+17
19225.0	6.393496425813331e+17
19226.0	6.392349758324736e+17
19227.0	6.391103416696831e+17
19228.0	6.389881253134335e+17
19229.0	6.388635557429247e+17
19230.0	6.387386950178132e+17
19231.0	6.386133148281514e+17
19232.0	6.384889895758506e+17
19233.0	6.383593472043689e+17
19234.0	6.382384201771689e+17
19235.0	6.381137643438079e+17
19236.0	6.379907122724863e+17
19237.0	6.378645635465215e+17
19238.0	6.377334683380393e+17
19239.0	6.376160892026879e+17
19240.0	6.374882819790163e+17
19241.0	6.373632937470634e+17
19242.0	6.372394006478847e+17
19243.0	6.371021212177747e+17
19244.0	6.369904313761792e+17
19245.0	6.368651047337983e+17
19246.0	6.367384405278719e+17
19247.0	6.366141893050367e+17
19248.0	6.364887458512895e+17
19249.0	6.363629387513855e+17
19250.0	6.362358079291391e+17
19251.0	6.361020621302442e+17
19252.0	6.359630967297363e+17
19253.0	6.358580343078911e+17
19254.0	6.357336354455551e+17
19255.0	6.355930084016127e+17
19256.0	6.354789444441427e+17
19257.0	6.353556649716393e+17
19258.0	6.352292949262333e+17
19259.0	6.350970940992169e+17
19260.0	6.348657633438376e+17
19261.0	6.346665118837417e+17
19262.0	6.345359258637652e+17
19263.0	6.344087677785427e+17
19264.0	6.342432288757075e+17
19265.0	6.341435394271914e+17
19266.0	6.340159109507753e+17
19267.0	6.33904619917585e+17
19268.0	6.337770436602538e+17
19269.0	6.336493266840233e+17
19270.0	6.33521252143377e+17
19271.0	6.333665423742291e+17
19272.0	6.332623793509716e+17
19273.0	6.330445286692179e+17
19274.0	6.329436950145704e+17
19275.0	6.328801145389055e+17
19276.0	6.327499094316372e+17
19277.0	6.326214571240105e+17
19278.0	6.324927788832084e+17
19279.0	6.323632647176191e+17
19280.0	6.322281328410624e+17
19281.0	6.321041757088426e+17
19282.0	6.319759647135059e+17
19283.0	6.318431327835476e+17
19284.0	6.317127877263359e+17
19285.0	6.315704480082601e+17
19286.0	6.314523067678719e+17
19287.0	6.313246190818644e+17
19288.0	6.311205633960618e+17
19289.0	6.308901274255356e+17
19290.0	6.309315241574399e+17
19291.0	6.307792843440127e+17
19292.0	6.306684430800212e+17
19293.0	6.305358709172906e+17
19294.0	6.304033859960831e+17
19295.0	6.302718732446378e+17
19296.0	6.301391341486079e+17
19297.0	6.300051814307156e+17
19298.0	6.298706649983658e+17
19299.0	6.297394190046548e+17
19300.0	6.296054439870464e+17
19301.0	6.294708770832383e+17
19302.0	6.291229483816279e+17
19303.0	6.28960349196561e+17
19304.0	6.288277285896191e+17
19305.0	6.286929823793151e+17
19306.0	6.285572849008639e+17
19307.0	6.284170771475114e+17
19308.0	6.282816074896724e+17
19309.0	6.281368669519871e+17
19310.0	6.279914509915476e+17
19311.0	6.278605307554474e+17
19312.0	6.277240197218303e+17
19313.0	6.275856486541993e+17
19314.0	6.272074827956225e+17
19315.0	6.270831004308824e+17
19316.0	6.271650741179732e+17
19317.0	6.270241413092692e+17
19318.0	6.268820127044947e+17
19319.0	6.267415178510335e+17
19320.0	6.265988969747795e+17
19321.0	6.264559076289193e+17
19322.0	6.261916771723944e+17
19323.0	6.25867870052898e+17
19324.0	6.257244920348671e+17
19325.0	6.255716439774548e+17
19326.0	6.254302356045823e+17
19327.0	6.252810189056682e+17
19328.0	6.251333989083818e+17
19329.0	6.249839104884735e+17
19330.0	6.248304521598292e+17
19331.0	6.246788578497876e+17
19332.0	6.245302971400191e+17
19333.0	6.243778634099369e+17
19334.0	6.242241366458367e+17
19335.0	6.238597605403302e+17
19336.0	6.23547045257762e+17
19337.0	6.23388051636224e+17
19338.0	6.232121229530452e+17
19339.0	6.230676989455018e+17
19340.0	6.228990994590378e+17
19341.0	6.227409374281727e+17
19342.0	6.225493564413267e+17
19343.0	6.224131647340543e+17
19344.0	6.219661106479101e+17
19345.0	6.21480741594726e+17
19346.0	6.213959382903465e+17
19347.0	6.21282696765986e+17
19348.0	6.211128474468351e+17
19349.0	6.209338318957225e+17
19350.0	6.207551143499092e+17
19351.0	6.201100661161983e+17
19352.0	6.198591073462953e+17
19353.0	6.196757057415849e+17
19354.0	6.194846403046057e+17
19355.0	6.192838176582314e+17
19356.0	6.189284997114538e+17
19357.0	6.185886327417514e+17
19358.0	6.183842224974506e+17
19359.0	6.18173304021538e+17
19360.0	6.179665777524736e+17
19361.0	6.177553943363583e+17
19362.0	6.175441371703977e+17
19363.0	6.173268532090195e+17
19364.0	6.171065045396138e+17
19365.0	6.168831550554112e+17
19366.0	6.166565415638356e+17
19367.0	6.164269931779412e+17
19368.0	6.161948949348351e+17
19369.0	6.159546958129833e+17
19370.0	6.157105453771433e+17
19371.0	6.154727165962921e+17
19372.0	6.152297254660778e+17
19373.0	6.149772874350591e+17
19374.0	6.147235784600234e+17
19375.0	6.144639232202068e+17
19376.0	6.142003100254208e+17
19377.0	6.139316359834282e+17
19378.0	6.136587697345876e+17
19379.0	6.133808179620521e+17
19380.0	6.130978233778175e+17
19381.0	6.128096402298195e+17
19382.0	6.125101790877012e+17
19383.0	6.12208368226577e+17
19384.0	6.119122584731647e+17
19385.0	6.116047548230314e+17
19386.0	6.112920600925524e+17
19387.0	6.109727972917247e+17
19388.0	6.106471695646719e+17
19389.0	6.103150510123689e+17
19390.0	6.099761683060052e+17
19391.0	6.094120682520572e+17
19392.0	6.092748764129961e+17
19393.0	6.089189512009044e+17
19394.0	6.085515119252819e+17
19395.0	6.081774860544682e+17
19396.0	6.077955396599805e+17
19397.0	6.07406304264192e+17
19398.0	6.070047955659433e+17
19399.0	6.065401443472724e+17
19400.0	6.061419490792788e+17
19401.0	6.057224864530431e+17
19402.0	6.052931066047146e+17
19403.0	6.048570406862847e+17
19404.0	6.044188837675005e+17
19405.0	6.039739094269951e+17
19406.0	6.035268264700586e+17
19407.0	6.030749963998548e+17
19408.0	6.025627811446783e+17
19409.0	6.021445459815082e+17
19410.0	6.016001457345876e+17
19411.0	6.010955882299391e+17
19412.0	6.005879941190996e+17
19413.0	6.000706399327571e+17
19414.0	5.995293192836438e+17
19415.0	5.988937923996329e+17
19416.0	5.983314779308032e+17
19417.0	5.977670067508564e+17
19418.0	5.970282537112916e+17
19419.0	5.964293014377811e+17
19420.0	5.955974937793874e+17
19421.0	5.948470384918529e+17
19422.0	5.939376559226879e+17
19423.0	5.928546681749504e+17
19424.0	5.916658877071364e+17
19425.0	5.901710933360637e+17
19426.0	5.882949876580351e+17
19427.0	5.85875002595738e+17
19428.0	5.832392385582418e+17
19429.0	5.816726126766761e+17
19430.0	5.801919012405248e+17
19431.0	5.786154216805716e+17
19432.0	5.770779046881961e+17
19433.0	5.754064284767573e+17
19434.0	5.736329009343145e+17
19435.0	5.717088186400766e+17
19436.0	5.697369925135018e+17
19437.0	5.6759942741579104e+17
19438.0	5.648671626493951e+17
19439.0	5.622378498708819e+17
19440.0	5.5833730080221984e+17
19441.0	5.5279161316474835e+17
19442.0	5.46450673535113e+17
19443.0	5.4176690425473696e+17
19444.0	5.3655997125754835e+17
19445.0	5.3044749417840646e+17
19446.0	5.222028718112771e+17
19447.0	5.101056014942207e+17
19448.0	4.960317268295685e+17
19449.0	4.754167158887764e+17
19450.0	4.36076803277893e+17
19451.0	4.2147302353141357e+17
19452.0	4.579854684345696e+17
19453.0	4.871793301695152e+17
19454.0	5.029523557624481e+17
19455.0	5.161345275483491e+17
19456.0	5.259187495895042e+17
19457.0	5.32633515091558e+17
19458.0	5.3754572140707904e+17
19459.0	5.426805741715458e+17
19460.0	5.476729005015051e+17
19461.0	5.540260867997685e+17
19462.0	5.583235172007938e+17
19463.0	5.6143508462196045e+17
19464.0	5.6387841476089165e+17
19465.0	5.659021389682005e+17
19466.0	5.6774813988945914e+17
19467.0	5.694560689367721e+17
19468.0	5.7108401575253325e+17
19469.0	5.725773310722047e+17
19470.0	5.7397995505363616e+17
19471.0	5.753315607795029e+17
19472.0	5.766141963490644e+17
19473.0	5.778377557060265e+17
19474.0	5.797087119671301e+17
19475.0	5.821303175686824e+17
19476.0	5.84065492748424e+17
19477.0	5.854491257602045e+17
19478.0	5.865646589302098e+17
19479.0	5.874517373091841e+17
19480.0	5.881636231752365e+17
19481.0	5.888290507631273e+17
19482.0	5.893799463791273e+17
19483.0	5.898528434596521e+17
19484.0	5.902946963991208e+17
19485.0	5.907303435862015e+17
19486.0	5.910655042671956e+17
19487.0	5.914299795679914e+17
19488.0	5.918038245943978e+17
19489.0	5.920938697337514e+17
19490.0	5.922856626727592e+17
19491.0	5.92661722571298e+17
19492.0	5.929643053940735e+17
19493.0	5.932487862299306e+17
19494.0	5.934838995484671e+17
19495.0	5.937111724545363e+17
19496.0	5.939054424096767e+17
19497.0	5.941492401744554e+17
19498.0	5.9434126030493e+17
19499.0	5.942210416257705e+17
19500.0	5.947761031643135e+17
19501.0	5.949742145426772e+17
19502.0	5.951703543884458e+17
19503.0	5.953780997335721e+17
19504.0	5.955547776592554e+17
19505.0	5.957185223087444e+17
19506.0	5.958739481853951e+17
19507.0	5.960198280358569e+17
19508.0	5.961613518918996e+17
19509.0	5.962935258054655e+17
19510.0	5.964033965075114e+17
19511.0	5.960988241166332e+17
19512.0	5.965934068673193e+17
19513.0	5.966291157734738e+17
19514.0	5.967743636821331e+17
19515.0	5.969042744890708e+17
19516.0	5.970233119823188e+17
19517.0	5.970984163082239e+17
19518.0	5.971778079118676e+17
19519.0	5.972477096929961e+17
19520.0	5.973101816840191e+17
19521.0	5.973715732223316e+17
19522.0	5.974230213241513e+17
19523.0	5.974741029137065e+17
19524.0	5.975178445411667e+17
19525.0	5.975557296619519e+17
19526.0	5.975910385713151e+17
19527.0	5.976206641987583e+17
19528.0	5.976457159376895e+17
19529.0	5.976675139452927e+17
19530.0	5.976852531249151e+17
19531.0	5.976986656702463e+17
19532.0	5.97708211556625e+17
19533.0	5.977140239532031e+17
19534.0	5.977160558138708e+17
19535.0	5.977145627115519e+17
19536.0	5.977089222814377e+17
19537.0	5.977054112994644e+17
19538.0	5.976880332494164e+17
19539.0	5.976407791719766e+17
19540.0	5.976649157137748e+17
19541.0	5.976483450672468e+17
19542.0	5.9762680018589e+17
19543.0	5.976030774121812e+17
19544.0	5.975766512697343e+17
19545.0	5.975122740161193e+17
19546.0	5.974866059941206e+17
19547.0	5.977663556550655e+17
19548.0	5.977274564214783e+17
19549.0	5.976791388782591e+17
19550.0	5.976438050826921e+17
19551.0	5.975992593372499e+17
19552.0	5.977773023690752e+17
19553.0	5.979823543418879e+17
19554.0	5.97926709699106e+17
19555.0	5.978725682948778e+17
19556.0	5.978162942967807e+17
19557.0	5.977572519881386e+17
19558.0	5.976974532367699e+17
19559.0	5.977191468062036e+17
19560.0	5.979743944616618e+17
19561.0	5.979072953843712e+17
19562.0	5.97841513947682e+17
19563.0	5.977722976556372e+17
19564.0	5.977020617282899e+17
19565.0	5.976307995246591e+17
19566.0	5.975560933081087e+17
19567.0	5.974852538204159e+17
19568.0	5.974091603378175e+17
19569.0	5.974267223780008e+17
19570.0	5.975907813905748e+17
19571.0	5.97511667519761e+17
19572.0	5.974300444764841e+17
19573.0	5.973504527346346e+17
19574.0	5.972638017694377e+17
19575.0	5.971894241067007e+17
19576.0	5.97107093414434e+17
19577.0	5.970231913960788e+17
19578.0	5.969370966654975e+17
19579.0	5.968537575926442e+17
19580.0	5.967690097928873e+17
19581.0	5.966844916312746e+17
19582.0	5.965998455433897e+17
19583.0	5.965132979677866e+17
19584.0	5.965306833578668e+17
19585.0	5.965944925629098e+17
19586.0	5.965029225179818e+17
19587.0	5.964230238229844e+17
19588.0	5.962974053269504e+17
19589.0	5.962422213585577e+17
19590.0	5.961456103194623e+17
19591.0	5.960613173220692e+17
19592.0	5.959693648964266e+17
19593.0	5.958756672208895e+17
19594.0	5.957659477235027e+17
19595.0	5.95688913039087e+17
19596.0	5.955858659803136e+17
19597.0	5.955035568188074e+17
19598.0	5.953821351433556e+17
19599.0	5.953162128479571e+17
19600.0	5.952223069951315e+17
19601.0	5.951219310788607e+17
19602.0	5.950281745432575e+17
19603.0	5.949021334011904e+17
19604.0	5.948367651733504e+17
19605.0	5.947210402714964e+17
19606.0	5.946483415886506e+17
19607.0	5.945520632976724e+17
19608.0	5.944544336718506e+17
19609.0	5.943538141364221e+17
19610.0	5.942608259973119e+17
19611.0	5.943611645842771e+17
19612.0	5.942705922943657e+17
19613.0	5.941712228712447e+17
19614.0	5.940700519246506e+17
19615.0	5.939743939712339e+17
19616.0	5.938732967045801e+17
19617.0	5.937754758184959e+17
19618.0	5.936310843168083e+17
19619.0	5.935203376343721e+17
19620.0	5.934235816820733e+17
19621.0	5.933769239647571e+17
19622.0	5.932768496189439e+17
19623.0	5.931765364075177e+17
19624.0	5.930752666850643e+17
19625.0	5.929754087653375e+17
19626.0	5.928746085253119e+17
19627.0	5.927735987798015e+17
19628.0	5.926721459060736e+17
19629.0	5.925752251875327e+17
19630.0	5.924682104569855e+17
19631.0	5.921630033281023e+17
19632.0	5.922773990550186e+17
19633.0	5.921734634329427e+17
19634.0	5.920744543704406e+17
19635.0	5.919694576593578e+17
19636.0	5.918705395433471e+17
19637.0	5.917387262001151e+17
19638.0	5.91665345733154e+17
19639.0	5.915624176528041e+17
19640.0	5.91453429502225e+17
19641.0	5.9129166036992e+17
19642.0	5.912550238934358e+17
19643.0	5.911519780929535e+17
19644.0	5.910450399783594e+17
19645.0	5.909250896647507e+17
19646.0	5.908441818901161e+17
19647.0	5.907410856181759e+17
19648.0	5.906378773583187e+17
19649.0	5.905343659201875e+17
19650.0	5.904312281945428e+17
19651.0	5.903277912053076e+17
19652.0	5.902242694212266e+17
19653.0	5.901205337276415e+17
19654.0	5.900170371093844e+17
19655.0	5.899129454591999e+17
19656.0	5.898089804769961e+17
19657.0	5.897057010537812e+17
19658.0	5.896017981472767e+17
19659.0	5.894977045397503e+17
19660.0	5.893938198085631e+17
19661.0	5.892897434675881e+17
19662.0	5.891856075674963e+17
19663.0	5.890779713110015e+17
19664.0	5.889764117621417e+17
