# Flux units: erg / (cm m2 s)
# Wavelength units: Angstrom
wave	flux
19000.0	6.619544727235241e+17
19001.0	6.61747923034658e+17
19002.0	6.617130424336383e+17
19003.0	6.615870980401833e+17
19004.0	6.61466372898816e+17
19005.0	6.613393156866047e+17
19006.0	6.612188034760703e+17
19007.0	6.610978375816532e+17
19008.0	6.609313631393108e+17
19009.0	6.607190638286163e+17
19010.0	6.604135774988966e+17
19011.0	6.605782156749481e+17
19012.0	6.603982636755624e+17
19013.0	6.603609960961364e+17
19014.0	6.601938860769277e+17
19015.0	6.600861831309994e+17
19016.0	6.599703935669588e+17
19017.0	6.598671580441258e+17
19018.0	6.597455443394559e+17
19019.0	6.596258717586771e+17
19020.0	6.594974286785194e+17
19021.0	6.593915471790077e+17
19022.0	6.592665005763242e+17
19023.0	6.591138243455657e+17
19024.0	6.590055196568233e+17
19025.0	6.588945459926355e+17
19026.0	6.587621616648191e+17
19027.0	6.586358498503337e+17
19028.0	6.585335205767849e+17
19029.0	6.583998418168489e+17
19030.0	6.583007545305769e+17
19031.0	6.581823265396051e+17
19032.0	6.580553230843903e+17
19033.0	6.578502300773033e+17
19034.0	6.577849607651328e+17
19035.0	6.575497091743741e+17
19036.0	6.553185195917308e+17
19037.0	6.573525785640959e+17
19038.0	6.572941247163049e+17
19039.0	6.571988341839188e+17
19040.0	6.570845758204585e+17
19041.0	6.569606832106153e+17
19042.0	6.56745109406788e+17
19043.0	6.567215994940074e+17
19044.0	6.565943194244436e+17
19045.0	6.564812072943615e+17
19046.0	6.563125039289684e+17
19047.0	6.561985200827049e+17
19048.0	6.559759889072125e+17
19049.0	6.558843682510162e+17
19050.0	6.558152018711894e+17
19051.0	6.553852150371666e+17
19052.0	6.554905290473472e+17
19053.0	6.55501185585425e+17
19054.0	6.553826474939732e+17
19055.0	6.55043209601571e+17
19056.0	6.551226324527785e+17
19057.0	6.550228222083071e+17
19058.0	6.548739283309907e+17
19059.0	6.547708823207935e+17
19060.0	6.546519598213802e+17
19061.0	6.545438262602409e+17
19062.0	6.544164301482666e+17
19063.0	6.542958223076009e+17
19064.0	6.540898226317996e+17
19065.0	6.539054599722326e+17
19066.0	6.538750815371263e+17
19067.0	6.538054374260736e+17
19068.0	6.536947402364244e+17
19069.0	6.535741298092714e+17
19070.0	6.53431712916002e+17
19071.0	6.533280724331178e+17
19072.0	6.532038762954752e+17
19073.0	6.530866571728211e+17
19074.0	6.529715800113151e+17
19075.0	6.528504586480298e+17
19076.0	6.527183072438953e+17
19077.0	6.525921829147988e+17
19078.0	6.524540591013887e+17
19079.0	6.523641546145791e+17
19080.0	6.522328206103891e+17
19081.0	6.520806079900329e+17
19082.0	6.519785317029204e+17
19083.0	6.517872366277971e+17
19084.0	6.515624630375764e+17
19085.0	6.516248209435306e+17
19086.0	6.51176706397525e+17
19087.0	6.513401121472511e+17
19088.0	6.511834866996563e+17
19089.0	6.50977788664218e+17
19090.0	6.509979740318377e+17
19091.0	6.508888606812842e+17
19092.0	6.507173979531946e+17
19093.0	6.506671713725097e+17
19094.0	6.505492977986217e+17
19095.0	6.504321290775209e+17
19096.0	6.50303169958161e+17
19097.0	6.501877475355305e+17
19098.0	6.500575183809193e+17
19099.0	6.49934187598097e+17
19100.0	6.498188486421161e+17
19101.0	6.496976113063252e+17
19102.0	6.495105926037501e+17
19103.0	6.494605590309546e+17
19104.0	6.493469091211946e+17
19105.0	6.49198313738513e+17
19106.0	6.490957502829908e+17
19107.0	6.489603190030335e+17
19108.0	6.488391642950314e+17
19109.0	6.486290428766889e+17
19110.0	6.485814001270783e+17
19111.0	6.484842794800468e+17
19112.0	6.483690976007508e+17
19113.0	6.482540500789929e+17
19114.0	6.481261614858239e+17
19115.0	6.479735684420947e+17
19116.0	6.478698851773097e+17
19117.0	6.477422935408639e+17
19118.0	6.475053383636308e+17
19119.0	6.436753033745699e+17
19120.0	6.473315935147348e+17
19121.0	6.472661632811007e+17
19122.0	6.471688706676052e+17
19123.0	6.470473265883817e+17
19124.0	6.469095796331859e+17
19125.0	6.467918649535146e+17
19126.0	6.466006098640895e+17
19127.0	6.453500851869011e+17
19128.0	6.463252594687997e+17
19129.0	6.462398704298664e+17
19130.0	6.461925713335635e+17
19131.0	6.460883547630249e+17
19132.0	6.459672705892351e+17
19133.0	6.458061852682921e+17
19134.0	6.457190312662356e+17
19135.0	6.456074741743615e+17
19136.0	6.454847149353641e+17
19137.0	6.452709176989012e+17
19138.0	6.452306818105343e+17
19139.0	6.451310393382227e+17
19140.0	6.450141541520723e+17
19141.0	6.448944675902803e+17
19142.0	6.447506764333055e+17
19143.0	6.446161908989951e+17
19144.0	6.444939038687231e+17
19145.0	6.444108587466751e+17
19146.0	6.437658501491377e+17
19147.0	6.441190198433108e+17
19148.0	6.440430780547072e+17
19149.0	6.439202581381119e+17
19150.0	6.438101501083645e+17
19151.0	6.436891020055891e+17
19152.0	6.435699746843306e+17
19153.0	6.434135098785791e+17
19154.0	6.432532376234665e+17
19155.0	6.432021727412223e+17
19156.0	6.430858950301012e+17
19157.0	6.429433616749907e+17
19158.0	6.427747964420096e+17
19159.0	6.427052832631465e+17
19160.0	6.425945489539071e+17
19161.0	6.424640212347561e+17
19162.0	6.421901921834324e+17
19163.0	6.421918824180393e+17
19164.0	6.421253381772628e+17
19165.0	6.419842844327933e+17
19166.0	6.418058588804435e+17
19167.0	6.41753732280047e+17
19168.0	6.416483204027732e+17
19169.0	6.415299100977834e+17
19170.0	6.41418255208721e+17
19171.0	6.412907531905706e+17
19172.0	6.411741298687997e+17
19173.0	6.410608264784553e+17
19174.0	6.409024949278036e+17
19175.0	6.408178177321642e+17
19176.0	6.407001626815146e+17
19177.0	6.404540459559593e+17
19178.0	6.404559607955455e+17
19179.0	6.403334443368447e+17
19180.0	6.402144473186304e+17
19181.0	6.400166148614825e+17
19182.0	6.399641067192319e+17
19183.0	6.398681252451668e+17
19184.0	6.397462617696937e+17
19185.0	6.396191751973546e+17
19186.0	6.395090596178602e+17
19187.0	6.393282006701396e+17
19188.0	6.392674212205908e+17
19189.0	6.391498854978899e+17
19190.0	6.390294859044182e+17
19191.0	6.3888177496064e+17
19192.0	6.387883083213482e+17
19193.0	6.386579148898303e+17
19194.0	6.385195144620714e+17
19195.0	6.384059487180115e+17
19196.0	6.382560451319123e+17
19197.0	6.381006045751978e+17
19198.0	6.378138680426495e+17
19199.0	6.365849508817576e+17
19200.0	6.366520114413568e+17
19201.0	6.37482322502178e+17
19202.0	6.375134933811199e+17
19203.0	6.374331052807508e+17
19204.0	6.373191329688233e+17
19205.0	6.372126967027028e+17
19206.0	6.370977924164265e+17
19207.0	6.368794091978751e+17
19208.0	6.367291926467923e+17
19209.0	6.367444641076564e+17
19210.0	6.366333146322259e+17
19211.0	6.365251023579817e+17
19212.0	6.363998771478527e+17
19213.0	6.361987241301331e+17
19214.0	6.36085950410479e+17
19215.0	6.360359141113855e+17
19216.0	6.35918743572753e+17
19217.0	6.35755097489408e+17
19218.0	6.351649202591058e+17
19219.0	6.353728213527208e+17
19220.0	6.354091722670079e+17
19221.0	6.351344316536148e+17
19222.0	6.351605706959529e+17
19223.0	6.350682444180138e+17
19224.0	6.34923209859618e+17
19225.0	6.347648911015933e+17
19226.0	6.347109042574675e+17
19227.0	6.345987617805652e+17
19228.0	6.345014541374804e+17
19229.0	6.343818536288255e+17
19230.0	6.342601436648788e+17
19231.0	6.341347433425577e+17
19232.0	6.340193127410346e+17
19233.0	6.33847811425348e+17
19234.0	6.33772883120401e+17
19235.0	6.336363045584895e+17
19236.0	6.335480557731839e+17
19237.0	6.334170376699903e+17
19238.0	6.332373462067881e+17
19239.0	6.331929751541076e+17
19240.0	6.330700296880127e+17
19241.0	6.329357689683968e+17
19242.0	6.328218864145748e+17
19243.0	6.325712901024424e+17
19244.0	6.325976165602644e+17
19245.0	6.324726047703039e+17
19246.0	6.323485234866857e+17
19247.0	6.32226866860305e+17
19248.0	6.321190587771561e+17
19249.0	6.319979918699176e+17
19250.0	6.318597371243177e+17
19251.0	6.316738970211663e+17
19252.0	6.31380103921664e+17
19253.0	6.315013200063146e+17
19254.0	6.314013741460137e+17
19255.0	6.311107736808102e+17
19256.0	6.31146718236945e+17
19257.0	6.310412156928e+17
19258.0	6.309232705361236e+17
19259.0	6.307336451435177e+17
19260.0	6.306193644803411e+17
19261.0	6.305483170250751e+17
19262.0	6.303836260706985e+17
19263.0	6.302270744428543e+17
19264.0	6.298074216748369e+17
19265.0	6.299116325830653e+17
19266.0	6.297874286859607e+17
19267.0	6.298384546310825e+17
19268.0	6.297141959983104e+17
19269.0	6.295890074883412e+17
19270.0	6.294443018332841e+17
19271.0	6.291172208498007e+17
19272.0	6.291937445281791e+17
19273.0	6.288389586987689e+17
19274.0	6.286045294712141e+17
19275.0	6.288706512792234e+17
19276.0	6.287374856224765e+17
19277.0	6.286202959298559e+17
19278.0	6.2850158573213e+17
19279.0	6.283571059403434e+17
19280.0	6.282028695683071e+17
19281.0	6.281277432922111e+17
19282.0	6.280202468458495e+17
19283.0	6.278897449216682e+17
19284.0	6.277345601475924e+17
19285.0	6.275623288831999e+17
19286.0	6.274867378782207e+17
19287.0	6.273876359817897e+17
19288.0	6.265053866448207e+17
19289.0	6.257285201745221e+17
19290.0	6.270204242471593e+17
19291.0	6.267066541670408e+17
19292.0	6.268099088438612e+17
19293.0	6.266895675512148e+17
19294.0	6.265609406207316e+17
19295.0	6.26449672376593e+17
19296.0	6.2631154024448e+17
19297.0	6.26179093701154e+17
19298.0	6.260550758913364e+17
19299.0	6.259456685899775e+17
19300.0	6.258316842543785e+17
19301.0	6.257098114815316e+17
19302.0	6.255731105857533e+17
19303.0	6.254017922116265e+17
19304.0	6.253189909184512e+17
19305.0	6.25197803774498e+17
19306.0	6.250785401383593e+17
19307.0	6.249174767676074e+17
19308.0	6.24799548318242e+17
19309.0	6.246498639544319e+17
19310.0	6.244929647585962e+17
19311.0	6.244072243767978e+17
19312.0	6.243098200550057e+17
19313.0	6.241830458884096e+17
19314.0	6.21249236705825e+17
19315.0	6.21353166665595e+17
19316.0	6.237844620880553e+17
19317.0	6.236852432404479e+17
19318.0	6.235636664456532e+17
19319.0	6.234527736616276e+17
19320.0	6.233226152509437e+17
19321.0	6.231849108679337e+17
19322.0	6.230255893916329e+17
19323.0	6.229168621267625e+17
19324.0	6.228012612364969e+17
19325.0	6.226624678723583e+17
19326.0	6.225430977708031e+17
19327.0	6.224103841202175e+17
19328.0	6.222729158765226e+17
19329.0	6.221640439081641e+17
19330.0	6.220119481690793e+17
19331.0	6.218608264871933e+17
19332.0	6.217716720817491e+17
19333.0	6.216287888517802e+17
19334.0	6.215077212454911e+17
19335.0	6.213383138661716e+17
19336.0	6.212406714477225e+17
19337.0	6.211064036676948e+17
19338.0	6.207980509506214e+17
19339.0	6.208324817125373e+17
19340.0	6.20595564843281e+17
19341.0	6.204685173478739e+17
19342.0	6.201653923414013e+17
19343.0	6.20247184904465e+17
19344.0	6.20053535916032e+17
19345.0	6.186474031895881e+17
19346.0	6.190039548209829e+17
19347.0	6.196229323795114e+17
19348.0	6.195709548866217e+17
19349.0	6.193954838719145e+17
19350.0	6.192549385469951e+17
19351.0	6.191085824333139e+17
19352.0	6.189216276938751e+17
19353.0	6.188538866783571e+17
19354.0	6.187119897389737e+17
19355.0	6.18480348535194e+17
19356.0	6.184055329871188e+17
19357.0	6.18242298155281e+17
19358.0	6.180882732460714e+17
19359.0	6.179129324645033e+17
19360.0	6.177403899128489e+17
19361.0	6.176170989759146e+17
19362.0	6.174705392287743e+17
19363.0	6.173015837857107e+17
19364.0	6.171458647971156e+17
19365.0	6.169839782942038e+17
19366.0	6.1682957694621e+17
19367.0	6.166563722537642e+17
19368.0	6.164854978467156e+17
19369.0	6.162862749777919e+17
19370.0	6.161187971880276e+17
19371.0	6.159330963357695e+17
19372.0	6.15812418310417e+17
19373.0	6.156234319200253e+17
19374.0	6.154624974542164e+17
19375.0	6.152913490193066e+17
19376.0	6.151144485158911e+17
19377.0	6.149274515537919e+17
19378.0	6.147468202868735e+17
19379.0	6.145627036931412e+17
19380.0	6.143540481840467e+17
19381.0	6.141558127940948e+17
19382.0	6.138929974957398e+17
19383.0	6.136965490191016e+17
19384.0	6.135542062252031e+17
19385.0	6.133603817051476e+17
19386.0	6.131545505704618e+17
19387.0	6.129146465878015e+17
19388.0	6.126882658101929e+17
19389.0	6.124657960113492e+17
19390.0	6.122037940584447e+17
19391.0	6.10098048139262e+17
19392.0	6.115554115627688e+17
19393.0	6.114876799145299e+17
19394.0	6.112524988579837e+17
19395.0	6.109989150829225e+17
19396.0	6.107520296113492e+17
19397.0	6.104302917517311e+17
19398.0	6.10121181822976e+17
19399.0	6.094085240651775e+17
19400.0	6.094432653453993e+17
19401.0	6.092053114344788e+17
19402.0	6.089210784120831e+17
19403.0	6.085905043423231e+17
19404.0	6.081782060766548e+17
19405.0	6.078176281930409e+17
19406.0	6.074764601502378e+17
19407.0	6.070035465721175e+17
19408.0	6.061489431511045e+17
19409.0	6.061905927995391e+17
19410.0	6.057394191379114e+17
19411.0	6.053365869270355e+17
19412.0	6.04877951668497e+17
19413.0	6.044217600813737e+17
19414.0	6.039540725361321e+17
19415.0	6.034411919245312e+17
19416.0	6.028307433433768e+17
19417.0	6.024243107419476e+17
19418.0	6.018837675769856e+17
19419.0	6.012493267380905e+17
19420.0	6.006425259431252e+17
19421.0	5.999998358170282e+17
19422.0	5.991819403154772e+17
19423.0	5.984850253185023e+17
19424.0	5.977238544231082e+17
19425.0	5.968280165198505e+17
19426.0	5.960031724546729e+17
19427.0	5.950068246271316e+17
19428.0	5.939690227455316e+17
19429.0	5.92934811607586e+17
19430.0	5.915747570854574e+17
19431.0	5.900823273231703e+17
19432.0	5.891376117972991e+17
19433.0	5.876103447052289e+17
19434.0	5.859508623856982e+17
19435.0	5.842334183500456e+17
19436.0	5.823580113032532e+17
19437.0	5.803657721282559e+17
19438.0	5.751403600063151e+17
19439.0	5.753609738256384e+17
19440.0	5.72844455179059e+17
19441.0	5.697505884897279e+17
19442.0	5.6622629148863155e+17
19443.0	5.62169692500787e+17
19444.0	5.574087260067154e+17
19445.0	5.5179398055198746e+17
19446.0	5.450296073388031e+17
19447.0	5.366698989322235e+17
19448.0	5.2579286014143194e+17
19449.0	5.1048838500188154e+17
19450.0	4.846895517488457e+17
19451.0	4.663248824915307e+17
19452.0	4.9982608073468595e+17
19453.0	5.187897277808645e+17
19454.0	5.312385336912549e+17
19455.0	5.404455835708075e+17
19456.0	5.476817887210157e+17
19457.0	5.5358330167623635e+17
19458.0	5.519585854532368e+17
19459.0	5.6237334015071706e+17
19460.0	5.6626622930179386e+17
19461.0	5.6938766130653856e+17
19462.0	5.7217877719121926e+17
19463.0	5.746274268960083e+17
19464.0	5.767369476188842e+17
19465.0	5.786595238084605e+17
19466.0	5.803444752001705e+17
19467.0	5.818436504518655e+17
19468.0	5.832473811703123e+17
19469.0	5.844986162926931e+17
19470.0	5.857873473743529e+17
19471.0	5.868418196570112e+17
19472.0	5.879031345971197e+17
19473.0	5.887675322073087e+17
19474.0	5.8953856712704e+17
19475.0	5.898503664435196e+17
19476.0	5.909909800834386e+17
19477.0	5.916901111409322e+17
19478.0	5.923278250049536e+17
19479.0	5.9282095617693e+17
19480.0	5.933462400445097e+17
19481.0	5.938379537514495e+17
19482.0	5.942491246581076e+17
19483.0	5.946536784210602e+17
19484.0	5.950243201176915e+17
19485.0	5.952960448167935e+17
19486.0	5.955663942036137e+17
19487.0	5.958903304377682e+17
19488.0	5.961391127833258e+17
19489.0	5.961344807337983e+17
19490.0	5.957307540176891e+17
19491.0	5.967461099416234e+17
19492.0	5.970538863613267e+17
19493.0	5.972912751596884e+17
19494.0	5.974302954356736e+17
19495.0	5.976204230961834e+17
19496.0	5.975019388316326e+17
19497.0	5.978367510358698e+17
19498.0	5.974893955558056e+17
19499.0	5.951888040831652e+17
19500.0	5.982292204497578e+17
19501.0	5.983816802544297e+17
19502.0	5.985105858964137e+17
19503.0	5.985741907689471e+17
19504.0	5.986235083740502e+17
19505.0	5.986897661438633e+17
19506.0	5.987647090589696e+17
19507.0	5.987724057466198e+17
19508.0	5.988085132514643e+17
19509.0	5.98798018683426e+17
19510.0	5.986633379042643e+17
19511.0	5.939935950755123e+17
19512.0	5.981438942554789e+17
19513.0	5.977052989620214e+17
19514.0	5.980282524008442e+17
19515.0	5.985579918775639e+17
19516.0	5.988368886966953e+17
19517.0	5.988101670655316e+17
19518.0	5.988356104126463e+17
19519.0	5.988084546710186e+17
19520.0	5.98753614635554e+17
19521.0	5.987599578213033e+17
19522.0	5.986970488537087e+17
19523.0	5.98705277239296e+17
19524.0	5.986563116761087e+17
19525.0	5.986168518737919e+17
19526.0	5.985808360144895e+17
19527.0	5.985210838898004e+17
19528.0	5.984713964169897e+17
19529.0	5.984147682099199e+17
19530.0	5.983691032144553e+17
19531.0	5.983175718557012e+17
19532.0	5.98257267970321e+17
19533.0	5.982066701238272e+17
19534.0	5.98145916609058e+17
19535.0	5.980756846662995e+17
19536.0	5.980016055681023e+17
19537.0	5.979555228199593e+17
19538.0	5.977353304582828e+17
19539.0	5.974743783396696e+17
19540.0	5.97738825921331e+17
19541.0	5.977092221042687e+17
19542.0	5.976339487479124e+17
19543.0	5.975422976830121e+17
19544.0	5.974656395771901e+17
19545.0	5.969795451191293e+17
19546.0	5.967357415522303e+17
19547.0	5.972632251924479e+17
19548.0	5.972052426446164e+17
19549.0	5.970432021408425e+17
19550.0	5.970540625919999e+17
19551.0	5.96976029733137e+17
19552.0	5.968949207717204e+17
19553.0	5.967947471607124e+17
19554.0	5.967168627802112e+17
19555.0	5.966488786348714e+17
19556.0	5.965764369230505e+17
19557.0	5.964915878308521e+17
19558.0	5.964038230682282e+17
19559.0	5.963177418293247e+17
19560.0	5.962037060435967e+17
19561.0	5.961190928809983e+17
19562.0	5.960425760533162e+17
19563.0	5.959667332502867e+17
19564.0	5.958858077896703e+17
19565.0	5.957949112800595e+17
19566.0	5.956831805439999e+17
19567.0	5.956117528750761e+17
19568.0	5.954982262778538e+17
19569.0	5.954111725895679e+17
19570.0	5.953352566658388e+17
19571.0	5.952422296595113e+17
19572.0	5.951164454185642e+17
19573.0	5.950449757366954e+17
19574.0	5.948769729598802e+17
19575.0	5.948638236071252e+17
19576.0	5.947673843946836e+17
19577.0	5.946542988285267e+17
19578.0	5.945567725922985e+17
19579.0	5.944670425186301e+17
19580.0	5.943726945861631e+17
19581.0	5.942903728417449e+17
19582.0	5.94204684329506e+17
19583.0	5.941071292224852e+17
19584.0	5.940113521508351e+17
19585.0	5.938188647049896e+17
19586.0	5.936984756671832e+17
19587.0	5.936961997679274e+17
19588.0	5.933043151798273e+17
19589.0	5.934812686712831e+17
19590.0	5.933428397222569e+17
19591.0	5.933206250804564e+17
19592.0	5.932282348393812e+17
19593.0	5.931120221399721e+17
19594.0	5.928144397664251e+17
19595.0	5.929082885767167e+17
19596.0	5.927925919864148e+17
19597.0	5.92714885304593e+17
19598.0	5.923214402256892e+17
19599.0	5.925199982974292e+17
19600.0	5.924309495884457e+17
19601.0	5.922769062242988e+17
19602.0	5.921491101854377e+17
19603.0	5.918527834466984e+17
19604.0	5.919649556332544e+17
19605.0	5.916890833966424e+17
19606.0	5.918177368910506e+17
19607.0	5.917223106030249e+17
19608.0	5.916150933574995e+17
19609.0	5.914855712227327e+17
19610.0	5.91416334029073e+17
19611.0	5.913055596642303e+17
19612.0	5.912245967344979e+17
19613.0	5.911127339477674e+17
19614.0	5.909837499422035e+17
19615.0	5.909112061689855e+17
19616.0	5.907839985210707e+17
19617.0	5.906708502500692e+17
19618.0	5.901264455292241e+17
19619.0	5.899082103696038e+17
19620.0	5.8992049024314e+17
19621.0	5.902480718867114e+17
19622.0	5.901889205261652e+17
19623.0	5.900918599974911e+17
19624.0	5.899794785151658e+17
19625.0	5.898872894608724e+17
19626.0	5.897710834024447e+17
19627.0	5.896671047887529e+17
19628.0	5.895185247851862e+17
19629.0	5.892973443153917e+17
19630.0	5.889065392712361e+17
19631.0	5.879416702544554e+17
19632.0	5.890362551129427e+17
19633.0	5.889905156685823e+17
19634.0	5.889468856795135e+17
19635.0	5.888170430999209e+17
19636.0	5.887273102300499e+17
19637.0	5.883191036477444e+17
19638.0	5.885344482328576e+17
19639.0	5.884318610096127e+17
19640.0	5.882142907170817e+17
19641.0	5.87545015973753e+17
19642.0	5.881150175532372e+17
19643.0	5.880093987569663e+17
19644.0	5.878506779749033e+17
19645.0	5.876374767490386e+17
19646.0	5.876948664319999e+17
19647.0	5.876159987668308e+17
19648.0	5.875109607418538e+17
19649.0	5.874076282606931e+17
19650.0	5.873091369151145e+17
19651.0	5.872001757478911e+17
19652.0	5.870939394801664e+17
19653.0	5.869968034540201e+17
19654.0	5.868851912070484e+17
19655.0	5.86775111279138e+17
19656.0	5.866806614949887e+17
19657.0	5.865741082077865e+17
19658.0	5.864754044906154e+17
19659.0	5.863701424898048e+17
19660.0	5.862705610446164e+17
19661.0	5.861623029825535e+17
19662.0	5.860593022708393e+17
19663.0	5.859246635046228e+17
19664.0	5.858401017921535e+17
19665.0	5.85748303716898e+17
