# Flux units: erg / (cm m2 s)
# Wavelength units: Angstrom
wave	flux
19000.0	6.708116970274815e+17
19001.0	6.706791264725674e+17
19002.0	6.705627428552703e+17
19003.0	6.704372680840531e+17
19004.0	6.70311981846801e+17
19005.0	6.701889693417472e+17
19006.0	6.70064332382754e+17
19007.0	6.699257166473898e+17
19008.0	6.698100431956649e+17
19009.0	6.696837923383978e+17
19010.0	6.695271448008019e+17
19011.0	6.694357230944255e+17
19012.0	6.692478747585193e+17
19013.0	6.691903926610601e+17
19014.0	6.690611274973183e+17
19015.0	6.689380021654867e+17
19016.0	6.688121311024468e+17
19017.0	6.68691361501457e+17
19018.0	6.685626267074559e+17
19019.0	6.684412861917865e+17
19020.0	6.683150293925887e+17
19021.0	6.681919032218966e+17
19022.0	6.680674682885459e+17
19023.0	6.679391209084243e+17
19024.0	6.678156382917972e+17
19025.0	6.676959000701609e+17
19026.0	6.675691216393555e+17
19027.0	6.673911328538623e+17
19028.0	6.673277158861481e+17
19029.0	6.672019475835561e+17
19030.0	6.670788661521065e+17
19031.0	6.669539459377833e+17
19032.0	6.668285844127743e+17
19033.0	6.666962746037588e+17
19034.0	6.665767179954858e+17
19035.0	6.664425482922665e+17
19036.0	6.622648080181923e+17
19037.0	6.661969141912916e+17
19038.0	6.660760811165012e+17
19039.0	6.659538490316116e+17
19040.0	6.658291199377407e+17
19041.0	6.657042073430697e+17
19042.0	6.655674772968787e+17
19043.0	6.654545507647487e+17
19044.0	6.653283016551082e+17
19045.0	6.652022643578195e+17
19046.0	6.650754312612521e+17
19047.0	6.649534442635263e+17
19048.0	6.6481207391901e+17
19049.0	6.646903493449043e+17
19050.0	6.645749383867049e+17
19051.0	6.63822478291762e+17
19052.0	6.642248624111615e+17
19053.0	6.642005604040701e+17
19054.0	6.640795826257919e+17
19055.0	6.639328508422826e+17
19056.0	6.638270209327101e+17
19057.0	6.637039530628436e+17
19058.0	6.635711739112104e+17
19059.0	6.634533498301097e+17
19060.0	6.633282406623914e+17
19061.0	6.632052461928447e+17
19062.0	6.630799103229951e+17
19063.0	6.629551362801661e+17
19064.0	6.628202174043476e+17
19065.0	6.626911386774186e+17
19066.0	6.625741147996159e+17
19067.0	6.624555453906943e+17
19068.0	6.623307086430207e+17
19069.0	6.622058762993663e+17
19070.0	6.620789854612137e+17
19071.0	6.619541105453738e+17
19072.0	6.618289441254057e+17
19073.0	6.617059344165546e+17
19074.0	6.615815013007359e+17
19075.0	6.614566334453075e+17
19076.0	6.613300599761577e+17
19077.0	6.612058067260755e+17
19078.0	6.610798751252479e+17
19079.0	6.609570759005526e+17
19080.0	6.608310262999721e+17
19081.0	6.607040459833343e+17
19082.0	6.60578999730176e+17
19083.0	6.604489944115882e+17
19084.0	6.603140135998804e+17
19085.0	6.602076271760724e+17
19086.0	6.600451622087338e+17
19087.0	6.598392060837887e+17
19088.0	6.598157534931626e+17
19089.0	6.596323011373737e+17
19090.0	6.595784280287914e+17
19091.0	6.594554230734847e+17
19092.0	6.592992973073066e+17
19093.0	6.592093882766675e+17
19094.0	6.590851019614889e+17
19095.0	6.589604327063551e+17
19096.0	6.588345215178068e+17
19097.0	6.587111857717247e+17
19098.0	6.585848202701482e+17
19099.0	6.584598242088276e+17
19100.0	6.583306194430634e+17
19101.0	6.582103552557055e+17
19102.0	6.580797995046227e+17
19103.0	6.579635050162857e+17
19104.0	6.578387814449151e+17
19105.0	6.577093883549012e+17
19106.0	6.575671823652179e+17
19107.0	6.574615049885012e+17
19108.0	6.573365916947795e+17
19109.0	6.56879037028761e+17
19110.0	6.570775572119551e+17
19111.0	6.569632221626368e+17
19112.0	6.568402337049257e+17
19113.0	6.567175047348223e+17
19114.0	6.565919729210708e+17
19115.0	6.564555552806227e+17
19116.0	6.563420648942249e+17
19117.0	6.562170508673021e+17
19118.0	6.56068464152849e+17
19119.0	6.556135828662949e+17
19120.0	6.558095877253801e+17
19121.0	6.556959416603988e+17
19122.0	6.555970324223316e+17
19123.0	6.554725687579988e+17
19124.0	6.553268013847892e+17
19125.0	6.552212204770644e+17
19126.0	6.550981835052372e+17
19127.0	6.548330243599017e+17
19128.0	6.547627259374249e+17
19129.0	6.547192169540265e+17
19130.0	6.546000117585235e+17
19131.0	6.544742273078612e+17
19132.0	6.543524456912212e+17
19133.0	6.54207229100032e+17
19134.0	6.540639318922582e+17
19135.0	6.539778600905385e+17
19136.0	6.538552493998079e+17
19137.0	6.537176484762963e+17
19138.0	6.536029474040489e+17
19139.0	6.534819830475433e+17
19140.0	6.533579328716799e+17
19141.0	6.532336253752659e+17
19142.0	6.531060370243583e+17
19143.0	6.529804643161427e+17
19144.0	6.528576355216042e+17
19145.0	6.527357267476479e+17
19146.0	6.525618390127958e+17
19147.0	6.524797784337066e+17
19148.0	6.523597629685759e+17
19149.0	6.522358282758825e+17
19150.0	6.521140224021844e+17
19151.0	6.519903762776063e+17
19152.0	6.518616342134783e+17
19153.0	6.517372584198143e+17
19154.0	6.516066552730963e+17
19155.0	6.514915591673172e+17
19156.0	6.513674639725908e+17
19157.0	6.512328162585258e+17
19158.0	6.508967196884988e+17
19159.0	6.509895802508628e+17
19160.0	6.508646994629972e+17
19161.0	6.507363831906303e+17
19162.0	6.501042496383663e+17
19163.0	6.504789349935785e+17
19164.0	6.503730562203647e+17
19165.0	6.502365091157332e+17
19166.0	6.501034444718077e+17
19167.0	6.499518990254079e+17
19168.0	6.498740409991165e+17
19169.0	6.497428680562003e+17
19170.0	6.496280751286953e+17
19171.0	6.494738207211519e+17
19172.0	6.493764165391702e+17
19173.0	6.492545009145172e+17
19174.0	6.491279505839444e+17
19175.0	6.490084094945962e+17
19176.0	6.488840720089087e+17
19177.0	6.487470597559635e+17
19178.0	6.486209312325631e+17
19179.0	6.48467674440226e+17
19180.0	6.483807996390057e+17
19181.0	6.482528079358633e+17
19182.0	6.481357470782803e+17
19183.0	6.480135544897535e+17
19184.0	6.478873934604969e+17
19185.0	6.477652354050729e+17
19186.0	6.476412249352874e+17
19187.0	6.475099702034431e+17
19188.0	6.473908958003199e+17
19189.0	6.472643414851581e+17
19190.0	6.471376347070463e+17
19191.0	6.470106353762303e+17
19192.0	6.468943321497599e+17
19193.0	6.467669447060138e+17
19194.0	6.466420898529279e+17
19195.0	6.465190463100244e+17
19196.0	6.463919616950272e+17
19197.0	6.462619362437801e+17
19198.0	6.461131312158035e+17
19199.0	6.429879135021729e+17
19200.0	6.437697573530292e+17
19201.0	6.457439633975978e+17
19202.0	6.456413079470079e+17
19203.0	6.455139396572499e+17
19204.0	6.453962717440682e+17
19205.0	6.452753789703508e+17
19206.0	6.451513091511636e+17
19207.0	6.450201610245459e+17
19208.0	6.448865946020522e+17
19209.0	6.447785062694911e+17
19210.0	6.446543287965012e+17
19211.0	6.445304321321642e+17
19212.0	6.444054836062889e+17
19213.0	6.44247878439185e+17
19214.0	6.441092406138195e+17
19215.0	6.440187433320447e+17
19216.0	6.439067387079338e+17
19217.0	6.437822304441684e+17
19218.0	6.435901134951763e+17
19219.0	6.43519880503842e+17
19220.0	6.434045253997908e+17
19221.0	6.432564240362154e+17
19222.0	6.431576512528383e+17
19223.0	6.430314698812074e+17
19224.0	6.429044025327615e+17
19225.0	6.427716584035667e+17
19226.0	6.426563289546751e+17
19227.0	6.425310316724223e+17
19228.0	6.424081503092735e+17
19229.0	6.422829066442067e+17
19230.0	6.421542914577748e+17
19231.0	6.420290782713171e+17
19232.0	6.419058711505578e+17
19233.0	6.417753307785897e+17
19234.0	6.416544287074985e+17
19235.0	6.415291013660671e+17
19236.0	6.414053752700927e+17
19237.0	6.412785267245056e+17
19238.0	6.411420805627904e+17
19239.0	6.410286592425983e+17
19240.0	6.409002227335168e+17
19241.0	6.407745852932095e+17
19242.0	6.406500356456447e+17
19243.0	6.405120726138879e+17
19244.0	6.403997237772287e+17
19245.0	6.402732337048233e+17
19246.0	6.401461463635284e+17
19247.0	6.400214545989631e+17
19248.0	6.398944283546963e+17
19249.0	6.397209317386921e+17
19250.0	6.39454295289583e+17
19251.0	6.393197501262504e+17
19252.0	6.391807610978303e+17
19253.0	6.390747982288211e+17
19254.0	6.389495610649257e+17
19255.0	6.388081420664832e+17
19256.0	6.38690978238737e+17
19257.0	6.385688197638826e+17
19258.0	6.384418141416105e+17
19259.0	6.383086721826815e+17
19260.0	6.381112063776083e+17
19261.0	6.380585524832937e+17
19262.0	6.379273575901866e+17
19263.0	6.377995307930964e+17
19264.0	6.376333345030141e+17
19265.0	6.375329543924394e+17
19266.0	6.374046805524479e+17
19267.0	6.372926625764691e+17
19268.0	6.371644021582505e+17
19269.0	6.370360008114176e+17
19270.0	6.369072433681748e+17
19271.0	6.367518506265257e+17
19272.0	6.366469946343423e+17
19273.0	6.364264821773651e+17
19274.0	6.363244047018665e+17
19275.0	6.362626466512895e+17
19276.0	6.361317467575638e+17
19277.0	6.360025891078144e+17
19278.0	6.35873113739537e+17
19279.0	6.357389610931539e+17
19280.0	6.35607053378082e+17
19281.0	6.354822041174015e+17
19282.0	6.353521222527657e+17
19283.0	6.351778119417855e+17
19284.0	6.350597125745321e+17
19285.0	6.349453689967956e+17
19286.0	6.348264114050388e+17
19287.0	6.346967296770047e+17
19288.0	6.334514803157663e+17
19289.0	6.317968824030505e+17
19290.0	6.343011457127764e+17
19291.0	6.341499530073428e+17
19292.0	6.340388284181162e+17
19293.0	6.339057121842516e+17
19294.0	6.337726043389951e+17
19295.0	6.33640431194385e+17
19296.0	6.335049723019264e+17
19297.0	6.332824717448531e+17
19298.0	6.330036690179412e+17
19299.0	6.328687143507284e+17
19300.0	6.327354850104659e+17
19301.0	6.32599915668002e+17
19302.0	6.324633912126121e+17
19303.0	6.323212325486591e+17
19304.0	6.321889621661012e+17
19305.0	6.320533074695508e+17
19306.0	6.3191460099741e+17
19307.0	6.317724126238036e+17
19308.0	6.316358606957225e+17
19309.0	6.31393047753523e+17
19310.0	6.31218398123349e+17
19311.0	6.312093435996841e+17
19312.0	6.310848890929151e+17
19313.0	6.309449071329279e+17
19314.0	6.272785024985784e+17
19315.0	6.273746802660736e+17
19316.0	6.30508487564766e+17
19317.0	6.303809152221183e+17
19318.0	6.302390612743508e+17
19319.0	6.300817985721684e+17
19320.0	6.296581879889919e+17
19321.0	6.295121558153897e+17
19322.0	6.293547340092756e+17
19323.0	6.291746978441898e+17
19324.0	6.290693920129023e+17
19325.0	6.28826809967138e+17
19326.0	6.287755028638378e+17
19327.0	6.286287736668159e+17
19328.0	6.284772928826025e+17
19329.0	6.283308489681578e+17
19330.0	6.281766940355242e+17
19331.0	6.280243730623146e+17
19332.0	6.278739300188159e+17
19333.0	6.275496609666388e+17
19334.0	6.272005782022825e+17
19335.0	6.270362177590611e+17
19336.0	6.268829122428927e+17
19337.0	6.267249767743487e+17
19338.0	6.265482315999914e+17
19339.0	6.264022344488276e+17
19340.0	6.262336116839764e+17
19341.0	6.260719703381332e+17
19342.0	6.258430521464145e+17
19343.0	6.253017808502783e+17
19344.0	6.251282251644927e+17
19345.0	6.248038815236091e+17
19346.0	6.247194096391507e+17
19347.0	6.246018683939497e+17
19348.0	6.244345942376447e+17
19349.0	6.242396246026924e+17
19350.0	6.235445303530836e+17
19351.0	6.233606617825279e+17
19352.0	6.231650988632745e+17
19353.0	6.229844215289172e+17
19354.0	6.227923820347391e+17
19355.0	6.22434591405943e+17
19356.0	6.220899514580991e+17
19357.0	6.218877632861524e+17
19358.0	6.216809543892991e+17
19359.0	6.214691502161919e+17
19360.0	6.212595618938877e+17
19361.0	6.210493913322836e+17
19362.0	6.208376086899369e+17
19363.0	6.206191631859712e+17
19364.0	6.203976393424895e+17
19365.0	6.201731088820905e+17
19366.0	6.199453060257108e+17
19367.0	6.197148681677482e+17
19368.0	6.194816163512319e+17
19369.0	6.19238646751778e+17
19370.0	6.189932138375849e+17
19371.0	6.187557557633023e+17
19372.0	6.185115387778388e+17
19373.0	6.182572230967296e+17
19374.0	6.180029175518548e+17
19375.0	6.177420087044778e+17
19376.0	6.174771393156436e+17
19377.0	6.172072081009321e+17
19378.0	6.169330758713341e+17
19379.0	6.166538556713641e+17
19380.0	6.163695823836502e+17
19381.0	6.160801245167613e+17
19382.0	6.157793811060052e+17
19383.0	6.154762890947241e+17
19384.0	6.151793606131711e+17
19385.0	6.148709156913151e+17
19386.0	6.14556910101026e+17
19387.0	6.142362980625066e+17
19388.0	6.139092572744361e+17
19389.0	6.135754567363241e+17
19390.0	6.132327177169578e+17
19391.0	6.095357582071076e+17
19392.0	6.124814690069158e+17
19393.0	6.121740627345405e+17
19394.0	6.11805036613905e+17
19395.0	6.114231562098006e+17
19396.0	6.110405833261055e+17
19397.0	6.106582180604586e+17
19398.0	6.10234249842961e+17
19399.0	6.097623883360937e+17
19400.0	6.093912541582676e+17
19401.0	6.089717253319337e+17
19402.0	6.085426553028607e+17
19403.0	6.081063197605887e+17
19404.0	6.076679322249898e+17
19405.0	6.072228270921044e+17
19406.0	6.06775466402338e+17
19407.0	6.063221922332671e+17
19408.0	6.058103326550698e+17
19409.0	6.053425282285567e+17
19410.0	6.048400104838484e+17
19411.0	6.043405984115369e+17
19412.0	6.038318375152298e+17
19413.0	6.033123199767892e+17
19414.0	6.027077843156991e+17
19415.0	6.02136467612194e+17
19416.0	6.015544330638675e+17
19417.0	6.008803622737236e+17
19418.0	6.002665534259199e+17
19419.0	5.995948261332307e+17
19420.0	5.988133490043562e+17
19421.0	5.979706309825876e+17
19422.0	5.970724927133016e+17
19423.0	5.960059380389207e+17
19424.0	5.947185478063443e+17
19425.0	5.931749278919337e+17
19426.0	5.913077130199045e+17
19427.0	5.886742537524562e+17
19428.0	5.862488386742954e+17
19429.0	5.847536648585215e+17
19430.0	5.832097783960919e+17
19431.0	5.811480329628338e+17
19432.0	5.80151833473843e+17
19433.0	5.7847055908864e+17
19434.0	5.766736240443391e+17
19435.0	5.746982343671806e+17
19436.0	5.725182818429608e+17
19437.0	5.7061804165038086e+17
19438.0	5.634183721735522e+17
19439.0	5.649984370245634e+17
19440.0	5.611874564090537e+17
19441.0	5.553861860611407e+17
19442.0	5.492642194391042e+17
19443.0	5.445904790891179e+17
19444.0	5.39351951378568e+17
19445.0	5.3320212814670554e+17
19446.0	5.2481108752028954e+17
19447.0	5.1263501217300435e+17
19448.0	4.9853770393190483e+17
19449.0	4.7777567921056435e+17
19450.0	4.3838967049967e+17
19451.0	4.239117177760387e+17
19452.0	4.602661990389089e+17
19453.0	4.896216886280201e+17
19454.0	5.054757406244851e+17
19455.0	5.1867254836428666e+17
19456.0	5.286149595594755e+17
19457.0	5.354070127323814e+17
19458.0	5.343911701293837e+17
19459.0	5.45320058556691e+17
19460.0	5.503274988513969e+17
19461.0	5.5677378073285926e+17
19462.0	5.6117103060582336e+17
19463.0	5.644110718653785e+17
19464.0	5.668572052673876e+17
19465.0	5.689181205779797e+17
19466.0	5.707643759536809e+17
19467.0	5.724798761391443e+17
19468.0	5.7412939992268794e+17
19469.0	5.756257588390569e+17
19470.0	5.770362363751082e+17
19471.0	5.783767363529386e+17
19472.0	5.796730255005011e+17
19473.0	5.809004758433791e+17
19474.0	5.825371130473135e+17
19475.0	5.849705644818435e+17
19476.0	5.870383603384316e+17
19477.0	5.884908757057536e+17
19478.0	5.896253846061059e+17
19479.0	5.905271447268009e+17
19480.0	5.912824703702356e+17
19481.0	5.9199540690944e+17
19482.0	5.924922559823871e+17
19483.0	5.930540385435647e+17
19484.0	5.934235735031808e+17
19485.0	5.939249385133396e+17
19486.0	5.942635091634857e+17
19487.0	5.945898651615231e+17
19488.0	5.949801574520148e+17
19489.0	5.952921244707498e+17
19490.0	5.954835724282538e+17
19491.0	5.958589934643882e+17
19492.0	5.961298307885738e+17
19493.0	5.964228924014591e+17
19494.0	5.966804966965247e+17
19495.0	5.969064392392703e+17
19496.0	5.970985879251625e+17
19497.0	5.973406161829887e+17
19498.0	5.971871817618775e+17
19499.0	5.92521570602186e+17
19500.0	5.979626028750164e+17
19501.0	5.981622567086762e+17
19502.0	5.983510333838676e+17
19503.0	5.98539936796945e+17
19504.0	5.987277389955071e+17
19505.0	5.98906688905762e+17
19506.0	5.99061990211584e+17
19507.0	5.992077027093162e+17
19508.0	5.993489536559786e+17
19509.0	5.994805428835668e+17
19510.0	5.995872257048575e+17
19511.0	5.931050779803613e+17
19512.0	5.989998213289288e+17
19513.0	5.984541177719442e+17
19514.0	5.989366465822703e+17
19515.0	6.000464574633302e+17
19516.0	6.002106161605289e+17
19517.0	6.002862583360169e+17
19518.0	6.003642542850047e+17
19519.0	6.004320234722644e+17
19520.0	6.004953813701971e+17
19521.0	6.005591751262205e+17
19522.0	6.006107244505769e+17
19523.0	6.006614150610943e+17
19524.0	6.007034449231872e+17
19525.0	6.007435785404415e+17
19526.0	6.007789250587306e+17
19527.0	6.008085752927572e+17
19528.0	6.00833645556531e+17
19529.0	6.008554436340394e+17
19530.0	6.008731845612884e+17
19531.0	6.008865871101951e+17
19532.0	6.008961430629033e+17
19533.0	6.009019404298922e+17
19534.0	6.00903941951761e+17
19535.0	6.009021920881321e+17
19536.0	6.008963936725674e+17
19537.0	6.008928304016042e+17
19538.0	6.008727279413932e+17
19539.0	6.008280862162944e+17
19540.0	6.008521107002708e+17
19541.0	6.008354480586751e+17
19542.0	6.008137997877247e+17
19543.0	6.007873863679999e+17
19544.0	6.007633355997183e+17
19545.0	6.006989093426516e+17
19546.0	6.006347003505322e+17
19547.0	6.007113412597079e+17
19548.0	6.00918527713826e+17
19549.0	6.00869991227938e+17
19550.0	6.008344222018218e+17
19551.0	6.007896335362729e+17
19552.0	6.00742733877521e+17
19553.0	6.008210601279485e+17
19554.0	6.011236579104083e+17
19555.0	6.010691761384105e+17
19556.0	6.010125606540628e+17
19557.0	6.009530578807465e+17
19558.0	6.008928854867967e+17
19559.0	6.008312387250857e+17
19560.0	6.007652214986067e+17
19561.0	6.009627982430209e+17
19562.0	6.010396281055914e+17
19563.0	6.009710635384831e+17
19564.0	6.009004007707988e+17
19565.0	6.008287100491091e+17
19566.0	6.007535712600063e+17
19567.0	6.006823036037801e+17
19568.0	6.006057650356223e+17
19569.0	6.005316372135936e+17
19570.0	6.004559981838335e+17
19571.0	6.004463417076393e+17
19572.0	6.006282648201897e+17
19573.0	6.005481995414186e+17
19574.0	6.004610714741418e+17
19575.0	6.003862158704639e+17
19576.0	6.003034034623828e+17
19577.0	6.00218404004386e+17
19578.0	6.001324548860585e+17
19579.0	6.000486226329599e+17
19580.0	5.999633715866282e+17
19581.0	5.998783636701183e+17
19582.0	5.997932173415764e+17
19583.0	5.997061598085119e+17
19584.0	5.996166868456788e+17
19585.0	5.995215058545321e+17
19586.0	5.994291393112746e+17
19587.0	5.99391184355328e+17
19588.0	5.994891808429396e+17
19589.0	5.994328251258196e+17
19590.0	5.993348468834301e+17
19591.0	5.992515875023529e+17
19592.0	5.991594834526207e+17
19593.0	5.99065275400192e+17
19594.0	5.989533166338047e+17
19595.0	5.988773391237119e+17
19596.0	5.98600338898944e+17
19597.0	5.986873704972287e+17
19598.0	5.985691923469652e+17
19599.0	5.985027577173332e+17
19600.0	5.984083785373011e+17
19601.0	5.983074417726806e+17
19602.0	5.982130219778047e+17
19603.0	5.980399816321705e+17
19604.0	5.980150766239743e+17
19605.0	5.979043616085332e+17
19606.0	5.978311967287978e+17
19607.0	5.977343961770665e+17
19608.0	5.976355295810899e+17
19609.0	5.975350884433919e+17
19610.0	5.974401344339967e+17
19611.0	5.973410440719018e+17
19612.0	5.97245164659234e+17
19613.0	5.971457841212073e+17
19614.0	5.970445860514473e+17
19615.0	5.969480182835881e+17
19616.0	5.968165167868586e+17
19617.0	5.968890381205503e+17
19618.0	5.968080296826195e+17
19619.0	5.966967362027519e+17
19620.0	5.965984816955391e+17
19621.0	5.965495050174463e+17
19622.0	5.964514797289472e+17
19623.0	5.963505656135679e+17
19624.0	5.962486461235199e+17
19625.0	5.961479704543231e+17
19626.0	5.960464025168554e+17
19627.0	5.959436056483156e+17
19628.0	5.957673825949015e+17
19629.0	5.957331467982164e+17
19630.0	5.954451635787094e+17
19631.0	5.922607770981718e+17
19632.0	5.954347542249472e+17
19633.0	5.953352924572329e+17
19634.0	5.952412172244307e+17
19635.0	5.951358038092457e+17
19636.0	5.950342084689919e+17
19637.0	5.94902058672674e+17
19638.0	5.94830716497647e+17
19639.0	5.947276850976084e+17
19640.0	5.946181795796308e+17
19641.0	5.944560816837974e+17
19642.0	5.944187215500627e+17
19643.0	5.943143146280275e+17
19644.0	5.942076529879721e+17
19645.0	5.940871574847487e+17
19646.0	5.94002447573538e+17
19647.0	5.939018992014676e+17
19648.0	5.937982839543124e+17
19649.0	5.936942241808383e+17
19650.0	5.935905169386154e+17
19651.0	5.934860148757843e+17
19652.0	5.933822282214057e+17
19653.0	5.932766200507049e+17
19654.0	5.931740844173993e+17
19655.0	5.930694341558271e+17
19656.0	5.929649043406847e+17
19657.0	5.928610602942463e+17
19658.0	5.927563329972906e+17
19659.0	5.926519311783252e+17
19660.0	5.925474836414463e+17
19661.0	5.924428378537983e+17
19662.0	5.923380987428863e+17
19663.0	5.922283396792319e+17
19664.0	5.921152927006719e+17
