# Flux units: erg / (cm m2 s)
# Wavelength units: Angstrom
wave	flux
19000.0	5.420637631807487e+17
19001.0	5.4194984895993165e+17
19002.0	5.418652290864468e+17
19003.0	5.417657030759764e+17
19004.0	5.4166624934734496e+17
19005.0	5.4156568042318496e+17
19006.0	5.4146723905972896e+17
19007.0	5.413687269523455e+17
19008.0	5.412600062585515e+17
19009.0	5.411560253379923e+17
19010.0	5.409948376760317e+17
19011.0	5.4096672192812365e+17
19012.0	5.408552156572329e+17
19013.0	5.407721482354687e+17
19014.0	5.4066601291066016e+17
19015.0	5.4056733400978765e+17
19016.0	5.404664131835222e+17
19017.0	5.403762704602452e+17
19018.0	5.402754412795219e+17
19019.0	5.401768680751102e+17
19020.0	5.400766827899562e+17
19021.0	5.3998005322601805e+17
19022.0	5.398803837004458e+17
19023.0	5.397767697115817e+17
19024.0	5.396789109369515e+17
19025.0	5.3958362732516685e+17
19026.0	5.3948125037636256e+17
19027.0	5.393805788315647e+17
19028.0	5.392874392780799e+17
19029.0	5.391860103817898e+17
19030.0	5.390908651820372e+17
19031.0	5.3899269637843616e+17
19032.0	5.3889261846746445e+17
19033.0	5.3878134323281894e+17
19034.0	5.3869339818502816e+17
19035.0	5.3858848759698765e+17
19036.0	5.379717716770813e+17
19037.0	5.3839553493292365e+17
19038.0	5.382978182752938e+17
19039.0	5.382022707019775e+17
19040.0	5.3810444660026016e+17
19041.0	5.380047761659221e+17
19042.0	5.378734397849599e+17
19043.0	5.378088449168724e+17
19044.0	5.377086755700735e+17
19045.0	5.3761166767991456e+17
19046.0	5.375037860566357e+17
19047.0	5.3741160881629856e+17
19048.0	5.372800600637439e+17
19049.0	5.371660302898515e+17
19050.0	5.371113324412928e+17
19051.0	5.3693836843199123e+17
19052.0	5.369082697569621e+17
19053.0	5.3682411027824634e+17
19054.0	5.3672601648278176e+17
19055.0	5.3658500642897914e+17
19056.0	5.365230535529813e+17
19057.0	5.36430202917137e+17
19058.0	5.3630979598363296e+17
19059.0	5.3622556457260365e+17
19060.0	5.361331620282367e+17
19061.0	5.3603838369027405e+17
19062.0	5.359394384510975e+17
19063.0	5.358415124277929e+17
19064.0	5.357258713421141e+17
19065.0	5.356212619051007e+17
19066.0	5.3553176139967136e+17
19067.0	5.354477612346025e+17
19068.0	5.353514298157738e+17
19069.0	5.3525359704582816e+17
19070.0	5.3515121709110605e+17
19071.0	5.350568293127509e+17
19072.0	5.349514864317779e+17
19073.0	5.3486101969851725e+17
19074.0	5.347638194995198e+17
19075.0	5.346659008162473e+17
19076.0	5.3456510001698125e+17
19077.0	5.3446750904866125e+17
19078.0	5.343656967230804e+17
19079.0	5.342740658607445e+17
19080.0	5.3417473439607456e+17
19081.0	5.3407212738969594e+17
19082.0	5.3397505378877434e+17
19083.0	5.338703513780224e+17
19084.0	5.337559664164864e+17
19085.0	5.336857426526207e+17
19086.0	5.3352943737023136e+17
19087.0	5.3346288453113165e+17
19088.0	5.333729127956478e+17
19089.0	5.332668333249877e+17
19090.0	5.331953149192874e+17
19091.0	5.330970453824852e+17
19092.0	5.329795284642474e+17
19093.0	5.3290692981555194e+17
19094.0	5.328095478633813e+17
19095.0	5.327120602147498e+17
19096.0	5.326121589538816e+17
19097.0	5.3251671903436794e+17
19098.0	5.3241060237421216e+17
19099.0	5.3231077381461325e+17
19100.0	5.322214215079252e+17
19101.0	5.3212693075940685e+17
19102.0	5.320111077807444e+17
19103.0	5.3193180761292794e+17
19104.0	5.3183547822134605e+17
19105.0	5.317181431261867e+17
19106.0	5.316386753959252e+17
19107.0	5.315358451127636e+17
19108.0	5.314384936392021e+17
19109.0	5.313198044829012e+17
19110.0	5.3124950808767136e+17
19111.0	5.311490879913982e+17
19112.0	5.310509542102355e+17
19113.0	5.309598272236202e+17
19114.0	5.308588312494079e+17
19115.0	5.307580391882751e+17
19116.0	5.306658957120852e+17
19117.0	5.305682675542697e+17
19118.0	5.304578905298259e+17
19119.0	5.2900703561755085e+17
19120.0	5.302723851321342e+17
19121.0	5.3018023711211514e+17
19122.0	5.300869540435285e+17
19123.0	5.299901278366377e+17
19124.0	5.2989081748329805e+17
19125.0	5.2979576784377165e+17
19126.0	5.296960910480724e+17
19127.0	5.293357017683283e+17
19128.0	5.2950039943359136e+17
19129.0	5.293971966263294e+17
19130.0	5.29310040597026e+17
19131.0	5.292149743200938e+17
19132.0	5.2911812105994234e+17
19133.0	5.2901434440198816e+17
19134.0	5.289244232078677e+17
19135.0	5.288279899373566e+17
19136.0	5.2873186928230394e+17
19137.0	5.2861171980916045e+17
19138.0	5.285364544219819e+17
19139.0	5.2844212047052794e+17
19140.0	5.28345793246003e+17
19141.0	5.282492420456447e+17
19142.0	5.281489530213717e+17
19143.0	5.280473687960234e+17
19144.0	5.279541626929151e+17
19145.0	5.278626129903615e+17
19146.0	5.276766446114133e+17
19147.0	5.27656222265617e+17
19148.0	5.275665458091349e+17
19149.0	5.2746810542434976e+17
19150.0	5.273799803011071e+17
19151.0	5.272838147670015e+17
19152.0	5.27187413373201e+17
19153.0	5.2707405566661965e+17
19154.0	5.269760310771711e+17
19155.0	5.2689898443898874e+17
19156.0	5.2680254501683194e+17
19157.0	5.267001538772992e+17
19158.0	5.2658089506461e+17
19159.0	5.2651070226868896e+17
19160.0	5.264163524487851e+17
19161.0	5.2632104639747405e+17
19162.0	5.2617875344588794e+17
19163.0	5.2612616889739936e+17
19164.0	5.260332465389568e+17
19165.0	5.259189269386579e+17
19166.0	5.2582069892546554e+17
19167.0	5.257409356365823e+17
19168.0	5.2564877629194234e+17
19169.0	5.255518503305215e+17
19170.0	5.2545724969123834e+17
19171.0	5.253586105663487e+17
19172.0	5.252653669941247e+17
19173.0	5.251695728656383e+17
19174.0	5.2506460139028474e+17
19175.0	5.2497720174182394e+17
19176.0	5.2488139684795725e+17
19177.0	5.24764007436561e+17
19178.0	5.24688636912162e+17
19179.0	5.2459040575324154e+17
19180.0	5.244971832224426e+17
19181.0	5.243802163871743e+17
19182.0	5.2430478427641165e+17
19183.0	5.242115167267498e+17
19184.0	5.241152500400128e+17
19185.0	5.240184468318889e+17
19186.0	5.2392406499546445e+17
19187.0	5.2382008225737376e+17
19188.0	5.237324931661823e+17
19189.0	5.2363768525837645e+17
19190.0	5.235418441536851e+17
19191.0	5.234418595659775e+17
19192.0	5.2335074844781216e+17
19193.0	5.2325234783901005e+17
19194.0	5.2315439028852045e+17
19195.0	5.230634598749525e+17
19196.0	5.229650273195347e+17
19197.0	5.228697939694932e+17
19198.0	5.2276954716788045e+17
19199.0	5.223852611906217e+17
19200.0	5.2237202152052045e+17
19201.0	5.224844299862015e+17
19202.0	5.2239410781661856e+17
19203.0	5.222989865943039e+17
19204.0	5.2220110845597005e+17
19205.0	5.2210828864826016e+17
19206.0	5.220124216786943e+17
19207.0	5.2190295635613e+17
19208.0	5.217868759870121e+17
19209.0	5.2172749233192954e+17
19210.0	5.2163217691333965e+17
19211.0	5.215389305449129e+17
19212.0	5.214431721379157e+17
19213.0	5.213345183432702e+17
19214.0	5.212363452055551e+17
19215.0	5.2115685251918496e+17
19216.0	5.2106284712154445e+17
19217.0	5.2096563217257805e+17
19218.0	5.207558198045353e+17
19219.0	5.207558367215615e+17
19220.0	5.206786964105898e+17
19221.0	5.2054143515579725e+17
19222.0	5.2049026324889594e+17
19223.0	5.203944871559166e+17
19224.0	5.202961212200277e+17
19225.0	5.2018663723281043e+17
19226.0	5.201092227541674e+17
19227.0	5.200149584980651e+17
19228.0	5.199234232658602e+17
19229.0	5.198283769118719e+17
19230.0	5.197323600658432e+17
19231.0	5.196368868016126e+17
19232.0	5.195428224740009e+17
19233.0	5.1943933165786445e+17
19234.0	5.193508826644479e+17
19235.0	5.1925467015413754e+17
19236.0	5.191644552888319e+17
19237.0	5.190670769717247e+17
19238.0	5.189613361911125e+17
19239.0	5.188806321897471e+17
19240.0	5.1878527916223136e+17
19241.0	5.186881457924777e+17
19242.0	5.1859433298329594e+17
19243.0	5.18479641977378e+17
19244.0	5.1840736677942605e+17
19245.0	5.183119018338985e+17
19246.0	5.1821565716725754e+17
19247.0	5.181221380991658e+17
19248.0	5.180289526879572e+17
19249.0	5.1793366299443194e+17
19250.0	5.1783377941954554e+17
19251.0	5.177275269338451e+17
19252.0	5.176109617031851e+17
19253.0	5.175522347362985e+17
19254.0	5.1746168998898336e+17
19255.0	5.173407182924457e+17
19256.0	5.172692645489322e+17
19257.0	5.171779875460436e+17
19258.0	5.170837776760832e+17
19259.0	5.169793116842667e+17
19260.0	5.1688077091580576e+17
19261.0	5.167986292468394e+17
19262.0	5.166975946151253e+17
19263.0	5.1660083999102285e+17
19264.0	5.164331487810899e+17
19265.0	5.163908683093331e+17
19266.0	5.162797391063722e+17
19267.0	5.1623439567421434e+17
19268.0	5.1613916595923616e+17
19269.0	5.1604526548910074e+17
19270.0	5.1595035901515085e+17
19271.0	5.158050807676928e+17
19272.0	5.1575756216948045e+17
19273.0	5.156190233995946e+17
19274.0	5.1551139678999866e+17
19275.0	5.1548022206627834e+17
19276.0	5.1538315314899616e+17
19277.0	5.15289845473826e+17
19278.0	5.151956932755455e+17
19279.0	5.1509948817517216e+17
19280.0	5.149955178102783e+17
19281.0	5.1491228254644896e+17
19282.0	5.148206511248724e+17
19283.0	5.147226858848256e+17
19284.0	5.1462858115208525e+17
19285.0	5.1451497122802336e+17
19286.0	5.1443814472089594e+17
19287.0	5.143488073738922e+17
19288.0	5.141134237324628e+17
19289.0	5.138053495171747e+17
19290.0	5.14066359517184e+17
19291.0	5.1393798564304224e+17
19292.0	5.138793865325227e+17
19293.0	5.13784421617937e+17
19294.0	5.1368979749055136e+17
19295.0	5.1359723206737914e+17
19296.0	5.134929943156053e+17
19297.0	5.1340076842134176e+17
19298.0	5.1330692932785485e+17
19299.0	5.132067300616874e+17
19300.0	5.131215319334911e+17
19301.0	5.1302811863176525e+17
19302.0	5.129328453659307e+17
19303.0	5.1282934077849594e+17
19304.0	5.127418170485417e+17
19305.0	5.1264949943883085e+17
19306.0	5.125565900128255e+17
19307.0	5.1245633894700365e+17
19308.0	5.123654053877077e+17
19309.0	5.1226299138921805e+17
19310.0	5.121633663931732e+17
19311.0	5.1208039446173005e+17
19312.0	5.119905820398934e+17
19313.0	5.1189724423563936e+17
19314.0	5.106673902070435e+17
19315.0	5.106795713047227e+17
19316.0	5.1160083857408e+17
19317.0	5.115194328656553e+17
19318.0	5.1142528549082445e+17
19319.0	5.1133380268741965e+17
19320.0	5.1123542563662496e+17
19321.0	5.1113680175103994e+17
19322.0	5.11040482775313e+17
19323.0	5.10951489081617e+17
19324.0	5.108607499283113e+17
19325.0	5.107580830831957e+17
19326.0	5.1067263189865805e+17
19327.0	5.1057631306274125e+17
19328.0	5.1046679782795936e+17
19329.0	5.103898429751296e+17
19330.0	5.102896613250388e+17
19331.0	5.1019358701704525e+17
19332.0	5.1010574389084154e+17
19333.0	5.100095318698667e+17
19334.0	5.099159606525952e+17
19335.0	5.0978667661448525e+17
19336.0	5.0972601810070176e+17
19337.0	5.096309769196885e+17
19338.0	5.095061443663187e+17
19339.0	5.094409795622228e+17
19340.0	5.0931344972185594e+17
19341.0	5.0922948492875085e+17
19342.0	5.090973057723049e+17
19343.0	5.0905926154758816e+17
19344.0	5.0894935554348365e+17
19345.0	5.085432750538745e+17
19346.0	5.08636171547443e+17
19347.0	5.0864646492869965e+17
19348.0	5.0857741633890976e+17
19349.0	5.084773512904702e+17
19350.0	5.083764031313236e+17
19351.0	5.082842562996906e+17
19352.0	5.0816650380137805e+17
19353.0	5.08098292814097e+17
19354.0	5.080022972891135e+17
19355.0	5.0789160708997114e+17
19356.0	5.078087378490708e+17
19357.0	5.0771231513422496e+17
19358.0	5.076150896295936e+17
19359.0	5.0750856717052576e+17
19360.0	5.0740122472502605e+17
19361.0	5.0731790152062285e+17
19362.0	5.072259230203903e+17
19363.0	5.0712428965178016e+17
19364.0	5.070226635532971e+17
19365.0	5.069243914300074e+17
19366.0	5.0682583157746336e+17
19367.0	5.067271358294698e+17
19368.0	5.0662827636381005e+17
19369.0	5.0652238388920314e+17
19370.0	5.064241349743957e+17
19371.0	5.0632016279197e+17
19372.0	5.062254732334421e+17
19373.0	5.061215883624446e+17
19374.0	5.0601325305528314e+17
19375.0	5.059122655395839e+17
19376.0	5.058111342990676e+17
19377.0	5.0570742509950285e+17
19378.0	5.056053701334356e+17
19379.0	5.055027521519615e+17
19380.0	5.053972907119957e+17
19381.0	5.052811774175914e+17
19382.0	5.051664973168639e+17
19383.0	5.050565170036734e+17
19384.0	5.0496400995123194e+17
19385.0	5.0485845644629325e+17
19386.0	5.0474350336628045e+17
19387.0	5.0463529179108685e+17
19388.0	5.0452619270116685e+17
19389.0	5.044158698531498e+17
19390.0	5.043035115094014e+17
19391.0	5.037059653064014e+17
19392.0	5.04066625118754e+17
19393.0	5.0395853266179405e+17
19394.0	5.0383953718149114e+17
19395.0	5.0371758933060256e+17
19396.0	5.036039308924245e+17
19397.0	5.0348631743528954e+17
19398.0	5.0335625766065485e+17
19399.0	5.031190892030633e+17
19400.0	5.0310042650760525e+17
19401.0	5.0298251588403194e+17
19402.0	5.0284840413211296e+17
19403.0	5.0271388266659834e+17
19404.0	5.0258232727306234e+17
19405.0	5.024424287797247e+17
19406.0	5.022998619400874e+17
19407.0	5.021354149543935e+17
19408.0	5.018709520635223e+17
19409.0	5.018397188991657e+17
19410.0	5.0167184048346445e+17
19411.0	5.015010707243008e+17
19412.0	5.0133534929933645e+17
19413.0	5.0112428073724576e+17
19414.0	5.0094408728575994e+17
19415.0	5.0072393358158496e+17
19416.0	5.004880509577897e+17
19417.0	5.0024324872710816e+17
19418.0	4.999863526402731e+17
19419.0	4.996929255636991e+17
19420.0	4.99379789242914e+17
19421.0	4.991054039569749e+17
19422.0	4.988308862009342e+17
19423.0	4.985621093984938e+17
19424.0	4.982837383353685e+17
19425.0	4.97973553336593e+17
19426.0	4.976343865360383e+17
19427.0	4.9727331917714765e+17
19428.0	4.968656779870206e+17
19429.0	4.964080518081194e+17
19430.0	4.9588019228835834e+17
19431.0	4.9519191014768634e+17
19432.0	4.945256789311488e+17
19433.0	4.9359263671255e+17
19434.0	4.923380236375378e+17
19435.0	4.9107167406107283e+17
19436.0	4.9024159683269965e+17
19437.0	4.893692020129792e+17
19438.0	4.8740820222388896e+17
19439.0	4.8718672514689715e+17
19440.0	4.856564181630977e+17
19441.0	4.833532246840658e+17
19442.0	4.794293928241827e+17
19443.0	4.745287028790609e+17
19444.0	4.716943110045695e+17
19445.0	4.684931844975271e+17
19446.0	4.637639596572664e+17
19447.0	4.5398090069661056e+17
19448.0	4.4382577928874714e+17
19449.0	4.3114503948206086e+17
19450.0	3.9621855053961126e+17
19451.0	3.7429150132906854e+17
19452.0	4.183285747941383e+17
19453.0	4.384310785561947e+17
19454.0	4.4811004775410195e+17
19455.0	4.5924193692985875e+17
19456.0	4.6569406664977075e+17
19457.0	4.6923657811503763e+17
19458.0	4.6838015625353146e+17
19459.0	4.753738352820235e+17
19460.0	4.801860763036316e+17
19461.0	4.8296093101151616e+17
19462.0	4.846187360288768e+17
19463.0	4.857439770553001e+17
19464.0	4.866427054631594e+17
19465.0	4.873983558855338e+17
19466.0	4.8805506134835194e+17
19467.0	4.888321401203364e+17
19468.0	4.900389043656016e+17
19469.0	4.9086990769629875e+17
19470.0	4.9154552010287795e+17
19471.0	4.920443769891499e+17
19472.0	4.924285079169706e+17
19473.0	4.92726122516753e+17
19474.0	4.9294967137020576e+17
19475.0	4.930383607671465e+17
19476.0	4.9332069670584314e+17
19477.0	4.9348745859781965e+17
19478.0	4.9359626772152314e+17
19479.0	4.936750079497557e+17
19480.0	4.937786260630187e+17
19481.0	4.9384891833384954e+17
19482.0	4.9397088002594125e+17
19483.0	4.941096615062187e+17
19484.0	4.942068573011966e+17
19485.0	4.9426163819697485e+17
19486.0	4.9430635863517856e+17
19487.0	4.943683859600725e+17
19488.0	4.943842161721343e+17
19489.0	4.943790014638762e+17
19490.0	4.9416657695320704e+17
19491.0	4.943751355039743e+17
19492.0	4.9437960362612045e+17
19493.0	4.9435711348845216e+17
19494.0	4.9432396555441485e+17
19495.0	4.942898187468798e+17
19496.0	4.9419559014236134e+17
19497.0	4.942180468654079e+17
19498.0	4.9412629856256e+17
19499.0	4.9332978198773696e+17
19500.0	4.9407682723621536e+17
19501.0	4.9403441030976845e+17
19502.0	4.939831215215956e+17
19503.0	4.9392708897559885e+17
19504.0	4.938687237674325e+17
19505.0	4.938076003849556e+17
19506.0	4.937469388652543e+17
19507.0	4.936793957509802e+17
19508.0	4.9361841609332045e+17
19509.0	4.935511939132074e+17
19510.0	4.9345189893898234e+17
19511.0	4.915903179259887e+17
19512.0	4.932359034677927e+17
19513.0	4.9301361150743834e+17
19514.0	4.930485769033044e+17
19515.0	4.930696235712513e+17
19516.0	4.9306577054378656e+17
19517.0	4.9299189983259296e+17
19518.0	4.929275999638868e+17
19519.0	4.9285171710525434e+17
19520.0	4.927638108547753e+17
19521.0	4.9270471402018125e+17
19522.0	4.926265240846334e+17
19523.0	4.9255971825909754e+17
19524.0	4.924760020484096e+17
19525.0	4.9240541925212154e+17
19526.0	4.9232857589787296e+17
19527.0	4.922480911887017e+17
19528.0	4.9216747289094816e+17
19529.0	4.920867555377151e+17
19530.0	4.9201844388713805e+17
19531.0	4.919388336204457e+17
19532.0	4.918580488787285e+17
19533.0	4.917769706755413e+17
19534.0	4.916952138339668e+17
19535.0	4.9161431060316154e+17
19536.0	4.915294727656789e+17
19537.0	4.9145305373518496e+17
19538.0	4.9134303182848006e+17
19539.0	4.912003701975725e+17
19540.0	4.9120119381906765e+17
19541.0	4.9112236928532474e+17
19542.0	4.910452807740074e+17
19543.0	4.9095087670777165e+17
19544.0	4.908786976991913e+17
19545.0	4.907227854230867e+17
19546.0	4.9057163535974406e+17
19547.0	4.906289805830826e+17
19548.0	4.9054568806700365e+17
19549.0	4.904475825274878e+17
19550.0	4.9037731926725965e+17
19551.0	4.902933351803562e+17
19552.0	4.902086946848768e+17
19553.0	4.9012071978762234e+17
19554.0	4.9003315656130554e+17
19555.0	4.899512487247872e+17
19556.0	4.898691583661396e+17
19557.0	4.8978455261347834e+17
19558.0	4.896994492066474e+17
19559.0	4.8961473607980365e+17
19560.0	4.895216945332223e+17
19561.0	4.894405910244011e+17
19562.0	4.8935390510667085e+17
19563.0	4.892741469208575e+17
19564.0	4.8918907874618016e+17
19565.0	4.8910768268465485e+17
19566.0	4.8901770137217696e+17
19567.0	4.889364574240768e+17
19568.0	4.8884781779954336e+17
19569.0	4.887620572151807e+17
19570.0	4.8867968206329165e+17
19571.0	4.885932584293717e+17
19572.0	4.8850313052596896e+17
19573.0	4.884183834951679e+17
19574.0	4.8832287409001805e+17
19575.0	4.8825065852108794e+17
19576.0	4.881633333914282e+17
19577.0	4.880733630540458e+17
19578.0	4.879860774906538e+17
19579.0	4.8790277546748576e+17
19580.0	4.8781702816508576e+17
19581.0	4.877321513205759e+17
19582.0	4.8764879763756365e+17
19583.0	4.8756273191758496e+17
19584.0	4.8747633463787514e+17
19585.0	4.873739734177108e+17
19586.0	4.872840775991296e+17
19587.0	4.8721569080060576e+17
19588.0	4.870611819386198e+17
19589.0	4.870420093556053e+17
19590.0	4.8694018465682765e+17
19591.0	4.868721836643668e+17
19592.0	4.8678664838403405e+17
19593.0	4.8669704057432736e+17
19594.0	4.865768887943166e+17
19595.0	4.865244243427327e+17
19596.0	4.8643658841675085e+17
19597.0	4.8635388652858016e+17
19598.0	4.8618767751577574e+17
19599.0	4.861821621458261e+17
19600.0	4.860974589455017e+17
19601.0	4.8600132948241043e+17
19602.0	4.859164582303061e+17
19603.0	4.857733918490622e+17
19604.0	4.857456612780713e+17
19605.0	4.856221375572651e+17
19606.0	4.855787661470377e+17
19607.0	4.8549386721252685e+17
19608.0	4.8540513908817914e+17
19609.0	4.853136427231914e+17
19610.0	4.8522887346257914e+17
19611.0	4.8513825727228576e+17
19612.0	4.850627158299989e+17
19613.0	4.849749983931049e+17
19614.0	4.848846647590911e+17
19615.0	4.8480381109097805e+17
19616.0	4.847073141369514e+17
19617.0	4.846194248034987e+17
19618.0	4.844532777265832e+17
19619.0	4.8434197802516454e+17
19620.0	4.842654962898259e+17
19621.0	4.842727162948265e+17
19622.0	4.8420034050348365e+17
19623.0	4.841136712930644e+17
19624.0	4.8402503432492365e+17
19625.0	4.83942001086737e+17
19626.0	4.8385475348179616e+17
19627.0	4.837692553210538e+17
19628.0	4.836750966915071e+17
19629.0	4.835525258466644e+17
19630.0	4.834799641078442e+17
19631.0	4.831038625458857e+17
19632.0	4.833349223492266e+17
19633.0	4.8324660561619616e+17
19634.0	4.83166616953378e+17
19635.0	4.830743572949674e+17
19636.0	4.829799073710079e+17
19637.0	4.828492955560619e+17
19638.0	4.828197703821994e+17
19639.0	4.8273519538776736e+17
19640.0	4.826355297069738e+17
19641.0	4.823558810588506e+17
19642.0	4.8247626667130874e+17
19643.0	4.823899651615403e+17
19644.0	4.822967244554239e+17
19645.0	4.821785192518995e+17
19646.0	4.8211979004805114e+17
19647.0	4.8204889554507085e+17
19648.0	4.8196279731923616e+17
19649.0	4.818764401650345e+17
19650.0	4.817913786313387e+17
19651.0	4.8170490571434656e+17
19652.0	4.8161883943512736e+17
19653.0	4.8153381599969274e+17
19654.0	4.814471806932309e+17
19655.0	4.8136078579029325e+17
