# Flux units: erg / (cm m2 s)
# Wavelength units: Angstrom
wave	flux
19000.0	8.115697941654185e+17
19001.0	8.1141881152471e+17
19002.0	8.11273316990976e+17
19003.0	8.111248516317183e+17
19004.0	8.109763109147987e+17
19005.0	8.108277823613612e+17
19006.0	8.106790730334204e+17
19007.0	8.105251271169364e+17
19008.0	8.103796384552274e+17
19009.0	8.102305594692948e+17
19010.0	8.100710071664636e+17
19011.0	8.099331211001853e+17
19012.0	8.097756774137855e+17
19013.0	8.096356556079103e+17
19014.0	8.094846914221395e+17
19015.0	8.093367756565161e+17
19016.0	8.09185656561118e+17
19017.0	8.090358572733782e+17
19018.0	8.088873762553855e+17
19019.0	8.0873806378653e+17
19020.0	8.085868283691004e+17
19021.0	8.084378289351337e+17
19022.0	8.082883780542464e+17
19023.0	8.081383037599743e+17
19024.0	8.079879211843583e+17
19025.0	8.0783756754944e+17
19026.0	8.076861301063679e+17
19027.0	8.075297362542591e+17
19028.0	8.073870967832575e+17
19029.0	8.072366705868799e+17
19030.0	8.070862016086012e+17
19031.0	8.069356550356991e+17
19032.0	8.067850505814015e+17
19033.0	8.06631842722611e+17
19034.0	8.064835988226047e+17
19035.0	8.063312586255016e+17
19036.0	8.056788487591249e+17
19037.0	8.060308079072595e+17
19038.0	8.058802853817e+17
19039.0	8.057294008877055e+17
19040.0	8.0557841055744e+17
19041.0	8.054273422131197e+17
19042.0	8.052739510632447e+17
19043.0	8.051251442876415e+17
19044.0	8.049738926522367e+17
19045.0	8.048227190308863e+17
19046.0	8.046700711116799e+17
19047.0	8.045198219149311e+17
19048.0	8.04363254838067e+17
19049.0	8.042154742688424e+17
19050.0	8.040646452794706e+17
19051.0	8.038343094829052e+17
19052.0	8.037511058161663e+17
19053.0	8.036100387897343e+17
19054.0	8.034597862375421e+17
19055.0	8.033009655611391e+17
19056.0	8.031565430915072e+17
19057.0	8.030048527319037e+17
19058.0	8.028522220093439e+17
19059.0	8.027013331812351e+17
19060.0	8.025488991715327e+17
19061.0	8.023977400904361e+17
19062.0	8.022457606034772e+17
19063.0	8.020939216257024e+17
19064.0	8.019388333206186e+17
19065.0	8.017848636364115e+17
19066.0	8.016362588864511e+17
19067.0	8.014860767985661e+17
19068.0	8.013340597026816e+17
19069.0	8.011820161826816e+17
19070.0	8.010296379572221e+17
19071.0	8.008777977211562e+17
19072.0	8.007256445900115e+17
19073.0	8.005733148786688e+17
19074.0	8.004212596146173e+17
19075.0	8.002690294480892e+17
19076.0	8.00116171673873e+17
19077.0	7.999641804428628e+17
19078.0	7.998112991805441e+17
19079.0	7.996598390882301e+17
19080.0	7.995072923915604e+17
19081.0	7.993538632133289e+17
19082.0	7.992013808293203e+17
19083.0	7.990471421504172e+17
19084.0	7.988904753889281e+17
19085.0	7.987451656841897e+17
19086.0	7.985809413461332e+17
19087.0	7.984252201205757e+17
19088.0	7.982836436260179e+17
19089.0	7.981219964081491e+17
19090.0	7.979817233634642e+17
19091.0	7.978287815633577e+17
19092.0	7.976721774368083e+17
19093.0	7.975244400689148e+17
19094.0	7.973703595152723e+17
19095.0	7.972173202675028e+17
19096.0	7.970659465778515e+17
19097.0	7.969137144539817e+17
19098.0	7.967610633191421e+17
19099.0	7.966082498647379e+17
19100.0	7.964546575280808e+17
19101.0	7.963026275696637e+17
19102.0	7.96147498440021e+17
19103.0	7.959969507486377e+17
19104.0	7.958440357920765e+17
19105.0	7.956910088475987e+17
19106.0	7.955353807355903e+17
19107.0	7.953845913124863e+17
19108.0	7.95231837696819e+17
19109.0	7.950274165473279e+17
19110.0	7.949238338759336e+17
19111.0	7.947730669622612e+17
19112.0	7.946201301953194e+17
19113.0	7.944670789238783e+17
19114.0	7.943139836122451e+17
19115.0	7.941592349059754e+17
19116.0	7.940076857546068e+17
19117.0	7.938537970204672e+17
19118.0	7.936965678028118e+17
19119.0	7.934840849214121e+17
19120.0	7.933905311105021e+17
19121.0	7.9323850632506e+17
19122.0	7.93088380580659e+17
19123.0	7.929349505635668e+17
19124.0	7.927787051898196e+17
19125.0	7.926279791007059e+17
19126.0	7.924746328298834e+17
19127.0	7.922758738509821e+17
19128.0	7.921396787882664e+17
19129.0	7.920122103944531e+17
19130.0	7.918611056994986e+17
19131.0	7.917077692153855e+17
19132.0	7.915541370328403e+17
19133.0	7.913885673018706e+17
19134.0	7.912333099663361e+17
19135.0	7.910934465653417e+17
19136.0	7.909399656573609e+17
19137.0	7.907818513017513e+17
19138.0	7.906308983007913e+17
19139.0	7.904788033306621e+17
19140.0	7.903252593683114e+17
19141.0	7.901715295982932e+17
19142.0	7.900177037787135e+17
19143.0	7.898625307486889e+17
19144.0	7.897098596210003e+17
19145.0	7.895560126900905e+17
19146.0	7.89385279770897e+17
19147.0	7.892460007762604e+17
19148.0	7.890941005616468e+17
19149.0	7.889401792517458e+17
19150.0	7.887860838782292e+17
19151.0	7.886323103476394e+17
19152.0	7.884780695715837e+17
19153.0	7.883240892618067e+17
19154.0	7.881663869266602e+17
19155.0	7.880156085485567e+17
19156.0	7.878610716546387e+17
19157.0	7.877047327479126e+17
19158.0	7.875190692249599e+17
19159.0	7.873967896046246e+17
19160.0	7.87242902688017e+17
19161.0	7.870859742019583e+17
19162.0	7.868550607099222e+17
19163.0	7.867773362023084e+17
19164.0	7.866259226667689e+17
19165.0	7.864702099696296e+17
19166.0	7.863126194825898e+17
19167.0	7.861546429797718e+17
19168.0	7.860053193261053e+17
19169.0	7.858505735558483e+17
19170.0	7.85697811551573e+17
19171.0	7.855392358225236e+17
19172.0	7.853879176374953e+17
19173.0	7.85233218843443e+17
19174.0	7.85076942152226e+17
19175.0	7.849234127301289e+17
19176.0	7.847682666834602e+17
19177.0	7.846088214751914e+17
19178.0	7.844556516447572e+17
19179.0	7.842969465913343e+17
19180.0	7.841444461718185e+17
19181.0	7.839890047063379e+17
19182.0	7.838353988080979e+17
19183.0	7.836807053268308e+17
19184.0	7.835236840068434e+17
19185.0	7.83369587654656e+17
19186.0	7.832140895660713e+17
19187.0	7.83056377024785e+17
19188.0	7.829024587907072e+17
19189.0	7.827454464185684e+17
19190.0	7.825888555739816e+17
19191.0	7.824336789088936e+17
19192.0	7.822780924603049e+17
19193.0	7.821198893252607e+17
19194.0	7.819648235296083e+17
19195.0	7.818091998915242e+17
19196.0	7.816519922046292e+17
19197.0	7.814942282132138e+17
19198.0	7.813320480391167e+17
19199.0	7.807051507258708e+17
19200.0	7.806874689383085e+17
19201.0	7.808628660633599e+17
19202.0	7.807110761589417e+17
19203.0	7.805542976891561e+17
19204.0	7.80398098452753e+17
19205.0	7.80241849164322e+17
19206.0	7.80084385624883e+17
19207.0	7.79925758166084e+17
19208.0	7.797648815816703e+17
19209.0	7.796125525693779e+17
19210.0	7.794548942744233e+17
19211.0	7.792970652712957e+17
19212.0	7.791391799246847e+17
19213.0	7.789755794194432e+17
19214.0	7.78815430406963e+17
19215.0	7.78662924674662e+17
19216.0	7.785063307542528e+17
19217.0	7.783482063323136e+17
19218.0	7.781159498241363e+17
19219.0	7.779551097301673e+17
19220.0	7.778011441004543e+17
19221.0	7.776334572246356e+17
19222.0	7.774830060022441e+17
19223.0	7.773238797008896e+17
19224.0	7.77163369419025e+17
19225.0	7.770011470222675e+17
19226.0	7.768455646281725e+17
19227.0	7.766858505650175e+17
19228.0	7.765259402084351e+17
19229.0	7.76365840409122e+17
19230.0	7.762042800133459e+17
19231.0	7.760444304741715e+17
19232.0	7.758840643365548e+17
19233.0	7.757218704610646e+17
19234.0	7.755624028831744e+17
19235.0	7.754020138166953e+17
19236.0	7.752407505174527e+17
19237.0	7.750788794635603e+17
19238.0	7.74914516853282e+17
19239.0	7.747559398659412e+17
19240.0	7.745902594053459e+17
19241.0	7.744305106692777e+17
19242.0	7.742693347513684e+17
19243.0	7.741017977520127e+17
19244.0	7.739439755995816e+17
19245.0	7.737809343348735e+17
19246.0	7.736172425336148e+17
19247.0	7.734541268899155e+17
19248.0	7.73290498282837e+17
19249.0	7.731265106433366e+17
19250.0	7.729621962675539e+17
19251.0	7.727945275670527e+17
19252.0	7.726246140750504e+17
19253.0	7.724680414057812e+17
19254.0	7.723025235443713e+17
19255.0	7.721320593402538e+17
19256.0	7.719699982843901e+17
19257.0	7.718057222165846e+17
19258.0	7.716394437880489e+17
19259.0	7.714706830305961e+17
19260.0	7.712983146124625e+17
19261.0	7.711387010727935e+17
19262.0	7.709703379353599e+17
19263.0	7.708018347081725e+17
19264.0	7.706219816943616e+17
19265.0	7.704617425043456e+17
19266.0	7.702942400380927e+17
19267.0	7.701286199754752e+17
19268.0	7.699590562884266e+17
19269.0	7.697539604152319e+17
19270.0	7.695224240690515e+17
19271.0	7.693432003406508e+17
19272.0	7.691795676790784e+17
19273.0	7.689088720524627e+17
19274.0	7.687803037723306e+17
19275.0	7.68664789843968e+17
19276.0	7.684921079715155e+17
19277.0	7.68318910898722e+17
19278.0	7.681452204359679e+17
19279.0	7.679700602890922e+17
19280.0	7.677943287382016e+17
19281.0	7.676211304071165e+17
19282.0	7.674452720484351e+17
19283.0	7.672628616276649e+17
19284.0	7.67081520894225e+17
19285.0	7.669103563811497e+17
19286.0	7.66736803910997e+17
19287.0	7.665593806574931e+17
19288.0	7.662484812289363e+17
19289.0	7.658765183265444e+17
19290.0	7.660209216421887e+17
19291.0	7.658328277996883e+17
19292.0	7.656590506546514e+17
19293.0	7.654768470130688e+17
19294.0	7.652431641619114e+17
19295.0	7.649844961214463e+17
19296.0	7.648004001497087e+17
19297.0	7.646155341037567e+17
19298.0	7.644168562147327e+17
19299.0	7.642176178268842e+17
19300.0	7.64030434288162e+17
19301.0	7.638423021376851e+17
19302.0	7.636532364749481e+17
19303.0	7.63461633258291e+17
19304.0	7.632720438667948e+17
19305.0	7.630818929978025e+17
19306.0	7.628894574914217e+17
19307.0	7.626942306757289e+17
19308.0	7.625005129706153e+17
19309.0	7.622913501604521e+17
19310.0	7.619726866557608e+17
19311.0	7.617489419283113e+17
19312.0	7.6155352804666e+17
19313.0	7.613531096612861e+17
19314.0	7.60942341198097e+17
19315.0	7.607519389504854e+17
19316.0	7.60747095508036e+17
19317.0	7.605447238352893e+17
19318.0	7.603394492847444e+17
19319.0	7.60132846957363e+17
19320.0	7.599246404485117e+17
19321.0	7.595678926635007e+17
19322.0	7.593011164741632e+17
19323.0	7.590931124103849e+17
19324.0	7.58885693871445e+17
19325.0	7.586588331955539e+17
19326.0	7.58453828338756e+17
19327.0	7.582357993291775e+17
19328.0	7.580163207681364e+17
19329.0	7.57727479463936e+17
19330.0	7.573256675175081e+17
19331.0	7.570998990383786e+17
19332.0	7.568734445109247e+17
19333.0	7.566440191579476e+17
19334.0	7.564122557601108e+17
19335.0	7.561790270122666e+17
19336.0	7.557462148251648e+17
19337.0	7.554130131637587e+17
19338.0	7.551671176178348e+17
19339.0	7.549300280131583e+17
19340.0	7.546838500507647e+17
19341.0	7.543898396863145e+17
19342.0	7.539770055284054e+17
19343.0	7.537128662979923e+17
19344.0	7.534572031967228e+17
19345.0	7.531507164555944e+17
19346.0	7.529180340857513e+17
19347.0	7.526718330546858e+17
19348.0	7.524066611866281e+17
19349.0	7.521358373541203e+17
19350.0	7.518629268553727e+17
19351.0	7.515873802365608e+17
19352.0	7.513071895445503e+17
19353.0	7.510268804333564e+17
19354.0	7.507410096750591e+17
19355.0	7.504492614385663e+17
19356.0	7.5015802350906e+17
19357.0	7.498607260685651e+17
19358.0	7.495584752948563e+17
19359.0	7.491977717219327e+17
19360.0	7.48861977281604e+17
19361.0	7.485470212620287e+17
19362.0	7.482288280786259e+17
19363.0	7.479047494478505e+17
19364.0	7.475757525762045e+17
19365.0	7.472416232745642e+17
19366.0	7.469022674507094e+17
19367.0	7.465574946832383e+17
19368.0	7.462070837925203e+17
19369.0	7.457424120916649e+17
19370.0	7.453573102523731e+17
19371.0	7.449962572939264e+17
19372.0	7.446212775684777e+17
19373.0	7.442384863712595e+17
19374.0	7.438489944937811e+17
19375.0	7.434105395696978e+17
19376.0	7.428839491764223e+17
19377.0	7.424715766715732e+17
19378.0	7.420514010835625e+17
19379.0	7.416229891407872e+17
19380.0	7.411073295231658e+17
19381.0	7.405230267651411e+17
19382.0	7.400635107027625e+17
19383.0	7.395956541270697e+17
19384.0	7.38969895008119e+17
19385.0	7.383543761425748e+17
19386.0	7.378443842879488e+17
19387.0	7.371731675818664e+17
19388.0	7.364633920798719e+17
19389.0	7.359192824982188e+17
19390.0	7.350181256582484e+17
19391.0	7.340103744968014e+17
19392.0	7.335022661642924e+17
19393.0	7.32708667077427e+17
19394.0	7.317211785986053e+17
19395.0	7.308784769346217e+17
19396.0	7.296138039612756e+17
19397.0	7.28722007269922e+17
19398.0	7.278008244458836e+17
19399.0	7.27038979875362e+17
19400.0	7.262839081271293e+17
19401.0	7.254894919898451e+17
19402.0	7.24655599063313e+17
19403.0	7.237955491987453e+17
19404.0	7.229379630683475e+17
19405.0	7.220600777648808e+17
19406.0	7.211606903619583e+17
19407.0	7.20238928863778e+17
19408.0	7.192794018523817e+17
19409.0	7.182696128184317e+17
19410.0	7.172607258394624e+17
19411.0	7.162259419693055e+17
19412.0	7.151469350354943e+17
19413.0	7.139351307048276e+17
19414.0	7.127795652799144e+17
19415.0	7.115662294690476e+17
19416.0	7.102061035039402e+17
19417.0	7.089002543491753e+17
19418.0	7.073971728023552e+17
19419.0	7.058947051618304e+17
19420.0	7.04256770519859e+17
19421.0	7.024520790190764e+17
19422.0	7.004459181102415e+17
19423.0	6.982427247378424e+17
19424.0	6.958474623014231e+17
19425.0	6.931745860135592e+17
19426.0	6.902532945215483e+17
19427.0	6.879292629013844e+17
19428.0	6.85713362395682e+17
19429.0	6.83341913399842e+17
19430.0	6.808559290067626e+17
19431.0	6.781853976144556e+17
19432.0	6.754400744417961e+17
19433.0	6.72416890023663e+17
19434.0	6.691755432170835e+17
19435.0	6.656501386401106e+17
19436.0	6.617834141865302e+17
19437.0	6.574650293223423e+17
19438.0	6.522985310235309e+17
19439.0	6.470908434710524e+17
19440.0	6.418860731968169e+17
19441.0	6.364550015571282e+17
19442.0	6.303410240356353e+17
19443.0	6.235745415768746e+17
19444.0	6.159155082909009e+17
19445.0	6.073745216460119e+17
19446.0	5.979490581392042e+17
19447.0	5.874825924968442e+17
19448.0	5.7566722736346496e+17
19449.0	5.6211568825029965e+17
19450.0	5.443347828528429e+17
19451.0	5.371855359006044e+17
19452.0	5.536099554295811e+17
19453.0	5.690030115433136e+17
19454.0	5.813145982817614e+17
19455.0	5.922083495564627e+17
19456.0	6.018494658598231e+17
19457.0	6.105937497904466e+17
19458.0	6.183356191124142e+17
19459.0	6.253857829027841e+17
19460.0	6.315783118389244e+17
19461.0	6.37091066360627e+17
19462.0	6.420201291644932e+17
19463.0	6.472309653110778e+17
19464.0	6.521636595433472e+17
19465.0	6.565081227722752e+17
19466.0	6.603431063410003e+17
19467.0	6.63736527495714e+17
19468.0	6.668456807454036e+17
19469.0	6.696933900244308e+17
19470.0	6.723350032984748e+17
19471.0	6.748041335799808e+17
19472.0	6.770663258499753e+17
19473.0	6.792390461358079e+17
19474.0	6.81260360016418e+17
19475.0	6.831887554532689e+17
19476.0	6.855968672798033e+17
19477.0	6.881300949849437e+17
19478.0	6.904457693844819e+17
19479.0	6.924301852038482e+17
19480.0	6.942261972915537e+17
19481.0	6.958285287238316e+17
19482.0	6.972413772300288e+17
19483.0	6.986183524832596e+17
19484.0	6.997819332231168e+17
19485.0	7.009264822386687e+17
19486.0	7.019590383042561e+17
19487.0	7.029872714405203e+17
19488.0	7.038774856209747e+17
19489.0	7.047891526178131e+17
19490.0	7.056255312287059e+17
19491.0	7.064303635005439e+17
19492.0	7.07165217165585e+17
19493.0	7.079134671579816e+17
19494.0	7.086115241940308e+17
19495.0	7.092645427937279e+17
19496.0	7.098876996266666e+17
19497.0	7.105013969059839e+17
19498.0	7.110539437495638e+17
19499.0	7.110912269178193e+17
19500.0	7.122352033409705e+17
19501.0	7.127616788103165e+17
19502.0	7.13259109004083e+17
19503.0	7.137340935198036e+17
19504.0	7.142237920733865e+17
19505.0	7.149579877919402e+17
19506.0	7.157097422651396e+17
19507.0	7.163454671902036e+17
19508.0	7.171579276427261e+17
19509.0	7.175660889265492e+17
19510.0	7.182932517759661e+17
19511.0	7.181526269689853e+17
19512.0	7.190853339228842e+17
19513.0	7.193989519594833e+17
19514.0	7.197015500215633e+17
19515.0	7.203629330421074e+17
19516.0	7.206055399740756e+17
19517.0	7.208247442276351e+17
19518.0	7.212555753051475e+17
19519.0	7.214753792043689e+17
19520.0	7.216524028805117e+17
19521.0	7.218279442896211e+17
19522.0	7.221824897854122e+17
19523.0	7.223303761909076e+17
19524.0	7.224697561284607e+17
19525.0	7.226004060416681e+17
19526.0	7.227281033046697e+17
19527.0	7.229947472336211e+17
19528.0	7.231026824740863e+17
19529.0	7.232037171058004e+17
19530.0	7.232981099173203e+17
19531.0	7.233863605900628e+17
19532.0	7.234678406774781e+17
19533.0	7.235667847282687e+17
19534.0	7.237227771854847e+17
19535.0	7.237851954195113e+17
19536.0	7.238410274777769e+17
19537.0	7.23893607272721e+17
19538.0	7.239378834642259e+17
19539.0	7.239682639265791e+17
19540.0	7.240170708052649e+17
19541.0	7.24049768620578e+17
19542.0	7.240771159020884e+17
19543.0	7.241034372568403e+17
19544.0	7.241932403813033e+17
19545.0	7.24196594146782e+17
19546.0	7.24195974648081e+17
19547.0	7.24224014688802e+17
19548.0	7.242266924722858e+17
19549.0	7.242231345840127e+17
19550.0	7.242215663337471e+17
19551.0	7.242139153640105e+17
19552.0	7.242031492846932e+17
19553.0	7.241891728850943e+17
19554.0	7.241724295031466e+17
19555.0	7.241539626816854e+17
19556.0	7.241316727521279e+17
19557.0	7.241064536604671e+17
19558.0	7.240786701713407e+17
19559.0	7.240479903754922e+17
19560.0	7.240144167895039e+17
19561.0	7.240717258020178e+17
19562.0	7.241347119448063e+17
19563.0	7.241025307279357e+17
19564.0	7.240594237685757e+17
19565.0	7.240140834821459e+17
19566.0	7.239660779951444e+17
19567.0	7.241678152095059e+17
19568.0	7.241294046123347e+17
19569.0	7.240758725705727e+17
19570.0	7.240199636167338e+17
19571.0	7.239618399305727e+17
19572.0	7.23901188617011e+17
19573.0	7.238398754422783e+17
19574.0	7.239915421739689e+17
19575.0	7.239321058104662e+17
19576.0	7.238651343798271e+17
19577.0	7.237961053634557e+17
19578.0	7.237254679713108e+17
19579.0	7.236544463809194e+17
19580.0	7.23581794324753e+17
19581.0	7.23507906486818e+17
19582.0	7.234409577054207e+17
19583.0	7.235353644979539e+17
19584.0	7.234568987170131e+17
19585.0	7.233743720109398e+17
19586.0	7.232923565905238e+17
19587.0	7.232118701337258e+17
19588.0	7.231194504626175e+17
19589.0	7.230465475870717e+17
19590.0	7.229603620498089e+17
19591.0	7.228760631104851e+17
19592.0	7.227887796442454e+17
19593.0	7.227005896491007e+17
19594.0	7.226113577888425e+17
19595.0	7.226629398986751e+17
19596.0	7.224995579166719e+17
19597.0	7.224786157567999e+17
19598.0	7.223804416404138e+17
19599.0	7.22293037937459e+17
19600.0	7.221983537616212e+17
19601.0	7.221009786601471e+17
19602.0	7.22005197534003e+17
19603.0	7.218920054325247e+17
19604.0	7.218092720870739e+17
19605.0	7.217047412233555e+17
19606.0	7.216135755093331e+17
19607.0	7.215137651949568e+17
19608.0	7.214130159157247e+17
19609.0	7.213111467573247e+17
19610.0	7.212099121971199e+17
19611.0	7.211072384314025e+17
19612.0	7.21022289374959e+17
19613.0	7.210098169129641e+17
19614.0	7.209042043382441e+17
19615.0	7.20800350015761e+17
19616.0	7.206912283465044e+17
19617.0	7.206101669904383e+17
19618.0	7.204904446372522e+17
19619.0	7.203797254974121e+17
19620.0	7.202727766174377e+17
19621.0	7.201815366642345e+17
19622.0	7.200729907331071e+17
19623.0	7.199639694475263e+17
19624.0	7.198544838524927e+17
19625.0	7.197445251399679e+17
19626.0	7.196341646131199e+17
19627.0	7.195232189808637e+17
19628.0	7.194009758509738e+17
19629.0	7.192973866085033e+17
19630.0	7.191593206065833e+17
19631.0	7.185711027453951e+17
19632.0	7.189618909424298e+17
19633.0	7.188502426244436e+17
19634.0	7.187371532834132e+17
19635.0	7.18622295064576e+17
19636.0	7.185094941518505e+17
19637.0	7.183834354636116e+17
19638.0	7.18280188755968e+17
19639.0	7.181649480166058e+17
19640.0	7.180481882401449e+17
19641.0	7.17919821566225e+17
19642.0	7.178184745986729e+17
19643.0	7.177040563623251e+17
19644.0	7.176645700659881e+17
19645.0	7.175424534642687e+17
19646.0	7.17432399541043e+17
19647.0	7.173150680809471e+17
19648.0	7.171974572802045e+17
19649.0	7.170795348426752e+17
19650.0	7.169615212489385e+17
19651.0	7.168431897269587e+17
19652.0	7.167246350680063e+17
19653.0	7.166057989712553e+17
19654.0	7.164868475311444e+17
19655.0	7.163675016866474e+17
19656.0	7.162480161718272e+17
19657.0	7.1612857595549e+17
19658.0	7.160087375598932e+17
19659.0	7.158886751884628e+17
19660.0	7.157684978931028e+17
19661.0	7.156480841788074e+17
19662.0	7.155274813014015e+17
19663.0	7.154053420504403e+17
19664.0	7.152838667578025e+17
19665.0	7.151646459035647e+17
19666.0	7.15042966348322e+17
