# Flux units: erg / (cm m2 s)
# Wavelength units: Angstrom
wave	flux
19000.0	6.400327607648255e+17
19001.0	6.399064920118611e+17
19002.0	6.397990597383508e+17
19003.0	6.396814040585556e+17
19004.0	6.39564139217988e+17
19005.0	6.394468905953961e+17
19006.0	6.393301972986538e+17
19007.0	6.39211712684578e+17
19008.0	6.39093365154338e+17
19009.0	6.389639423546708e+17
19010.0	6.388397217502548e+17
19011.0	6.387324857002665e+17
19012.0	6.385830633406463e+17
19013.0	6.385103524943188e+17
19014.0	6.383910706129578e+17
19015.0	6.382757640929279e+17
19016.0	6.381607644561407e+17
19017.0	6.380451831392937e+17
19018.0	6.379274379810131e+17
19019.0	6.378118633750527e+17
19020.0	6.376941424738304e+17
19021.0	6.37578816729907e+17
19022.0	6.374614091431936e+17
19023.0	6.373402563226282e+17
19024.0	6.372220149781844e+17
19025.0	6.371016614521514e+17
19026.0	6.369753866174463e+17
19027.0	6.368393430390099e+17
19028.0	6.367511578673151e+17
19029.0	6.366371028576937e+17
19030.0	6.365227330655572e+17
19031.0	6.364034762102099e+17
19032.0	6.36280489779746e+17
19033.0	6.361431017870676e+17
19034.0	6.359911178261844e+17
19035.0	6.355851001113257e+17
19036.0	6.331722599759872e+17
19037.0	6.354240156292438e+17
19038.0	6.355306629387603e+17
19039.0	6.354529909298515e+17
19040.0	6.353489910650195e+17
19041.0	6.352374178250751e+17
19042.0	6.350480985467561e+17
19043.0	6.350105645591209e+17
19044.0	6.348938457470291e+17
19045.0	6.347747483451391e+17
19046.0	6.346579575308287e+17
19047.0	6.345384928477181e+17
19048.0	6.344021412675583e+17
19049.0	6.34146135491652e+17
19050.0	6.341360013541376e+17
19051.0	6.337142952645972e+17
19052.0	6.337373460409002e+17
19053.0	6.338091487505065e+17
19054.0	6.337205499505321e+17
19055.0	6.335722450933079e+17
19056.0	6.334911027871744e+17
19057.0	6.333849815132842e+17
19058.0	6.33195841471556e+17
19059.0	6.33127391339042e+17
19060.0	6.330379946426367e+17
19061.0	6.329235128625834e+17
19062.0	6.328074075373565e+17
19063.0	6.326909624735059e+17
19064.0	6.32569156739618e+17
19065.0	6.324466825734825e+17
19066.0	6.323129924190205e+17
19067.0	6.32227136414242e+17
19068.0	6.321124456879444e+17
19069.0	6.319965736359252e+17
19070.0	6.318787220122282e+17
19071.0	6.317613507761491e+17
19072.0	6.316218734608383e+17
19073.0	6.315329530975572e+17
19074.0	6.314171787728212e+17
19075.0	6.313011762779476e+17
19076.0	6.311845565912404e+17
19077.0	6.310678544165546e+17
19078.0	6.309513527295997e+17
19079.0	6.308372270459562e+17
19080.0	6.307201342417578e+17
19081.0	6.306009121991338e+17
19082.0	6.304869301704019e+17
19083.0	6.303629745760937e+17
19084.0	6.302349085638655e+17
19085.0	6.301327188907347e+17
19086.0	6.299367050138963e+17
19087.0	6.298145171789139e+17
19088.0	6.297215577008809e+17
19089.0	6.296383680850602e+17
19090.0	6.295447778536105e+17
19091.0	6.294302316210857e+17
19092.0	6.292599500789079e+17
19093.0	6.292119199154176e+17
19094.0	6.290995710787583e+17
19095.0	6.289856740545876e+17
19096.0	6.288705667639978e+17
19097.0	6.287559119689044e+17
19098.0	6.286099555723945e+17
19099.0	6.284881675943936e+17
19100.0	6.284027477273257e+17
19101.0	6.282906397136212e+17
19102.0	6.281730577137663e+17
19103.0	6.280624466471593e+17
19104.0	6.279462728149673e+17
19105.0	6.277603214928556e+17
19106.0	6.277058022517418e+17
19107.0	6.275693493791401e+17
19108.0	6.274268778900138e+17
19109.0	6.272749158793215e+17
19110.0	6.27200898437393e+17
19111.0	6.271016954582356e+17
19112.0	6.269948704500394e+17
19113.0	6.269074181630633e+17
19114.0	6.267784351361706e+17
19115.0	6.26668100194577e+17
19116.0	6.265609590756692e+17
19117.0	6.264437965062144e+17
19118.0	6.263044766870185e+17
19119.0	6.258331472975185e+17
19120.0	6.260679723974655e+17
19121.0	6.259663298712918e+17
19122.0	6.258728321242452e+17
19123.0	6.257609553565012e+17
19124.0	6.256219486420991e+17
19125.0	6.255286940947795e+17
19126.0	6.254022384855721e+17
19127.0	6.252180521964884e+17
19128.0	6.251597305391785e+17
19129.0	6.250638373552127e+17
19130.0	6.24957506855458e+17
19131.0	6.248447459983359e+17
19132.0	6.247301807516329e+17
19133.0	6.24611190444305e+17
19134.0	6.244949885801812e+17
19135.0	6.243859466027007e+17
19136.0	6.242707427033087e+17
19137.0	6.241507777096361e+17
19138.0	6.24040376148514e+17
19139.0	6.239279780986879e+17
19140.0	6.238138778604884e+17
19141.0	6.236993594501801e+17
19142.0	6.23581500416546e+17
19143.0	6.23467463582242e+17
19144.0	6.233516244555092e+17
19145.0	6.232404800831487e+17
19146.0	6.230746461809322e+17
19147.0	6.230073985553748e+17
19148.0	6.22872261435938e+17
19149.0	6.227533849340586e+17
19150.0	6.226670237253632e+17
19151.0	6.22551701266978e+17
19152.0	6.224320993602218e+17
19153.0	6.222695794475007e+17
19154.0	6.221950989544105e+17
19155.0	6.220839382941695e+17
19156.0	6.219649001018708e+17
19157.0	6.218190214397951e+17
19158.0	6.216653813579775e+17
19159.0	6.216029095067647e+17
19160.0	6.214890549149695e+17
19161.0	6.213482986864639e+17
19162.0	6.211358129389567e+17
19163.0	6.210882691050154e+17
19164.0	6.210310936111785e+17
19165.0	6.208774849866408e+17
19166.0	6.208140690675028e+17
19167.0	6.207000793492138e+17
19168.0	6.205949943480319e+17
19169.0	6.204863251742719e+17
19170.0	6.203740063967913e+17
19171.0	6.20258486316783e+17
19172.0	6.201444368296618e+17
19173.0	6.200344133151401e+17
19174.0	6.199202894490281e+17
19175.0	6.198082282018131e+17
19176.0	6.196937986408447e+17
19177.0	6.19565850628369e+17
19178.0	6.194590492480852e+17
19179.0	6.19343596626466e+17
19180.0	6.192340273550676e+17
19181.0	6.191166078844927e+17
19182.0	6.190061304763732e+17
19183.0	6.188964724255402e+17
19184.0	6.187823591150931e+17
19185.0	6.186671565438975e+17
19186.0	6.185527756368553e+17
19187.0	6.184305047546538e+17
19188.0	6.183204803313663e+17
19189.0	6.182033956361556e+17
19190.0	6.180848434937855e+17
19191.0	6.179633891027625e+17
19192.0	6.178451513234771e+17
19193.0	6.177127209282218e+17
19194.0	6.175759650171561e+17
19195.0	6.174447636228778e+17
19196.0	6.172742889330006e+17
19197.0	6.170446902853631e+17
19198.0	6.166446422534825e+17
19199.0	6.157501049339903e+17
19200.0	6.157230172798976e+17
19201.0	6.16336734552064e+17
19202.0	6.16490165477922e+17
19203.0	6.164776272352595e+17
19204.0	6.164236121494867e+17
19205.0	6.163404934873087e+17
19206.0	6.16245051400738e+17
19207.0	6.161313378773673e+17
19208.0	6.160265479454719e+17
19209.0	6.159277602723156e+17
19210.0	6.158182307769001e+17
19211.0	6.1570785738752e+17
19212.0	6.155939114997076e+17
19213.0	6.154671828413097e+17
19214.0	6.153533334224896e+17
19215.0	6.152523921140394e+17
19216.0	6.151445337691476e+17
19217.0	6.150275526732457e+17
19218.0	6.148889666475348e+17
19219.0	6.147897961742333e+17
19220.0	6.146925651471018e+17
19221.0	6.145742846558208e+17
19222.0	6.144687141639508e+17
19223.0	6.143591565666986e+17
19224.0	6.142437866427732e+17
19225.0	6.141306529120255e+17
19226.0	6.140209709536596e+17
19227.0	6.139087752090964e+17
19228.0	6.137982638970196e+17
19229.0	6.136852373307391e+17
19230.0	6.135717629526015e+17
19231.0	6.134579771473917e+17
19232.0	6.133450783675731e+17
19233.0	6.132270575736148e+17
19234.0	6.131190611662163e+17
19235.0	6.130041685540863e+17
19236.0	6.128934105470292e+17
19237.0	6.127793245694634e+17
19238.0	6.126596811390976e+17
19239.0	6.125538395553791e+17
19240.0	6.124413120413695e+17
19241.0	6.123266617901055e+17
19242.0	6.122139818131456e+17
19243.0	6.120889328336895e+17
19244.0	6.119892531019776e+17
19245.0	6.118755129447764e+17
19246.0	6.11762307141905e+17
19247.0	6.116492194086911e+17
19248.0	6.11535687778304e+17
19249.0	6.114192463495167e+17
19250.0	6.112964095858006e+17
19251.0	6.111765243538089e+17
19252.0	6.110569962668031e+17
19253.0	6.109674218717183e+17
19254.0	6.108555857887231e+17
19255.0	6.107261267083263e+17
19256.0	6.106281030975487e+17
19257.0	6.105158762452308e+17
19258.0	6.104016866683561e+17
19259.0	6.102756621636948e+17
19260.0	6.101060598191443e+17
19261.0	6.100553957725524e+17
19262.0	6.099407588032512e+17
19263.0	6.098235254199636e+17
19264.0	6.096925567396522e+17
19265.0	6.09593108533521e+17
19266.0	6.094800083572052e+17
19267.0	6.093819374206975e+17
19268.0	6.092685219026259e+17
19269.0	6.091549802758143e+17
19270.0	6.090378915261097e+17
19271.0	6.089126359771818e+17
19272.0	6.08811165487377e+17
19273.0	6.086825716918953e+17
19274.0	6.085537629383337e+17
19275.0	6.08474108142114e+17
19276.0	6.08359181136691e+17
19277.0	6.082457454859604e+17
19278.0	6.081294886065492e+17
19279.0	6.080137679689044e+17
19280.0	6.078988869610153e+17
19281.0	6.077854743789567e+17
19282.0	6.076700057490772e+17
19283.0	6.075501042292052e+17
19284.0	6.074288213852159e+17
19285.0	6.073109699013289e+17
19286.0	6.071806725892778e+17
19287.0	6.069999558284627e+17
19288.0	6.058245525340155e+17
19289.0	6.051445500193441e+17
19290.0	6.066366593368063e+17
19291.0	6.065916168459606e+17
19292.0	6.06518498173474e+17
19293.0	6.064120927354879e+17
19294.0	6.063003288644266e+17
19295.0	6.061903314944e+17
19296.0	6.060426371181228e+17
19297.0	6.059540752979284e+17
19298.0	6.058475401860435e+17
19299.0	6.056960345855316e+17
19300.0	6.056188489061718e+17
19301.0	6.055048570907305e+17
19302.0	6.053884486571348e+17
19303.0	6.052677005869055e+17
19304.0	6.05157230448913e+17
19305.0	6.050399614140415e+17
19306.0	6.04921729786402e+17
19307.0	6.047987076344489e+17
19308.0	6.046741597345107e+17
19309.0	6.045241152897023e+17
19310.0	6.043909760570708e+17
19311.0	6.043013485341353e+17
19312.0	6.041856823525376e+17
19313.0	6.039969452436138e+17
19314.0	5.993942145302529e+17
19315.0	5.995930714461565e+17
19316.0	6.03599163953425e+17
19317.0	6.03608009740561e+17
19318.0	6.035129739422377e+17
19319.0	6.034064295329791e+17
19320.0	6.032786859229183e+17
19321.0	6.031442714820607e+17
19322.0	6.030510692936362e+17
19323.0	6.02930024616209e+17
19324.0	6.028125306268329e+17
19325.0	6.026905838245204e+17
19326.0	6.025846371734868e+17
19327.0	6.024734669362515e+17
19328.0	6.02299985629457e+17
19329.0	6.02244074578466e+17
19330.0	6.021240808538111e+17
19331.0	6.019996281645738e+17
19332.0	6.018844216087891e+17
19333.0	6.017636573904895e+17
19334.0	6.016460291134804e+17
19335.0	6.014066655668908e+17
19336.0	6.014052673257471e+17
19337.0	6.01287825695266e+17
19338.0	6.011509749929299e+17
19339.0	6.010450168075604e+17
19340.0	6.009159956824063e+17
19341.0	6.007492941884074e+17
19342.0	6.006421014795606e+17
19343.0	6.005496862124713e+17
19344.0	6.003748764297898e+17
19345.0	6.001853280725673e+17
19346.0	6.001037435469823e+17
19347.0	5.99990989890082e+17
19348.0	5.999343983831721e+17
19349.0	5.99807917887761e+17
19350.0	5.996618582414676e+17
19351.0	5.995581648404477e+17
19352.0	5.993690415759357e+17
19353.0	5.993097235617108e+17
19354.0	5.991830129388201e+17
19355.0	5.990471795649194e+17
19356.0	5.989266461032447e+17
19357.0	5.987975776523603e+17
19358.0	5.986660277813247e+17
19359.0	5.985209990250495e+17
19360.0	5.983558671794176e+17
19361.0	5.982725631989076e+17
19362.0	5.981424802157908e+17
19363.0	5.98007451099682e+17
19364.0	5.97871837717026e+17
19365.0	5.977370707449172e+17
19366.0	5.976014640731476e+17
19367.0	5.974643415799124e+17
19368.0	5.97327322546176e+17
19369.0	5.971842473568937e+17
19370.0	5.970453770971818e+17
19371.0	5.969031374132564e+17
19372.0	5.967648596688895e+17
19373.0	5.966192102255274e+17
19374.0	5.964756614993236e+17
19375.0	5.963244650889215e+17
19376.0	5.961745661864618e+17
19377.0	5.960239141967188e+17
19378.0	5.958714813054975e+17
19379.0	5.957163070171818e+17
19380.0	5.955598730395647e+17
19381.0	5.954017063949652e+17
19382.0	5.952349834401108e+17
19383.0	5.95074134188578e+17
19384.0	5.949065086195027e+17
19385.0	5.947374902618793e+17
19386.0	5.945671332921344e+17
19387.0	5.943914770290004e+17
19388.0	5.942095633536339e+17
19389.0	5.94007747146547e+17
19390.0	5.936982438619818e+17
19391.0	5.91426046289509e+17
19392.0	5.929466419216383e+17
19393.0	5.932333697859583e+17
19394.0	5.930871749432662e+17
19395.0	5.928852494745599e+17
19396.0	5.927006217349802e+17
19397.0	5.924914987007999e+17
19398.0	5.92254826848802e+17
19399.0	5.920109911255721e+17
19400.0	5.918133525850794e+17
19401.0	5.916134956072959e+17
19402.0	5.913749273007443e+17
19403.0	5.911173780209663e+17
19404.0	5.908716800966655e+17
19405.0	5.906120044445695e+17
19406.0	5.903449849156948e+17
19407.0	5.900528379407018e+17
19408.0	5.897415408222207e+17
19409.0	5.894818436393642e+17
19410.0	5.892015638183935e+17
19411.0	5.888978483238227e+17
19412.0	5.885754349016404e+17
19413.0	5.882022193703593e+17
19414.0	5.878693318623231e+17
19415.0	5.875046365702826e+17
19416.0	5.871021466845183e+17
19417.0	5.86713428795938e+17
19418.0	5.863091140384084e+17
19419.0	5.858612728212137e+17
19420.0	5.854007056662527e+17
19421.0	5.849217341150548e+17
19422.0	5.844162758836223e+17
19423.0	5.838923056720554e+17
19424.0	5.833369755582463e+17
19425.0	5.827290022455978e+17
19426.0	5.820883087480148e+17
19427.0	5.814097271237289e+17
19428.0	5.806821908414463e+17
19429.0	5.798835994842452e+17
19430.0	5.788921756996948e+17
19431.0	5.778482776768512e+17
19432.0	5.771565841689257e+17
19433.0	5.7618362671650125e+17
19434.0	5.750878083831124e+17
19435.0	5.7377007361938765e+17
19436.0	5.723567789091498e+17
19437.0	5.708381630584149e+17
19438.0	5.656446947557381e+17
19439.0	5.6673008653871763e+17
19440.0	5.657922810587817e+17
19441.0	5.637257327979177e+17
19442.0	5.613032712088235e+17
19443.0	5.585053462910292e+17
19444.0	5.553079871078397e+17
19445.0	5.5151677152078515e+17
19446.0	5.4694725647947085e+17
19447.0	5.41287570105958e+17
19448.0	5.339186480895319e+17
19449.0	5.2348335032019616e+17
19450.0	5.0540565653094304e+17
19451.0	4.9124307597175546e+17
19452.0	5.160688547441322e+17
19453.0	5.28998776613547e+17
19454.0	5.3739131782212224e+17
19455.0	5.435730745273002e+17
19456.0	5.4837176389249715e+17
19457.0	5.521536969255593e+17
19458.0	5.440432741810309e+17
19459.0	5.5694635159606874e+17
19460.0	5.6070111637449363e+17
19461.0	5.6288555323883514e+17
19462.0	5.647099256722773e+17
19463.0	5.663405678176937e+17
19464.0	5.678093528203263e+17
19465.0	5.691063502460245e+17
19466.0	5.702612361936894e+17
19467.0	5.7131023043570323e+17
19468.0	5.7222634199668045e+17
19469.0	5.730089356492798e+17
19470.0	5.7383288010615456e+17
19471.0	5.745540754396501e+17
19472.0	5.751946209482068e+17
19473.0	5.7577368683806714e+17
19474.0	5.7625744471927456e+17
19475.0	5.767347574232403e+17
19476.0	5.772072492640938e+17
19477.0	5.776251946008576e+17
19478.0	5.779930916148563e+17
19479.0	5.782748569883988e+17
19480.0	5.786106800198996e+17
19481.0	5.788857586242899e+17
19482.0	5.791402401202176e+17
19483.0	5.793858443717289e+17
19484.0	5.796014139113472e+17
19485.0	5.797892649036457e+17
19486.0	5.799177199375702e+17
19487.0	5.801186061975551e+17
19488.0	5.802510003819859e+17
19489.0	5.803618735925929e+17
19490.0	5.804467913315668e+17
19491.0	5.80598887420177e+17
19492.0	5.806861555073023e+17
19493.0	5.807542008894806e+17
19494.0	5.808227618215252e+17
19495.0	5.808773704013139e+17
19496.0	5.808768735161001e+17
19497.0	5.808455392690175e+17
19498.0	5.79792940651861e+17
19499.0	5.775511099801597e+17
19500.0	5.808385136001023e+17
19501.0	5.810505723674623e+17
19502.0	5.811014047454548e+17
19503.0	5.811206940000255e+17
19504.0	5.81123995406609e+17
19505.0	5.811281543386452e+17
19506.0	5.811228153391786e+17
19507.0	5.811026125651968e+17
19508.0	5.810688038884692e+17
19509.0	5.809989715230719e+17
19510.0	5.807262912916137e+17
19511.0	5.736486746630792e+17
19512.0	5.796814008265385e+17
19513.0	5.79672669334186e+17
19514.0	5.798571036464463e+17
19515.0	5.807308361695231e+17
19516.0	5.807695804934825e+17
19517.0	5.807514213941247e+17
19518.0	5.807058140703401e+17
19519.0	5.806612559517011e+17
19520.0	5.805793843260074e+17
19521.0	5.805741562658815e+17
19522.0	5.805070995510612e+17
19523.0	5.80445696688128e+17
19524.0	5.803626764522838e+17
19525.0	5.803340888451754e+17
19526.0	5.802709290582015e+17
19527.0	5.802049043518804e+17
19528.0	5.801367854295722e+17
19529.0	5.800642618589183e+17
19530.0	5.800004888646998e+17
19531.0	5.799279080417961e+17
19532.0	5.798540459988308e+17
19533.0	5.797785775374335e+17
19534.0	5.797018237315753e+17
19535.0	5.796227608215551e+17
19536.0	5.795423069405183e+17
19537.0	5.794633938370559e+17
19538.0	5.793274214918825e+17
19539.0	5.792795499429887e+17
19540.0	5.792211207017812e+17
19541.0	5.791317434389844e+17
19542.0	5.790549042790399e+17
19543.0	5.789286929181354e+17
19544.0	5.788843777895081e+17
19545.0	5.787677538385919e+17
19546.0	5.786756741158228e+17
19547.0	5.786310209961983e+17
19548.0	5.78548783976721e+17
19549.0	5.784545369871699e+17
19550.0	5.783753660039168e+17
19551.0	5.782873423828308e+17
19552.0	5.781984853535402e+17
19553.0	5.781078289678335e+17
19554.0	5.780177534932308e+17
19555.0	5.779221820123817e+17
19556.0	5.778346115858431e+17
19557.0	5.777466864609961e+17
19558.0	5.77655917388322e+17
19559.0	5.775644696073555e+17
19560.0	5.774530686134954e+17
19561.0	5.773792940916736e+17
19562.0	5.772742397788159e+17
19563.0	5.771989905397076e+17
19564.0	5.771054497311401e+17
19565.0	5.770115403131562e+17
19566.0	5.769158118954324e+17
19567.0	5.768228475240448e+17
19568.0	5.767263831457791e+17
19569.0	5.76636004143377e+17
19570.0	5.765448366118228e+17
19571.0	5.7644980374951245e+17
19572.0	5.7635172743031456e+17
19573.0	5.7625341371351034e+17
19574.0	5.761576451003732e+17
19575.0	5.7607195539974816e+17
19576.0	5.7597168315269114e+17
19577.0	5.7586729112043514e+17
19578.0	5.75780598911249e+17
19579.0	5.756829228684628e+17
19580.0	5.755862698164224e+17
19581.0	5.754908329727317e+17
19582.0	5.7539419089578643e+17
19583.0	5.752966513775956e+17
19584.0	5.751969903105364e+17
19585.0	5.75090506998306e+17
19586.0	5.7498862322974726e+17
19587.0	5.7489683137604256e+17
19588.0	5.747830041171285e+17
19589.0	5.747022181171199e+17
19590.0	5.746038685390164e+17
19591.0	5.745148053596843e+17
19592.0	5.7441772847322445e+17
19593.0	5.743127354671103e+17
19594.0	5.7419558799714976e+17
19595.0	5.7412000726821536e+17
19596.0	5.7399682880853325e+17
19597.0	5.7392164807639034e+17
19598.0	5.737969847631871e+17
19599.0	5.737230409312938e+17
19600.0	5.736253353186645e+17
19601.0	5.735204717068288e+17
19602.0	5.7341439160702285e+17
19603.0	5.7329331854813856e+17
19604.0	5.7321077541437434e+17
19605.0	5.731061566100821e+17
19606.0	5.730274160323242e+17
19607.0	5.729298172346368e+17
19608.0	5.7282930234709325e+17
19609.0	5.727277206383273e+17
19610.0	5.726090125377534e+17
19611.0	5.7249897965595296e+17
19612.0	5.724311383266645e+17
19613.0	5.7232996402462714e+17
19614.0	5.722266720884052e+17
19615.0	5.7212464557370003e+17
19616.0	5.719871926392149e+17
19617.0	5.718909760045056e+17
19618.0	5.7178637034236576e+17
19619.0	5.716715963591338e+17
19620.0	5.71580577096226e+17
19621.0	5.714768222486528e+17
19622.0	5.714247058543956e+17
19623.0	5.7132025971561805e+17
19624.0	5.7121043899569485e+17
19625.0	5.7111331736999245e+17
19626.0	5.7100165793710074e+17
19627.0	5.7087635044870816e+17
19628.0	5.707212132100779e+17
19629.0	5.704148936119636e+17
19630.0	5.699429975719934e+17
19631.0	5.6934118044904096e+17
19632.0	5.7011506966254925e+17
19633.0	5.702068840955903e+17
19634.0	5.701722517973673e+17
19635.0	5.700870931655337e+17
19636.0	5.699561224579754e+17
19637.0	5.698356919664639e+17
19638.0	5.698120829982036e+17
19639.0	5.697165175990954e+17
19640.0	5.696016595200681e+17
19641.0	5.694610027664726e+17
19642.0	5.694143217008639e+17
19643.0	5.6931442833926816e+17
19644.0	5.6921335267328e+17
19645.0	5.6910835176789325e+17
19646.0	5.689660994311508e+17
19647.0	5.6891978403894605e+17
19648.0	5.6882073009739085e+17
19649.0	5.687199890669566e+17
19650.0	5.6862005585947296e+17
19651.0	5.6851904282842445e+17
19652.0	5.684184249008128e+17
19653.0	5.683171605610494e+17
19654.0	5.682172381888511e+17
19655.0	5.681165215552852e+17
19656.0	5.6801646971890336e+17
19657.0	5.6791613581557754e+17
19658.0	5.678151426375679e+17
19659.0	5.677147941240831e+17
19660.0	5.6761412348805114e+17
19661.0	5.675132409697622e+17
19662.0	5.674117635593556e+17
19663.0	5.6730794971190605e+17
