# Flux units: erg / (cm m2 s)
# Wavelength units: Angstrom
wave	flux
19000.0	6.698125322354687e+17
19001.0	6.696801523116714e+17
19002.0	6.695639456940031e+17
19003.0	6.694391097152852e+17
19004.0	6.693148533893801e+17
19005.0	6.691907174399999e+17
19006.0	6.690662807590227e+17
19007.0	6.689362547485354e+17
19008.0	6.688123641659391e+17
19009.0	6.686862772360531e+17
19010.0	6.685298026435923e+17
19011.0	6.684401973504681e+17
19012.0	6.682890721034239e+17
19013.0	6.681936215583402e+17
19014.0	6.680645201821695e+17
19015.0	6.679415812871508e+17
19016.0	6.67815910641937e+17
19017.0	6.676954427512148e+17
19018.0	6.67568879907635e+17
19019.0	6.674456708295338e+17
19020.0	6.673195573357225e+17
19021.0	6.671966145260201e+17
19022.0	6.670730085269503e+17
19023.0	6.669442090707625e+17
19024.0	6.668216278799699e+17
19025.0	6.667063692449108e+17
19026.0	6.665789794942975e+17
19027.0	6.664347286416042e+17
19028.0	6.663338761824938e+17
19029.0	6.662088378985129e+17
19030.0	6.660854068718249e+17
19031.0	6.659606312910847e+17
19032.0	6.658355259681449e+17
19033.0	6.657035740730708e+17
19034.0	6.655847142785021e+17
19035.0	6.654552121365843e+17
19036.0	6.636840956897957e+17
19037.0	6.652085566526804e+17
19038.0	6.650847519135062e+17
19039.0	6.649622516028755e+17
19040.0	6.648375601179305e+17
19041.0	6.647127710455124e+17
19042.0	6.645787859615743e+17
19043.0	6.644633287961257e+17
19044.0	6.643374278137172e+17
19045.0	6.642128086106111e+17
19046.0	6.640847838423721e+17
19047.0	6.639629811843071e+17
19048.0	6.638220342547796e+17
19049.0	6.637054768534867e+17
19050.0	6.635858168556201e+17
19051.0	6.632092576251899e+17
19052.0	6.632986911615658e+17
19053.0	6.632137608396797e+17
19054.0	6.630905457497428e+17
19055.0	6.629445898425684e+17
19056.0	6.628385041503572e+17
19057.0	6.627156318049619e+17
19058.0	6.625878950455977e+17
19059.0	6.624660859562665e+17
19060.0	6.623401607867049e+17
19061.0	6.622173506568191e+17
19062.0	6.620921939536553e+17
19063.0	6.619676083049812e+17
19064.0	6.618328813884755e+17
19065.0	6.617039891682644e+17
19066.0	6.615880997098835e+17
19067.0	6.614687687551657e+17
19068.0	6.613441204016468e+17
19069.0	6.612194754035711e+17
19070.0	6.610927764548266e+17
19071.0	6.609693017374719e+17
19072.0	6.608444875691348e+17
19073.0	6.607202899634857e+17
19074.0	6.605960458010623e+17
19075.0	6.604713681573204e+17
19076.0	6.603449888145408e+17
19077.0	6.602209272441514e+17
19078.0	6.60095190049314e+17
19079.0	6.59972586279185e+17
19080.0	6.598467389838675e+17
19081.0	6.597199525838847e+17
19082.0	6.59595124154914e+17
19083.0	6.59465356583458e+17
19084.0	6.59330661753378e+17
19085.0	6.59224713634338e+17
19086.0	6.590670485585919e+17
19087.0	6.589280055634602e+17
19088.0	6.588407381054804e+17
19089.0	6.5868728383133e+17
19090.0	6.585983203366227e+17
19091.0	6.584745428604244e+17
19092.0	6.583366607088298e+17
19093.0	6.582281097445376e+17
19094.0	6.58103602459443e+17
19095.0	6.579790612703914e+17
19096.0	6.578534314497363e+17
19097.0	6.577301700127401e+17
19098.0	6.576051221517652e+17
19099.0	6.574805048360959e+17
19100.0	6.573538922900138e+17
19101.0	6.572313902317568e+17
19102.0	6.570997422839123e+17
19103.0	6.569835711081129e+17
19104.0	6.568591025504255e+17
19105.0	6.567327566222676e+17
19106.0	6.566016748355584e+17
19107.0	6.564837449880915e+17
19108.0	6.563599171103402e+17
19109.0	6.561031273491112e+17
19110.0	6.561072084069034e+17
19111.0	6.559868989909673e+17
19112.0	6.558631542303401e+17
19113.0	6.557395310346237e+17
19114.0	6.556150314390867e+17
19115.0	6.554837417547092e+17
19116.0	6.553646270862676e+17
19117.0	6.552402145924436e+17
19118.0	6.551036426016084e+17
19119.0	6.546367402999802e+17
19120.0	6.548540432755369e+17
19121.0	6.547346666728105e+17
19122.0	6.546206610161663e+17
19123.0	6.544963524711764e+17
19124.0	6.543636216239443e+17
19125.0	6.542468370311849e+17
19126.0	6.541227893719039e+17
19127.0	6.538576679753043e+17
19128.0	6.538406537112234e+17
19129.0	6.537441039089663e+17
19130.0	6.53625079767586e+17
19131.0	6.535015296226644e+17
19132.0	6.533778771367252e+17
19133.0	6.532403473765718e+17
19134.0	6.53113977540881e+17
19135.0	6.53004703268864e+17
19136.0	6.528814760853504e+17
19137.0	6.527441575084031e+17
19138.0	6.52631071732531e+17
19139.0	6.525088701262506e+17
19140.0	6.523848950983337e+17
19141.0	6.522607550245545e+17
19142.0	6.521345851173546e+17
19143.0	6.520080714869417e+17
19144.0	6.518853211957929e+17
19145.0	6.517639723614208e+17
19146.0	6.515915207562582e+17
19147.0	6.51508051939601e+17
19148.0	6.513904284860415e+17
19149.0	6.512664646429353e+17
19150.0	6.511429145679188e+17
19151.0	6.510195061904723e+17
19152.0	6.50893409264162e+17
19153.0	6.50768484016674e+17
19154.0	6.506367054861652e+17
19155.0	6.505229800789332e+17
19156.0	6.50398361854498e+17
19157.0	6.50270246838818e+17
19158.0	6.500614781534205e+17
19159.0	6.500233557748394e+17
19160.0	6.498994528190463e+17
19161.0	6.497742114608467e+17
19162.0	6.494476210711212e+17
19163.0	6.495226259920212e+17
19164.0	6.494058602736298e+17
19165.0	6.49276799582208e+17
19166.0	6.491438756571817e+17
19167.0	6.490144195127978e+17
19168.0	6.489079546555049e+17
19169.0	6.487813481911635e+17
19170.0	6.486616759599101e+17
19171.0	6.485256792877738e+17
19172.0	6.484123853346132e+17
19173.0	6.482892469305343e+17
19174.0	6.481614478158506e+17
19175.0	6.480420878505302e+17
19176.0	6.47918006706722e+17
19177.0	6.477814875641172e+17
19178.0	6.47664017342464e+17
19179.0	6.4752830133917e+17
19180.0	6.474187196246697e+17
19181.0	6.472879897400659e+17
19182.0	6.471719055960746e+17
19183.0	6.470492737241087e+17
19184.0	6.469239820342611e+17
19185.0	6.468007817641983e+17
19186.0	6.466769705937577e+17
19187.0	6.465471182274559e+17
19188.0	6.464282177481385e+17
19189.0	6.463032313337172e+17
19190.0	6.461781493590697e+17
19191.0	6.46051496337954e+17
19192.0	6.459319654547455e+17
19193.0	6.458067368891731e+17
19194.0	6.456819347445076e+17
19195.0	6.45558679249442e+17
19196.0	6.454327266071894e+17
19197.0	6.453064071031466e+17
19198.0	6.451728918511615e+17
19199.0	6.438293856059387e+17
19200.0	6.440778007401816e+17
19201.0	6.448018507868842e+17
19202.0	6.446862694700372e+17
19203.0	6.445608681690452e+17
19204.0	6.44438528500258e+17
19205.0	6.443157241025876e+17
19206.0	6.441914733690879e+17
19207.0	6.440602793847466e+17
19208.0	6.439267516197546e+17
19209.0	6.438187530452991e+17
19210.0	6.43694698045986e+17
19211.0	6.435709992828927e+17
19212.0	6.434464282443775e+17
19213.0	6.433058253176831e+17
19214.0	6.431754529275904e+17
19215.0	6.430678588238506e+17
19216.0	6.429482264384851e+17
19217.0	6.428237333441194e+17
19218.0	6.42632698315844e+17
19219.0	6.425618890271401e+17
19220.0	6.424475820097536e+17
19221.0	6.422993504130388e+17
19222.0	6.42199941353745e+17
19223.0	6.420739404769961e+17
19224.0	6.419470513864704e+17
19225.0	6.418144918066516e+17
19226.0	6.416993353728e+17
19227.0	6.415742220107775e+17
19228.0	6.414515201638399e+17
19229.0	6.413264646133076e+17
19230.0	6.4119989338112e+17
19231.0	6.410743640140457e+17
19232.0	6.409504474966697e+17
19233.0	6.408203234093737e+17
19234.0	6.406989121497769e+17
19235.0	6.405737703363923e+17
19236.0	6.404502333336233e+17
19237.0	6.403235868835839e+17
19238.0	6.40190337131042e+17
19239.0	6.400741244316329e+17
19240.0	6.399458388475904e+17
19241.0	6.398203807137792e+17
19242.0	6.396960095338495e+17
19243.0	6.395582413275135e+17
19244.0	6.394460730556415e+17
19245.0	6.393197720065364e+17
19246.0	6.39192866558225e+17
19247.0	6.390683629780991e+17
19248.0	6.389424340336639e+17
19249.0	6.388155066351615e+17
19250.0	6.386885064654847e+17
19251.0	6.385542792303956e+17
19252.0	6.383525278952104e+17
19253.0	6.381285764584788e+17
19254.0	6.380035232148137e+17
19255.0	6.378622956863487e+17
19256.0	6.377466492179795e+17
19257.0	6.376234852286464e+17
19258.0	6.374965306370729e+17
19259.0	6.373636471870803e+17
19260.0	6.372112805658623e+17
19261.0	6.371138779916969e+17
19262.0	6.369828343032489e+17
19263.0	6.368551860436991e+17
19264.0	6.366891831809363e+17
19265.0	6.365889839147689e+17
19266.0	6.364608848374442e+17
19267.0	6.363490628053674e+17
19268.0	6.362209958843731e+17
19269.0	6.360927841899859e+17
19270.0	6.359642197546324e+17
19271.0	6.358090224675498e+17
19272.0	6.356986104905727e+17
19273.0	6.354793380795731e+17
19274.0	6.353776334077951e+17
19275.0	6.353146350316202e+17
19276.0	6.351839366042966e+17
19277.0	6.350549809801897e+17
19278.0	6.349257143484415e+17
19279.0	6.347943350457684e+17
19280.0	6.346601186459647e+17
19281.0	6.345355843076095e+17
19282.0	6.344064528023551e+17
19283.0	6.342585481516372e+17
19284.0	6.341320899559423e+17
19285.0	6.339997398117033e+17
19286.0	6.338810538710356e+17
19287.0	6.337523997474815e+17
19288.0	6.331700511156901e+17
19289.0	6.324158386405357e+17
19290.0	6.333576526867114e+17
19291.0	6.33205542756898e+17
19292.0	6.330943361690281e+17
19293.0	6.329613076660223e+17
19294.0	6.3282834585245e+17
19295.0	6.326963462122154e+17
19296.0	6.325622860502356e+17
19297.0	6.324276598669311e+17
19298.0	6.322387639336956e+17
19299.0	6.319270581501951e+17
19300.0	6.317926575505407e+17
19301.0	6.316572208878932e+17
19302.0	6.315209053088425e+17
19303.0	6.313800949039103e+17
19304.0	6.312469374959615e+17
19305.0	6.311116418318335e+17
19306.0	6.309749331066879e+17
19307.0	6.308333853431124e+17
19308.0	6.306972617233747e+17
19309.0	6.305183538959699e+17
19310.0	6.303651476449961e+17
19311.0	6.302775398192468e+17
19312.0	6.301450741219327e+17
19313.0	6.300058605584383e+17
19314.0	6.284046628465326e+17
19315.0	6.283644651263334e+17
19316.0	6.295787245229396e+17
19317.0	6.294425152694953e+17
19318.0	6.293001169010687e+17
19319.0	6.291591448756223e+17
19320.0	6.288901253627905e+17
19321.0	6.285755104100352e+17
19322.0	6.284217331744767e+17
19323.0	6.282658520760319e+17
19324.0	6.281357967753215e+17
19325.0	6.279508988526591e+17
19326.0	6.27841126507042e+17
19327.0	6.276925140675242e+17
19328.0	6.275430867446442e+17
19329.0	6.273945588203519e+17
19330.0	6.272405749454164e+17
19331.0	6.270884422265514e+17
19332.0	6.269393287774207e+17
19333.0	6.267801376740694e+17
19334.0	6.262664931398995e+17
19335.0	6.261065666352468e+17
19336.0	6.259502522651987e+17
19337.0	6.257914167689215e+17
19338.0	6.256149063357779e+17
19339.0	6.254698905119402e+17
19340.0	6.253007236060502e+17
19341.0	6.251408907042815e+17
19342.0	6.249473733470889e+17
19343.0	6.244835725934595e+17
19344.0	6.241994870707539e+17
19345.0	6.238747086203558e+17
19346.0	6.237897008436563e+17
19347.0	6.236744310237865e+17
19348.0	6.235053243760639e+17
19349.0	6.233249765741908e+17
19350.0	6.227328806595242e+17
19351.0	6.224345879805951e+17
19352.0	6.222414915218089e+17
19353.0	6.220588588728319e+17
19354.0	6.218670828508502e+17
19355.0	6.21574773346577e+17
19356.0	6.211667876642815e+17
19357.0	6.209649144845652e+17
19358.0	6.207597068331689e+17
19359.0	6.205475696323241e+17
19360.0	6.203393555737257e+17
19361.0	6.201284689745236e+17
19362.0	6.199163885365929e+17
19363.0	6.196982787866623e+17
19364.0	6.194770963595264e+17
19365.0	6.192529164730365e+17
19366.0	6.190254518173695e+17
19367.0	6.187953276933459e+17
19368.0	6.185624295964671e+17
19369.0	6.183213677062825e+17
19370.0	6.180756947380906e+17
19371.0	6.178376582692863e+17
19372.0	6.175938072368467e+17
19373.0	6.173405044801535e+17
19374.0	6.170859309891583e+17
19375.0	6.168254020059135e+17
19376.0	6.165609190522879e+17
19377.0	6.162913717562025e+17
19378.0	6.160176360281427e+17
19379.0	6.15738807226641e+17
19380.0	6.154549393184084e+17
19381.0	6.151658849435647e+17
19382.0	6.148655513163092e+17
19383.0	6.145628826501119e+17
19384.0	6.142663091464873e+17
19385.0	6.139582640816127e+17
19386.0	6.13644703506978e+17
19387.0	6.133245603916457e+17
19388.0	6.12998046478063e+17
19389.0	6.12664952819985e+17
19390.0	6.123244174180351e+17
19391.0	6.106165174512279e+17
19392.0	6.116045200818173e+17
19393.0	6.112656112309588e+17
19394.0	6.108976045359103e+17
19395.0	6.105205496785578e+17
19396.0	6.101377479955795e+17
19397.0	6.097506923795796e+17
19398.0	6.09339606966818e+17
19399.0	6.088560114750803e+17
19400.0	6.084853235012948e+17
19401.0	6.0806526416541e+17
19402.0	6.076365341545812e+17
19403.0	6.072005340867242e+17
19404.0	6.067624783904768e+17
19405.0	6.063177078232404e+17
19406.0	6.058706861730474e+17
19407.0	6.054184347850068e+17
19408.0	6.049063122239488e+17
19409.0	6.044494220754943e+17
19410.0	6.039362663874559e+17
19411.0	6.03437246971904e+17
19412.0	6.029289830307156e+17
19413.0	6.02410504491281e+17
19414.0	6.018179369271296e+17
19415.0	6.012341779606186e+17
19416.0	6.00664355897344e+17
19417.0	6.00024381583087e+17
19418.0	5.993653104629076e+17
19419.0	5.987089524981761e+17
19420.0	5.979122327792297e+17
19421.0	5.97088021914146e+17
19422.0	5.961953624544599e+17
19423.0	5.951210216838481e+17
19424.0	5.938382444167168e+17
19425.0	5.92300536094174e+17
19426.0	5.904180897469787e+17
19427.0	5.87820579859115e+17
19428.0	5.85375895589137e+17
19429.0	5.838841615919785e+17
19430.0	5.823800878126422e+17
19431.0	5.806241013388632e+17
19432.0	5.792854776829267e+17
19433.0	5.776065737086294e+17
19434.0	5.758161408141994e+17
19435.0	5.7388262741770214e+17
19436.0	5.718241967428947e+17
19437.0	5.6977278355810976e+17
19438.0	5.653704713699333e+17
19439.0	5.6426347647467514e+17
19440.0	5.6037440323147155e+17
19441.0	5.545727848262309e+17
19442.0	5.48451750178543e+17
19443.0	5.4378885161506125e+17
19444.0	5.38561391973717e+17
19445.0	5.324225043409582e+17
19446.0	5.240548324190886e+17
19447.0	5.119035497425577e+17
19448.0	4.978203059115357e+17
19449.0	4.7709274879208115e+17
19450.0	4.3766150500188243e+17
19451.0	4.230702422469252e+17
19452.0	4.595977080711861e+17
19453.0	4.8891847819045626e+17
19454.0	5.047555318611958e+17
19455.0	5.179374035446434e+17
19456.0	5.278450880697692e+17
19457.0	5.346224156704766e+17
19458.0	5.3727084126317645e+17
19459.0	5.446360372696415e+17
19460.0	5.495113181910363e+17
19461.0	5.5595676365837664e+17
19462.0	5.6035859028596045e+17
19463.0	5.635632762191873e+17
19464.0	5.660203372511229e+17
19465.0	5.680672828030977e+17
19466.0	5.69926154924851e+17
19467.0	5.716272425030996e+17
19468.0	5.732703840938666e+17
19469.0	5.747661450422953e+17
19470.0	5.761742686650366e+17
19471.0	5.7751587272349e+17
19472.0	5.788088018840233e+17
19473.0	5.800348715319295e+17
19474.0	5.816977135588704e+17
19475.0	5.841178473791497e+17
19476.0	5.861959491999054e+17
19477.0	5.876199052716707e+17
19478.0	5.887636614938625e+17
19479.0	5.89661222696823e+17
19480.0	5.90392455209506e+17
19481.0	5.911228257228115e+17
19482.0	5.916144861620905e+17
19483.0	5.921630979096576e+17
19484.0	5.925418592195924e+17
19485.0	5.930398682273108e+17
19486.0	5.933742473696596e+17
19487.0	5.936990541316095e+17
19488.0	5.941022334211411e+17
19489.0	5.944018901576362e+17
19490.0	5.945933021839359e+17
19491.0	5.949687124546899e+17
19492.0	5.95239443173649e+17
19493.0	5.955450795196415e+17
19494.0	5.957905467572223e+17
19495.0	5.96016875385651e+17
19496.0	5.962095691912532e+17
19497.0	5.964522976881322e+17
19498.0	5.965194100473856e+17
19499.0	5.947085118155421e+17
19500.0	5.970756201960788e+17
19501.0	5.972737329725439e+17
19502.0	5.974633452229972e+17
19503.0	5.976505110757376e+17
19504.0	5.97849282777361e+17
19505.0	5.980168587138388e+17
19506.0	5.981720683741183e+17
19507.0	5.983177515117225e+17
19508.0	5.984590436324692e+17
19509.0	5.985909203096916e+17
19510.0	5.98699501822498e+17
19511.0	5.96123921643382e+17
19512.0	5.986077475777188e+17
19513.0	5.98431264477456e+17
19514.0	5.986996709228536e+17
19515.0	5.99185156088354e+17
19516.0	5.993202595834537e+17
19517.0	5.993955188189865e+17
19518.0	5.994742960269993e+17
19519.0	5.995432828906154e+17
19520.0	5.996057162940415e+17
19521.0	5.996680358920191e+17
19522.0	5.997194926620672e+17
19523.0	5.997703979510441e+17
19524.0	5.998135339210068e+17
19525.0	5.998521905840127e+17
19526.0	5.998874859317929e+17
19527.0	5.999171041492991e+17
19528.0	5.999421327496532e+17
19529.0	5.999639060807677e+17
19530.0	5.999816220519082e+17
19531.0	5.999950036292948e+17
19532.0	6.000045336472233e+17
19533.0	6.000103240936105e+17
19534.0	6.000123155491497e+17
19535.0	6.000105754722304e+17
19536.0	6.00004795441698e+17
19537.0	6.000012295842474e+17
19538.0	5.999827262024361e+17
19539.0	5.999365145493504e+17
19540.0	5.999605438567764e+17
19541.0	5.999438970836307e+17
19542.0	5.99922276704802e+17
19543.0	5.998974309061974e+17
19544.0	5.998719128305663e+17
19545.0	5.998074850355882e+17
19546.0	5.997433187554643e+17
19547.0	5.998797454136659e+17
19548.0	6.000257928964778e+17
19549.0	5.999773209329663e+17
19550.0	5.999418113261567e+17
19551.0	5.998970834780159e+17
19552.0	5.998502523961343e+17
19553.0	6.000589364264959e+17
19554.0	6.002292123063636e+17
19555.0	6.001748230187689e+17
19556.0	6.001182973624319e+17
19557.0	6.000589108412416e+17
19558.0	5.999988404387839e+17
19559.0	5.999372945500841e+17
19560.0	5.998747248317783e+17
19561.0	6.002109700898817e+17
19562.0	6.001451342670506e+17
19563.0	6.000760485576704e+17
19564.0	6.000055120385364e+17
19565.0	5.999339393865044e+17
19566.0	5.99858922721553e+17
19567.0	5.997877713174527e+17
19568.0	5.997113626329087e+17
19569.0	5.996373580535124e+17
19570.0	5.995618374429353e+17
19571.0	5.997108952476328e+17
19572.0	5.997333922359977e+17
19573.0	5.996534615943849e+17
19574.0	5.995664717294249e+17
19575.0	5.994917526503423e+17
19576.0	5.994090742502739e+17
19577.0	5.993242069128531e+17
19578.0	5.992383866994687e+17
19579.0	5.99154694885649e+17
19580.0	5.990695895214762e+17
19581.0	5.989847189684223e+17
19582.0	5.9889971377821e+17
19583.0	5.988128047934121e+17
19584.0	5.987243727170218e+17
19585.0	5.986285498575529e+17
19586.0	5.985377085030397e+17
19587.0	5.987145381227176e+17
19588.0	5.98596281888495e+17
19589.0	5.9854020949661e+17
19590.0	5.984429602941609e+17
19591.0	5.983590720471039e+17
19592.0	5.982668915212287e+17
19593.0	5.981728239779837e+17
19594.0	5.980620626853887e+17
19595.0	5.979852670063956e+17
19596.0	5.97819824083217e+17
19597.0	5.977978890616832e+17
19598.0	5.976774730405206e+17
19599.0	5.976111413810516e+17
19600.0	5.975168796415316e+17
19601.0	5.974161048469504e+17
19602.0	5.973219259449341e+17
19603.0	5.971789070991359e+17
19604.0	5.971277873414144e+17
19605.0	5.970136707454292e+17
19606.0	5.969406086261417e+17
19607.0	5.96843950051601e+17
19608.0	5.96745227529967e+17
19609.0	5.966449329831935e+17
19610.0	5.965509896612521e+17
19611.0	5.96452340470033e+17
19612.0	5.963554740677289e+17
19613.0	5.962562481597098e+17
19614.0	5.961552180019199e+17
19615.0	5.961296570045783e+17
19616.0	5.961508550868991e+17
19617.0	5.960631192649727e+17
19618.0	5.959191334223871e+17
19619.0	5.958080065961983e+17
19620.0	5.95710463442944e+17
19621.0	5.956626762694655e+17
19622.0	5.955632591011839e+17
19623.0	5.954625259700223e+17
19624.0	5.953608170340351e+17
19625.0	5.95260470338082e+17
19626.0	5.951591974699007e+17
19627.0	5.950573508209321e+17
19628.0	5.949271438961321e+17
19629.0	5.948540145281705e+17
19630.0	5.946821329988265e+17
19631.0	5.933248897788586e+17
19632.0	5.945556355164841e+17
19633.0	5.944529522436778e+17
19634.0	5.943556666905939e+17
19635.0	5.942502917931007e+17
19636.0	5.941501092342441e+17
19637.0	5.940179799900159e+17
19638.0	5.939452283890346e+17
19639.0	5.938420756338003e+17
19640.0	5.937327058015574e+17
19641.0	5.935707155595264e+17
19642.0	5.935335182346921e+17
19643.0	5.93430080336691e+17
19644.0	5.933227399184383e+17
19645.0	5.932024089018367e+17
19646.0	5.931197804838911e+17
19647.0	5.930175213251242e+17
19648.0	5.929139747247444e+17
19649.0	5.928100669947901e+17
19650.0	5.927065164098218e+17
19651.0	5.926021678585174e+17
19652.0	5.924985405876906e+17
19653.0	5.923940035723263e+17
19654.0	5.922907059737939e+17
19655.0	5.921862167035904e+17
19656.0	5.920818406096895e+17
19657.0	5.919781534302208e+17
19658.0	5.918738442354687e+17
19659.0	5.917693458776063e+17
19660.0	5.916650645749759e+17
19661.0	5.915605806874623e+17
19662.0	5.914560275939328e+17
19663.0	5.913474347565055e+17
19664.0	5.9124188432739e+17
19665.0	5.911421079868756e+17
19666.0	5.910361618251775e+17
