# Flux units: erg / (cm m2 s)
# Wavelength units: Angstrom
wave	flux
19000.0	4.0324827066313376e+17
19001.0	4.0317674121243296e+17
19002.0	4.03109466673425e+17
19003.0	4.0303985087392416e+17
19004.0	4.0296899740521805e+17
19005.0	4.0289947975243085e+17
19006.0	4.028284989166932e+17
19007.0	4.027615929871017e+17
19008.0	4.0269111952233805e+17
19009.0	4.026214792560638e+17
19010.0	4.025430597522772e+17
19011.0	4.02482789351424e+17
19012.0	4.024088362920618e+17
19013.0	4.0234564588666874e+17
19014.0	4.022744611378518e+17
19015.0	4.02204158660881e+17
19016.0	4.021349051094357e+17
19017.0	4.020680570612395e+17
19018.0	4.0199826817679354e+17
19019.0	4.019290224547157e+17
19020.0	4.018594646065151e+17
19021.0	4.01790532129041e+17
19022.0	4.017216041953962e+17
19023.0	4.0165015087131296e+17
19024.0	4.015806671923882e+17
19025.0	4.015133512695808e+17
19026.0	4.014435553946282e+17
19027.0	4.0137379328382285e+17
19028.0	4.0130550693888e+17
19029.0	4.012360238191956e+17
19030.0	4.011663452449449e+17
19031.0	4.0109829014596256e+17
19032.0	4.010294042951679e+17
19033.0	4.009580396107093e+17
19034.0	4.0089105657582925e+17
19035.0	4.0082211815642445e+17
19036.0	4.006453852853588e+17
19037.0	4.0068348361659725e+17
19038.0	4.0061409633675936e+17
19039.0	4.0054549905408e+17
19040.0	4.004758608150527e+17
19041.0	4.0040700306609485e+17
19042.0	4.002125277997737e+17
19043.0	4.002696577854122e+17
19044.0	4.0020116612928845e+17
19045.0	4.001312742047743e+17
19046.0	4.0006187993442976e+17
19047.0	3.9999374213775354e+17
19048.0	3.9990584728180045e+17
19049.0	3.9959558147276755e+17
19050.0	3.9978594205696e+17
19051.0	3.997003153407999e+17
19052.0	3.9964888932898125e+17
19053.0	3.995808986824704e+17
19054.0	3.995116585527978e+17
19055.0	3.994005218699947e+17
19056.0	3.993627283248469e+17
19057.0	3.9930588823551994e+17
19058.0	3.991040061079549e+17
19059.0	3.991138369273854e+17
19060.0	3.9909962368942074e+17
19061.0	3.9903016734337696e+17
19062.0	3.9896112113035936e+17
19063.0	3.988935915776682e+17
19064.0	3.9882322912215034e+17
19065.0	3.987538567320917e+17
19066.0	3.986364964711083e+17
19067.0	3.9861724978872314e+17
19068.0	3.985508095666857e+17
19069.0	3.9848196516959565e+17
19070.0	3.984119229491882e+17
19071.0	3.983441987807915e+17
19072.0	3.982238715390633e+17
19073.0	3.9820804363386874e+17
19074.0	3.98137891033361e+17
19075.0	3.980709128918357e+17
19076.0	3.9800058979287034e+17
19077.0	3.9793347323931296e+17
19078.0	3.9786435893876045e+17
19079.0	3.977960548379305e+17
19080.0	3.9772843203188045e+17
19081.0	3.976588106399743e+17
19082.0	3.97591216984337e+17
19083.0	3.9752228583505914e+17
19084.0	3.9745208192423245e+17
19085.0	3.9738620206120954e+17
19086.0	3.97250634256657e+17
19087.0	3.971407586612564e+17
19088.0	3.971188615282687e+17
19089.0	3.9710942958714874e+17
19090.0	3.970446894563327e+17
19091.0	3.969688511272277e+17
19092.0	3.9680798244208666e+17
19093.0	3.968398795647659e+17
19094.0	3.967718152383146e+17
19095.0	3.967029175735636e+17
19096.0	3.966350909243391e+17
19097.0	3.965670085623808e+17
19098.0	3.9644726411919354e+17
19099.0	3.963678063853568e+17
19100.0	3.963621293249876e+17
19101.0	3.9629379474554874e+17
19102.0	3.96223457595665e+17
19103.0	3.9615758318523725e+17
19104.0	3.96090532691968e+17
19105.0	3.959083529579182e+17
19106.0	3.959529425338367e+17
19107.0	3.958593671921663e+17
19108.0	3.95775814139904e+17
19109.0	3.9574492420942496e+17
19110.0	3.9568170891782816e+17
19111.0	3.9558192999082656e+17
19112.0	3.9550689696808954e+17
19113.0	3.954776591739563e+17
19114.0	3.9538938403444045e+17
19115.0	3.953373483805353e+17
19116.0	3.9527270541776205e+17
19117.0	3.9520596509327354e+17
19118.0	3.95136999760418e+17
19119.0	3.9471348285003034e+17
19120.0	3.9500195575453e+17
19121.0	3.949336863266134e+17
19122.0	3.948673983578111e+17
19123.0	3.947998552435369e+17
19124.0	3.9473139196887034e+17
19125.0	3.9466385339842554e+17
19126.0	3.945960266792959e+17
19127.0	3.9449425657637523e+17
19128.0	3.944600732084906e+17
19129.0	3.9439194533833376e+17
19130.0	3.9432542353708365e+17
19131.0	3.942576792360276e+17
19132.0	3.9418963818796365e+17
19133.0	3.9412175414667936e+17
19134.0	3.940544259904853e+17
19135.0	3.939868482732032e+17
19136.0	3.939189776536916e+17
19137.0	3.938475000026453e+17
19138.0	3.937837516150101e+17
19139.0	3.937165520841386e+17
19140.0	3.9364889404593485e+17
19141.0	3.935812066476032e+17
19142.0	3.9351322690628256e+17
19143.0	3.934447448970581e+17
19144.0	3.933779687112704e+17
19145.0	3.9331075981311994e+17
19146.0	3.932336913645568e+17
19147.0	3.931728504684542e+17
19148.0	3.9306540708003846e+17
19149.0	3.9298942894079994e+17
19150.0	3.929740117278719e+17
19151.0	3.9290624827282765e+17
19152.0	3.9283901819344205e+17
19153.0	3.926785766282579e+17
19154.0	3.9269445724187296e+17
19155.0	3.9263704945349965e+17
19156.0	3.9256947865681914e+17
19157.0	3.9247332346866355e+17
19158.0	3.923661966802944e+17
19159.0	3.923653571204438e+17
19160.0	3.9229980105768954e+17
19161.0	3.922325881749504e+17
19162.0	3.9215794067865594e+17
19163.0	3.920985147310079e+17
19164.0	3.9203072296441165e+17
19165.0	3.9186369060973203e+17
19166.0	3.9189317831447885e+17
19167.0	3.9182802539424416e+17
19168.0	3.917623135830016e+17
19169.0	3.91694852886801e+17
19170.0	3.9162792647502496e+17
19171.0	3.9155995358440096e+17
19172.0	3.914936198976853e+17
19173.0	3.914268463682901e+17
19174.0	3.9135841839568205e+17
19175.0	3.9129213259393696e+17
19176.0	3.91225548017937e+17
19177.0	3.9115581498763936e+17
19178.0	3.9108977846736205e+17
19179.0	3.9102198299579725e+17
19180.0	3.9095710822782285e+17
19181.0	3.9088623462645754e+17
19182.0	3.9082161284491936e+17
19183.0	3.9075579862275405e+17
19184.0	3.906890628420948e+17
19185.0	3.906219511818922e+17
19186.0	3.905551752757248e+17
19187.0	3.904880812315989e+17
19188.0	3.9042164066003616e+17
19189.0	3.9035479659642874e+17
19190.0	3.9028805585250976e+17
19191.0	3.9022108176547834e+17
19192.0	3.901540391015764e+17
19193.0	3.9007706663266976e+17
19194.0	3.90004139290351e+17
19195.0	3.89953794080768e+17
19196.0	3.898865323343872e+17
19197.0	3.898194977095679e+17
19198.0	3.8975226238730234e+17
19199.0	3.8962862066674336e+17
19200.0	3.895838250106879e+17
19201.0	3.8955250187851085e+17
19202.0	3.8948663557707085e+17
19203.0	3.8941940570740045e+17
19204.0	3.893529524131157e+17
19205.0	3.8928664787681274e+17
19206.0	3.892195297154388e+17
19207.0	3.8915028021848736e+17
19208.0	3.8908089189007354e+17
19209.0	3.89019973259537e+17
19210.0	3.889524326618452e+17
19211.0	3.888865826482857e+17
19212.0	3.888201050270378e+17
19213.0	3.887520901933738e+17
19214.0	3.886852069829289e+17
19215.0	3.886205210984447e+17
19216.0	3.8855429695296845e+17
19217.0	3.8848787945007763e+17
19218.0	3.884065160342185e+17
19219.0	3.8835206662826656e+17
19220.0	3.882879879391914e+17
19221.0	3.8821611210888525e+17
19222.0	3.881544110309376e+17
19223.0	3.8808850760990714e+17
19224.0	3.88021529748002e+17
19225.0	3.879535366548137e+17
19226.0	3.878900361505451e+17
19227.0	3.878233221103616e+17
19228.0	3.8775710509520205e+17
19229.0	3.8768913143562234e+17
19230.0	3.876240071065599e+17
19231.0	3.8755846817054714e+17
19232.0	3.874920081653759e+17
19233.0	3.8742451873819296e+17
19234.0	3.873584572618068e+17
19235.0	3.872925604817578e+17
19236.0	3.8722680931396256e+17
19237.0	3.87159540437265e+17
19238.0	3.8709197642137594e+17
19239.0	3.8702821090699936e+17
19240.0	3.8696129127601485e+17
19241.0	3.86895738638609e+17
19242.0	3.8682827374810445e+17
19243.0	3.8676138033151994e+17
19244.0	3.866969646301183e+17
19245.0	3.866313357262847e+17
19246.0	3.865650694979583e+17
19247.0	3.864993262993406e+17
19248.0	3.86432782897425e+17
19249.0	3.8636468781274445e+17
19250.0	3.8628395577944736e+17
19251.0	3.862175061901311e+17
19252.0	3.861650859185493e+17
19253.0	3.861020762876586e+17
19254.0	3.8603708400926714e+17
19255.0	3.859678745679189e+17
19256.0	3.8590444921159674e+17
19257.0	3.858388675635882e+17
19258.0	3.8577259867886925e+17
19259.0	3.857064267524778e+17
19260.0	3.856366656203433e+17
19261.0	3.855753669159593e+17
19262.0	3.8550828265854285e+17
19263.0	3.854415146516479e+17
19264.0	3.8536721262619296e+17
19265.0	3.8530653845367456e+17
19266.0	3.852356146604714e+17
19267.0	3.851793950485163e+17
19268.0	3.851129259556863e+17
19269.0	3.850478263031125e+17
19270.0	3.849820524161706e+17
19271.0	3.849089233278293e+17
19272.0	3.848499004527956e+17
19273.0	3.847816771622229e+17
19274.0	3.847129150433961e+17
19275.0	3.846535779450879e+17
19276.0	3.8458732527834445e+17
19277.0	3.845223046184959e+17
19278.0	3.844553747114666e+17
19279.0	3.843908611429717e+17
19280.0	3.843241473824085e+17
19281.0	3.8425963332457805e+17
19282.0	3.8419394234504525e+17
19283.0	3.841277207161514e+17
19284.0	3.8406238611264845e+17
19285.0	3.839946188128255e+17
19286.0	3.8393059227293e+17
19287.0	3.838649737849514e+17
19288.0	3.8377775966453754e+17
19289.0	3.836564456428883e+17
19290.0	3.836696128214357e+17
19291.0	3.8360022561150285e+17
19292.0	3.835382614108842e+17
19293.0	3.834725592465408e+17
19294.0	3.834074277172565e+17
19295.0	3.8334162635762336e+17
19296.0	3.832234443625813e+17
19297.0	3.832029827301376e+17
19298.0	3.831454694550186e+17
19299.0	3.830208573822293e+17
19300.0	3.830141889282047e+17
19301.0	3.82949698638097e+17
19302.0	3.8288420472094714e+17
19303.0	3.828171127739732e+17
19304.0	3.8275291986001914e+17
19305.0	3.8268786928080205e+17
19306.0	3.8262312782178976e+17
19307.0	3.8255628019302394e+17
19308.0	3.824917282466474e+17
19309.0	3.82424385200674e+17
19310.0	3.8235879830978554e+17
19311.0	3.8229518113396045e+17
19312.0	3.822302568032938e+17
19313.0	3.8216424887418886e+17
19314.0	3.814921430455627e+17
19315.0	3.814655464745654e+17
19316.0	3.8190116451123206e+17
19317.0	3.8190485528903674e+17
19318.0	3.818402938355711e+17
19319.0	3.817746598985727e+17
19320.0	3.8168982345919136e+17
19321.0	3.8159781014623565e+17
19322.0	3.815791394116949e+17
19323.0	3.815146548538025e+17
19324.0	3.8145001468723194e+17
19325.0	3.8138334636496205e+17
19326.0	3.8131990527999994e+17
19327.0	3.8125462457330336e+17
19328.0	3.810859369365504e+17
19329.0	3.8112485623289165e+17
19330.0	3.810596301220522e+17
19331.0	3.809946260996095e+17
19332.0	3.80930268069888e+17
19333.0	3.808654746714111e+17
19334.0	3.807973782585344e+17
19335.0	3.805236330932909e+17
19336.0	3.8066896978138445e+17
19337.0	3.8060565990823245e+17
19338.0	3.805370041150122e+17
19339.0	3.8047491576299514e+17
19340.0	3.80400290566417e+17
19341.0	3.8026951076959584e+17
19342.0	3.8025420456591354e+17
19343.0	3.8021644597329914e+17
19344.0	3.800744158647638e+17
19345.0	3.800084496689833e+17
19346.0	3.800093910106111e+17
19347.0	3.798618997784574e+17
19348.0	3.798928122183679e+17
19349.0	3.798275438149632e+17
19350.0	3.7973000422686714e+17
19351.0	3.7969723077427194e+17
19352.0	3.7953106817843174e+17
19353.0	3.7956860601084576e+17
19354.0	3.7950440701515085e+17
19355.0	3.794383484048725e+17
19356.0	3.793745605907797e+17
19357.0	3.7931034705483085e+17
19358.0	3.792456732639232e+17
19359.0	3.7915900978571936e+17
19360.0	3.79035906613794e+17
19361.0	3.790510318332586e+17
19362.0	3.7898697020101965e+17
19363.0	3.7892245956853754e+17
19364.0	3.788581443207168e+17
19365.0	3.787932131393536e+17
19366.0	3.787274363863038e+17
19367.0	3.786640577265662e+17
19368.0	3.785996963414016e+17
19369.0	3.7853477250007034e+17
19370.0	3.784707694482774e+17
19371.0	3.7840503142263456e+17
19372.0	3.783414612230144e+17
19373.0	3.782765457003861e+17
19374.0	3.782118927411882e+17
19375.0	3.781483525308415e+17
19376.0	3.780838007242751e+17
19377.0	3.780194268960085e+17
19378.0	3.7795515834477203e+17
19379.0	3.7789069531764045e+17
19380.0	3.778247538682538e+17
19381.0	3.7776016990535674e+17
19382.0	3.776957923022165e+17
19383.0	3.776307458473984e+17
19384.0	3.7756628198140576e+17
19385.0	3.7750392896880634e+17
19386.0	3.774395008942079e+17
19387.0	3.773748633141248e+17
19388.0	3.773101807850838e+17
19389.0	3.7724635829807776e+17
19390.0	3.7718180201758714e+17
19391.0	3.770157897176403e+17
19392.0	3.7705286519794336e+17
19393.0	3.7698854295961594e+17
19394.0	3.7692445133810336e+17
19395.0	3.768290796459349e+17
19396.0	3.7678872380047354e+17
19397.0	3.767307667679914e+17
19398.0	3.766421920852651e+17
19399.0	3.765501524880042e+17
19400.0	3.765171789671082e+17
19401.0	3.76473485644049e+17
19402.0	3.7640955627219616e+17
19403.0	3.763451004452863e+17
19404.0	3.762797473169408e+17
19405.0	3.7621475783475194e+17
19406.0	3.7615152933109754e+17
19407.0	3.760488378793983e+17
19408.0	3.7600609708277754e+17
19409.0	3.759574487487829e+17
19410.0	3.7589315153646925e+17
19411.0	3.758282033681748e+17
19412.0	3.757631752983893e+17
19413.0	3.756596693827584e+17
19414.0	3.7563376920603296e+17
19415.0	3.755690925490176e+17
19416.0	3.7550111511456416e+17
19417.0	3.754388954109268e+17
19418.0	3.753739557011455e+17
19419.0	3.753086840821076e+17
19420.0	3.75243223929105e+17
19421.0	3.7517747178263885e+17
19422.0	3.751107465576448e+17
19423.0	3.7504568731019936e+17
19424.0	3.749795590744746e+17
19425.0	3.749127270345386e+17
19426.0	3.748461357476522e+17
19427.0	3.747789348186795e+17
19428.0	3.7471055857582074e+17
19429.0	3.746429423408469e+17
19430.0	3.7457309082146125e+17
19431.0	3.7448277221703674e+17
19432.0	3.744328246274731e+17
19433.0	3.743606458286079e+17
19434.0	3.7428754120703994e+17
19435.0	3.7420997342658554e+17
19436.0	3.741224988398933e+17
19437.0	3.7405292652134394e+17
19438.0	3.7373198914464416e+17
19439.0	3.7387630829458765e+17
19440.0	3.737777385854293e+17
19441.0	3.7366831947011405e+17
19442.0	3.7354176683267405e+17
19443.0	3.73388716609809e+17
19444.0	3.731954442698751e+17
19445.0	3.729327664747859e+17
19446.0	3.7253845296523936e+17
19447.0	3.718692630167551e+17
19448.0	3.704975038698838e+17
19449.0	3.666655777390591e+17
19450.0	3.5251761223215706e+17
19451.0	3.401013752670891e+17
19452.0	3.5746868370254515e+17
19453.0	3.6788230450490054e+17
19454.0	3.705740406904148e+17
19455.0	3.7156180089023136e+17
19456.0	3.7200927391744e+17
19457.0	3.722292072808447e+17
19458.0	3.6995195550215245e+17
19459.0	3.7234595734050157e+17
19460.0	3.7241804798907725e+17
19461.0	3.7241541802065914e+17
19462.0	3.7239552429697696e+17
19463.0	3.723657984256682e+17
19464.0	3.7232748995979936e+17
19465.0	3.722853711784618e+17
19466.0	3.7223887682928634e+17
19467.0	3.7218978669527034e+17
19468.0	3.7213820074065914e+17
19469.0	3.720043899999572e+17
19470.0	3.720295831568384e+17
19471.0	3.7197319374547616e+17
19472.0	3.719148517457919e+17
19473.0	3.7185696979135136e+17
19474.0	3.717218266600788e+17
19475.0	3.7172044666415776e+17
19476.0	3.7168004461144736e+17
19477.0	3.7161982552091296e+17
19478.0	3.715609635673429e+17
19479.0	3.714263580060329e+17
19480.0	3.7143908366417914e+17
19481.0	3.7137545865898656e+17
19482.0	3.7131630310413645e+17
19483.0	3.7125602976727034e+17
19484.0	3.711937955233791e+17
19485.0	3.7113182733817165e+17
19486.0	3.709922907433645e+17
19487.0	3.710093100406101e+17
19488.0	3.709482604778837e+17
19489.0	3.708860025361749e+17
19490.0	3.707917225514324e+17
19491.0	3.707612203144533e+17
19492.0	3.707001097246037e+17
19493.0	3.7063778914795514e+17
19494.0	3.7057533120785056e+17
19495.0	3.705137268086101e+17
19496.0	3.704409423522474e+17
19497.0	3.7038915947506336e+17
19498.0	3.70325084770577e+17
19499.0	3.700941390523048e+17
19500.0	3.7020270113150285e+17
19501.0	3.701470507565055e+17
19502.0	3.700878104767146e+17
19503.0	3.7002550437041485e+17
19504.0	3.699624491614208e+17
19505.0	3.698985021734912e+17
19506.0	3.6983750042583034e+17
19507.0	3.697743451127808e+17
19508.0	3.697121365240491e+17
19509.0	3.6964911417043616e+17
19510.0	3.695728046811818e+17
19511.0	3.6862493482898656e+17
19512.0	3.694386499376468e+17
19513.0	3.693415209719124e+17
19514.0	3.692997691921749e+17
19515.0	3.69264066227951e+17
19516.0	3.6920318632482125e+17
19517.0	3.691461479148202e+17
19518.0	3.690671056966997e+17
19519.0	3.690042409091071e+17
19520.0	3.6889391086086816e+17
19521.0	3.688997398948522e+17
19522.0	3.688281504656042e+17
19523.0	3.687595328405504e+17
19524.0	3.686594937268908e+17
19525.0	3.686491642746197e+17
19526.0	3.68587063759121e+17
19527.0	3.685250148335615e+17
19528.0	3.6845824354112845e+17
19529.0	3.6839367188152314e+17
19530.0	3.6833841570119674e+17
19531.0	3.6827567646310394e+17
19532.0	3.6821320587018246e+17
19533.0	3.681501434609663e+17
19534.0	3.680890798473215e+17
19535.0	3.6802715926746445e+17
19536.0	3.679641738237268e+17
19537.0	3.679022549914965e+17
19538.0	3.6777504671443616e+17
19539.0	3.677657658381654e+17
19540.0	3.6771553534279674e+17
19541.0	3.6764096697903776e+17
19542.0	3.675859910481237e+17
19543.0	3.6746073724682246e+17
19544.0	3.6746316882466125e+17
19545.0	3.673977473291604e+17
19546.0	3.6732286117696845e+17
19547.0	3.6728121355578016e+17
19548.0	3.672191200307882e+17
19549.0	3.67155160879377e+17
19550.0	3.670938300885674e+17
19551.0	3.6703281883381754e+17
19552.0	3.6697001577239885e+17
19553.0	3.66908592287471e+17
19554.0	3.66844789723409e+17
19555.0	3.6677717369815034e+17
19556.0	3.6671717648629754e+17
19557.0	3.66660004417809e+17
19558.0	3.665984186832212e+17
19559.0	3.6653664797982714e+17
19560.0	3.664509127010985e+17
19561.0	3.6641255502206285e+17
19562.0	3.6632804790545056e+17
19563.0	3.6628922242170874e+17
19564.0	3.6622527515415885e+17
19565.0	3.661648875924138e+17
19566.0	3.661019004709546e+17
19567.0	3.6604162035329696e+17
19568.0	3.659796425910954e+17
19569.0	3.659177417244672e+17
19570.0	3.658558528116053e+17
19571.0	3.657941253095423e+17
19572.0	3.657320621932544e+17
19573.0	3.656635943747583e+17
19574.0	3.656053292007423e+17
19575.0	3.6554739754379936e+17
19576.0	3.6548249033987405e+17
19577.0	3.6541451115779405e+17
19578.0	3.653614829917525e+17
19579.0	3.653004403496278e+17
19580.0	3.6523817828351994e+17
19581.0	3.651755361435647e+17
19582.0	3.651154313478144e+17
19583.0	3.6505415312561485e+17
19584.0	3.649917368489301e+17
19585.0	3.64929088627234e+17
19586.0	3.6486725256260256e+17
19587.0	3.648073395863552e+17
19588.0	3.647365902062933e+17
19589.0	3.646844173287423e+17
19590.0	3.6461976618707616e+17
19591.0	3.6456114960029e+17
19592.0	3.644995409368405e+17
19593.0	3.644324845016405e+17
19594.0	3.643678322414932e+17
19595.0	3.643148750989995e+17
19596.0	3.6425278311191885e+17
19597.0	3.641922415493119e+17
19598.0	3.6411400114230605e+17
19599.0	3.640694918174036e+17
19600.0	3.6400747106358605e+17
19601.0	3.639452456277333e+17
19602.0	3.6388408156050765e+17
19603.0	3.638148413609301e+17
19604.0	3.637619727182506e+17
19605.0	3.6369556674969594e+17
19606.0	3.636391100896597e+17
19607.0	3.635784092134058e+17
19608.0	3.6351551946970445e+17
19609.0	3.6345454190919674e+17
19610.0	3.633610083707563e+17
19611.0	3.6328244912674125e+17
19612.0	3.632720070574079e+17
19613.0	3.632095491173034e+17
19614.0	3.631487476476586e+17
19615.0	3.6308823977929376e+17
19616.0	3.629930629125461e+17
19617.0	3.6291486221161805e+17
19618.0	3.628910469535061e+17
19619.0	3.628208426232489e+17
19620.0	3.627510142424403e+17
19621.0	3.6264736194559994e+17
19622.0	3.6265982902490445e+17
19623.0	3.625961559250261e+17
19624.0	3.625299110876501e+17
19625.0	3.6247643678747296e+17
19626.0	3.6241477974971725e+17
19627.0	3.6235429313249274e+17
19628.0	3.6229157025218554e+17
19629.0	3.620573133406206e+17
19630.0	3.621706147037184e+17
19631.0	3.620560910505301e+17
19632.0	3.6204899414835194e+17
19633.0	3.6198760827234976e+17
19634.0	3.619270356019883e+17
19635.0	3.618580039991295e+17
19636.0	3.617208378152276e+17
19637.0	3.6165866033425056e+17
19638.0	3.6167734288274765e+17
19639.0	3.6162152033157114e+17
19640.0	3.615603221506731e+17
19641.0	3.614568675453612e+17
19642.0	3.6143511924026016e+17
19643.0	3.613741448953855e+17
19644.0	3.6131662595795616e+17
19645.0	3.6125144130082125e+17
19646.0	3.6110701806223334e+17
19647.0	3.6113268112097274e+17
19648.0	3.6107448410439674e+17
19649.0	3.610131736559616e+17
19650.0	3.6095248780929696e+17
19651.0	3.6089204523226445e+17
19652.0	3.608311778421418e+17
19653.0	3.6076989927041696e+17
19654.0	3.607097875540651e+17
19655.0	3.6064849947525114e+17
