# Flux units: erg / (cm m2 s)
# Wavelength units: Angstrom
wave	flux
19000.0	7.045403544737108e+17
19001.0	7.043688551153663e+17
19002.0	7.042796039613097e+17
19003.0	7.041471170827603e+17
19004.0	7.040166301881684e+17
19005.0	7.038832485247658e+17
19006.0	7.037519484944383e+17
19007.0	7.036138755020116e+17
19008.0	7.034637575170729e+17
19009.0	7.033092202037247e+17
19010.0	7.030496073263785e+17
19011.0	7.03080691802658e+17
19012.0	7.029209811648511e+17
19013.0	7.028301920294227e+17
19014.0	7.026737298101587e+17
19015.0	7.025528849913172e+17
19016.0	7.024167078942036e+17
19017.0	7.022893772832765e+17
19018.0	7.021685803494057e+17
19019.0	7.020363936432128e+17
19020.0	7.018960377610239e+17
19021.0	7.017748274085888e+17
19022.0	7.016456982801066e+17
19023.0	7.014986661145257e+17
19024.0	7.013765988657833e+17
19025.0	7.012502108547754e+17
19026.0	7.011102911802025e+17
19027.0	7.009760197651113e+17
19028.0	7.008570874090836e+17
19029.0	7.007188524466175e+17
19030.0	7.00598306541841e+17
19031.0	7.004693827245396e+17
19032.0	7.003366751556948e+17
19033.0	7.001667192313172e+17
19034.0	7.000667554753193e+17
19035.0	6.999252580433919e+17
19036.0	6.985023218865494e+17
19037.0	6.996731927461887e+17
19038.0	6.995372800300371e+17
19039.0	6.994142366968489e+17
19040.0	6.992847416153428e+17
19041.0	6.991488038032724e+17
19042.0	6.98983770104354e+17
19043.0	6.988905428200106e+17
19044.0	6.987534182995284e+17
19045.0	6.986263773052927e+17
19046.0	6.984687014641663e+17
19047.0	6.983514585737897e+17
19048.0	6.981483446490452e+17
19049.0	6.980704639036074e+17
19050.0	6.979479856130729e+17
19051.0	6.976285530827432e+17
19052.0	6.976567183234387e+17
19053.0	6.9757143365277e+17
19054.0	6.974398541419859e+17
19055.0	6.972033463571798e+17
19056.0	6.971680972166484e+17
19057.0	6.970440550798676e+17
19058.0	6.969084602919593e+17
19059.0	6.967824465526783e+17
19060.0	6.96643455427106e+17
19061.0	6.965223769156265e+17
19062.0	6.963877261956435e+17
19063.0	6.962579427557373e+17
19064.0	6.960697482499412e+17
19065.0	6.959190153101311e+17
19066.0	6.958394771155625e+17
19067.0	6.957254361568595e+17
19068.0	6.956002184265727e+17
19069.0	6.954687539096233e+17
19070.0	6.953254595679571e+17
19071.0	6.95204073054754e+17
19072.0	6.950753672713555e+17
19073.0	6.949404455294291e+17
19074.0	6.948128741654527e+17
19075.0	6.946814914374314e+17
19076.0	6.945416961239721e+17
19077.0	6.944121848244905e+17
19078.0	6.94269097611537e+17
19079.0	6.941532956043946e+17
19080.0	6.940158511284223e+17
19081.0	6.93875805135394e+17
19082.0	6.937418962479785e+17
19083.0	6.935797260703059e+17
19084.0	6.933958921027584e+17
19085.0	6.933609868951551e+17
19086.0	6.930755483598847e+17
19087.0	6.930565139791872e+17
19088.0	6.929353250177024e+17
19089.0	6.927467384143872e+17
19090.0	6.926979146186751e+17
19091.0	6.925651995699881e+17
19092.0	6.924164018121386e+17
19093.0	6.923144607214249e+17
19094.0	6.921835086785193e+17
19095.0	6.920529920043689e+17
19096.0	6.919158690917033e+17
19097.0	6.917897795054249e+17
19098.0	6.916582817835689e+17
19099.0	6.915263421917866e+17
19100.0	6.913936964190207e+17
19101.0	6.912631867353768e+17
19102.0	6.910961033499987e+17
19103.0	6.910010467898708e+17
19104.0	6.908729253429247e+17
19105.0	6.907401708677802e+17
19106.0	6.906029379944447e+17
19107.0	6.904709085047466e+17
19108.0	6.9034783028893e+17
19109.0	6.900995876104873e+17
19110.0	6.900795480648362e+17
19111.0	6.899546580495017e+17
19112.0	6.898236214214655e+17
19113.0	6.896916291212628e+17
19114.0	6.895585825827497e+17
19115.0	6.894090672493908e+17
19116.0	6.892890227736575e+17
19117.0	6.891554913036969e+17
19118.0	6.889956532289536e+17
19119.0	6.875398558886555e+17
19120.0	6.887572426282323e+17
19121.0	6.886346001306964e+17
19122.0	6.885128324251647e+17
19123.0	6.883798011259561e+17
19124.0	6.882438878505642e+17
19125.0	6.881168472757588e+17
19126.0	6.879859728973823e+17
19127.0	6.871388083541332e+17
19128.0	6.876604030517247e+17
19129.0	6.875615966440105e+17
19130.0	6.874534835650559e+17
19131.0	6.873299195789311e+17
19132.0	6.871998823137279e+17
19133.0	6.869628726105428e+17
19134.0	6.869113752955562e+17
19135.0	6.868069936791551e+17
19136.0	6.866790353906345e+17
19137.0	6.864819546226687e+17
19138.0	6.86407023731234e+17
19139.0	6.862852417650687e+17
19140.0	6.861556028888403e+17
19141.0	6.860244077161129e+17
19142.0	6.858835947246931e+17
19143.0	6.857395301690026e+17
19144.0	6.856138999988223e+17
19145.0	6.854984421343231e+17
19146.0	6.851294753630892e+17
19147.0	6.851901443626324e+17
19148.0	6.851066401740116e+17
19149.0	6.849743788791123e+17
19150.0	6.848420152431956e+17
19151.0	6.847132942903978e+17
19152.0	6.845799080831657e+17
19153.0	6.844464379898537e+17
19154.0	6.842696647835647e+17
19155.0	6.84192625205794e+17
19156.0	6.840606236781225e+17
19157.0	6.839266385941844e+17
19158.0	6.837153134804991e+17
19159.0	6.836613043366569e+17
19160.0	6.835303262890666e+17
19161.0	6.833999353741311e+17
19162.0	6.83091525824239e+17
19163.0	6.831356612968447e+17
19164.0	6.830151143434921e+17
19165.0	6.828776475678035e+17
19166.0	6.827055854037673e+17
19167.0	6.826056245138772e+17
19168.0	6.824684492423168e+17
19169.0	6.823434285744127e+17
19170.0	6.82230036963874e+17
19171.0	6.820871247932074e+17
19172.0	6.819659513506473e+17
19173.0	6.81837839061265e+17
19174.0	6.816824153516714e+17
19175.0	6.815762002651817e+17
19176.0	6.814439260378452e+17
19177.0	6.812515793108991e+17
19178.0	6.811790054785023e+17
19179.0	6.810378858135551e+17
19180.0	6.809128489975805e+17
19181.0	6.807510828711935e+17
19182.0	6.806441602056191e+17
19183.0	6.805283646996477e+17
19184.0	6.803779797472598e+17
19185.0	6.802612468842495e+17
19186.0	6.801365075143338e+17
19187.0	6.799739362912937e+17
19188.0	6.798732427963049e+17
19189.0	6.797426011318953e+17
19190.0	6.796109570987348e+17
19191.0	6.794691504766975e+17
19192.0	6.793510827764394e+17
19193.0	6.792154327635284e+17
19194.0	6.790825906973353e+17
19195.0	6.789570276360191e+17
19196.0	6.788202264963754e+17
19197.0	6.786920559760723e+17
19198.0	6.785607474872319e+17
19199.0	6.773438344942929e+17
19200.0	6.775197317900973e+17
19201.0	6.781688734547967e+17
19202.0	6.780416952369151e+17
19203.0	6.779089730579113e+17
19204.0	6.777705726301524e+17
19205.0	6.776438436222292e+17
19206.0	6.775080281440255e+17
19207.0	6.773375064779434e+17
19208.0	6.77177865815108e+17
19209.0	6.771181625540607e+17
19210.0	6.769881541596499e+17
19211.0	6.768624020750335e+17
19212.0	6.767305486062932e+17
19213.0	6.765625024883368e+17
19214.0	6.76414082916898e+17
19215.0	6.763335949221887e+17
19216.0	6.762034176371369e+17
19217.0	6.760725117315753e+17
19218.0	6.755998463164411e+17
19219.0	6.757457713255763e+17
19220.0	6.756702270870868e+17
19221.0	6.754163226574847e+17
19222.0	6.754105217952425e+17
19223.0	6.752755897772713e+17
19224.0	6.75129740894754e+17
19225.0	6.749575668826111e+17
19226.0	6.748801406599168e+17
19227.0	6.747480307094868e+17
19228.0	6.746267756178089e+17
19229.0	6.744961222792531e+17
19230.0	6.74357101933363e+17
19231.0	6.742246844705449e+17
19232.0	6.74092194795793e+17
19233.0	6.739381633854121e+17
19234.0	6.738249343740585e+17
19235.0	6.736883384756906e+17
19236.0	6.735717315117055e+17
19237.0	6.7343182476957e+17
19238.0	6.732699679064061e+17
19239.0	6.731753199413929e+17
19240.0	6.730019757184339e+17
19241.0	6.728861786046463e+17
19242.0	6.727675467005951e+17
19243.0	6.72572852351795e+17
19244.0	6.725136101845674e+17
19245.0	6.723789382134441e+17
19246.0	6.722404905298601e+17
19247.0	6.721107678374569e+17
19248.0	6.719830966490452e+17
19249.0	6.718484956315647e+17
19250.0	6.717085401655978e+17
19251.0	6.71520229687296e+17
19252.0	6.713364792563027e+17
19253.0	6.713077333142185e+17
19254.0	6.71177369592354e+17
19255.0	6.709777837064191e+17
19256.0	6.708927288836095e+17
19257.0	6.707820623822845e+17
19258.0	6.706488919719936e+17
19259.0	6.704873600974845e+17
19260.0	6.703496836765012e+17
19261.0	6.70240803459345e+17
19262.0	6.700886322227881e+17
19263.0	6.6994930988701e+17
19264.0	6.696274745098235e+17
19265.0	6.696306511358632e+17
19266.0	6.695102551774548e+17
19267.0	6.694415298985983e+17
19268.0	6.69303608320546e+17
19269.0	6.69168888394547e+17
19270.0	6.690346094996137e+17
19271.0	6.687621237440513e+17
19272.0	6.687489219624959e+17
19273.0	6.674424333860854e+17
19274.0	6.677635727185228e+17
19275.0	6.683581068520105e+17
19276.0	6.682141792403455e+17
19277.0	6.68079779619362e+17
19278.0	6.679440046860969e+17
19279.0	6.677986130526207e+17
19280.0	6.676367800270847e+17
19281.0	6.675315519302313e+17
19282.0	6.674022896325972e+17
19283.0	6.672472101355519e+17
19284.0	6.670967552780969e+17
19285.0	6.669038593070419e+17
19286.0	6.668365603711657e+17
19287.0	6.667143526132393e+17
19288.0	6.661632435071653e+17
19289.0	6.656399514446496e+17
19290.0	6.663001099381417e+17
19291.0	6.660506690169516e+17
19292.0	6.66020520988945e+17
19293.0	6.658793077211135e+17
19294.0	6.657383725356372e+17
19295.0	6.656030664556543e+17
19296.0	6.654602194365098e+17
19297.0	6.65311873475106e+17
19298.0	6.651689980045994e+17
19299.0	6.650401055047679e+17
19300.0	6.648979311121747e+17
19301.0	6.647544871037609e+17
19302.0	6.646052239179775e+17
19303.0	6.64440958755362e+17
19304.0	6.643109328846847e+17
19305.0	6.641779298271231e+17
19306.0	6.640389788270591e+17
19307.0	6.63877439332898e+17
19308.0	6.637405210323625e+17
19309.0	6.635668339949568e+17
19310.0	6.634019312981331e+17
19311.0	6.633020457659049e+17
19312.0	6.631064783028223e+17
19313.0	6.629497276552531e+17
19314.0	6.619977031352326e+17
19315.0	6.618778086058671e+17
19316.0	6.625140312550057e+17
19317.0	6.62366669766656e+17
19318.0	6.622159977141588e+17
19319.0	6.620724830317226e+17
19320.0	6.619227149216425e+17
19321.0	6.617739884669609e+17
19322.0	6.615819009480019e+17
19323.0	6.614527250530303e+17
19324.0	6.613185751329449e+17
19325.0	6.611347666108416e+17
19326.0	6.610135273177087e+17
19327.0	6.608583449903103e+17
19328.0	6.607108862640127e+17
19329.0	6.605566847746047e+17
19330.0	6.603854730756095e+17
19331.0	6.60225716789794e+17
19332.0	6.600842718565716e+17
19333.0	6.599216752579923e+17
19334.0	6.59766360740113e+17
19335.0	6.596101189315242e+17
19336.0	6.594486996740776e+17
19337.0	6.592852716945408e+17
19338.0	6.59036945199923e+17
19339.0	6.589602628370431e+17
19340.0	6.587695346221056e+17
19341.0	6.586182970376191e+17
19342.0	6.583040088211452e+17
19343.0	6.582947582137684e+17
19344.0	6.581231056934228e+17
19345.0	6.572250966086985e+17
19346.0	6.57396601489544e+17
19347.0	6.575878381240319e+17
19348.0	6.574431839890089e+17
19349.0	6.572545845930665e+17
19350.0	6.570081845422761e+17
19351.0	6.567994656991913e+17
19352.0	6.566049960252756e+17
19353.0	6.564567496086867e+17
19354.0	6.562752511694164e+17
19355.0	6.560510835163136e+17
19356.0	6.559062818116948e+17
19357.0	6.557183347698346e+17
19358.0	6.55515566805265e+17
19359.0	6.552769106979498e+17
19360.0	6.55125986218257e+17
19361.0	6.549231691803305e+17
19362.0	6.547430412298921e+17
19363.0	6.545440173107882e+17
19364.0	6.543425397238442e+17
19365.0	6.541371468240211e+17
19366.0	6.53796823793664e+17
19367.0	6.535890612518911e+17
19368.0	6.533789366878207e+17
19369.0	6.531210618601471e+17
19370.0	6.528155656039082e+17
19371.0	6.527094334248275e+17
19372.0	6.525084640477183e+17
19373.0	6.522739901508265e+17
19374.0	6.520528505055913e+17
19375.0	6.516798562937512e+17
19376.0	6.514079472549887e+17
19377.0	6.511635438327123e+17
19378.0	6.509214791543466e+17
19379.0	6.506748024892074e+17
19380.0	6.504227251683327e+17
19381.0	6.500451465123156e+17
19382.0	6.496461108456104e+17
19383.0	6.493617183697578e+17
19384.0	6.491334221933225e+17
19385.0	6.488544653257385e+17
19386.0	6.483180274057219e+17
19387.0	6.479979438495059e+17
19388.0	6.476993642801834e+17
19389.0	6.472929631360339e+17
19390.0	6.467449371230207e+17
19391.0	6.45352721376869e+17
19392.0	6.459000926590291e+17
19393.0	6.453545224809129e+17
19394.0	6.450006661791743e+17
19395.0	6.442074626850817e+17
19396.0	6.438034593546239e+17
19397.0	6.42976386226586e+17
19398.0	6.424575501926397e+17
19399.0	6.415089485742077e+17
19400.0	6.412944963971753e+17
19401.0	6.408624839240362e+17
19402.0	6.403815564290729e+17
19403.0	6.399023996993536e+17
19404.0	6.394212773090643e+17
19405.0	6.389123192105641e+17
19406.0	6.383957183212202e+17
19407.0	6.378651010465791e+17
19408.0	6.370347386754392e+17
19409.0	6.367196631881044e+17
19410.0	6.360905311496874e+17
19411.0	6.354440023965695e+17
19412.0	6.348052925950634e+17
19413.0	6.341499941814271e+17
19414.0	6.334341902062931e+17
19415.0	6.326234684325887e+17
19416.0	6.318329281118207e+17
19417.0	6.310637699334141e+17
19418.0	6.301453871568212e+17
19419.0	6.292709664882689e+17
19420.0	6.282002637171369e+17
19421.0	6.271201824822612e+17
19422.0	6.259091081003009e+17
19423.0	6.245648612108969e+17
19424.0	6.230063958370985e+17
19425.0	6.212075811853656e+17
19426.0	6.191017537568762e+17
19427.0	6.164145151235406e+17
19428.0	6.140343050655062e+17
19429.0	6.123592667714899e+17
19430.0	6.105576292133548e+17
19431.0	6.08507379248879e+17
19432.0	6.067094615490557e+17
19433.0	6.046075088885078e+17
19434.0	6.023023584171347e+17
19435.0	5.999295825532243e+17
19436.0	5.973066615444822e+17
19437.0	5.945160984690689e+17
19438.0	5.899786352503471e+17
19439.0	5.871419107835908e+17
19440.0	5.819286228566019e+17
19441.0	5.756372536786938e+17
19442.0	5.7062987965399046e+17
19443.0	5.6522746356913485e+17
19444.0	5.588757789715112e+17
19445.0	5.509075225804801e+17
19446.0	5.404292659806211e+17
19447.0	5.2906992997498816e+17
19448.0	5.1474567039112614e+17
19449.0	4.9464147380797446e+17
19450.0	4.633123552406132e+17
19451.0	4.5429717484612294e+17
19452.0	4.795572218582362e+17
19453.0	5.056693467611145e+17
19454.0	5.221715437158393e+17
19455.0	5.342234440368132e+17
19456.0	5.4520347277393926e+17
19457.0	5.541216981265066e+17
19458.0	5.598318092615691e+17
19459.0	5.664149096191323e+17
19460.0	5.71399495570773e+17
19461.0	5.767177776223579e+17
19462.0	5.826138867062108e+17
19463.0	5.868969490295464e+17
19464.0	5.902522859039401e+17
19465.0	5.930937433631401e+17
19466.0	5.955147774208682e+17
19467.0	5.977633495274836e+17
19468.0	5.998653334355967e+17
19469.0	6.016689574161065e+17
19470.0	6.036263900894548e+17
19471.0	6.053373753163776e+17
19472.0	6.069384750912852e+17
19473.0	6.084034458637652e+17
19474.0	6.100835959657815e+17
19475.0	6.12357441200674e+17
19476.0	6.146476666606935e+17
19477.0	6.163968485053784e+17
19478.0	6.177839586650793e+17
19479.0	6.189542695152297e+17
19480.0	6.199587543624361e+17
19481.0	6.209547846811649e+17
19482.0	6.21696922104627e+17
19483.0	6.224711277084671e+17
19484.0	6.230849994708308e+17
19485.0	6.237438784918868e+17
19486.0	6.242575628719444e+17
19487.0	6.247924046495744e+17
19488.0	6.253341159282004e+17
19489.0	6.256973344058025e+17
19490.0	6.256952298438652e+17
19491.0	6.265342892441599e+17
19492.0	6.269760595558399e+17
19493.0	6.273327256917332e+17
19494.0	6.276510880453972e+17
19495.0	6.279489807275348e+17
19496.0	6.280958407169363e+17
19497.0	6.284917161153876e+17
19498.0	6.285426588734803e+17
19499.0	6.273581939250515e+17
19500.0	6.292107353740628e+17
19501.0	6.294533198665044e+17
19502.0	6.296559837424297e+17
19503.0	6.299532339970047e+17
19504.0	6.302944690787667e+17
19505.0	6.307351992729603e+17
19506.0	6.310979147836073e+17
19507.0	6.31421536235247e+17
19508.0	6.317782983507967e+17
19509.0	6.31879462167074e+17
19510.0	6.322665489607338e+17
19511.0	6.307496341798907e+17
19512.0	6.321886306762751e+17
19513.0	6.322794430201851e+17
19514.0	6.325500519645179e+17
19515.0	6.328289433310551e+17
19516.0	6.331154450524841e+17
19517.0	6.333297786006185e+17
19518.0	6.333832734528852e+17
19519.0	6.334066890637311e+17
19520.0	6.334166226436096e+17
19521.0	6.33549337133056e+17
19522.0	6.336550184943615e+17
19523.0	6.336777774869161e+17
19524.0	6.336792403203412e+17
19525.0	6.336653924761599e+17
19526.0	6.33667527446801e+17
19527.0	6.336551436244308e+17
19528.0	6.337956908367872e+17
19529.0	6.337903556820992e+17
19530.0	6.337742399078399e+17
19531.0	6.337521944363008e+17
19532.0	6.337240880556714e+17
19533.0	6.336953448398847e+17
19534.0	6.336603328173395e+17
19535.0	6.336191925671252e+17
19536.0	6.335730270513833e+17
19537.0	6.335482359185407e+17
19538.0	6.335755548884992e+17
19539.0	6.333903617567405e+17
19540.0	6.33531348951586e+17
19541.0	6.334930502724265e+17
19542.0	6.334404914490026e+17
19543.0	6.333865891900074e+17
19544.0	6.333336895793833e+17
19545.0	6.33069531963938e+17
19546.0	6.328846588575743e+17
19547.0	6.331602387511978e+17
19548.0	6.33106782556433e+17
19549.0	6.330096124865193e+17
19550.0	6.329855124351658e+17
19551.0	6.329206819870035e+17
19552.0	6.328527538356223e+17
19553.0	6.327732908589055e+17
19554.0	6.326983666783572e+17
19555.0	6.326379180894889e+17
19556.0	6.326609135708842e+17
19557.0	6.325861376589823e+17
19558.0	6.32510547632674e+17
19559.0	6.32431476543761e+17
19560.0	6.323473037131775e+17
19561.0	6.322687730603348e+17
19562.0	6.321986472334676e+17
19563.0	6.321214340115114e+17
19564.0	6.320396309626879e+17
19565.0	6.319568182749866e+17
19566.0	6.318630546789716e+17
19567.0	6.317908904902655e+17
19568.0	6.316942995139242e+17
19569.0	6.316120603972948e+17
19570.0	6.315348873707519e+17
19571.0	6.314456068565674e+17
19572.0	6.313469917790205e+17
19573.0	6.312614943872339e+17
19574.0	6.311469506712915e+17
19575.0	6.310919269253119e+17
19576.0	6.310023976889001e+17
19577.0	6.308975500853247e+17
19578.0	6.308015851088553e+17
19579.0	6.3071668156061e+17
19580.0	6.306235018816169e+17
19581.0	6.30536931447057e+17
19582.0	6.304494290381482e+17
19583.0	6.303550871874218e+17
19584.0	6.302550979859796e+17
19585.0	6.301202750898173e+17
19586.0	6.300097744732159e+17
19587.0	6.299638829154303e+17
19588.0	6.296835723362305e+17
19589.0	6.297677369879209e+17
19590.0	6.296467864726185e+17
19591.0	6.295799554812585e+17
19592.0	6.294843083631274e+17
19593.0	6.293771782892201e+17
19594.0	6.291935602584233e+17
19595.0	6.291629213570388e+17
19596.0	6.289470983416489e+17
19597.0	6.289720560582656e+17
19598.0	6.287579943709353e+17
19599.0	6.287831994815827e+17
19600.0	6.286847820955647e+17
19601.0	6.285555358061908e+17
19602.0	6.28455596307251e+17
19603.0	6.282095597628072e+17
19604.0	6.282497086193663e+17
19605.0	6.280521657789098e+17
19606.0	6.280678156358996e+17
19607.0	6.279674064448169e+17
19608.0	6.278574765331795e+17
19609.0	6.277385437577215e+17
19610.0	6.276570429085012e+17
19611.0	6.275502344678058e+17
19612.0	6.2748885516288e+17
19613.0	6.274011192710484e+17
19614.0	6.27283534684706e+17
19615.0	6.271948148790612e+17
19616.0	6.270815913203028e+17
19617.0	6.269839647703039e+17
19618.0	6.266441240849062e+17
19619.0	6.264963936376145e+17
19620.0	6.263992733401087e+17
19621.0	6.265591822985897e+17
19622.0	6.264549799187795e+17
19623.0	6.263494026461183e+17
19624.0	6.262386135313065e+17
19625.0	6.261360017713834e+17
19626.0	6.260244334946985e+17
19627.0	6.259216428477098e+17
19628.0	6.257853301347668e+17
19629.0	6.256693517571412e+17
19630.0	6.254874926077267e+17
19631.0	6.243460922561879e+17
19632.0	6.253811688887636e+17
19633.0	6.252580056683859e+17
19634.0	6.251680411331242e+17
19635.0	6.25043189076241e+17
19636.0	6.249472095595177e+17
19637.0	6.246789125155498e+17
19638.0	6.247299556573183e+17
19639.0	6.246183671780691e+17
19640.0	6.244628453916672e+17
19641.0	6.241461578235907e+17
19642.0	6.242956960858111e+17
19643.0	6.241835292120403e+17
19644.0	6.240544078430205e+17
19645.0	6.238631086434985e+17
19646.0	6.238645226831872e+17
19647.0	6.237552708506963e+17
19648.0	6.236439172524714e+17
19649.0	6.235331072360447e+17
19650.0	6.234265230508031e+17
19651.0	6.233147465269247e+17
19652.0	6.232033845400918e+17
19653.0	6.230969862324223e+17
19654.0	6.229828097977002e+17
19655.0	6.228711494560425e+17
19656.0	6.227646005728595e+17
19657.0	6.226544500408319e+17
19658.0	6.225465493334698e+17
19659.0	6.224360817120596e+17
19660.0	6.223276407783424e+17
19661.0	6.222154562185898e+17
19662.0	6.221070133974356e+17
19663.0	6.219761077714944e+17
19664.0	6.218793405644799e+17
19665.0	6.21775805288721e+17
