# Flux units: erg / (cm m2 s)
# Wavelength units: Angstrom
wave	flux
19000.0	4.691952271709525e+17
19001.0	4.6911257673291085e+17
19002.0	4.690324356071423e+17
19003.0	4.6895094810978976e+17
19004.0	4.688695407236436e+17
19005.0	4.6878808286603936e+17
19006.0	4.687066185072638e+17
19007.0	4.686253847653033e+17
19008.0	4.685438147100672e+17
19009.0	4.6846108262290765e+17
19010.0	4.68379741646575e+17
19011.0	4.6829944994529274e+17
19012.0	4.6821729534388896e+17
19013.0	4.681379987412308e+17
19014.0	4.6805630656184314e+17
19015.0	4.6797516110998176e+17
19016.0	4.67894100173346e+17
19017.0	4.678133590523902e+17
19018.0	4.677320781245098e+17
19019.0	4.67651160842786e+17
19020.0	4.6757006278655994e+17
19021.0	4.6748897290922656e+17
19022.0	4.674078830318934e+17
19023.0	4.673264548140372e+17
19024.0	4.6724473676977485e+17
19025.0	4.6716437956744525e+17
19026.0	4.670834750783487e+17
19027.0	4.6700236108376736e+17
19028.0	4.6692153607673165e+17
19029.0	4.6684045864250016e+17
19030.0	4.667592589443071e+17
19031.0	4.6667858080781645e+17
19032.0	4.6659744542228474e+17
19033.0	4.66515039162641e+17
19034.0	4.664343379574783e+17
19035.0	4.6634834479895885e+17
19036.0	4.6625313360882336e+17
19037.0	4.6618769981003085e+17
19038.0	4.661108389795157e+17
19039.0	4.6603116922361165e+17
19040.0	4.6595045955993594e+17
19041.0	4.658699306707626e+17
19042.0	4.6576207211615565e+17
19043.0	4.6570882046361594e+17
19044.0	4.656280822087679e+17
19045.0	4.6554713948159994e+17
19046.0	4.65466369699567e+17
19047.0	4.653853991501823e+17
19048.0	4.653008619743915e+17
19049.0	4.6516792588588365e+17
19050.0	4.6514228967069e+17
19051.0	4.650601425491284e+17
19052.0	4.6498057191860896e+17
19053.0	4.6490152061282976e+17
19054.0	4.648213246814889e+17
19055.0	4.647306020257792e+17
19056.0	4.646582233683285e+17
19057.0	4.645803222805161e+17
19058.0	4.644715763509929e+17
19059.0	4.6440829220290554e+17
19060.0	4.6433891540882765e+17
19061.0	4.6425830661816314e+17
19062.0	4.641777966732628e+17
19063.0	4.640975065098921e+17
19064.0	4.6401691680331085e+17
19065.0	4.6393562189441696e+17
19066.0	4.6384562632130554e+17
19067.0	4.6377578130309114e+17
19068.0	4.636959519539198e+17
19069.0	4.636156425666559e+17
19070.0	4.6353499274171725e+17
19071.0	4.634549415837696e+17
19072.0	4.6336413266520723e+17
19073.0	4.6329461976596474e+17
19074.0	4.6321400992672416e+17
19075.0	4.6313417435600205e+17
19076.0	4.63053777867025e+17
19077.0	4.6297361954461e+17
19078.0	4.628933683183614e+17
19079.0	4.628131361062911e+17
19080.0	4.6273335757810336e+17
19081.0	4.626525766112596e+17
19082.0	4.625730816180223e+17
19083.0	4.624924792586239e+17
19084.0	4.6241101622804474e+17
19085.0	4.6233290032196256e+17
19086.0	4.62235273072913e+17
19087.0	4.6214934205999776e+17
19088.0	4.620781543751679e+17
19089.0	4.620112948625408e+17
19090.0	4.619329339391998e+17
19091.0	4.618514289655808e+17
19092.0	4.617507325345792e+17
19093.0	4.6169311936511994e+17
19094.0	4.6161337159516154e+17
19095.0	4.615332228497408e+17
19096.0	4.614534987776e+17
19097.0	4.613737895952383e+17
19098.0	4.612825867616256e+17
19099.0	4.6120027312619514e+17
19100.0	4.6113408784793594e+17
19101.0	4.610541898519893e+17
19102.0	4.609742153099946e+17
19103.0	4.608946440503295e+17
19104.0	4.6081530396672e+17
19105.0	4.6071057722900486e+17
19106.0	4.606556535870805e+17
19107.0	4.605701043257343e+17
19108.0	4.604867734317737e+17
19109.0	4.6041638406280525e+17
19110.0	4.603368175566847e+17
19111.0	4.6025014548015776e+17
19112.0	4.601690877591551e+17
19113.0	4.6009828622991354e+17
19114.0	4.600135679999998e+17
19115.0	4.599378482298879e+17
19116.0	4.598586717241343e+17
19117.0	4.597778128830464e+17
19118.0	4.5968710875217914e+17
19119.0	4.5953006695000736e+17
19120.0	4.5953362441885005e+17
19121.0	4.594597748189866e+17
19122.0	4.5938175370417485e+17
19123.0	4.5930265507266554e+17
19124.0	4.5922291576122016e+17
19125.0	4.591433250679466e+17
19126.0	4.5906218961250976e+17
19127.0	4.589790752844458e+17
19128.0	4.589031946627755e+17
19129.0	4.588253433473706e+17
19130.0	4.587474212880383e+17
19131.0	4.5866840877957114e+17
19132.0	4.5858925722992634e+17
19133.0	4.5850974545947296e+17
19134.0	4.584309028902228e+17
19135.0	4.5835167989759994e+17
19136.0	4.582723744169983e+17
19137.0	4.5819264111738874e+17
19138.0	4.581138307743743e+17
19139.0	4.580350183342078e+17
19140.0	4.5795596556042234e+17
19141.0	4.578768718921727e+17
19142.0	4.577975028678655e+17
19143.0	4.5771851999914656e+17
19144.0	4.5763933119010125e+17
19145.0	4.5756051196914336e+17
19146.0	4.5747519150708045e+17
19147.0	4.5740231009239034e+17
19148.0	4.573143964319744e+17
19149.0	4.572337779944106e+17
19150.0	4.571656069928277e+17
19151.0	4.5708664558496416e+17
19152.0	4.570076664911189e+17
19153.0	4.5690888650751974e+17
19154.0	4.5684793655951354e+17
19155.0	4.5677079268338336e+17
19156.0	4.566919882822996e+17
19157.0	4.566071333879807e+17
19158.0	4.5652026886280525e+17
19159.0	4.564551062956713e+17
19160.0	4.5637655096634016e+17
19161.0	4.562975457279998e+17
19162.0	4.562185574765908e+17
19163.0	4.561400330452991e+17
19164.0	4.5606142102295885e+17
19165.0	4.559617825352361e+17
19166.0	4.5590335077744634e+17
19167.0	4.5582532609747616e+17
19168.0	4.55746890375714e+17
19169.0	4.55668089749504e+17
19170.0	4.5558958929565e+17
19171.0	4.5551084053899936e+17
19172.0	4.5543248884312723e+17
19173.0	4.553538610222421e+17
19174.0	4.552751698673664e+17
19175.0	4.551967146420907e+17
19176.0	4.5511818622621e+17
19177.0	4.550381166133246e+17
19178.0	4.549611888836607e+17
19179.0	4.54882670743825e+17
19180.0	4.5480383782147405e+17
19181.0	4.547249438719998e+17
19182.0	4.546467027659434e+17
19183.0	4.5456878231442765e+17
19184.0	4.544904471161515e+17
19185.0	4.5441204795473914e+17
19186.0	4.5433352422249805e+17
19187.0	4.5425486795025056e+17
19188.0	4.5417686948468045e+17
19189.0	4.5409849499975674e+17
19190.0	4.5402010394733216e+17
19191.0	4.539416963973119e+17
19192.0	4.5386326619805005e+17
19193.0	4.537824110619306e+17
19194.0	4.537022620368896e+17
19195.0	4.536275035313493e+17
19196.0	4.535485682679808e+17
19197.0	4.534690862071808e+17
19198.0	4.533890536439808e+17
19199.0	4.5330848211271674e+17
19200.0	4.5323082247700474e+17
19201.0	4.531548653092863e+17
19202.0	4.53078494093858e+17
19203.0	4.5300147870324045e+17
19204.0	4.529240942138708e+17
19205.0	4.528464909216425e+17
19206.0	4.527685007048704e+17
19207.0	4.526890886190421e+17
19208.0	4.5261197109712205e+17
19209.0	4.525350418994516e+17
19210.0	4.5245730257196365e+17
19211.0	4.523794262305451e+17
19212.0	4.5230148319969274e+17
19213.0	4.5222267446449485e+17
19214.0	4.521452548827818e+17
19215.0	4.5206754910972576e+17
19216.0	4.5198951156722336e+17
19217.0	4.519110315256489e+17
19218.0	4.518318122379947e+17
19219.0	4.5175369500371616e+17
19220.0	4.51677619556625e+17
19221.0	4.5159983849581216e+17
19222.0	4.5152227365137056e+17
19223.0	4.514448767888042e+17
19224.0	4.513668089774079e+17
19225.0	4.5128954206836045e+17
19226.0	4.512120787260758e+17
19227.0	4.5113440524916045e+17
19228.0	4.510568641025365e+17
19229.0	4.50978697515281e+17
19230.0	4.509014214486698e+17
19231.0	4.508239557995179e+17
19232.0	4.507463039232682e+17
19233.0	4.50668224647441e+17
19234.0	4.505910983174825e+17
19235.0	4.505131434726741e+17
19236.0	4.5043599917711354e+17
19237.0	4.503583836514985e+17
19238.0	4.502801695987028e+17
19239.0	4.502034280262315e+17
19240.0	4.5012561417994234e+17
19241.0	4.500485196567892e+17
19242.0	4.499708373718357e+17
19243.0	4.498920945571157e+17
19244.0	4.498160367261012e+17
19245.0	4.497387583526228e+17
19246.0	4.496613455517012e+17
19247.0	4.4958392016786765e+17
19248.0	4.4950646703172256e+17
19249.0	4.4942841662668794e+17
19250.0	4.493477793846613e+17
19251.0	4.4927005578581325e+17
19252.0	4.4919432112592205e+17
19253.0	4.4911977086757536e+17
19254.0	4.490427124853417e+17
19255.0	4.489635254938282e+17
19256.0	4.4888811449439565e+17
19257.0	4.488109575460181e+17
19258.0	4.487335686526292e+17
19259.0	4.486555707462997e+17
19260.0	4.485779206875818e+17
19261.0	4.4850177156055034e+17
19262.0	4.4842396302704634e+17
19263.0	4.483458720071679e+17
19264.0	4.482678854254591e+17
19265.0	4.481912111715668e+17
19266.0	4.4811371546323616e+17
19267.0	4.480390513295359e+17
19268.0	4.4796206250284365e+17
19269.0	4.478851579117566e+17
19270.0	4.4780772295092896e+17
19271.0	4.4772996432964256e+17
19272.0	4.476538731539113e+17
19273.0	4.4757564833573536e+17
19274.0	4.4749639514412365e+17
19275.0	4.4742352044031994e+17
19276.0	4.473463052610217e+17
19277.0	4.472697292936532e+17
19278.0	4.471923402604543e+17
19279.0	4.471158282562217e+17
19280.0	4.4703883264873805e+17
19281.0	4.4696206038794234e+17
19282.0	4.468852220668585e+17
19283.0	4.4680831286203725e+17
19284.0	4.4673119568964256e+17
19285.0	4.466542878130175e+17
19286.0	4.465766220256597e+17
19287.0	4.464984659241642e+17
19288.0	4.464122659864576e+17
19289.0	4.463327096165717e+17
19290.0	4.462682300918442e+17
19291.0	4.46191185690624e+17
19292.0	4.461172701003775e+17
19293.0	4.460410509284692e+17
19294.0	4.4596435004074656e+17
19295.0	4.4588796826965325e+17
19296.0	4.4579908663377914e+17
19297.0	4.4573298321435296e+17
19298.0	4.4565796312405325e+17
19299.0	4.455678914942292e+17
19300.0	4.45504829923874e+17
19301.0	4.454285128848723e+17
19302.0	4.4535184009898656e+17
19303.0	4.452748657426431e+17
19304.0	4.4519883573384525e+17
19305.0	4.451223563053738e+17
19306.0	4.45045831368704e+17
19307.0	4.4496873502801914e+17
19308.0	4.448923852035413e+17
19309.0	4.448155530341033e+17
19310.0	4.447388044012202e+17
19311.0	4.4466162074910714e+17
19312.0	4.4458387275339085e+17
19313.0	4.44501062652177e+17
19314.0	4.4426637225929376e+17
19315.0	4.441984562014891e+17
19316.0	4.4425675968348154e+17
19317.0	4.4420221338910714e+17
19318.0	4.441280710967295e+17
19319.0	4.4405248344719354e+17
19320.0	4.439719045758975e+17
19321.0	4.438894011482112e+17
19322.0	4.4382425368057165e+17
19323.0	4.437481639029418e+17
19324.0	4.4367206007439354e+17
19325.0	4.4359591828739405e+17
19326.0	4.435198081673897e+17
19327.0	4.434436116447231e+17
19328.0	4.433449082071721e+17
19329.0	4.4329144159655245e+17
19330.0	4.43215316516864e+17
19331.0	4.43138844987665e+17
19332.0	4.4306322595075405e+17
19333.0	4.429871818211327e+17
19334.0	4.429104559773012e+17
19335.0	4.4278904017387514e+17
19336.0	4.4275875296488096e+17
19337.0	4.4268288422707194e+17
19338.0	4.426046907263657e+17
19339.0	4.4253036563223885e+17
19340.0	4.424522953741653e+17
19341.0	4.423601269418667e+17
19342.0	4.422968216125439e+17
19343.0	4.4222540652653216e+17
19344.0	4.4213102811545594e+17
19345.0	4.420586351973717e+17
19346.0	4.4199054619443194e+17
19347.0	4.41899546644753e+17
19348.0	4.418463698605397e+17
19349.0	4.417708997214207e+17
19350.0	4.416873834392234e+17
19351.0	4.4161937853207885e+17
19352.0	4.415209324150783e+17
19353.0	4.4146826097459194e+17
19354.0	4.413925357518847e+17
19355.0	4.4131586576220154e+17
19356.0	4.412408026103808e+17
19357.0	4.411651663069183e+17
19358.0	4.410893434967381e+17
19359.0	4.4100883998310394e+17
19360.0	4.4091973667826336e+17
19361.0	4.4086194224496634e+17
19362.0	4.407862782590976e+17
19363.0	4.407105677164543e+17
19364.0	4.406348432627029e+17
19365.0	4.4055908378651296e+17
19366.0	4.404830806212607e+17
19367.0	4.404076536135679e+17
19368.0	4.4033191329136634e+17
19369.0	4.4025612075007994e+17
19370.0	4.401803450559147e+17
19371.0	4.4010422619777696e+17
19372.0	4.400289256483498e+17
19373.0	4.399533823885312e+17
19374.0	4.398775126720511e+17
19375.0	4.398019430580223e+17
19376.0	4.3972623880683514e+17
19377.0	4.396505104384e+17
19378.0	4.39574783328256e+17
19379.0	4.394990503460863e+17
19380.0	4.3942309108121594e+17
19381.0	4.3934729476505594e+17
19382.0	4.392707222230357e+17
19383.0	4.3919538930756256e+17
19384.0	4.3911947673927674e+17
19385.0	4.390439329202175e+17
19386.0	4.3896831444254714e+17
19387.0	4.3889209638912e+17
19388.0	4.388157883678719e+17
19389.0	4.3873919737091405e+17
19390.0	4.3866047315094163e+17
19391.0	4.3856959202044576e+17
19392.0	4.385038063195477e+17
19393.0	4.384344856592383e+17
19394.0	4.3835963662663674e+17
19395.0	4.382773287234218e+17
19396.0	4.382064005961044e+17
19397.0	4.3813122391845536e+17
19398.0	4.38048723496687e+17
19399.0	4.3796863291228154e+17
19400.0	4.378957879181312e+17
19401.0	4.3782545929666554e+17
19402.0	4.3774937713868794e+17
19403.0	4.37672729518626e+17
19404.0	4.3759560850145274e+17
19405.0	4.3751845225212576e+17
19406.0	4.374413777218217e+17
19407.0	4.373550116896768e+17
19408.0	4.3728347461932365e+17
19409.0	4.3720715758032205e+17
19410.0	4.3713024411129165e+17
19411.0	4.3705199706330445e+17
19412.0	4.369734504721066e+17
19413.0	4.3688653554537805e+17
19414.0	4.3681541175377914e+17
19415.0	4.367357677229397e+17
19416.0	4.3665403842396154e+17
19417.0	4.3657484584004256e+17
19418.0	4.3649353422383776e+17
19419.0	4.364114317017087e+17
19420.0	4.3632844711744845e+17
19421.0	4.3624450001032525e+17
19422.0	4.361590379205972e+17
19423.0	4.3607323567281485e+17
19424.0	4.3598541093164365e+17
19425.0	4.3589564394810016e+17
19426.0	4.3580406607380486e+17
19427.0	4.357099439347028e+17
19428.0	4.356123619142313e+17
19429.0	4.3551152825958394e+17
19430.0	4.3540574686412794e+17
19431.0	4.3529488099355296e+17
19432.0	4.351817078363477e+17
19433.0	4.350594073143978e+17
19434.0	4.3492627332464634e+17
19435.0	4.3478047526311245e+17
19436.0	4.346211807002623e+17
19437.0	4.3444223023076685e+17
19438.0	4.3421153463282336e+17
19439.0	4.340032831051094e+17
19440.0	4.3375195887151776e+17
19441.0	4.334367239307263e+17
19442.0	4.330504253166933e+17
19443.0	4.3257280440128845e+17
19444.0	4.319533145085268e+17
19445.0	4.3116302528675834e+17
19446.0	4.300660397484714e+17
19447.0	4.2854070902674765e+17
19448.0	4.262560567481685e+17
19449.0	4.2246492504719334e+17
19450.0	4.141977539619494e+17
19451.0	4.06930666780536e+17
19452.0	4.192413682412203e+17
19453.0	4.243726858365613e+17
19454.0	4.270948435187027e+17
19455.0	4.287863389334185e+17
19456.0	4.2990168335974394e+17
19457.0	4.306579142038867e+17
19458.0	4.306908866762073e+17
19459.0	4.314909086405973e+17
19460.0	4.3188448465169056e+17
19461.0	4.3209465038984525e+17
19462.0	4.3224010682531834e+17
19463.0	4.323360129417215e+17
19464.0	4.324010032627711e+17
19465.0	4.324388302225407e+17
19466.0	4.3245507930576205e+17
19467.0	4.3245655514152954e+17
19468.0	4.324465629113002e+17
19469.0	4.324083442734421e+17
19470.0	4.3239452257375565e+17
19471.0	4.3235799710651725e+17
19472.0	4.3231614466348365e+17
19473.0	4.3226994859922765e+17
19474.0	4.322029273961811e+17
19475.0	4.3216275686905165e+17
19476.0	4.3211000510764365e+17
19477.0	4.3205286904026445e+17
19478.0	4.3199401701321376e+17
19479.0	4.3191676282688845e+17
19480.0	4.318694555516928e+17
19481.0	4.3180500769396045e+17
19482.0	4.317404900709717e+17
19483.0	4.3167491946796365e+17
19484.0	4.316079495053311e+17
19485.0	4.31540412612608e+17
19486.0	4.31455732760576e+17
19487.0	4.314037324786346e+17
19488.0	4.313343463871829e+17
19489.0	4.3126225266278394e+17
19490.0	4.3119068217780896e+17
19491.0	4.311242511133355e+17
19492.0	4.310557367380649e+17
19493.0	4.3098566599639034e+17
19494.0	4.3091492863999994e+17
19495.0	4.308431714385919e+17
19496.0	4.30769403138321e+17
19497.0	4.3069760448320845e+17
19498.0	4.3061422850047994e+17
19499.0	4.305299924757162e+17
19500.0	4.304816973720234e+17
19501.0	4.304142879861417e+17
19502.0	4.303436105383936e+17
19503.0	4.3027212512788474e+17
19504.0	4.30200306270208e+17
19505.0	4.301277021689172e+17
19506.0	4.3005587562168314e+17
19507.0	4.299832299268778e+17
19508.0	4.2991007350565536e+17
19509.0	4.298349555482623e+17
19510.0	4.2974613291226445e+17
19511.0	4.294755806609406e+17
19512.0	4.29587765010978e+17
19513.0	4.295306250988202e+17
19514.0	4.294621663679828e+17
19515.0	4.29400452497408e+17
19516.0	4.2932867670125216e+17
19517.0	4.2925905391124474e+17
19518.0	4.2918288535060474e+17
19519.0	4.29110590439424e+17
19520.0	4.2902696161006925e+17
19521.0	4.2897067719611725e+17
19522.0	4.2889599425795405e+17
19523.0	4.2882227642914125e+17
19524.0	4.287411536265215e+17
19525.0	4.2868063848802976e+17
19526.0	4.286082968802644e+17
19527.0	4.2853574073384954e+17
19528.0	4.284621559343785e+17
19529.0	4.2838894589597005e+17
19530.0	4.283181708607488e+17
19531.0	4.2824540646714016e+17
19532.0	4.2817276454720845e+17
19533.0	4.280998913813162e+17
19534.0	4.280277685764095e+17
19535.0	4.2795512120388256e+17
19536.0	4.27881901658385e+17
19537.0	4.27809284624657e+17
19538.0	4.27720734548514e+17
19539.0	4.276626398030505e+17
19540.0	4.2759134348574714e+17
19541.0	4.275159913463806e+17
19542.0	4.274453719897428e+17
19543.0	4.2735788922415776e+17
19544.0	4.2729966655242234e+17
19545.0	4.2722554753843194e+17
19546.0	4.2715295986483194e+17
19547.0	4.2708332700849485e+17
19548.0	4.270116980129791e+17
19549.0	4.2693860814138016e+17
19550.0	4.268668950500694e+17
19551.0	4.2679477035772576e+17
19552.0	4.267221635301375e+17
19553.0	4.266498433832277e+17
19554.0	4.2657721425592314e+17
19555.0	4.2650331362536096e+17
19556.0	4.264314447156565e+17
19557.0	4.263602048117419e+17
19558.0	4.262880052510719e+17
19559.0	4.2621568824989005e+17
19560.0	4.261373068443647e+17
19561.0	4.260709886765738e+17
19562.0	4.259930292879359e+17
19563.0	4.2592632831999994e+17
19564.0	4.258533704990719e+17
19565.0	4.257815747799723e+17
19566.0	4.2570905952802125e+17
19567.0	4.256371050545151e+17
19568.0	4.2556485502238714e+17
19569.0	4.2549258017396045e+17
19570.0	4.25420220600593e+17
19571.0	4.253480674568873e+17
19572.0	4.252756479748778e+17
19573.0	4.2520179508947616e+17
19574.0	4.251299479901523e+17
19575.0	4.2505937854573216e+17
19576.0	4.249862331695102e+17
19577.0	4.2491226759714125e+17
19578.0	4.2484277601894394e+17
19579.0	4.247704979548842e+17
19580.0	4.24698276094498e+17
19581.0	4.2462607422696096e+17
19582.0	4.245544056651774e+17
19583.0	4.2448239610647885e+17
19584.0	4.244100583434923e+17
19585.0	4.2433703208550394e+17
19586.0	4.242646811104596e+17
19587.0	4.2419350426091514e+17
19588.0	4.24120477094161e+17
19589.0	4.240492480255317e+17
19590.0	4.2397697723159885e+17
19591.0	4.2390606434358605e+17
19592.0	4.23834286030848e+17
19593.0	4.2376077190539936e+17
19594.0	4.2368660766283085e+17
19595.0	4.236183378154836e+17
19596.0	4.2354616733532154e+17
19597.0	4.2347413463804576e+17
19598.0	4.233983041383082e+17
19599.0	4.233302593852757e+17
19600.0	4.2325880046878694e+17
19601.0	4.231866487930879e+17
19602.0	4.2311428977896096e+17
19603.0	4.2304219857114445e+17
19604.0	4.2297092714004486e+17
19605.0	4.2289786292360525e+17
19606.0	4.2282806921570976e+17
19607.0	4.2275672690087245e+17
19608.0	4.226845694929579e+17
19609.0	4.2261313790935034e+17
19610.0	4.225341109305343e+17
19611.0	4.2245842073026554e+17
19612.0	4.2239832453283834e+17
19613.0	4.2232622731318605e+17
19614.0	4.2225453645168634e+17
19615.0	4.221830890695338e+17
19616.0	4.221036644706987e+17
19617.0	4.2202707682918394e+17
19618.0	4.2196334451971405e+17
19619.0	4.2188968464220154e+17
19620.0	4.218178238414847e+17
19621.0	4.217356318408704e+17
19622.0	4.216818130485247e+17
19623.0	4.2160978741166074e+17
19624.0	4.215369061367808e+17
19625.0	4.214676497891327e+17
19626.0	4.21396068119347e+17
19627.0	4.213243436335104e+17
19628.0	4.21252275634176e+17
19629.0	4.2114021655401805e+17
19630.0	4.2110664988863136e+17
19631.0	4.2103330115857056e+17
19632.0	4.209652459896831e+17
19633.0	4.2089505990464845e+17
19634.0	4.2082452338551456e+17
19635.0	4.207515391404714e+17
19636.0	4.2066361184856736e+17
19637.0	4.2058996965703674e+17
19638.0	4.2053860495196154e+17
19639.0	4.2046801355735034e+17
19640.0	4.2039283359416314e+17
19641.0	4.2031631802477216e+17
19642.0	4.20252852612847e+17
19643.0	4.201822818402304e+17
19644.0	4.201116972963157e+17
19645.0	4.2004052093610656e+17
19646.0	4.1995031907314336e+17
19647.0	4.198985081640276e+17
19648.0	4.1982814962319354e+17
19649.0	4.197568735084543e+17
19650.0	4.1968590462648314e+17
19651.0	4.196149074329599e+17
19652.0	4.195438360002559e+17
19653.0	4.194725749850111e+17
19654.0	4.1940170215260154e+17
19655.0	4.1933053739663354e+17
