# Flux units: erg / (cm m2 s)
# Wavelength units: Angstrom
wave	flux
19000.0	7.347565188087807e+17
19001.0	7.345595842123092e+17
19002.0	7.344927924376918e+17
19003.0	7.343563286598996e+17
19004.0	7.342231581097983e+17
19005.0	7.340874430152701e+17
19006.0	7.339551051743232e+17
19007.0	7.33815183053073e+17
19008.0	7.336489549561855e+17
19009.0	7.335015785780564e+17
19010.0	7.331192925148495e+17
19011.0	7.332664523270825e+17
19012.0	7.330627317661693e+17
19013.0	7.330145759832748e+17
19014.0	7.328415041803604e+17
19015.0	7.32723073253376e+17
19016.0	7.325832963948544e+17
19017.0	7.324686613129897e+17
19018.0	7.323353737418067e+17
19019.0	7.322024691105791e+17
19020.0	7.320599360350889e+17
19021.0	7.319386609505619e+17
19022.0	7.318036486815744e+17
19023.0	7.316435181240317e+17
19024.0	7.315221580349437e+17
19025.0	7.313958847381501e+17
19026.0	7.312458722399572e+17
19027.0	7.310907808590505e+17
19028.0	7.309942295188819e+17
19029.0	7.308481231760041e+17
19030.0	7.307314625249279e+17
19031.0	7.30599971094528e+17
19032.0	7.304621549333161e+17
19033.0	7.302641702229331e+17
19034.0	7.301788220085587e+17
19035.0	7.300158382058152e+17
19036.0	7.268167504101367e+17
19037.0	7.297652558047914e+17
19038.0	7.296323959128063e+17
19039.0	7.295110581933395e+17
19040.0	7.293957325892266e+17
19041.0	7.292660435910655e+17
19042.0	7.29071738823202e+17
19043.0	7.289977901678591e+17
19044.0	7.288559385269587e+17
19045.0	7.287260238752425e+17
19046.0	7.285492826155689e+17
19047.0	7.28443806495539e+17
19048.0	7.281814340457811e+17
19049.0	7.281298434075305e+17
19050.0	7.28010118258142e+17
19051.0	7.273705720425123e+17
19052.0	7.27680407376145e+17
19053.0	7.276338310283263e+17
19054.0	7.274952245204308e+17
19055.0	7.271921613100376e+17
19056.0	7.272100138057727e+17
19057.0	7.270864305957545e+17
19058.0	7.269417872261119e+17
19059.0	7.268156545783123e+17
19060.0	7.266678851938985e+17
19061.0	7.265467633412777e+17
19062.0	7.264058438145364e+17
19063.0	7.262717098328063e+17
19064.0	7.260507961207466e+17
19065.0	7.258769754947583e+17
19066.0	7.258201268770132e+17
19067.0	7.257168399040511e+17
19068.0	7.255878341580118e+17
19069.0	7.254527277968042e+17
19070.0	7.252964546008403e+17
19071.0	7.251747550527487e+17
19072.0	7.25041214984465e+17
19073.0	7.249002962965844e+17
19074.0	7.247700266669396e+17
19075.0	7.246330889327955e+17
19076.0	7.244825912934399e+17
19077.0	7.24350479385668e+17
19078.0	7.241934222742868e+17
19079.0	7.240823161399977e+17
19080.0	7.239361758232573e+17
19081.0	7.237793878463827e+17
19082.0	7.236442036109311e+17
19083.0	7.234573866543785e+17
19084.0	7.232363961865556e+17
19085.0	7.232502692664659e+17
19086.0	7.228570829062143e+17
19087.0	7.228982083365545e+17
19088.0	7.227817350310569e+17
19089.0	7.22541512421103e+17
19090.0	7.225468726018047e+17
19091.0	7.22415020601071e+17
19092.0	7.222386097127423e+17
19093.0	7.221576251124393e+17
19094.0	7.220217489566377e+17
19095.0	7.218871454924799e+17
19096.0	7.217394457335123e+17
19097.0	7.216110649387689e+17
19098.0	7.214706889938259e+17
19099.0	7.213322151657471e+17
19100.0	7.211917581309267e+17
19101.0	7.210591162029395e+17
19102.0	7.208606765503827e+17
19103.0	7.207820909521577e+17
19104.0	7.206493156453033e+17
19105.0	7.205049934195369e+17
19106.0	7.203568178866857e+17
19107.0	7.202205660610557e+17
19108.0	7.200922729272662e+17
19109.0	7.19695149234039e+17
19110.0	7.198003851602602e+17
19111.0	7.196812203698857e+17
19112.0	7.19545682694417e+17
19113.0	7.19407560069393e+17
19114.0	7.192672949938858e+17
19115.0	7.190963937432916e+17
19116.0	7.189790172643327e+17
19117.0	7.188392859839145e+17
19118.0	7.186517541781501e+17
19119.0	7.163800285347807e+17
19120.0	7.184009004056575e+17
19121.0	7.182830138993321e+17
19122.0	7.181667142380202e+17
19123.0	7.180266307758761e+17
19124.0	7.178701059216723e+17
19125.0	7.177466154057727e+17
19126.0	7.176033181280938e+17
19127.0	7.163696937697275e+17
19128.0	7.172516819413672e+17
19129.0	7.171384955721042e+17
19130.0	7.170482155552765e+17
19131.0	7.16918281609762e+17
19132.0	7.167804288182952e+17
19133.0	7.165645355483136e+17
19134.0	7.164694218757462e+17
19135.0	7.163644931123881e+17
19136.0	7.162298843354451e+17
19137.0	7.159889068905812e+17
19138.0	7.159421903131987e+17
19139.0	7.158138820799145e+17
19140.0	7.156762090842794e+17
19141.0	7.155384924678825e+17
19142.0	7.153809100898304e+17
19143.0	7.152226545259862e+17
19144.0	7.150940564662952e+17
19145.0	7.14980291842321e+17
19146.0	7.144480013899098e+17
19147.0	7.146468456529919e+17
19148.0	7.145625049104383e+17
19149.0	7.14421455500083e+17
19150.0	7.142824784953343e+17
19151.0	7.141455874577748e+17
19152.0	7.140048931651581e+17
19153.0	7.138547314895529e+17
19154.0	7.136500069520723e+17
19155.0	7.135905852686335e+17
19156.0	7.134490386934441e+17
19157.0	7.13293402612258e+17
19158.0	7.130041266383529e+17
19159.0	7.130144049201151e+17
19160.0	7.128817562812415e+17
19161.0	7.127408163422207e+17
19162.0	7.122014988926979e+17
19163.0	7.1244443563677e+17
19164.0	7.123362395105961e+17
19165.0	7.121841017585664e+17
19166.0	7.119809690992637e+17
19167.0	7.118795827052543e+17
19168.0	7.117645149110271e+17
19169.0	7.116251019782826e+17
19170.0	7.114998160206506e+17
19171.0	7.113378877844138e+17
19172.0	7.112147052702377e+17
19173.0	7.110815800186195e+17
19174.0	7.109045538258944e+17
19175.0	7.108014881723732e+17
19176.0	7.106595987827369e+17
19177.0	7.104217361678335e+17
19178.0	7.103694818508799e+17
19179.0	7.102114800424275e+17
19180.0	7.100911724440233e+17
19181.0	7.098900443824127e+17
19182.0	7.098083808641023e+17
19183.0	7.09680778392371e+17
19184.0	7.095291596155561e+17
19185.0	7.093904000155647e+17
19186.0	7.092584163136851e+17
19187.0	7.090649534824445e+17
19188.0	7.089748239013203e+17
19189.0	7.088339520498345e+17
19190.0	7.085421091618812e+17
19191.0	7.082653267613012e+17
19192.0	7.081475705580202e+17
19193.0	7.079995525911892e+17
19194.0	7.078492048282964e+17
19195.0	7.077155365541204e+17
19196.0	7.075584447698259e+17
19197.0	7.07410509570594e+17
19198.0	7.072141335156051e+17
19199.0	7.046692274700282e+17
19200.0	7.051832555033947e+17
19201.0	7.067987490810538e+17
19202.0	7.06708013982242e+17
19203.0	7.065723710297428e+17
19204.0	7.064226549290323e+17
19205.0	7.062920072527872e+17
19206.0	7.061471049547775e+17
19207.0	7.059477589131263e+17
19208.0	7.057427624449361e+17
19209.0	7.057228585151145e+17
19210.0	7.055822194475007e+17
19211.0	7.054490112884735e+17
19212.0	7.053032144852308e+17
19213.0	7.050898633829032e+17
19214.0	7.049280200114177e+17
19215.0	7.048647552270335e+17
19216.0	7.047303705657344e+17
19217.0	7.045787447984127e+17
19218.0	7.039259828901197e+17
19219.0	7.041881983330984e+17
19220.0	7.04138120859921e+17
19221.0	7.038059315636906e+17
19222.0	7.038583381338794e+17
19223.0	7.037070156846419e+17
19224.0	7.035463602099539e+17
19225.0	7.033391651575123e+17
19226.0	7.032711839481856e+17
19227.0	7.031266384456362e+17
19228.0	7.02998795919906e+17
19229.0	7.028533440282623e+17
19230.0	7.027017540523348e+17
19231.0	7.023603107932844e+17
19232.0	7.020813970571263e+17
19233.0	7.018921470547284e+17
19234.0	7.017768520690345e+17
19235.0	7.016210384289791e+17
19236.0	7.014991382533459e+17
19237.0	7.013395663071913e+17
19238.0	7.011429332811775e+17
19239.0	7.010573928278697e+17
19240.0	7.008872786384212e+17
19241.0	7.007386713019732e+17
19242.0	7.00600847311394e+17
19243.0	7.003462452991314e+17
19244.0	7.00314352161041e+17
19245.0	7.001618779559252e+17
19246.0	7.000047765946368e+17
19247.0	6.998584918540287e+17
19248.0	6.997155550068735e+17
19249.0	6.995641089654783e+17
19250.0	6.994023407419391e+17
19251.0	6.991874831854248e+17
19252.0	6.989190605919572e+17
19253.0	6.989467757139284e+17
19254.0	6.987693904188751e+17
19255.0	6.981278972073298e+17
19256.0	6.980793819026772e+17
19257.0	6.979456247791615e+17
19258.0	6.97792925339921e+17
19259.0	6.975881418025642e+17
19260.0	6.974174831225512e+17
19261.0	6.973191149497001e+17
19262.0	6.971339104234153e+17
19263.0	6.969772816203775e+17
19264.0	6.96527784282248e+17
19265.0	6.965826354326184e+17
19266.0	6.964398666372438e+17
19267.0	6.963920166191104e+17
19268.0	6.962296277783894e+17
19269.0	6.960715143315455e+17
19270.0	6.959125225974441e+17
19271.0	6.953153310927535e+17
19272.0	6.953264702554111e+17
19273.0	6.945045558416718e+17
19274.0	6.945241422626807e+17
19275.0	6.948685400593748e+17
19276.0	6.946956709112489e+17
19277.0	6.945347750330368e+17
19278.0	6.943744114120019e+17
19279.0	6.941937423264425e+17
19280.0	6.939914519532884e+17
19281.0	6.938763167705769e+17
19282.0	6.937197106167807e+17
19283.0	6.935242347293354e+17
19284.0	6.933429406924799e+17
19285.0	6.931060836619603e+17
19286.0	6.930266236212563e+17
19287.0	6.928831838770516e+17
19288.0	6.918913672959309e+17
19289.0	6.905680528495922e+17
19290.0	6.92374716162594e+17
19291.0	6.92037429528713e+17
19292.0	6.920350189922985e+17
19293.0	6.918595195262291e+17
19294.0	6.916832866861055e+17
19295.0	6.915169763109546e+17
19296.0	6.913367721639935e+17
19297.0	6.911463236392276e+17
19298.0	6.909693535802708e+17
19299.0	6.908095663964159e+17
19300.0	6.906324884040361e+17
19301.0	6.904521496898217e+17
19302.0	6.902665296478205e+17
19303.0	6.900477775402323e+17
19304.0	6.898917785818452e+17
19305.0	6.897203595444223e+17
19306.0	6.895419129506474e+17
19307.0	6.893307363852287e+17
19308.0	6.891576902374739e+17
19309.0	6.889043149892265e+17
19310.0	6.886738588161363e+17
19311.0	6.885867741599059e+17
19312.0	6.884222513272148e+17
19313.0	6.882378948891988e+17
19314.0	6.859299512909823e+17
19315.0	6.858844662311624e+17
19316.0	6.876458929269417e+17
19317.0	6.874570234178217e+17
19318.0	6.872602547759785e+17
19319.0	6.870740170528084e+17
19320.0	6.868759886517588e+17
19321.0	6.866756502377812e+17
19322.0	6.864241007001599e+17
19323.0	6.862341796790271e+17
19324.0	6.860617388392447e+17
19325.0	6.857992997000532e+17
19326.0	6.856531922386941e+17
19327.0	6.854427577854633e+17
19328.0	6.85242936389359e+17
19329.0	6.850345889518932e+17
19330.0	6.847984290846036e+17
19331.0	6.845795974949546e+17
19332.0	6.843883468794538e+17
19333.0	6.841591805946537e+17
19334.0	6.839463938359293e+17
19335.0	6.837207023921834e+17
19336.0	6.834987327640916e+17
19337.0	6.832731707845289e+17
19338.0	6.829176779352744e+17
19339.0	6.828166258272936e+17
19340.0	6.825420664078333e+17
19341.0	6.823397278700883e+17
19342.0	6.818893432269477e+17
19343.0	6.818858927128575e+17
19344.0	6.816391371948031e+17
19345.0	6.802537684402153e+17
19346.0	6.80685516182869e+17
19347.0	6.808950316640937e+17
19348.0	6.806972412198911e+17
19349.0	6.804333698656938e+17
19350.0	6.801947929608191e+17
19351.0	6.79942502569301e+17
19352.0	6.79672417493538e+17
19353.0	6.794742225786196e+17
19354.0	6.792254458254676e+17
19355.0	6.789124712650071e+17
19356.0	6.787146560045055e+17
19357.0	6.784510824458921e+17
19358.0	6.781782486330025e+17
19359.0	6.778787928735743e+17
19360.0	6.776192117331286e+17
19361.0	6.773543334663507e+17
19362.0	6.771035129686697e+17
19363.0	6.768262725500928e+17
19364.0	6.765460048926036e+17
19365.0	6.762583659555497e+17
19366.0	6.759495063568383e+17
19367.0	6.756621930375849e+17
19368.0	6.753729863396009e+17
19369.0	6.75042700628241e+17
19370.0	6.747158262142292e+17
19371.0	6.744540429942783e+17
19372.0	6.741860041796265e+17
19373.0	6.738682820864681e+17
19374.0	6.735704203023699e+17
19375.0	6.732624257089533e+17
19376.0	6.729486632484863e+17
19377.0	6.726242404051625e+17
19378.0	6.723048303842643e+17
19379.0	6.719807088317779e+17
19380.0	6.716423065829376e+17
19381.0	6.712548662094504e+17
19382.0	6.708735224665428e+17
19383.0	6.705141449228287e+17
19384.0	6.702311557212842e+17
19385.0	6.698821609674068e+17
19386.0	6.695293095510013e+17
19387.0	6.691678967212714e+17
19388.0	6.687830995981654e+17
19389.0	6.683284168420009e+17
19390.0	6.679457981005821e+17
19391.0	6.6511907453228e+17
19392.0	6.671228925728082e+17
19393.0	6.667723806692692e+17
19394.0	6.662155478761472e+17
19395.0	6.657846780013225e+17
19396.0	6.653622076396884e+17
19397.0	6.648956496904193e+17
19398.0	6.642488624283647e+17
19399.0	6.634059591581692e+17
19400.0	6.631636182149798e+17
19401.0	6.625354396117672e+17
19402.0	6.620013495233196e+17
19403.0	6.611294334134953e+17
19404.0	6.605588192559096e+17
19405.0	6.595625805501779e+17
19406.0	6.588191604386473e+17
19407.0	6.578124788946262e+17
19408.0	6.563773940760585e+17
19409.0	6.556366537752571e+17
19410.0	6.54302856015599e+17
19411.0	6.526728000940713e+17
19412.0	6.513740326021802e+17
19413.0	6.505068225014441e+17
19414.0	6.496182250154665e+17
19415.0	6.48730130915874e+17
19416.0	6.477290383518377e+17
19417.0	6.468292908679167e+17
19418.0	6.458505849820499e+17
19419.0	6.448224621559807e+17
19420.0	6.437768453073578e+17
19421.0	6.426897730065748e+17
19422.0	6.415091445181097e+17
19423.0	6.403276853477376e+17
19424.0	6.39139938705954e+17
19425.0	6.377965458467497e+17
19426.0	6.364939019091965e+17
19427.0	6.349877929836543e+17
19428.0	6.334412246832471e+17
19429.0	6.3171461147962e+17
19430.0	6.297125259662679e+17
19431.0	6.271304713895941e+17
19432.0	6.250039062735532e+17
19433.0	6.220589162648914e+17
19434.0	6.184936184741893e+17
19435.0	6.145738688604841e+17
19436.0	6.113294993588223e+17
19437.0	6.085842888032255e+17
19438.0	6.027020890800132e+17
19439.0	6.018494111940609e+17
19440.0	5.979438746785108e+17
19441.0	5.93487324477303e+17
19442.0	5.883507252745556e+17
19443.0	5.82163090182417e+17
19444.0	5.749962117742589e+17
19445.0	5.666584174875994e+17
19446.0	5.5685605822737043e+17
19447.0	5.452917840543738e+17
19448.0	5.307675060819292e+17
19449.0	5.114134114162005e+17
19450.0	4.8388356170929235e+17
19451.0	4.7080372024552154e+17
19452.0	4.987705479921668e+17
19453.0	5.218201763140956e+17
19454.0	5.3816643638613254e+17
19455.0	5.5076327445408403e+17
19456.0	5.610946105966595e+17
19457.0	5.699403515953149e+17
19458.0	5.744428456433029e+17
19459.0	5.837681234455218e+17
19460.0	5.892731776445093e+17
19461.0	5.937574879166464e+17
19462.0	5.977455684048215e+17
19463.0	6.012355276876456e+17
19464.0	6.043065928122368e+17
19465.0	6.071180164683094e+17
19466.0	6.097190418819752e+17
19467.0	6.131283193932474e+17
19468.0	6.166923205847715e+17
19469.0	6.194926355567951e+17
19470.0	6.22170272100079e+17
19471.0	6.242650306205007e+17
19472.0	6.260680815891796e+17
19473.0	6.276151362890408e+17
19474.0	6.290679227482111e+17
19475.0	6.299736283108687e+17
19476.0	6.314383552544765e+17
19477.0	6.325667982125738e+17
19478.0	6.335815612716371e+17
19479.0	6.345110416872788e+17
19480.0	6.35464866472482e+17
19481.0	6.363374837301247e+17
19482.0	6.371574714903209e+17
19483.0	6.379572062147926e+17
19484.0	6.387300612527444e+17
19485.0	6.394361528975359e+17
19486.0	6.401315176098474e+17
19487.0	6.408077654534825e+17
19488.0	6.414481194920617e+17
19489.0	6.420113149045418e+17
19490.0	6.422621392470006e+17
19491.0	6.441007783258788e+17
19492.0	6.452800298243416e+17
19493.0	6.462458445867689e+17
19494.0	6.472546128669349e+17
19495.0	6.478092932131502e+17
19496.0	6.483633440642385e+17
19497.0	6.490729097811284e+17
19498.0	6.493767554389335e+17
19499.0	6.463392957770391e+17
19500.0	6.505349295112191e+17
19501.0	6.508156487554386e+17
19502.0	6.513006150855337e+17
19503.0	6.51518784114961e+17
19504.0	6.517907801156266e+17
19505.0	6.521263538656595e+17
19506.0	6.52311916445696e+17
19507.0	6.524677940488873e+17
19508.0	6.527228015804415e+17
19509.0	6.529397165129727e+17
19510.0	6.529716733345791e+17
19511.0	6.490341813955217e+17
19512.0	6.527445533807944e+17
19513.0	6.522216992735213e+17
19514.0	6.528613695706442e+17
19515.0	6.535184931356678e+17
19516.0	6.538979011373738e+17
19517.0	6.539734771826685e+17
19518.0	6.541047397438803e+17
19519.0	6.541931180632745e+17
19520.0	6.542636410907305e+17
19521.0	6.543704995135487e+17
19522.0	6.544780720166228e+17
19523.0	6.545751472253609e+17
19524.0	6.546434841815721e+17
19525.0	6.547017143331497e+17
19526.0	6.547740142075904e+17
19527.0	6.54825857622562e+17
19528.0	6.548816050956969e+17
19529.0	6.549306005782527e+17
19530.0	6.549847500914688e+17
19531.0	6.550336053444605e+17
19532.0	6.55074607112738e+17
19533.0	6.551159872072361e+17
19534.0	6.55151137292288e+17
19535.0	6.551728650452991e+17
19536.0	6.551932046934015e+17
19537.0	6.552568817778687e+17
19538.0	6.552369421964631e+17
19539.0	6.550012622973619e+17
19540.0	6.553216506396671e+17
19541.0	6.553576432205823e+17
19542.0	6.553702402534057e+17
19543.0	6.553803274147155e+17
19544.0	6.553933077370196e+17
19545.0	6.551311389207203e+17
19546.0	6.548869213061121e+17
19547.0	6.554103756881919e+17
19548.0	6.554063820117331e+17
19549.0	6.55334817678404e+17
19550.0	6.553916256114004e+17
19551.0	6.553835169731923e+17
19552.0	6.553712668792147e+17
19553.0	6.553453571954003e+17
19554.0	6.55319988436992e+17
19555.0	6.553199975246506e+17
19556.0	6.553113360771754e+17
19557.0	6.552917539203753e+17
19558.0	6.552711730997929e+17
19559.0	6.552492028461055e+17
19560.0	6.552111837872127e+17
19561.0	6.551865460260863e+17
19562.0	6.551738488892074e+17
19563.0	6.551521936277501e+17
19564.0	6.551215252264276e+17
19565.0	6.550913065943039e+17
19566.0	6.550408608612351e+17
19567.0	6.550273283588096e+17
19568.0	6.549729861173245e+17
19569.0	6.549415546322943e+17
19570.0	6.549176024301567e+17
19571.0	6.548759777378304e+17
19572.0	6.548104118184618e+17
19573.0	6.547780966634836e+17
19574.0	6.54681764475699e+17
19575.0	6.546929731938985e+17
19576.0	6.546437742875988e+17
19577.0	6.54579464352563e+17
19578.0	6.545160721312426e+17
19579.0	6.544696974595411e+17
19580.0	6.544158986600447e+17
19581.0	6.543673272216234e+17
19582.0	6.543198414787923e+17
19583.0	6.542607858182825e+17
19584.0	6.541972534373033e+17
19585.0	6.540662537890473e+17
19586.0	6.5398569945443e+17
19587.0	6.539963096454484e+17
19588.0	6.53668151564698e+17
19589.0	6.538638229766143e+17
19590.0	6.537583759370922e+17
19591.0	6.537406303262036e+17
19592.0	6.536755512257193e+17
19593.0	6.535928043186857e+17
19594.0	6.533786997795494e+17
19595.0	6.534409688361641e+17
19596.0	6.532335473612116e+17
19597.0	6.533041574903808e+17
19598.0	6.53040257754726e+17
19599.0	6.531597717209087e+17
19600.0	6.53088446952243e+17
19601.0	6.529764742747476e+17
19602.0	6.529078494494717e+17
19603.0	6.525854958660262e+17
19604.0	6.52746135052834e+17
19605.0	6.525097050723671e+17
19606.0	6.526176350000467e+17
19607.0	6.525376974378323e+17
19608.0	6.524494755659775e+17
19609.0	6.523409020922538e+17
19610.0	6.522924038444372e+17
19611.0	6.522017381613567e+17
19612.0	6.521260939586217e+17
19613.0	6.520331868394835e+17
19614.0	6.519270696200873e+17
19615.0	6.518654598381565e+17
19616.0	6.517555642499072e+17
19617.0	6.516863799743827e+17
19618.0	6.512554900368037e+17
19619.0	6.510804974523725e+17
19620.0	6.510140624033105e+17
19621.0	6.513239717664084e+17
19622.0	6.512412477183316e+17
19623.0	6.5115182872221e+17
19624.0	6.510534496441684e+17
19625.0	6.50967383155234e+17
19626.0	6.508659474781523e+17
19627.0	6.507779423819091e+17
19628.0	6.506174307019436e+17
19629.0	6.505180533096447e+17
19630.0	6.50258728231458e+17
19631.0	6.47808828973602e+17
19632.0	6.502763601767082e+17
19633.0	6.501737653338111e+17
19634.0	6.501125600225961e+17
19635.0	6.5016832706915e+17
19636.0	6.501212392958634e+17
19637.0	6.497748619973975e+17
19638.0	6.499244430415188e+17
19639.0	6.498249833010516e+17
19640.0	6.496796790489088e+17
19641.0	6.491841469175137e+17
19642.0	6.495268709771946e+17
19643.0	6.494230996320255e+17
19644.0	6.492972236057256e+17
19645.0	6.490942770337105e+17
19646.0	6.491596019903146e+17
19647.0	6.490612694690474e+17
19648.0	6.489566119373482e+17
19649.0	6.488527001529001e+17
19650.0	6.487546884958889e+17
19651.0	6.486637866035882e+17
19652.0	6.488846992670719e+17
19653.0	6.487846470811647e+17
19654.0	6.486744669093887e+17
19655.0	6.48565878755601e+17
19656.0	6.48466775810594e+17
19657.0	6.483608040636413e+17
19658.0	6.482590140377769e+17
19659.0	6.481519528203603e+17
19660.0	6.480499149111295e+17
19661.0	6.479406565774676e+17
19662.0	6.478370546821801e+17
19663.0	6.476994919268351e+17
19664.0	6.47608604504883e+17
19665.0	6.475169726638762e+17
