# Flux units: erg / (cm m2 s)
# Wavelength units: Angstrom
wave	flux
19000.0	4.393130028346025e+17
19001.0	4.3922427457044474e+17
19002.0	4.3915137581929805e+17
19003.0	4.3907031411370656e+17
19004.0	4.3898947973939194e+17
19005.0	4.3890814631280634e+17
19006.0	4.388280661442559e+17
19007.0	4.387464889587029e+17
19008.0	4.3866115088056314e+17
19009.0	4.385731703909034e+17
19010.0	4.3846828552792736e+17
19011.0	4.384206226456575e+17
19012.0	4.383345969812821e+17
19013.0	4.382618318886228e+17
19014.0	4.3817710534000634e+17
19015.0	4.380972697692842e+17
19016.0	4.3801494935306234e+17
19017.0	4.3793866747630925e+17
19018.0	4.3785783645743776e+17
19019.0	4.3777713532218016e+17
19020.0	4.3769536254225056e+17
19021.0	4.376161910696618e+17
19022.0	4.3753534844654925e+17
19023.0	4.374524299924821e+17
19024.0	4.3737311549412685e+17
19025.0	4.372936884486144e+17
19026.0	4.372112954709332e+17
19027.0	4.37129765261585e+17
19028.0	4.3705232107328845e+17
19029.0	4.369703823387306e+17
19030.0	4.368921138298879e+17
19031.0	4.368116814796117e+17
19032.0	4.367306016686079e+17
19033.0	4.366434159995561e+17
19034.0	4.3656927545480525e+17
19035.0	4.364858587873279e+17
19036.0	4.361008127322794e+17
19037.0	4.363278368462165e+17
19038.0	4.36246668185873e+17
19039.0	4.3616808824995834e+17
19040.0	4.360877112644949e+17
19041.0	4.3600629611888634e+17
19042.0	4.359193388296874e+17
19043.0	4.358466223210496e+17
19044.0	4.3576539368215885e+17
19045.0	4.356859803380394e+17
19046.0	4.3560094872371194e+17
19047.0	4.3552222534260045e+17
19048.0	4.354282296617642e+17
19049.0	4.353581458478421e+17
19050.0	4.352807454900223e+17
19051.0	4.351637152508586e+17
19052.0	4.3511264890060794e+17
19053.0	4.3504394074849274e+17
19054.0	4.3496320521994234e+17
19055.0	4.348633317812906e+17
19056.0	4.348011286451541e+17
19057.0	4.347225968738302e+17
19058.0	4.346416585506815e+17
19059.0	4.3456216565459616e+17
19060.0	4.3448097196823885e+17
19061.0	4.3440281845323085e+17
19062.0	4.3432230494317216e+17
19063.0	4.3424237318307834e+17
19064.0	4.3415201529200634e+17
19065.0	4.3406922797984416e+17
19066.0	4.339982772032853e+17
19067.0	4.339211155712682e+17
19068.0	4.3384237960724474e+17
19069.0	4.337624715449684e+17
19070.0	4.3368030177416525e+17
19071.0	4.3360228387498656e+17
19072.0	4.33522458230784e+17
19073.0	4.334424493654014e+17
19074.0	4.3336297296691194e+17
19075.0	4.332830888820736e+17
19076.0	4.33201692540928e+17
19077.0	4.331216395654485e+17
19078.0	4.3304070725413536e+17
19079.0	4.32963384840465e+17
19080.0	4.3288237458500256e+17
19081.0	4.328010319309482e+17
19082.0	4.3272094078730234e+17
19083.0	4.326369254528341e+17
19084.0	4.3254807974816416e+17
19085.0	4.324843331780608e+17
19086.0	4.323791379365888e+17
19087.0	4.323157821358079e+17
19088.0	4.322389447933951e+17
19089.0	4.321501405424298e+17
19090.0	4.3208465725085e+17
19091.0	4.320045014450175e+17
19092.0	4.3192226505468576e+17
19093.0	4.3184772164703565e+17
19094.0	4.317679460548608e+17
19095.0	4.3168832537231354e+17
19096.0	4.3160769554022394e+17
19097.0	4.315290328367104e+17
19098.0	4.3144951889919994e+17
19099.0	4.3136992317276154e+17
19100.0	4.312892946688681e+17
19101.0	4.3121033067451725e+17
19102.0	4.311225299107838e+17
19103.0	4.3105213837475834e+17
19104.0	4.3097296564387834e+17
19105.0	4.308928976388096e+17
19106.0	4.308127187643049e+17
19107.0	4.307329825985876e+17
19108.0	4.306550761979904e+17
19109.0	4.3055668306903034e+17
19110.0	4.304952936278697e+17
19111.0	4.304170611201364e+17
19112.0	4.303377093623808e+17
19113.0	4.302583226520917e+17
19114.0	4.301789197937323e+17
19115.0	4.3009609801837216e+17
19116.0	4.300190378186068e+17
19117.0	4.2993955373055994e+17
19118.0	4.298502688822613e+17
19119.0	4.291515452314959e+17
19120.0	4.297007799031123e+17
19121.0	4.2962271244124154e+17
19122.0	4.295454902714367e+17
19123.0	4.2946628755128314e+17
19124.0	4.2938609958911994e+17
19125.0	4.2930775013021005e+17
19126.0	4.2922850812340896e+17
19127.0	4.2900023613412685e+17
19128.0	4.2906446218308256e+17
19129.0	4.28986243167027e+17
19130.0	4.289105240260608e+17
19131.0	4.2883312485662714e+17
19132.0	4.287540502724607e+17
19133.0	4.286645145348778e+17
19134.0	4.285937601216512e+17
19135.0	4.2851704518301005e+17
19136.0	4.284385625549481e+17
19137.0	4.283466076127231e+17
19138.0	4.282788552725845e+17
19139.0	4.2820163589898234e+17
19140.0	4.28122896929041e+17
19141.0	4.2804389099165e+17
19142.0	4.279632166999381e+17
19143.0	4.2788180463015245e+17
19144.0	4.2780402105275725e+17
19145.0	4.277284698237611e+17
19146.0	4.276049089833642e+17
19147.0	4.275594154650281e+17
19148.0	4.2749180342435834e+17
19149.0	4.274124980136619e+17
19150.0	4.2733391905641805e+17
19151.0	4.272554262222165e+17
19152.0	4.2717648459748685e+17
19153.0	4.270965541655893e+17
19154.0	4.270092082042197e+17
19155.0	4.269409878496596e+17
19156.0	4.2686213703161165e+17
19157.0	4.267831437470378e+17
19158.0	4.266906422170965e+17
19159.0	4.266249670361087e+17
19160.0	4.265467478802431e+17
19161.0	4.2646892040246605e+17
19162.0	4.26360056123665e+17
19163.0	4.263101046194176e+17
19164.0	4.262333749308074e+17
19165.0	4.2615301549151565e+17
19166.0	4.260651394400255e+17
19167.0	4.259949191714133e+17
19168.0	4.2591745198434976e+17
19169.0	4.25838898123025e+17
19170.0	4.257622782552746e+17
19171.0	4.2568191287405216e+17
19172.0	4.25605429530897e+17
19173.0	4.2552698038736205e+17
19174.0	4.2544374931783674e+17
19175.0	4.2536977514714445e+17
19176.0	4.2529131852376736e+17
19177.0	4.252010891182079e+17
19178.0	4.251339344663894e+17
19179.0	4.2505379725530445e+17
19180.0	4.2497705764017485e+17
19181.0	4.2488957501439994e+17
19182.0	4.248182505952597e+17
19183.0	4.2474311565093536e+17
19184.0	4.246632488326486e+17
19185.0	4.245860602172757e+17
19186.0	4.245081627645268e+17
19187.0	4.2442526122748576e+17
19188.0	4.243514105790463e+17
19189.0	4.242735101203798e+17
19190.0	4.241951219340629e+17
19191.0	4.241149077574996e+17
19192.0	4.240388606219604e+17
19193.0	4.2396015080243194e+17
19194.0	4.2388172032354976e+17
19195.0	4.2380439944779085e+17
19196.0	4.237250710383274e+17
19197.0	4.2364756924825594e+17
19198.0	4.235700737496406e+17
19199.0	4.2331569711131296e+17
19200.0	4.2328621409020595e+17
19201.0	4.2333587926330016e+17
19202.0	4.232578935204523e+17
19203.0	4.2317933707263994e+17
19204.0	4.230997500843349e+17
19205.0	4.2302266548770125e+17
19206.0	4.229440822662485e+17
19207.0	4.228567881045331e+17
19208.0	4.2277229413007354e+17
19209.0	4.2271085323878394e+17
19210.0	4.2263280353279994e+17
19211.0	4.2255576409483936e+17
19212.0	4.224778990081365e+17
19213.0	4.223931141586943e+17
19214.0	4.2231148748035405e+17
19215.0	4.222433382192468e+17
19216.0	4.221659143034196e+17
19217.0	4.2208785061642234e+17
19218.0	4.219427026720084e+17
19219.0	4.21921598542097e+17
19220.0	4.218527301675691e+17
19221.0	4.2175151168552954e+17
19222.0	4.216965939156308e+17
19223.0	4.216192525576873e+17
19224.0	4.215391384851796e+17
19225.0	4.2145287220756474e+17
19226.0	4.2138585701635405e+17
19227.0	4.213079432757247e+17
19228.0	4.212317502483114e+17
19229.0	4.211539480761685e+17
19230.0	4.2107584824825165e+17
19231.0	4.209974906803541e+17
19232.0	4.209194506911744e+17
19233.0	4.208374941308245e+17
19234.0	4.20763132825873e+17
19235.0	4.20685178540305e+17
19236.0	4.2060944695623674e+17
19237.0	4.2053038341707085e+17
19238.0	4.2044672131290445e+17
19239.0	4.2037611817424205e+17
19240.0	4.202952425559381e+17
19241.0	4.2021799011723936e+17
19242.0	4.201411190805844e+17
19243.0	4.2005393089495034e+17
19244.0	4.199876882246314e+17
19245.0	4.199096618669396e+17
19246.0	4.1983089206886394e+17
19247.0	4.197538436830548e+17
19248.0	4.1967694720095565e+17
19249.0	4.1959890085041485e+17
19250.0	4.195199050492586e+17
19251.0	4.1943200488052045e+17
19252.0	4.193472682655743e+17
19253.0	4.192864089844393e+17
19254.0	4.1921022322715296e+17
19255.0	4.191209019583146e+17
19256.0	4.190507455130282e+17
19257.0	4.189777178569387e+17
19258.0	4.188999764322986e+17
19259.0	4.188176158905685e+17
19260.0	4.1873669427473056e+17
19261.0	4.1866566890946554e+17
19262.0	4.1858483411572045e+17
19263.0	4.1850427230126074e+17
19264.0	4.1838841227291296e+17
19265.0	4.1833762687112525e+17
19266.0	4.18256422699008e+17
19267.0	4.1820075303021235e+17
19268.0	4.181225124833962e+17
19269.0	4.1804497063772154e+17
19270.0	4.179668638192981e+17
19271.0	4.178615156255403e+17
19272.0	4.178092367719082e+17
19273.0	4.176190533970601e+17
19274.0	4.175765249021268e+17
19275.0	4.175787956284074e+17
19276.0	4.174994401656831e+17
19277.0	4.174221118100821e+17
19278.0	4.1734434032626336e+17
19279.0	4.172655248801792e+17
19280.0	4.171823714751828e+17
19281.0	4.1711038218895354e+17
19282.0	4.1703418643524256e+17
19283.0	4.1695324832180896e+17
19284.0	4.168754608297301e+17
19285.0	4.167865087295487e+17
19286.0	4.1671977322850976e+17
19287.0	4.16644494139938e+17
19288.0	4.1646291419135974e+17
19289.0	4.163026033486504e+17
19290.0	4.164108162520406e+17
19291.0	4.163136051478528e+17
19292.0	4.1625438940474016e+17
19293.0	4.161760957999786e+17
19294.0	4.160978642709162e+17
19295.0	4.1602049215474336e+17
19296.0	4.1594164168622074e+17
19297.0	4.158626534348116e+17
19298.0	4.1578376563698336e+17
19299.0	4.157075298276693e+17
19300.0	4.156288304939008e+17
19301.0	4.155507594668714e+17
19302.0	4.1547096164488525e+17
19303.0	4.1538879341199354e+17
19304.0	4.153129044716203e+17
19305.0	4.152359453545812e+17
19306.0	4.1515835038105594e+17
19307.0	4.15076596195874e+17
19308.0	4.1499931698353485e+17
19309.0	4.1491534450087245e+17
19310.0	4.148337483710463e+17
19311.0	4.1476232671395834e+17
19312.0	4.146860367282176e+17
19313.0	4.1460761715452576e+17
19314.0	4.1405214065950765e+17
19315.0	4.139952293369175e+17
19316.0	4.14370095886063e+17
19317.0	4.142915187463509e+17
19318.0	4.142121006486868e+17
19319.0	4.141340061335551e+17
19320.0	4.140544779354112e+17
19321.0	4.1397521775329274e+17
19322.0	4.138891370037248e+17
19323.0	4.138134196103849e+17
19324.0	4.137368784557397e+17
19325.0	4.1365078603202554e+17
19326.0	4.1357733663866874e+17
19327.0	4.134962211061759e+17
19328.0	4.1341672121958394e+17
19329.0	4.133373737959423e+17
19330.0	4.1325420242534394e+17
19331.0	4.131731837113685e+17
19332.0	4.1309570261319674e+17
19333.0	4.1301513995987635e+17
19334.0	4.129348052669782e+17
19335.0	4.1285319340851194e+17
19336.0	4.12772938617105e+17
19337.0	4.1269155227238394e+17
19338.0	4.125938979001685e+17
19339.0	4.125289825872554e+17
19340.0	4.1243515286104736e+17
19341.0	4.1235892921521485e+17
19342.0	4.122534857408512e+17
19343.0	4.122013250267818e+17
19344.0	4.1211886787624954e+17
19345.0	4.1188194856031546e+17
19346.0	4.1186386258165734e+17
19347.0	4.118651289119402e+17
19348.0	4.117884438926677e+17
19349.0	4.1170226254970874e+17
19350.0	4.116188836309674e+17
19351.0	4.115344192263508e+17
19352.0	4.114467760286378e+17
19353.0	4.113686474697386e+17
19354.0	4.1128418005920416e+17
19355.0	4.1119160380074656e+17
19356.0	4.1111369649138336e+17
19357.0	4.110281643567785e+17
19358.0	4.109408202828459e+17
19359.0	4.1084890714385056e+17
19360.0	4.1076499904375456e+17
19361.0	4.1067906502492154e+17
19362.0	4.105945579782144e+17
19363.0	4.105063238729727e+17
19364.0	4.104176627176789e+17
19365.0	4.1032922351097165e+17
19366.0	4.1023985778251085e+17
19367.0	4.1015003571377485e+17
19368.0	4.1005975730476365e+17
19369.0	4.0991841953600845e+17
19370.0	4.0981068422403405e+17
19371.0	4.097270657406293e+17
19372.0	4.0963802171528525e+17
19373.0	4.095430045816149e+17
19374.0	4.0945004769006925e+17
19375.0	4.093554332095827e+17
19376.0	4.092600784344406e+17
19377.0	4.0916275646081696e+17
19378.0	4.090657362673663e+17
19379.0	4.0896783149520205e+17
19380.0	4.0886866311905274e+17
19381.0	4.0876838555921056e+17
19382.0	4.0866236942254074e+17
19383.0	4.0855637111166285e+17
19384.0	4.0846106533997216e+17
19385.0	4.08357397524207e+17
19386.0	4.0825208798795085e+17
19387.0	4.081450717893974e+17
19388.0	4.0803669516834125e+17
19389.0	4.0792685019135994e+17
19390.0	4.078155676166827e+17
19391.0	4.074329545375741e+17
19392.0	4.0757024780888736e+17
19393.0	4.074719768040789e+17
19394.0	4.073530631826091e+17
19395.0	4.072329404831061e+17
19396.0	4.0711147036344314e+17
19397.0	4.069877908242432e+17
19398.0	4.0685986762806605e+17
19399.0	4.0667408400820896e+17
19400.0	4.0659164866805754e+17
19401.0	4.0646799317620045e+17
19402.0	4.0633370030025376e+17
19403.0	4.0619458040954886e+17
19404.0	4.0605446863585274e+17
19405.0	4.059089562763264e+17
19406.0	4.057622586064895e+17
19407.0	4.05611855478784e+17
19408.0	4.053909490368512e+17
19409.0	4.052964368274774e+17
19410.0	4.0513868157419514e+17
19411.0	4.049733992229546e+17
19412.0	4.048037027162795e+17
19413.0	4.046309350703102e+17
19414.0	4.044505843324245e+17
19415.0	4.042705439730346e+17
19416.0	4.0406936970417485e+17
19417.0	4.03798875124531e+17
19418.0	4.036048754223786e+17
19419.0	4.0340185174507514e+17
19420.0	4.031937407964501e+17
19421.0	4.029796967951018e+17
19422.0	4.027558824422059e+17
19423.0	4.025211704486569e+17
19424.0	4.021638073592491e+17
19425.0	4.0191831425679354e+17
19426.0	4.0166245786801485e+17
19427.0	4.01265403031279e+17
19428.0	4.0094314745473696e+17
19429.0	4.004934525648896e+17
19430.0	4.0003886222322336e+17
19431.0	3.994066784092163e+17
19432.0	3.987073773426004e+17
19433.0	3.977857300692988e+17
19434.0	3.964201107543377e+17
19435.0	3.9449164415412915e+17
19436.0	3.931607928231253e+17
19437.0	3.922793451574613e+17
19438.0	3.9073605414638944e+17
19439.0	3.9000511628356256e+17
19440.0	3.8882728169089696e+17
19441.0	3.873774225762986e+17
19442.0	3.857281157081773e+17
19443.0	3.8349367379230714e+17
19444.0	3.7919853529879814e+17
19445.0	3.725633199450799e+17
19446.0	3.680211972041386e+17
19447.0	3.62907313652804e+17
19448.0	3.562803870826508e+17
19449.0	3.39077177470704e+17
19450.0	2.9245999726373344e+17
19451.0	2.7568862183205398e+17
19452.0	3.204114059449705e+17
19453.0	3.491921629544455e+17
19454.0	3.598062668043602e+17
19455.0	3.6509367870859936e+17
19456.0	3.6978585323438106e+17
19457.0	3.7492661801014714e+17
19458.0	3.7963366386019034e+17
19459.0	3.8350928981524525e+17
19460.0	3.853883596778152e+17
19461.0	3.8676811058162336e+17
19462.0	3.879502919412395e+17
19463.0	3.889915270703785e+17
19464.0	3.8998715571459405e+17
19465.0	3.908011357634559e+17
19466.0	3.9159352584219264e+17
19467.0	3.932850377545037e+17
19468.0	3.9474042838712294e+17
19469.0	3.9568997512205626e+17
19470.0	3.9639699405755706e+17
19471.0	3.968862740895063e+17
19472.0	3.9726244331956896e+17
19473.0	3.9758950626754554e+17
19474.0	3.9778132681905485e+17
19475.0	3.979548270002176e+17
19476.0	3.9818544080923296e+17
19477.0	3.982962594239829e+17
19478.0	3.984345486327808e+17
19479.0	3.9860554096967674e+17
19480.0	3.986810994688e+17
19481.0	3.9875004096402765e+17
19482.0	3.988163602502996e+17
19483.0	3.988768444208468e+17
19484.0	3.9892933746360314e+17
19485.0	3.9898083065419104e+17
19486.0	3.9910309538474656e+17
19487.0	3.9914341236299085e+17
19488.0	3.9917627375615994e+17
19489.0	3.991825008994986e+17
19490.0	3.9911230754433696e+17
19491.0	3.992435192845652e+17
19492.0	3.992621361922048e+17
19493.0	3.992737765042857e+17
19494.0	3.992812875240789e+17
19495.0	3.992854064005119e+17
19496.0	3.992498085735082e+17
19497.0	3.992818913640447e+17
19498.0	3.9920877031478605e+17
19499.0	3.98848498265839e+17
19500.0	3.99259003326737e+17
19501.0	3.9924551122943994e+17
19502.0	3.9922893345259514e+17
19503.0	3.992109757497343e+17
19504.0	3.991902107992064e+17
19505.0	3.991668174181717e+17
19506.0	3.991421921700521e+17
19507.0	3.991132922970112e+17
19508.0	3.990861596240555e+17
19509.0	3.9905508227809274e+17
19510.0	3.9900512804754765e+17
19511.0	3.981838977946963e+17
19512.0	3.9886372561660576e+17
19513.0	3.9876619099176954e+17
19514.0	3.98771702936371e+17
19515.0	3.987991872318122e+17
19516.0	3.987917763859796e+17
19517.0	3.987458850379093e+17
19518.0	3.987071812588885e+17
19519.0	3.986614117553491e+17
19520.0	3.9861311588270074e+17
19521.0	3.9856855091336525e+17
19522.0	3.9851753615305376e+17
19523.0	3.9847099028384416e+17
19524.0	3.984208006829396e+17
19525.0	3.983688666710014e+17
19526.0	3.983182473636523e+17
19527.0	3.9826531377916576e+17
19528.0	3.9821165269265056e+17
19529.0	3.981575749020329e+17
19530.0	3.9810415526761805e+17
19531.0	3.9804891887042554e+17
19532.0	3.9799306598045e+17
19533.0	3.9793664650990925e+17
19534.0	3.978793288291669e+17
19535.0	3.978210551267327e+17
19536.0	3.9776082555043834e+17
19537.0	3.977056033439743e+17
19538.0	3.9763175814813e+17
19539.0	3.975450369982464e+17
19540.0	3.975252141583017e+17
19541.0	3.9746678421804365e+17
19542.0	3.9740598044153165e+17
19543.0	3.9734475471803725e+17
19544.0	3.972837612890795e+17
19545.0	3.97175123083264e+17
19546.0	3.970895443219796e+17
19547.0	3.970981502648319e+17
19548.0	3.9703480054579194e+17
19549.0	3.9696598103490554e+17
19550.0	3.9690943217008634e+17
19551.0	3.9684620681215994e+17
19552.0	3.967824441638911e+17
19553.0	3.967161536086015e+17
19554.0	3.966513938344618e+17
19555.0	3.9658890506622285e+17
19556.0	3.9652554164578976e+17
19557.0	3.964604108854612e+17
19558.0	3.9639554898001914e+17
19559.0	3.963302156348074e+17
19560.0	3.96263108378624e+17
19561.0	3.9619751610504525e+17
19562.0	3.961339188521642e+17
19563.0	3.9606825737256954e+17
19564.0	3.9600229201565e+17
19565.0	3.959361687431851e+17
19566.0	3.958675344108202e+17
19567.0	3.9580324097338016e+17
19568.0	3.957350503983786e+17
19569.0	3.956685431373823e+17
19570.0	3.956035162559829e+17
19571.0	3.955358730376532e+17
19572.0	3.9546722318636365e+17
19573.0	3.9540027852936525e+17
19574.0	3.9532908063839565e+17
19575.0	3.9526778535935994e+17
19576.0	3.952003187911339e+17
19577.0	3.95129584161041e+17
19578.0	3.950614590870868e+17
19579.0	3.9499570358517754e+17
19580.0	3.949277155950591e+17
19581.0	3.9486100602879994e+17
19582.0	3.9479441851678714e+17
19583.0	3.947264525467647e+17
19584.0	3.9465709567563085e+17
19585.0	3.945821748505257e+17
19586.0	3.9451135598482765e+17
19587.0	3.944526201399978e+17
19588.0	3.9434576954654714e+17
19589.0	3.943153411293183e+17
19590.0	3.942393589355861e+17
19591.0	3.9417970831305376e+17
19592.0	3.941116532839764e+17
19593.0	3.940418600654165e+17
19594.0	3.939576954836309e+17
19595.0	3.939009589237077e+17
19596.0	3.938242322410154e+17
19597.0	3.9376640676986886e+17
19598.0	3.9365975288927565e+17
19599.0	3.936306031755263e+17
19600.0	3.935625496144553e+17
19601.0	3.934882835202048e+17
19602.0	3.934202024165376e+17
19603.0	3.933235845267455e+17
19604.0	3.9328367125026125e+17
19605.0	3.9319739749280416e+17
19606.0	3.931503199256576e+17
19607.0	3.930819914978644e+17
19608.0	3.930112881852415e+17
19609.0	3.9293979466574496e+17
19610.0	3.928742960649558e+17
19611.0	3.9280432682543776e+17
19612.0	3.927363492511743e+17
19613.0	3.9266637337067514e+17
19614.0	3.925950415415978e+17
19615.0	3.925286495540565e+17
19616.0	3.9245713904762874e+17
19617.0	3.923890702472534e+17
19618.0	3.9226948281084576e+17
19619.0	3.921908684117333e+17
19620.0	3.92126613491985e+17
19621.0	3.921129108406272e+17
19622.0	3.920439670385321e+17
19623.0	3.9197464505002656e+17
19624.0	3.91904588009745e+17
19625.0	3.918359421430442e+17
19626.0	3.917666022588416e+17
19627.0	3.9169714032039245e+17
19628.0	3.916233290984106e+17
19629.0	3.915506806773076e+17
19630.0	3.9146417301749754e+17
19631.0	3.912231086806357e+17
19632.0	3.9134995505916576e+17
19633.0	3.9127804280831994e+17
19634.0	3.912113200999082e+17
19635.0	3.9113922050348365e+17
19636.0	3.9107148235407354e+17
19637.0	3.909772246690474e+17
19638.0	3.909325295364778e+17
19639.0	3.908629049289386e+17
19640.0	3.907753266031275e+17
19641.0	3.906361494601728e+17
19642.0	3.906552986948949e+17
19643.0	3.905854878602581e+17
19644.0	3.905111938039806e+17
19645.0	3.904246968396459e+17
19646.0	3.903778609343146e+17
19647.0	3.9030883275680416e+17
19648.0	3.9023945267718816e+17
19649.0	3.9016939353975456e+17
19650.0	3.90100478398737e+17
19651.0	3.9003074390043296e+17
19652.0	3.8996148230990496e+17
19653.0	3.8989214291503776e+17
19654.0	3.8982228929850016e+17
19655.0	3.8975248776123725e+17
