# Flux units: erg / (cm m2 s)
# Wavelength units: Angstrom
wave	flux
19000.0	7.55059152318191e+17
19001.0	7.549156428087296e+17
19002.0	7.547856783846058e+17
19003.0	7.546486201341268e+17
19004.0	7.545115508386474e+17
19005.0	7.543745788510207e+17
19006.0	7.54237337589077e+17
19007.0	7.540954289056425e+17
19008.0	7.539589675046228e+17
19009.0	7.538174158962687e+17
19010.0	7.536603344579242e+17
19011.0	7.535456997954899e+17
19012.0	7.533805204144125e+17
19013.0	7.532734510181034e+17
19014.0	7.531317875616425e+17
19015.0	7.529955163024041e+17
19016.0	7.528575469092861e+17
19017.0	7.52721942684194e+17
19018.0	7.525825543580328e+17
19019.0	7.524453494467241e+17
19020.0	7.523061226012672e+17
19021.0	7.52169305383458e+17
19022.0	7.52031718510865e+17
19023.0	7.518902112223232e+17
19024.0	7.517526159611219e+17
19025.0	7.516125150227114e+17
19026.0	7.514851096832681e+17
19027.0	7.513344364423849e+17
19028.0	7.51223129960175e+17
19029.0	7.51084753719569e+17
19030.0	7.509469793615871e+17
19031.0	7.508077403526484e+17
19032.0	7.50668127351603e+17
19033.0	7.505214792444585e+17
19034.0	7.503830884635987e+17
19035.0	7.50205553082368e+17
19036.0	7.482697998576292e+17
19037.0	7.499392866407764e+17
19038.0	7.498262494489254e+17
19039.0	7.496926320656381e+17
19040.0	7.495546108029609e+17
19041.0	7.494157977954985e+17
19042.0	7.492678386887338e+17
19043.0	7.491374481233236e+17
19044.0	7.489977787787945e+17
19045.0	7.488570591805437e+17
19046.0	7.487156715694761e+17
19047.0	7.485767851616936e+17
19048.0	7.484270615112361e+17
19049.0	7.482886754839208e+17
19050.0	7.481504207383209e+17
19051.0	7.477345206839977e+17
19052.0	7.477949533345108e+17
19053.0	7.477352054740308e+17
19054.0	7.475996338246996e+17
19055.0	7.474424025098921e+17
19056.0	7.473192262871722e+17
19057.0	7.471805785352872e+17
19058.0	7.470371042579796e+17
19059.0	7.469001880545961e+17
19060.0	7.467600711778303e+17
19061.0	7.466212566324563e+17
19062.0	7.464808756543487e+17
19063.0	7.463407022942888e+17
19064.0	7.461940873221459e+17
19065.0	7.460481010761727e+17
19066.0	7.459150714546858e+17
19067.0	7.457801736901972e+17
19068.0	7.456399202189311e+17
19069.0	7.454996529064617e+17
19070.0	7.453577822513834e+17
19071.0	7.452178574737408e+17
19072.0	7.450773991806292e+17
19073.0	7.449379230537046e+17
19074.0	7.447977747196582e+17
19075.0	7.446572820332543e+17
19076.0	7.445156684890111e+17
19077.0	7.443752387171667e+17
19078.0	7.44234196996369e+17
19079.0	7.440950216010409e+17
19080.0	7.439534139288233e+17
19081.0	7.438107434199721e+17
19082.0	7.436705693608617e+17
19083.0	7.435236943418708e+17
19084.0	7.433740506628096e+17
19085.0	7.432488315344212e+17
19086.0	7.430739040316074e+17
19087.0	7.429301548875773e+17
19088.0	7.428058399113215e+17
19089.0	7.426523499156819e+17
19090.0	7.425374173178538e+17
19091.0	7.42400409538833e+17
19092.0	7.422504078060202e+17
19093.0	7.421227273202344e+17
19094.0	7.419833722688851e+17
19095.0	7.418429459922944e+17
19096.0	7.4170153069882e+17
19097.0	7.415614055732564e+17
19098.0	7.414196944415402e+17
19099.0	7.412785751261181e+17
19100.0	7.411352939266047e+17
19101.0	7.409962746991956e+17
19102.0	7.408510504184489e+17
19103.0	7.407156220745046e+17
19104.0	7.405742397762216e+17
19105.0	7.404294189875199e+17
19106.0	7.402847301795837e+17
19107.0	7.401459205275645e+17
19108.0	7.399992566218751e+17
19109.0	7.397388497627816e+17
19110.0	7.396977440456703e+17
19111.0	7.395811509228884e+17
19112.0	7.394433743279442e+17
19113.0	7.393039478336169e+17
19114.0	7.391627148525568e+17
19115.0	7.390148181011114e+17
19116.0	7.3887857522333e+17
19117.0	7.387363122610173e+17
19118.0	7.385849680713044e+17
19119.0	7.38241945167462e+17
19120.0	7.382964667853481e+17
19121.0	7.381606233451178e+17
19122.0	7.380325488743763e+17
19123.0	7.378914796109823e+17
19124.0	7.37737549353233e+17
19125.0	7.376074606379007e+17
19126.0	7.374637697946964e+17
19127.0	7.372219041360552e+17
19128.0	7.371533264267945e+17
19129.0	7.370362067790506e+17
19130.0	7.369000688986794e+17
19131.0	7.36759091630353e+17
19132.0	7.366178127915689e+17
19133.0	7.364683121382739e+17
19134.0	7.363217405072726e+17
19135.0	7.36192586981922e+17
19136.0	7.360512934630739e+17
19137.0	7.359006911059283e+17
19138.0	7.357666814154068e+17
19139.0	7.356263587381247e+17
19140.0	7.354848342529364e+17
19141.0	7.353430576900777e+17
19142.0	7.35199496590677e+17
19143.0	7.350562882322432e+17
19144.0	7.349145269086889e+17
19145.0	7.347752932125352e+17
19146.0	7.345921760515411e+17
19147.0	7.344867214622717e+17
19148.0	7.343476756709373e+17
19149.0	7.342056280162303e+17
19150.0	7.34064812228608e+17
19151.0	7.339229070404264e+17
19152.0	7.337782494101501e+17
19153.0	7.336347909313874e+17
19154.0	7.334879184289791e+17
19155.0	7.333509806948352e+17
19156.0	7.332066504998911e+17
19157.0	7.330492965715965e+17
19158.0	7.328536383018326e+17
19159.0	7.327690779175593e+17
19160.0	7.326329092789587e+17
19161.0	7.324805781695145e+17
19162.0	7.32153535004672e+17
19163.0	7.32168981787443e+17
19164.0	7.320646772763305e+17
19165.0	7.319214378800468e+17
19166.0	7.317738545829203e+17
19167.0	7.316231480672253e+17
19168.0	7.314958231186089e+17
19169.0	7.313548842980691e+17
19170.0	7.312139956693674e+17
19171.0	7.310647498899455e+17
19172.0	7.309266973097981e+17
19173.0	7.307866281082879e+17
19174.0	7.306418528976893e+17
19175.0	7.305021599252479e+17
19176.0	7.303590074908672e+17
19177.0	7.302046235492351e+17
19178.0	7.300648026505215e+17
19179.0	7.299172015975081e+17
19180.0	7.297838762775892e+17
19181.0	7.296362356583081e+17
19182.0	7.294987392428713e+17
19183.0	7.293567045905064e+17
19184.0	7.292128469538131e+17
19185.0	7.290694466360659e+17
19186.0	7.289259490104659e+17
19187.0	7.287768833064957e+17
19188.0	7.286376585581908e+17
19189.0	7.284898367449769e+17
19190.0	7.283196762084692e+17
19191.0	7.2817313855133e+17
19192.0	7.280320778163539e+17
19193.0	7.278857276446036e+17
19194.0	7.277379214901247e+17
19195.0	7.275892710222505e+17
19196.0	7.274333160341501e+17
19197.0	7.272621297106943e+17
19198.0	7.270164160577535e+17
19199.0	7.256878592207526e+17
19200.0	7.257703308416343e+17
19201.0	7.265982452072445e+17
19202.0	7.265437797930323e+17
19203.0	7.264201115784531e+17
19204.0	7.262880778245462e+17
19205.0	7.261499256995839e+17
19206.0	7.260084020532564e+17
19207.0	7.258587179690664e+17
19208.0	7.257101764132861e+17
19209.0	7.255770629057194e+17
19210.0	7.254333814297939e+17
19211.0	7.25288173506833e+17
19212.0	7.251418462639444e+17
19213.0	7.249830212534271e+17
19214.0	7.248306865089193e+17
19215.0	7.246995493573974e+17
19216.0	7.245599724273663e+17
19217.0	7.244134726587731e+17
19218.0	7.242217208239444e+17
19219.0	7.2410981217949e+17
19220.0	7.239747618821459e+17
19221.0	7.238136294451881e+17
19222.0	7.236824799903743e+17
19223.0	7.235374329888768e+17
19224.0	7.233879984657748e+17
19225.0	7.232369201949353e+17
19226.0	7.230961533408595e+17
19227.0	7.229490168769194e+17
19228.0	7.228039242973183e+17
19229.0	7.226564374691841e+17
19230.0	7.225017880281088e+17
19231.0	7.223212681199615e+17
19232.0	7.221745406006611e+17
19233.0	7.220223045621075e+17
19234.0	7.218778128864595e+17
19235.0	7.217291783569407e+17
19236.0	7.215822250442751e+17
19237.0	7.214326381281279e+17
19238.0	7.212771110988458e+17
19239.0	7.211357893383508e+17
19240.0	7.20985971176243e+17
19241.0	7.208356708089855e+17
19242.0	7.206869719668051e+17
19243.0	7.205265932462761e+17
19244.0	7.203886972534783e+17
19245.0	7.202385944379391e+17
19246.0	7.20087491280896e+17
19247.0	7.199376666875219e+17
19248.0	7.197870992829097e+17
19249.0	7.196352651984896e+17
19250.0	7.19457103188241e+17
19251.0	7.192949234335743e+17
19252.0	7.191294897378644e+17
19253.0	7.189912078690986e+17
19254.0	7.187947052859391e+17
19255.0	7.186289993798994e+17
19256.0	7.184878867753641e+17
19257.0	7.183345024761855e+17
19258.0	7.18180175716898e+17
19259.0	7.180211503584595e+17
19260.0	7.178389724419411e+17
19261.0	7.177191487264083e+17
19262.0	7.175615326541139e+17
19263.0	7.174060524612265e+17
19264.0	7.172253389160445e+17
19265.0	7.170900168278015e+17
19266.0	7.169365499008339e+17
19267.0	7.167917244983977e+17
19268.0	7.1663602382493e+17
19269.0	7.164793792932521e+17
19270.0	7.162540991709183e+17
19271.0	7.160789906139817e+17
19272.0	7.159383130985811e+17
19273.0	7.157411894788093e+17
19274.0	7.155842296752808e+17
19275.0	7.154676723438931e+17
19276.0	7.153083175927807e+17
19277.0	7.151497561243647e+17
19278.0	7.149906856072531e+17
19279.0	7.148289080863402e+17
19280.0	7.146662227782313e+17
19281.0	7.145084913625769e+17
19282.0	7.143466923109033e+17
19283.0	7.141129835948713e+17
19284.0	7.139238931857407e+17
19285.0	7.137664903238995e+17
19286.0	7.136083955417087e+17
19287.0	7.134410492433748e+17
19288.0	7.127392911534757e+17
19289.0	7.119404517031919e+17
19290.0	7.129462080536573e+17
19291.0	7.127727064743935e+17
19292.0	7.126268731807059e+17
19293.0	7.124513988804607e+17
19294.0	7.122000596871849e+17
19295.0	7.120166940835839e+17
19296.0	7.118477609402368e+17
19297.0	7.116785824301055e+17
19298.0	7.115103235910313e+17
19299.0	7.113404307909289e+17
19300.0	7.111712178875049e+17
19301.0	7.109998730193578e+17
19302.0	7.108272564382377e+17
19303.0	7.10650744606993e+17
19304.0	7.104802707559764e+17
19305.0	7.103064569806847e+17
19306.0	7.101313509403305e+17
19307.0	7.099513781092351e+17
19308.0	7.097731684237311e+17
19309.0	7.095559819100159e+17
19310.0	7.093585715396607e+17
19311.0	7.092298152148991e+17
19312.0	7.090615133143039e+17
19313.0	7.088782110446931e+17
19314.0	7.073800515835215e+17
19315.0	7.072261197878632e+17
19316.0	7.08225434456337e+17
19317.0	7.080521655211348e+17
19318.0	7.078677414150143e+17
19319.0	7.07682548912401e+17
19320.0	7.0749361551005e+17
19321.0	7.073025614675968e+17
19322.0	7.07102410678818e+17
19323.0	7.06903598432256e+17
19324.0	7.067188060662441e+17
19325.0	7.065040765758122e+17
19326.0	7.063313604498772e+17
19327.0	7.061396185415679e+17
19328.0	7.05941601395234e+17
19329.0	7.056505214511785e+17
19330.0	7.054000834740224e+17
19331.0	7.051962324702548e+17
19332.0	7.049951646668116e+17
19333.0	7.04788503339554e+17
19334.0	7.045816699060224e+17
19335.0	7.043681883608403e+17
19336.0	7.041599559871145e+17
19337.0	7.039474036200787e+17
19338.0	7.037187382749866e+17
19339.0	7.034171698446336e+17
19340.0	7.030940364002644e+17
19341.0	7.028600639324159e+17
19342.0	7.026099532507817e+17
19343.0	7.024059407663103e+17
19344.0	7.021745481449471e+17
19345.0	7.01836788393574e+17
19346.0	7.016553872621565e+17
19347.0	7.012652203813545e+17
19348.0	7.009769673282899e+17
19349.0	7.007336328243881e+17
19350.0	7.004888442950995e+17
19351.0	7.002392832770048e+17
19352.0	6.9997975058077e+17
19353.0	6.995985497238184e+17
19354.0	6.991385840320511e+17
19355.0	6.9886967035549e+17
19356.0	6.98610248458786e+17
19357.0	6.983418513806676e+17
19358.0	6.980590917473622e+17
19359.0	6.973862308741119e+17
19360.0	6.971081922095785e+17
19361.0	6.968053999512234e+17
19362.0	6.965021752601258e+17
19363.0	6.960033137601197e+17
19364.0	6.954382721548287e+17
19365.0	6.951460355615401e+17
19366.0	6.948508103169363e+17
19367.0	6.943142209825445e+17
19368.0	6.936778414664362e+17
19369.0	6.933719091423913e+17
19370.0	6.930645948650836e+17
19371.0	6.924824774792531e+17
19372.0	6.921042519217492e+17
19373.0	6.916897220067327e+17
19374.0	6.913590691539626e+17
19375.0	6.910238522692948e+17
19376.0	6.906841238514346e+17
19377.0	6.903383712945494e+17
19378.0	6.899877229363197e+17
19379.0	6.896317584375807e+17
19380.0	6.891640681660413e+17
19381.0	6.887544731992063e+17
19382.0	6.883736371068927e+17
19383.0	6.879910268938921e+17
19384.0	6.876086228309331e+17
19385.0	6.871468524000594e+17
19386.0	6.866003220059476e+17
19387.0	6.86189811212834e+17
19388.0	6.857707012576598e+17
19389.0	6.853309892307625e+17
19390.0	6.845956465098751e+17
19391.0	6.82754483089133e+17
19392.0	6.836218264289277e+17
19393.0	6.830302880770734e+17
19394.0	6.823501789571753e+17
19395.0	6.818465950902953e+17
19396.0	6.811078558919337e+17
19397.0	6.803166176389801e+17
19398.0	6.797567018926079e+17
19399.0	6.787170336855377e+17
19400.0	6.779906960654335e+17
19401.0	6.771931738363223e+17
19402.0	6.760547851348649e+17
19403.0	6.753051450802177e+17
19404.0	6.739206011355136e+17
19405.0	6.730993054515197e+17
19406.0	6.715922757364393e+17
19407.0	6.707140637665964e+17
19408.0	6.695549871499946e+17
19409.0	6.688036525266259e+17
19410.0	6.679945668111017e+17
19411.0	6.671627649548287e+17
19412.0	6.663048134306473e+17
19413.0	6.654061280144042e+17
19414.0	6.644970463865513e+17
19415.0	6.635680067922602e+17
19416.0	6.625965931233279e+17
19417.0	6.616092973028691e+17
19418.0	6.60602837148194e+17
19419.0	6.595119802570067e+17
19420.0	6.583607891416404e+17
19421.0	6.571955504633172e+17
19422.0	6.559883305069225e+17
19423.0	6.547066339721213e+17
19424.0	6.533568893987497e+17
19425.0	6.52021939184162e+17
19426.0	6.505370952400892e+17
19427.0	6.48898964234786e+17
19428.0	6.472620162329257e+17
19429.0	6.453684433059839e+17
19430.0	6.434067541830314e+17
19431.0	6.410930992709633e+17
19432.0	6.389966430360915e+17
19433.0	6.366298958550358e+17
19434.0	6.339801705174356e+17
19435.0	6.312751315375443e+17
19436.0	6.280346495265449e+17
19437.0	6.248737975653716e+17
19438.0	6.197855129698304e+17
19439.0	6.173404747005955e+17
19440.0	6.131974933927252e+17
19441.0	6.085515525401256e+17
19442.0	6.033504338269526e+17
19443.0	5.974813058618707e+17
19444.0	5.908987477579089e+17
19445.0	5.83268693687228e+17
19446.0	5.7440522630157645e+17
19447.0	5.638730347271503e+17
19448.0	5.509909433723568e+17
19449.0	5.3448456322853536e+17
19450.0	5.113799881960089e+17
19451.0	4.9788480410091603e+17
19452.0	5.241961878039209e+17
19453.0	5.4318971143673235e+17
19454.0	5.5739679328174016e+17
19455.0	5.6874488757398176e+17
19456.0	5.781333900350808e+17
19457.0	5.861036304717137e+17
19458.0	5.91127835049987e+17
19459.0	5.988612041255599e+17
19460.0	6.041782002734418e+17
19461.0	6.088719103339177e+17
19462.0	6.130366509219841e+17
19463.0	6.16929788515669e+17
19464.0	6.203788266307583e+17
19465.0	6.234792734141098e+17
19466.0	6.264758289651026e+17
19467.0	6.291400858184361e+17
19468.0	6.315093832761345e+17
19469.0	6.338084400529405e+17
19470.0	6.35833625276143e+17
19471.0	6.379192225278634e+17
19472.0	6.396201504429395e+17
19473.0	6.413155297831596e+17
19474.0	6.428019300237311e+17
19475.0	6.441318188318716e+17
19476.0	6.455250601552553e+17
19477.0	6.466521254942036e+17
19478.0	6.477280336762196e+17
19479.0	6.488258986202452e+17
19480.0	6.498000687158612e+17
19481.0	6.507348986167293e+17
19482.0	6.516324687675392e+17
19483.0	6.525258261594111e+17
19484.0	6.533145058869247e+17
19485.0	6.540632201887743e+17
19486.0	6.54780203532288e+17
19487.0	6.554713926751572e+17
19488.0	6.56133790367744e+17
19489.0	6.567774099516073e+17
19490.0	6.573459202463059e+17
19491.0	6.579934494108329e+17
19492.0	6.585615783034879e+17
19493.0	6.591051547191977e+17
19494.0	6.597664751747072e+17
19495.0	6.606002224190804e+17
19496.0	6.614729222346071e+17
19497.0	6.623938149526186e+17
19498.0	6.629530682785792e+17
19499.0	6.618858945249268e+17
19500.0	6.645921475461121e+17
19501.0	6.654392753192959e+17
19502.0	6.657895686296916e+17
19503.0	6.665982570747227e+17
19504.0	6.669937530983764e+17
19505.0	6.673360996706984e+17
19506.0	6.680120812459348e+17
19507.0	6.682596167647232e+17
19508.0	6.685168484657834e+17
19509.0	6.69083361153297e+17
19510.0	6.692661715708585e+17
19511.0	6.670134792596122e+17
19512.0	6.694135258589859e+17
19513.0	6.694714166913697e+17
19514.0	6.697958152776356e+17
19515.0	6.704002564969812e+17
19516.0	6.706352120397824e+17
19517.0	6.709304711184384e+17
19518.0	6.710639925220691e+17
19519.0	6.711880045996714e+17
19520.0	6.713052097413119e+17
19521.0	6.714204766251689e+17
19522.0	6.716295904318803e+17
19523.0	6.717618884269396e+17
19524.0	6.718536902071636e+17
19525.0	6.719418752390484e+17
19526.0	6.720242965981866e+17
19527.0	6.721009586885972e+17
19528.0	6.721721801375743e+17
19529.0	6.722745045177684e+17
19530.0	6.723855484365481e+17
19531.0	6.726824719548413e+17
19532.0	6.728035764710057e+17
19533.0	6.728467519373311e+17
19534.0	6.729599991240022e+17
19535.0	6.734663253666474e+17
19536.0	6.734995184593578e+17
19537.0	6.735335839673001e+17
19538.0	6.735918144684027e+17
19539.0	6.740182325788671e+17
19540.0	6.740676062478336e+17
19541.0	6.741173554468179e+17
19542.0	6.74148004204817e+17
19543.0	6.743363329982464e+17
19544.0	6.745507896492031e+17
19545.0	6.745289883560617e+17
19546.0	6.745137425503572e+17
19547.0	6.745635581591551e+17
19548.0	6.745734443433981e+17
19549.0	6.748594744852479e+17
19550.0	6.748589339792724e+17
19551.0	6.748485918042794e+17
19552.0	6.748324052860927e+17
19553.0	6.748116079695188e+17
19554.0	6.747886938576212e+17
19555.0	6.74905625810261e+17
19556.0	6.749786721310036e+17
19557.0	6.749481135505408e+17
19558.0	6.749155102468777e+17
19559.0	6.748805409363284e+17
19560.0	6.748405843187028e+17
19561.0	6.748015294764372e+17
19562.0	6.747704152205993e+17
19563.0	6.748648001328468e+17
19564.0	6.748679824211968e+17
19565.0	6.748196195794941e+17
19566.0	6.747675088475476e+17
19567.0	6.747170894686889e+17
19568.0	6.746614090345129e+17
19569.0	6.746071988436991e+17
19570.0	6.745504066393428e+17
19571.0	6.744914480070655e+17
19572.0	6.744290248097791e+17
19573.0	6.743932440412157e+17
19574.0	6.7442712262301e+17
19575.0	6.743687149824681e+17
19576.0	6.743022861549565e+17
19577.0	6.742342323841705e+17
19578.0	6.74164162760977e+17
19579.0	6.740949227711146e+17
19580.0	6.74024350880017e+17
19581.0	6.739533943712425e+17
19582.0	6.738811013474985e+17
19583.0	6.738067066978304e+17
19584.0	6.737302229352447e+17
19585.0	6.736467160203261e+17
19586.0	6.735656501903359e+17
19587.0	6.734916166003369e+17
19588.0	6.734232627270995e+17
19589.0	6.734202703009108e+17
19590.0	6.733349538234365e+17
19591.0	6.73258271740177e+17
19592.0	6.731749719539711e+17
19593.0	6.730893590091091e+17
19594.0	6.729890009885353e+17
19595.0	6.729179095629823e+17
19596.0	6.72771280609826e+17
19597.0	6.727438799907498e+17
19598.0	6.726376623876776e+17
19599.0	6.725676883946153e+17
19600.0	6.724786812791465e+17
19601.0	6.723838162589012e+17
19602.0	6.72291648315938e+17
19603.0	6.721638545839442e+17
19604.0	6.721033831361193e+17
19605.0	6.72000781652241e+17
19606.0	6.71926633697553e+17
19607.0	6.718329660112895e+17
19608.0	6.717377787985919e+17
19609.0	6.716739482025983e+17
19610.0	6.715973069438973e+17
19611.0	6.715466714185727e+17
19612.0	6.714516188430333e+17
19613.0	6.71353744269858e+17
19614.0	6.712539238192468e+17
19615.0	6.711575953364308e+17
19616.0	6.710451134704297e+17
19617.0	6.709584414638079e+17
19618.0	6.708252177159507e+17
19619.0	6.707161339352403e+17
19620.0	6.706790462215508e+17
19621.0	6.706308410856788e+17
19622.0	6.705318081156436e+17
19623.0	6.704300155731967e+17
19624.0	6.703268282149546e+17
19625.0	6.702242367275008e+17
19626.0	6.701197787747667e+17
19627.0	6.700108471773866e+17
19628.0	6.698733957808128e+17
19629.0	6.697683726456148e+17
19630.0	6.694075705764521e+17
19631.0	6.682489655394305e+17
19632.0	6.694698246034772e+17
19633.0	6.694580121152169e+17
19634.0	6.693660949916329e+17
19635.0	6.692609117738323e+17
19636.0	6.691578829602816e+17
19637.0	6.690257868510548e+17
19638.0	6.689474108981247e+17
19639.0	6.688404862053033e+17
19640.0	6.687276601966591e+17
19641.0	6.685839666271572e+17
19642.0	6.685187012995754e+17
19643.0	6.684107916443647e+17
19644.0	6.682985142506835e+17
19645.0	6.681793435183785e+17
19646.0	6.680843346335062e+17
19647.0	6.679775754059773e+17
19648.0	6.678685292341929e+17
19649.0	6.677820503752703e+17
19650.0	6.676926120154452e+17
19651.0	6.675828461709993e+17
19652.0	6.674729196148052e+17
19653.0	6.67361944342801e+17
19654.0	6.672524542738431e+17
19655.0	6.67141627969536e+17
19656.0	6.670307739129172e+17
19657.0	6.669202409302697e+17
19658.0	6.668091145235114e+17
19659.0	6.666977200308223e+17
19660.0	6.665905408136531e+17
19661.0	6.665002134710953e+17
19662.0	6.663881454430889e+17
19663.0	6.66272243192081e+17
19664.0	6.661594093540691e+17
19665.0	6.660515816975017e+17
