# Flux units: erg / (cm m2 s)
# Wavelength units: Angstrom
wave	flux
19000.0	5.244079815611732e+17
19001.0	5.2429613016896845e+17
19002.0	5.2421371517119136e+17
19003.0	5.241159821557759e+17
19004.0	5.240188206142805e+17
19005.0	5.239205742160553e+17
19006.0	5.238249675030526e+17
19007.0	5.237270203684181e+17
19008.0	5.2362062723372365e+17
19009.0	5.235177562658132e+17
19010.0	5.2335955564735123e+17
19011.0	5.2333346211321165e+17
19012.0	5.232194060550142e+17
19013.0	5.2314369411426976e+17
19014.0	5.230394112737279e+17
19015.0	5.2294316702651725e+17
19016.0	5.2284344150698656e+17
19017.0	5.2275616705850016e+17
19018.0	5.226572519484074e+17
19019.0	5.225606743239338e+17
19020.0	5.2246253187454285e+17
19021.0	5.2236817709137894e+17
19022.0	5.222705346729301e+17
19023.0	5.221692637620906e+17
19024.0	5.220739997237246e+17
19025.0	5.219794201258667e+17
19026.0	5.218790865021609e+17
19027.0	5.2177655632145056e+17
19028.0	5.216902304847189e+17
19029.0	5.215908027607722e+17
19030.0	5.214984212578304e+17
19031.0	5.2140171906252794e+17
19032.0	5.213037761921023e+17
19033.0	5.211943595933694e+17
19034.0	5.2110901781026125e+17
19035.0	5.210083223579306e+17
19036.0	5.2001449663528934e+17
19037.0	5.208190161518591e+17
19038.0	5.207215824699391e+17
19039.0	5.206279783972862e+17
19040.0	5.2053211044904954e+17
19041.0	5.2043430494207994e+17
19042.0	5.20310917116723e+17
19043.0	5.202426356651349e+17
19044.0	5.201444321886207e+17
19045.0	5.200492498692777e+17
19046.0	5.1994396675713696e+17
19047.0	5.1985358174289914e+17
19048.0	5.197235863508308e+17
19049.0	5.196249503716691e+17
19050.0	5.1955970286987936e+17
19051.0	5.1934319723151334e+17
19052.0	5.1935189139456e+17
19053.0	5.192786787696639e+17
19054.0	5.191823444148223e+17
19055.0	5.190446003956395e+17
19056.0	5.189839604766036e+17
19057.0	5.188926562107392e+17
19058.0	5.187806406814377e+17
19059.0	5.1869462941750605e+17
19060.0	5.186015203426303e+17
19061.0	5.1850912024494074e+17
19062.0	5.184121798131711e+17
19063.0	5.183163793932286e+17
19064.0	5.1820142386653856e+17
19065.0	5.181000262178132e+17
19066.0	5.1801506017443834e+17
19067.0	5.179305222995968e+17
19068.0	5.1783635521153696e+17
19069.0	5.1774058862564685e+17
19070.0	5.176401715352915e+17
19071.0	5.1754756458850976e+17
19072.0	5.1744682572513274e+17
19073.0	5.173561322897407e+17
19074.0	5.172610358837247e+17
19075.0	5.1716516122460154e+17
19076.0	5.1706622206716576e+17
19077.0	5.1697075418562554e+17
19078.0	5.168709590406483e+17
19079.0	5.1678128915524256e+17
19080.0	5.166837919995221e+17
19081.0	5.165839344992255e+17
19082.0	5.1648809744902816e+17
19083.0	5.1638556866641914e+17
19084.0	5.162728326255956e+17
19085.0	5.1620528356939085e+17
19086.0	5.1605353274190496e+17
19087.0	5.1598162594365434e+17
19088.0	5.1590162973108896e+17
19089.0	5.157897506564777e+17
19090.0	5.157254593161898e+17
19091.0	5.156282770128894e+17
19092.0	5.155165614462292e+17
19093.0	5.1544277287348896e+17
19094.0	5.1534732917910176e+17
19095.0	5.152518562643967e+17
19096.0	5.1515385607181645e+17
19097.0	5.150605151218346e+17
19098.0	5.1495892376616954e+17
19099.0	5.1486177040356685e+17
19100.0	5.147709070289578e+17
19101.0	5.1467833741148154e+17
19102.0	5.145646700254547e+17
19103.0	5.144882586845183e+17
19104.0	5.143934578371242e+17
19105.0	5.142838039106901e+17
19106.0	5.1419898264070816e+17
19107.0	5.141011082073428e+17
19108.0	5.1400711329546234e+17
19109.0	5.13862625604403e+17
19110.0	5.1382010256206496e+17
19111.0	5.1372281470211405e+17
19112.0	5.1362705678445216e+17
19113.0	5.135359507693567e+17
19114.0	5.1343858853041485e+17
19115.0	5.133375936746837e+17
19116.0	5.1324825919378765e+17
19117.0	5.131526460495187e+17
19118.0	5.1304600719851514e+17
19119.0	5.115896062978711e+17
19120.0	5.12862321779234e+17
19121.0	5.1277095571729056e+17
19122.0	5.126813820911615e+17
19123.0	5.125864701646164e+17
19124.0	5.1248803886749005e+17
19125.0	5.1239614054836896e+17
19126.0	5.123006338695166e+17
19127.0	5.119274277055145e+17
19128.0	5.121052983514451e+17
19129.0	5.120063004737535e+17
19130.0	5.119197048733694e+17
19131.0	5.118271047772842e+17
19132.0	5.117323194488149e+17
19133.0	5.116278054322175e+17
19134.0	5.115406229088938e+17
19135.0	5.1144797478802765e+17
19136.0	5.113542362180266e+17
19137.0	5.112345571360768e+17
19138.0	5.1116255156196685e+17
19139.0	5.1107023632902816e+17
19140.0	5.109758550518442e+17
19141.0	5.1088125462227616e+17
19142.0	5.10782977605632e+17
19143.0	5.1068318903173114e+17
19144.0	5.1059197571235834e+17
19145.0	5.1050312112974496e+17
19146.0	5.103189333027499e+17
19147.0	5.1029782232214176e+17
19148.0	5.102143457460223e+17
19149.0	5.1011835224828576e+17
19150.0	5.10029718286063e+17
19151.0	5.0993575280421536e+17
19152.0	5.0984075496434336e+17
19153.0	5.0973492994812576e+17
19154.0	5.09632736010786e+17
19155.0	5.0955917567808845e+17
19156.0	5.0946449513731405e+17
19157.0	5.0936565321782605e+17
19158.0	5.092325178998782e+17
19159.0	5.091789084732074e+17
19160.0	5.090858727287466e+17
19161.0	5.0899321349297485e+17
19162.0	5.0881368204247046e+17
19163.0	5.088026289329494e+17
19164.0	5.0871097835738445e+17
19165.0	5.086026021557588e+17
19166.0	5.0850063065634125e+17
19167.0	5.0842098942170445e+17
19168.0	5.0833392447870285e+17
19169.0	5.082382261900628e+17
19170.0	5.0814674059045536e+17
19171.0	5.080473306923007e+17
19172.0	5.079584372424703e+17
19173.0	5.0786470685136205e+17
19174.0	5.077614086236842e+17
19175.0	5.076765728833535e+17
19176.0	5.0758264151517856e+17
19177.0	5.0746673451062605e+17
19178.0	5.07393177882897e+17
19179.0	5.0729376029518496e+17
19180.0	5.072061421234858e+17
19181.0	5.070915807215615e+17
19182.0	5.07016807256337e+17
19183.0	5.069264081212757e+17
19184.0	5.0683153806786554e+17
19185.0	5.067372489954645e+17
19186.0	5.066448047876778e+17
19187.0	5.0654253612182176e+17
19188.0	5.0645713240282445e+17
19189.0	5.063643408367615e+17
19190.0	5.062703269806079e+17
19191.0	5.061719592970922e+17
19192.0	5.060831556752723e+17
19193.0	5.05987219919121e+17
19194.0	5.058920077503146e+17
19195.0	5.0580211165211296e+17
19196.0	5.05705925775633e+17
19197.0	5.056132561939114e+17
19198.0	5.0551861906418336e+17
19199.0	5.049198205818195e+17
19200.0	5.0498545759464115e+17
19201.0	5.0523872700661754e+17
19202.0	5.0514736807499085e+17
19203.0	5.050528763478015e+17
19204.0	5.0495704076561056e+17
19205.0	5.0486616620619085e+17
19206.0	5.0477226252042234e+17
19207.0	5.046635047070378e+17
19208.0	5.045506417186132e+17
19209.0	5.044929413775359e+17
19210.0	5.043994841754281e+17
19211.0	5.043080962331987e+17
19212.0	5.042143518610772e+17
19213.0	5.041065142080853e+17
19214.0	5.040075897307136e+17
19215.0	5.0393313789870074e+17
19216.0	5.0384183754751994e+17
19217.0	5.0374760908281165e+17
19218.0	5.035311549644797e+17
19219.0	5.0354185575246496e+17
19220.0	5.034655126388736e+17
19221.0	5.033268668443306e+17
19222.0	5.0328154452350285e+17
19223.0	5.031867591950336e+17
19224.0	5.0309029202056525e+17
19225.0	5.0298105465842336e+17
19226.0	5.029076260268714e+17
19227.0	5.0281457721016314e+17
19228.0	5.0272486349428045e+17
19229.0	5.0263175001538554e+17
19230.0	5.0253754538830496e+17
19231.0	5.0244404393629005e+17
19232.0	5.023516852923049e+17
19233.0	5.0225002158489594e+17
19234.0	5.0216336929150285e+17
19235.0	5.02069291192593e+17
19236.0	5.0198104520349e+17
19237.0	5.018857976627198e+17
19238.0	5.0178095145724576e+17
19239.0	5.0170267428017485e+17
19240.0	5.016082251251711e+17
19241.0	5.0151358275256314e+17
19242.0	5.0142174622952083e+17
19243.0	5.013088507352404e+17
19244.0	5.0122928234168314e+17
19245.0	5.011206125387775e+17
19246.0	5.0102592612597754e+17
19247.0	5.009345460830208e+17
19248.0	5.008431865921534e+17
19249.0	5.0074960621731834e+17
19250.0	5.0065262656880634e+17
19251.0	5.005446735724542e+17
19252.0	5.004348589342719e+17
19253.0	5.0037566192571725e+17
19254.0	5.002868046867115e+17
19255.0	5.0016944002170874e+17
19256.0	5.0009596630138874e+17
19257.0	5.0000917203080525e+17
19258.0	4.9991645708069536e+17
19259.0	4.9981429166462285e+17
19260.0	4.997098726490111e+17
19261.0	4.996365831285417e+17
19262.0	4.995376377495551e+17
19263.0	4.994430585012223e+17
19264.0	4.9927326426726374e+17
19265.0	4.9923549050525e+17
19266.0	4.991272536943275e+17
19267.0	4.9908337008967674e+17
19268.0	4.9898983948724915e+17
19269.0	4.9889772299441485e+17
19270.0	4.988053204500479e+17
19271.0	4.986586374602752e+17
19272.0	4.986153547595774e+17
19273.0	4.984471086432255e+17
19274.0	4.983612116740777e+17
19275.0	4.983432410387796e+17
19276.0	4.982477957365759e+17
19277.0	4.981562149961728e+17
19278.0	4.9806377728955725e+17
19279.0	4.9796961467542176e+17
19280.0	4.9786639718809594e+17
19281.0	4.9778567487160314e+17
19282.0	4.976958494474239e+17
19283.0	4.9759577440256e+17
19284.0	4.9750663866176845e+17
19285.0	4.973929651940009e+17
19286.0	4.9732042932005536e+17
19287.0	4.9723300911950496e+17
19288.0	4.968819383249576e+17
19289.0	4.9646243228767475e+17
19290.0	4.969556743989929e+17
19291.0	4.968276199211009e+17
19292.0	4.9677115675989325e+17
19293.0	4.9667762727594656e+17
19294.0	4.9658473364848634e+17
19295.0	4.9649371494481914e+17
19296.0	4.963940676490581e+17
19297.0	4.9630408801430176e+17
19298.0	4.9621166561689594e+17
19299.0	4.961162549177002e+17
19300.0	4.960292588311893e+17
19301.0	4.9593746005688314e+17
19302.0	4.958175655275177e+17
19303.0	4.9570938233378125e+17
19304.0	4.956226655180115e+17
19305.0	4.955322343664298e+17
19306.0	4.954409423339519e+17
19307.0	4.953420497332906e+17
19308.0	4.9525241766652576e+17
19309.0	4.951434158844585e+17
19310.0	4.950432369606655e+17
19311.0	4.9497172044240205e+17
19312.0	4.9488410996026016e+17
19313.0	4.947928714051583e+17
19314.0	4.929728936935433e+17
19315.0	4.9300593977589946e+17
19316.0	4.9450372615372794e+17
19317.0	4.944200788694356e+17
19318.0	4.9432689017268896e+17
19319.0	4.9423650005538125e+17
19320.0	4.94140353815074e+17
19321.0	4.9404485957932365e+17
19322.0	4.9394590210676045e+17
19323.0	4.938558092257962e+17
19324.0	4.937697615413247e+17
19325.0	4.9365995319459834e+17
19326.0	4.935843650557268e+17
19327.0	4.9348864132164256e+17
19328.0	4.933856548705621e+17
19329.0	4.933046419587072e+17
19330.0	4.93205231571217e+17
19331.0	4.931107527764649e+17
19332.0	4.9302332432711674e+17
19333.0	4.929284159657299e+17
19334.0	4.9283560440681805e+17
19335.0	4.927182820343808e+17
19336.0	4.9264761458305696e+17
19337.0	4.925536379863039e+17
19338.0	4.92429045277218e+17
19339.0	4.923654855633578e+17
19340.0	4.9224119351596365e+17
19341.0	4.9215861857539405e+17
19342.0	4.920210313532756e+17
19343.0	4.919872288980992e+17
19344.0	4.918835545811625e+17
19345.0	4.9147745479775514e+17
19346.0	4.915586240173395e+17
19347.0	4.9158626916433914e+17
19348.0	4.914991789157033e+17
19349.0	4.9136940938690554e+17
19350.0	4.9127051916301645e+17
19351.0	4.911773977848489e+17
19352.0	4.910638460917076e+17
19353.0	4.909910773639851e+17
19354.0	4.9089532762521594e+17
19355.0	4.907844764347051e+17
19356.0	4.907017899955541e+17
19357.0	4.906052795498495e+17
19358.0	4.905076317487102e+17
19359.0	4.9040055326474234e+17
19360.0	4.9029760637992954e+17
19361.0	4.902096200881493e+17
19362.0	4.9011741048176634e+17
19363.0	4.900188930615979e+17
19364.0	4.8991996473944736e+17
19365.0	4.8982107388641274e+17
19366.0	4.896919601370453e+17
19367.0	4.89565447205683e+17
19368.0	4.8946554433699834e+17
19369.0	4.893577488367615e+17
19370.0	4.8925549485096954e+17
19371.0	4.8915507139925325e+17
19372.0	4.8906088991074976e+17
19373.0	4.889558430078292e+17
19374.0	4.8885505304384845e+17
19375.0	4.8875208015435085e+17
19376.0	4.886147052339198e+17
19377.0	4.884709184110591e+17
19378.0	4.8836631100129274e+17
19379.0	4.8826098440820045e+17
19380.0	4.8815453646793376e+17
19381.0	4.880466947604478e+17
19382.0	4.879291340816383e+17
19383.0	4.877464937431038e+17
19384.0	4.876298885267455e+17
19385.0	4.875203415550634e+17
19386.0	4.8739684348941645e+17
19387.0	4.872512406028287e+17
19388.0	4.870466083400362e+17
19389.0	4.8691302758700365e+17
19390.0	4.867957589016575e+17
19391.0	4.858493664231412e+17
19392.0	4.864773701937833e+17
19393.0	4.8637261039097165e+17
19394.0	4.862484208943103e+17
19395.0	4.8612024177568416e+17
19396.0	4.8599691001419085e+17
19397.0	4.858712087505578e+17
19398.0	4.857338731866794e+17
19399.0	4.854842789636777e+17
19400.0	4.854593364863658e+17
19401.0	4.852949900940628e+17
19402.0	4.8512284753919994e+17
19403.0	4.8497680991300256e+17
19404.0	4.848333352861696e+17
19405.0	4.8468151378466125e+17
19406.0	4.8453039161343994e+17
19407.0	4.8437060883360416e+17
19408.0	4.8400146128786797e+17
19409.0	4.839356530775381e+17
19410.0	4.83768027718178e+17
19411.0	4.83582668841506e+17
19412.0	4.8329954989615795e+17
19413.0	4.83054621626641e+17
19414.0	4.8285731254872736e+17
19415.0	4.8250131610337286e+17
19416.0	4.822196541893289e+17
19417.0	4.818547422614869e+17
19418.0	4.815293468988756e+17
19419.0	4.8098273254877875e+17
19420.0	4.804822482026495e+17
19421.0	4.798464127576745e+17
19422.0	4.7903351302171264e+17
19423.0	4.780427284490924e+17
19424.0	4.7708310000544435e+17
19425.0	4.765666439593983e+17
19426.0	4.7609887560389965e+17
19427.0	4.755994417911126e+17
19428.0	4.7503636857268896e+17
19429.0	4.744814432092159e+17
19430.0	4.738792534922581e+17
19431.0	4.7311752237765997e+17
19432.0	4.7254354487760205e+17
19433.0	4.718154824198826e+17
19434.0	4.7100120828040525e+17
19435.0	4.7003586579660806e+17
19436.0	4.6884813851852755e+17
19437.0	4.6733304623267795e+17
19438.0	4.632311167451141e+17
19439.0	4.6040103661513446e+17
19440.0	4.57877115441425e+17
19441.0	4.554226020297385e+17
19442.0	4.528029267831467e+17
19443.0	4.500816719948458e+17
19444.0	4.471851873643176e+17
19445.0	4.4425835666472986e+17
19446.0	4.4054015580132576e+17
19447.0	4.3079132844305344e+17
19448.0	4.2060142521002714e+17
19449.0	4.0722475830477037e+17
19450.0	3.643439341458825e+17
19451.0	3.431109037654031e+17
19452.0	3.908487301387602e+17
19453.0	4.154788919552686e+17
19454.0	4.2483004371981523e+17
19455.0	4.363195921028447e+17
19456.0	4.419065098884439e+17
19457.0	4.448302586134527e+17
19458.0	4.426281354876314e+17
19459.0	4.500303322458811e+17
19460.0	4.52711276557107e+17
19461.0	4.551122027719338e+17
19462.0	4.572254758589782e+17
19463.0	4.60726340611823e+17
19464.0	4.640584970360135e+17
19465.0	4.6587060392645926e+17
19466.0	4.670299293351937e+17
19467.0	4.678535540462934e+17
19468.0	4.685307811900074e+17
19469.0	4.6910872090924365e+17
19470.0	4.6967718590545914e+17
19471.0	4.7019660774386336e+17
19472.0	4.7061781282379085e+17
19473.0	4.710076854042623e+17
19474.0	4.713883403725482e+17
19475.0	4.716129099098793e+17
19476.0	4.7204544457386656e+17
19477.0	4.723293238766249e+17
19478.0	4.728326701361831e+17
19479.0	4.7373761757839424e+17
19480.0	4.744375843509587e+17
19481.0	4.749584523154772e+17
19482.0	4.754149502965074e+17
19483.0	4.756972443620693e+17
19484.0	4.75898809749777e+17
19485.0	4.7615484397704557e+17
19486.0	4.762270408114176e+17
19487.0	4.764017352507388e+17
19488.0	4.7649329683715405e+17
19489.0	4.76488884359441e+17
19490.0	4.763945866188113e+17
19491.0	4.7666032297028256e+17
19492.0	4.766706090115071e+17
19493.0	4.7666396502425594e+17
19494.0	4.767042283154089e+17
19495.0	4.767368573441366e+17
19496.0	4.7664215436383565e+17
19497.0	4.766838698628436e+17
19498.0	4.765547247261014e+17
19499.0	4.7529775738825325e+17
19500.0	4.7659033898079565e+17
19501.0	4.7658615292559354e+17
19502.0	4.765824316691796e+17
19503.0	4.7654048478440096e+17
19504.0	4.764949339439102e+17
19505.0	4.764466817619283e+17
19506.0	4.7639812045974176e+17
19507.0	4.76342773612544e+17
19508.0	4.7629364719779834e+17
19509.0	4.762384025518079e+17
19510.0	4.761479339311104e+17
19511.0	4.733395939273373e+17
19512.0	4.759150526114471e+17
19513.0	4.756523648199332e+17
19514.0	4.757258955827877e+17
19515.0	4.759651488191829e+17
19516.0	4.759754278699007e+17
19517.0	4.7591692369046176e+17
19518.0	4.758883952230398e+17
19519.0	4.7581990720197965e+17
19520.0	4.7580711813993805e+17
19521.0	4.7577024971844256e+17
19522.0	4.756942117404671e+17
19523.0	4.7562734747429536e+17
19524.0	4.755526338478079e+17
19525.0	4.7548548695545165e+17
19526.0	4.754147921712468e+17
19527.0	4.753709504397311e+17
19528.0	4.7533267098446496e+17
19529.0	4.7525779573746336e+17
19530.0	4.7518646705411405e+17
19531.0	4.751114222174207e+17
19532.0	4.7503594466836474e+17
19533.0	4.7496005223273805e+17
19534.0	4.748831848311465e+17
19535.0	4.7480444488253434e+17
19536.0	4.747239707290282e+17
19537.0	4.746526756001108e+17
19538.0	4.745481812268372e+17
19539.0	4.744571105138007e+17
19540.0	4.7446645982713165e+17
19541.0	4.7438962122642765e+17
19542.0	4.743112591846058e+17
19543.0	4.742245280382975e+17
19544.0	4.7415324598162765e+17
19545.0	4.7399554791069e+17
19546.0	4.738527526212949e+17
19547.0	4.739154325798911e+17
19548.0	4.7383503720939514e+17
19549.0	4.7374112904970234e+17
19550.0	4.736743167229951e+17
19551.0	4.735940362065236e+17
19552.0	4.7351302357428896e+17
19553.0	4.7342822635165005e+17
19554.0	4.7334457186713594e+17
19555.0	4.732664482015913e+17
19556.0	4.7318771069965645e+17
19557.0	4.731061353316351e+17
19558.0	4.730243793988266e+17
19559.0	4.7294316432151885e+17
19560.0	4.728562101780479e+17
19561.0	4.72786957046033e+17
19562.0	4.7273386533628576e+17
19563.0	4.726559384535038e+17
19564.0	4.7257363208820045e+17
19565.0	4.724912238013097e+17
19566.0	4.7240408804447565e+17
19567.0	4.7232601911459834e+17
19568.0	4.722401979924479e+17
19569.0	4.721574553496233e+17
19570.0	4.720780268361044e+17
19571.0	4.7199416242667514e+17
19572.0	4.719074762992298e+17
19573.0	4.7182487626274125e+17
19574.0	4.717333059381929e+17
19575.0	4.7166307455467514e+17
19576.0	4.715788660725077e+17
19577.0	4.714914811041108e+17
19578.0	4.714068718561961e+17
19579.0	4.7132626376458234e+17
19580.0	4.712429210566655e+17
19581.0	4.711609146540032e+17
19582.0	4.710802357485568e+17
19583.0	4.709967930064895e+17
19584.0	4.7091234125469005e+17
19585.0	4.708136861215402e+17
19586.0	4.7072576232488954e+17
19587.0	4.7065924618594976e+17
19588.0	4.705049860461909e+17
19589.0	4.704920754891434e+17
19590.0	4.703921610162176e+17
19591.0	4.7032673253021005e+17
19592.0	4.702436946782889e+17
19593.0	4.701568318308351e+17
19594.0	4.700407168587092e+17
19595.0	4.699867417586346e+17
19596.0	4.6989459933102086e+17
19597.0	4.6982304128914765e+17
19598.0	4.696587460673534e+17
19599.0	4.69656733220864e+17
19600.0	4.6957417652551674e+17
19601.0	4.6948016847148365e+17
19602.0	4.693983414452223e+17
19603.0	4.6925101658712736e+17
19604.0	4.6923106092755616e+17
19605.0	4.6911022309922125e+17
19606.0	4.6906962859786234e+17
19607.0	4.689870358315008e+17
19608.0	4.689003633355433e+17
19609.0	4.6881124325348685e+17
19610.0	4.687306130718719e+17
19611.0	4.686432935346175e+17
19612.0	4.685673571287039e+17
19613.0	4.6848194809692154e+17
19614.0	4.683938668740607e+17
19615.0	4.683153216110592e+17
19616.0	4.6821998459180365e+17
19617.0	4.6813892952719354e+17
19618.0	4.6796851628386963e+17
19619.0	4.678632293968552e+17
19620.0	4.677849289413971e+17
19621.0	4.678031798960127e+17
19622.0	4.677278933975039e+17
19623.0	4.6764351721308154e+17
19624.0	4.6755740647424e+17
19625.0	4.6747605039841274e+17
19626.0	4.673914605142015e+17
19627.0	4.673079879925759e+17
19628.0	4.672103824840021e+17
19629.0	4.671053933925717e+17
19630.0	4.670193027863893e+17
19631.0	4.663987104907263e+17
19632.0	4.6688669287492256e+17
19633.0	4.6679813482960205e+17
19634.0	4.6672055369727994e+17
19635.0	4.666302783640917e+17
19636.0	4.6654244621298336e+17
19637.0	4.6641315336683514e+17
19638.0	4.663822749007871e+17
19639.0	4.6629936294789114e+17
19640.0	4.661964080239958e+17
19641.0	4.659303494800729e+17
19642.0	4.6604777552172365e+17
19643.0	4.659634842020523e+17
19644.0	4.65872379515153e+17
19645.0	4.657539634080425e+17
19646.0	4.657041183692116e+17
19647.0	4.656303635606185e+17
19648.0	4.655464988016639e+17
19649.0	4.6546219007563085e+17
19650.0	4.653793216735914e+17
19651.0	4.65294982119424e+17
19652.0	4.652108834581162e+17
19653.0	4.6512803994228045e+17
19654.0	4.650435136716798e+17
19655.0	4.649591711115946e+17
