# Flux units: erg / (cm m2 s)
# Wavelength units: Angstrom
wave	flux
19000.0	6.103474527797247e+17
19001.0	6.102279643288916e+17
19002.0	6.101194338467839e+17
19003.0	6.100053259889321e+17
19004.0	6.098911689179135e+17
19005.0	6.097768909111295e+17
19006.0	6.096633401966591e+17
19007.0	6.095464209667411e+17
19008.0	6.09431540797713e+17
19009.0	6.093199464464383e+17
19010.0	6.091775332581373e+17
19011.0	6.090916817971882e+17
19012.0	6.089683399693651e+17
19013.0	6.08864820981487e+17
19014.0	6.087478656106495e+17
19015.0	6.086349883615914e+17
19016.0	6.085203057442816e+17
19017.0	6.084083960512512e+17
19018.0	6.082944900792319e+17
19019.0	6.081810252780884e+17
19020.0	6.08065897365504e+17
19021.0	6.079532105378474e+17
19022.0	6.078397341324627e+17
19023.0	6.077239389760169e+17
19024.0	6.076111056273408e+17
19025.0	6.074983674194601e+17
19026.0	6.07382707249698e+17
19027.0	6.072649918709759e+17
19028.0	6.071571524703572e+17
19029.0	6.070424455260842e+17
19030.0	6.069303537303551e+17
19031.0	6.068166402069844e+17
19032.0	6.067027293416105e+17
19033.0	6.065842720604159e+17
19034.0	6.064748038717439e+17
19035.0	6.063598953911636e+17
19036.0	6.057838171040421e+17
19037.0	6.06133985214464e+17
19038.0	6.060196777776468e+17
19039.0	6.059071535491753e+17
19040.0	6.057938514870271e+17
19041.0	6.056798259074388e+17
19042.0	6.055616255273641e+17
19043.0	6.054532201054207e+17
19044.0	6.053390161980074e+17
19045.0	6.052259212645715e+17
19046.0	6.051094021712553e+17
19047.0	6.049990681384275e+17
19048.0	6.048730201456639e+17
19049.0	6.047685880578047e+17
19050.0	6.046561542165844e+17
19051.0	6.044687698406056e+17
19052.0	6.044282767015936e+17
19053.0	6.043180185157631e+17
19054.0	6.042054073253887e+17
19055.0	6.040780086269268e+17
19056.0	6.039770531277481e+17
19057.0	6.038649929990144e+17
19058.0	6.037510048186368e+17
19059.0	6.036386178837161e+17
19060.0	6.035242231354708e+17
19061.0	6.034124124979199e+17
19062.0	6.032989211328511e+17
19063.0	6.031858984812544e+17
19064.0	6.030655072064852e+17
19065.0	6.029499395910313e+17
19066.0	6.028431458304e+17
19067.0	6.02732602991138e+17
19068.0	6.02620205151027e+17
19069.0	6.025071982979753e+17
19070.0	6.023924039723689e+17
19071.0	6.022804856111103e+17
19072.0	6.021679991313748e+17
19073.0	6.020547248914431e+17
19074.0	6.019420279275519e+17
19075.0	6.018290491064319e+17
19076.0	6.017147936789844e+17
19077.0	6.01602561024546e+17
19078.0	6.014879371973971e+17
19079.0	6.013772013502463e+17
19080.0	6.01263713620241e+17
19081.0	6.011489592104276e+17
19082.0	6.010357854939817e+17
19083.0	6.009204307394559e+17
19084.0	6.008004523939156e+17
19085.0	6.006995922452477e+17
19086.0	6.005667998815574e+17
19087.0	6.004616190405289e+17
19088.0	6.003580602766676e+17
19089.0	6.002324368872788e+17
19090.0	6.001348352234836e+17
19091.0	6.000227951575039e+17
19092.0	5.997258245931005e+17
19093.0	5.995608745705471e+17
19094.0	5.994480601661439e+17
19095.0	5.993354674307071e+17
19096.0	5.992221505486845e+17
19097.0	5.991108054788778e+17
19098.0	5.989983995297791e+17
19099.0	5.988856425174355e+17
19100.0	5.987724652358313e+17
19101.0	5.986608787838292e+17
19102.0	5.985427789971455e+17
19103.0	5.984361805512703e+17
19104.0	5.983240431774378e+17
19105.0	5.982117067838804e+17
19106.0	5.980970110943231e+17
19107.0	5.979860205830143e+17
19108.0	5.978748161622015e+17
19109.0	5.977244114965843e+17
19110.0	5.976501815432532e+17
19111.0	5.975381464405332e+17
19112.0	5.974259632089769e+17
19113.0	5.973136430333951e+17
19114.0	5.972015990527316e+17
19115.0	5.970861463612074e+17
19116.0	5.969761596167508e+17
19117.0	5.968645473697791e+17
19118.0	5.967469363593215e+17
19119.0	5.963921960381094e+17
19120.0	5.96524450062882e+17
19121.0	5.96414605365521e+17
19122.0	5.963050779672576e+17
19123.0	5.961930006418772e+17
19124.0	5.960787511563604e+17
19125.0	5.959690439622656e+17
19126.0	5.958567723707049e+17
19127.0	5.956485584519164e+17
19128.0	5.9561516480157e+17
19129.0	5.955166780697257e+17
19130.0	5.954089805763924e+17
19131.0	5.952973772772692e+17
19132.0	5.951858220029268e+17
19133.0	5.950611854633642e+17
19134.0	5.949533000652116e+17
19135.0	5.948503127752703e+17
19136.0	5.947389964364457e+17
19137.0	5.946181569303891e+17
19138.0	5.94513989992448e+17
19139.0	5.944038512044714e+17
19140.0	5.942922174267391e+17
19141.0	5.941805698078036e+17
19142.0	5.940675446396244e+17
19143.0	5.939537930179924e+17
19144.0	5.938439177721171e+17
19145.0	5.937340766399146e+17
19146.0	5.935893039458986e+17
19147.0	5.935057708165801e+17
19148.0	5.933992673017855e+17
19149.0	5.93287480152337e+17
19150.0	5.931759721338196e+17
19151.0	5.93064720666897e+17
19152.0	5.929528882888701e+17
19153.0	5.928408778626388e+17
19154.0	5.92723661955618e+17
19155.0	5.926193330476372e+17
19156.0	5.925077849036116e+17
19157.0	5.923961439955625e+17
19158.0	5.922593346770259e+17
19159.0	5.921726112202751e+17
19160.0	5.920613402498388e+17
19161.0	5.919495306608639e+17
19162.0	5.917806500162218e+17
19163.0	5.917284471493971e+17
19164.0	5.916174685219497e+17
19165.0	5.915045777113087e+17
19166.0	5.913872998683988e+17
19167.0	5.91278250131456e+17
19168.0	5.911700396747434e+17
19169.0	5.91058977301026e+17
19170.0	5.909502364745727e+17
19171.0	5.908354527046313e+17
19172.0	5.907277714292735e+17
19173.0	5.906167890269524e+17
19174.0	5.905026799807146e+17
19175.0	5.903946924512598e+17
19176.0	5.902834306383871e+17
19177.0	5.901644290763433e+17
19178.0	5.900609859354623e+17
19179.0	5.899449686207146e+17
19180.0	5.898373759849812e+17
19181.0	5.897216224220499e+17
19182.0	5.896165486755839e+17
19183.0	5.895065562688169e+17
19184.0	5.893934750367744e+17
19185.0	5.892840679451306e+17
19186.0	5.891737930519892e+17
19187.0	5.890590729655636e+17
19188.0	5.889517288423423e+17
19189.0	5.88840537493777e+17
19190.0	5.887294419151529e+17
19191.0	5.88617202270208e+17
19192.0	5.885087047832916e+17
19193.0	5.883968729645055e+17
19194.0	5.882860321199443e+17
19195.0	5.88176074805521e+17
19196.0	5.880643836357289e+17
19197.0	5.879540400958122e+17
19198.0	5.878433861773992e+17
19199.0	5.873789689309865e+17
19200.0	5.8740359299072e+17
19201.0	5.875112737068371e+17
19202.0	5.874009372972372e+17
19203.0	5.872894519279615e+17
19204.0	5.871781446068906e+17
19205.0	5.870683484935508e+17
19206.0	5.86957645292066e+17
19207.0	5.868428427875667e+17
19208.0	5.867236889023828e+17
19209.0	5.866256420831232e+17
19210.0	5.865148915559081e+17
19211.0	5.864050383301289e+17
19212.0	5.862944641034921e+17
19213.0	5.861762826676905e+17
19214.0	5.860643798952618e+17
19215.0	5.859614390921897e+17
19216.0	5.858516787702441e+17
19217.0	5.857410907723092e+17
19218.0	5.855855283011583e+17
19219.0	5.85511956713745e+17
19220.0	5.854082466753194e+17
19221.0	5.852806873350143e+17
19222.0	5.851885772035412e+17
19223.0	5.850766787652265e+17
19224.0	5.849645062990505e+17
19225.0	5.848484203375273e+17
19226.0	5.847449730023424e+17
19227.0	5.846343225092777e+17
19228.0	5.845253207971156e+17
19229.0	5.84414754190131e+17
19230.0	5.843030236637865e+17
19231.0	5.841924222440788e+17
19232.0	5.840824193515519e+17
19233.0	5.8396864165533e+17
19234.0	5.83860549128465e+17
19235.0	5.837495149264895e+17
19236.0	5.836409025156435e+17
19237.0	5.835294824377001e+17
19238.0	5.834143980060671e+17
19239.0	5.833093964016297e+17
19240.0	5.831937739806035e+17
19241.0	5.83085809869346e+17
19242.0	5.829767186087935e+17
19243.0	5.828580202949289e+17
19244.0	5.827565215634772e+17
19245.0	5.826456428303699e+17
19246.0	5.825344302306643e+17
19247.0	5.824246776681812e+17
19248.0	5.823159022387199e+17
19249.0	5.822050198006442e+17
19250.0	5.820934803248468e+17
19251.0	5.819795382119082e+17
19252.0	5.818556352561151e+17
19253.0	5.817613151458644e+17
19254.0	5.816512879263741e+17
19255.0	5.81529988305169e+17
19256.0	5.814294565705044e+17
19257.0	5.813199211331583e+17
19258.0	5.81209148166417e+17
19259.0	5.810941596445353e+17
19260.0	5.809789032464383e+17
19261.0	5.808761486005588e+17
19262.0	5.807627783809705e+17
19263.0	5.806523132761428e+17
19264.0	5.805150404870143e+17
19265.0	5.8042209009664e+17
19266.0	5.803111873161897e+17
19267.0	5.802116762654036e+17
19268.0	5.801003065191082e+17
19269.0	5.799895194315433e+17
19270.0	5.798786585242282e+17
19271.0	5.797488180417876e+17
19272.0	5.794588270788604e+17
19273.0	5.79141867160644e+17
19274.0	5.790961852481533e+17
19275.0	5.790637208458579e+17
19276.0	5.789513809570473e+17
19277.0	5.788403426306729e+17
19278.0	5.787292402712576e+17
19279.0	5.786163064690004e+17
19280.0	5.785016538409642e+17
19281.0	5.78394632818961e+17
19282.0	5.782840336362153e+17
19283.0	5.7816709070848e+17
19284.0	5.780539115394387e+17
19285.0	5.779380706650793e+17
19286.0	5.77835494347025e+17
19287.0	5.777255403880447e+17
19288.0	5.77516581560866e+17
19289.0	5.771700529179299e+17
19290.0	5.7738976048797e+17
19291.0	5.772636237856768e+17
19292.0	5.771655518005929e+17
19293.0	5.770528698662912e+17
19294.0	5.769403968083284e+17
19295.0	5.768286334266025e+17
19296.0	5.767157938563754e+17
19297.0	5.766023607921322e+17
19298.0	5.764891623292927e+17
19299.0	5.7637820544232096e+17
19300.0	5.762651683902804e+17
19301.0	5.7615192861354656e+17
19302.0	5.760389263043242e+17
19303.0	5.75921242312977e+17
19304.0	5.758104279624362e+17
19305.0	5.756983274285737e+17
19306.0	5.755851470711466e+17
19307.0	5.7546888963249485e+17
19308.0	5.753567424020479e+17
19309.0	5.7523190719228576e+17
19310.0	5.751122342619818e+17
19311.0	5.7501365532535456e+17
19312.0	5.749011808692905e+17
19313.0	5.747866030396758e+17
19314.0	5.742578968996511e+17
19315.0	5.741884095856649e+17
19316.0	5.743542213978792e+17
19317.0	5.741790768398335e+17
19318.0	5.7406345763444045e+17
19319.0	5.7394892356539725e+17
19320.0	5.7383282187523405e+17
19321.0	5.737170657957204e+17
19322.0	5.7359563768900256e+17
19323.0	5.734782192670036e+17
19324.0	5.7336712900116474e+17
19325.0	5.732392688593577e+17
19326.0	5.7313348166178125e+17
19327.0	5.730151878885375e+17
19328.0	5.728984542565716e+17
19329.0	5.7278048994590714e+17
19330.0	5.726598832237225e+17
19331.0	5.7254122161001805e+17
19332.0	5.724248043683838e+17
19333.0	5.723047129164458e+17
19334.0	5.721858067748179e+17
19335.0	5.720663204910421e+17
19336.0	5.7194595675886925e+17
19337.0	5.718251470323711e+17
19338.0	5.71692989756211e+17
19339.0	5.7158290919915514e+17
19340.0	5.714552362631168e+17
19341.0	5.713386057411241e+17
19342.0	5.711945153205587e+17
19343.0	5.7109327104354976e+17
19344.0	5.709695198516564e+17
19345.0	5.707192332189691e+17
19346.0	5.706926055402154e+17
19347.0	5.705923717409449e+17
19348.0	5.704705592961705e+17
19349.0	5.7034215515313485e+17
19350.0	5.702157867155455e+17
19351.0	5.700358383512234e+17
19352.0	5.6989277763229005e+17
19353.0	5.697678913918292e+17
19354.0	5.696382811067732e+17
19355.0	5.695026127787349e+17
19356.0	5.6937660141622605e+17
19357.0	5.692446851028309e+17
19358.0	5.691109985135274e+17
19359.0	5.689702716451498e+17
19360.0	5.6884158515554976e+17
19361.0	5.687055909300906e+17
19362.0	5.6857166519555405e+17
19363.0	5.684340226785279e+17
19364.0	5.682951101961556e+17
19365.0	5.6815552935144096e+17
19366.0	5.680145257988094e+17
19367.0	5.6787234958868474e+17
19368.0	5.6772891222125216e+17
19369.0	5.675800577004884e+17
19370.0	5.674213688650411e+17
19371.0	5.6728696260307616e+17
19372.0	5.671407338564266e+17
19373.0	5.6698846524211194e+17
19374.0	5.66836703789056e+17
19375.0	5.666825534701567e+17
19376.0	5.665265122192041e+17
19377.0	5.663677454396073e+17
19378.0	5.662078290012842e+17
19379.0	5.6604563442674336e+17
19380.0	5.6588123525611514e+17
19381.0	5.6571403638756685e+17
19382.0	5.655403830444031e+17
19383.0	5.6536734185990816e+17
19384.0	5.651985585231188e+17
19385.0	5.6502107221524474e+17
19386.0	5.6484093175179936e+17
19387.0	5.64657432699426e+17
19388.0	5.6447075010041165e+17
19389.0	5.6428068304759456e+17
19390.0	5.6408229722193914e+17
19391.0	5.63370382764714e+17
19392.0	5.6358519446350496e+17
19393.0	5.6337929754815136e+17
19394.0	5.631678415721811e+17
19395.0	5.629515929048405e+17
19396.0	5.627312015234388e+17
19397.0	5.6250640710150816e+17
19398.0	5.622737081641642e+17
19399.0	5.6199680210152083e+17
19400.0	5.617923215327232e+17
19401.0	5.6154520069079034e+17
19402.0	5.611494171475966e+17
19403.0	5.608801332538025e+17
19404.0	5.6060899177267194e+17
19405.0	5.603277342594388e+17
19406.0	5.600394642194431e+17
19407.0	5.597131108777986e+17
19408.0	5.5920126528061434e+17
19409.0	5.589211713372158e+17
19410.0	5.585920731731285e+17
19411.0	5.581514226707116e+17
19412.0	5.576489678405631e+17
19413.0	5.5727697711595514e+17
19414.0	5.566771513786367e+17
19415.0	5.561815396952745e+17
19416.0	5.55507728532548e+17
19417.0	5.549314252909229e+17
19418.0	5.540438109498026e+17
19419.0	5.532405241391788e+17
19420.0	5.5225972935010995e+17
19421.0	5.5106985710496435e+17
19422.0	5.496599795640997e+17
19423.0	5.4832508086954643e+17
19424.0	5.474535186191701e+17
19425.0	5.4661347761192954e+17
19426.0	5.457237259233962e+17
19427.0	5.447803697015466e+17
19428.0	5.4377820521321805e+17
19429.0	5.426750253170687e+17
19430.0	5.415492442041002e+17
19431.0	5.402953915564033e+17
19432.0	5.391287221310804e+17
19433.0	5.3772795336021325e+17
19434.0	5.363208043539113e+17
19435.0	5.347244647645182e+17
19436.0	5.3297926128708256e+17
19437.0	5.3102955046720774e+17
19438.0	5.2790329731973037e+17
19439.0	5.251876606618287e+17
19440.0	5.200728378660178e+17
19441.0	5.154228368572414e+17
19442.0	5.117428788887553e+17
19443.0	5.0759914015948806e+17
19444.0	5.029521585602559e+17
19445.0	4.973054222401539e+17
19446.0	4.8841995202505344e+17
19447.0	4.771875854308687e+17
19448.0	4.653508626219017e+17
19449.0	4.443479294519982e+17
19450.0	3.990714603361621e+17
19451.0	3.8492435102651616e+17
19452.0	4.246941727369914e+17
19453.0	4.5639610662912096e+17
19454.0	4.7149692482136685e+17
19455.0	4.8204506425808006e+17
19456.0	4.92866577104896e+17
19457.0	4.9933403833412256e+17
19458.0	5.0329233835513344e+17
19459.0	5.083596524093442e+17
19460.0	5.120595136086014e+17
19461.0	5.156420768322889e+17
19462.0	5.209776399755941e+17
19463.0	5.248188764826287e+17
19464.0	5.2746840405879443e+17
19465.0	5.2942458843736723e+17
19466.0	5.310732982463145e+17
19467.0	5.325174779237715e+17
19468.0	5.3378186561454074e+17
19469.0	5.3497659388504723e+17
19470.0	5.3610950398661965e+17
19471.0	5.371170708783104e+17
19472.0	5.380612658211497e+17
19473.0	5.3895853090624845e+17
19474.0	5.3981550005452794e+17
19475.0	5.4053281789378534e+17
19476.0	5.412792544089428e+17
19477.0	5.419369457429162e+17
19478.0	5.425447082917887e+17
19479.0	5.433761669141846e+17
19480.0	5.446595573885613e+17
19481.0	5.4571331580067846e+17
19482.0	5.4659064486952954e+17
19483.0	5.4733048800870406e+17
19484.0	5.47867112435439e+17
19485.0	5.4833664771140256e+17
19486.0	5.488470615130112e+17
19487.0	5.491285377591977e+17
19488.0	5.495210266765993e+17
19489.0	5.497789468027562e+17
19490.0	5.49855408964676e+17
19491.0	5.503022483024553e+17
19492.0	5.5044002342939296e+17
19493.0	5.505562362686122e+17
19494.0	5.5068463265218554e+17
19495.0	5.509391626622292e+17
19496.0	5.510013590175742e+17
19497.0	5.5109635266314234e+17
19498.0	5.5115224994283514e+17
19499.0	5.505220714255692e+17
19500.0	5.512836755925675e+17
19501.0	5.5145610545725434e+17
19502.0	5.514921444551337e+17
19503.0	5.515233545508181e+17
19504.0	5.5154728123760634e+17
19505.0	5.51566499258914e+17
19506.0	5.515805271086421e+17
19507.0	5.5158768804386125e+17
19508.0	5.515927510581247e+17
19509.0	5.515918450185556e+17
19510.0	5.515759334369961e+17
19511.0	5.5075639202064966e+17
19512.0	5.5150460097877274e+17
19513.0	5.5143692784107456e+17
19514.0	5.514977363711315e+17
19515.0	5.5156577867748704e+17
19516.0	5.515700138759509e+17
19517.0	5.515358712627199e+17
19518.0	5.515066777184937e+17
19519.0	5.514702469027156e+17
19520.0	5.514302391844864e+17
19521.0	5.513908502659071e+17
19522.0	5.513452812500992e+17
19523.0	5.513016734209364e+17
19524.0	5.512537975379284e+17
19525.0	5.512025892803924e+17
19526.0	5.511518387612331e+17
19527.0	5.51097899033122e+17
19528.0	5.5104209221058554e+17
19529.0	5.509847900487679e+17
19530.0	5.509267452155221e+17
19531.0	5.508663740115625e+17
19532.0	5.50804522148386e+17
19533.0	5.507412579931477e+17
19534.0	5.506765520459092e+17
19535.0	5.5060947533824e+17
19536.0	5.5054135473821005e+17
19537.0	5.5047527466707616e+17
19538.0	5.5040430054222496e+17
19539.0	5.503011668710742e+17
19540.0	5.50262120067891e+17
19541.0	5.50190984532241e+17
19542.0	5.501171166871552e+17
19543.0	5.5004286443410765e+17
19544.0	5.4996762784781645e+17
19545.0	5.498730969038845e+17
19546.0	5.497584540625577e+17
19547.0	5.497370603858603e+17
19548.0	5.496587426638505e+17
19549.0	5.495738992339626e+17
19550.0	5.494997067497471e+17
19551.0	5.49419368981026e+17
19552.0	5.4933820409555616e+17
19553.0	5.4925552730330445e+17
19554.0	5.491718851220821e+17
19555.0	5.490906458576211e+17
19556.0	5.490081087356926e+17
19557.0	5.4892397798795936e+17
19558.0	5.4883959222654285e+17
19559.0	5.487544508612606e+17
19560.0	5.4866818318554445e+17
19561.0	5.485823812872873e+17
19562.0	5.484976001428138e+17
19563.0	5.484112429886121e+17
19564.0	5.483243376388777e+17
19565.0	5.482370182414335e+17
19566.0	5.481475988957866e+17
19567.0	5.4806124076291405e+17
19568.0	5.47971463713041e+17
19569.0	5.478829762718377e+17
19570.0	5.4779524170820256e+17
19571.0	5.477058853470207e+17
19572.0	5.476620764009813e+17
19573.0	5.4758429002738336e+17
19574.0	5.474893929207124e+17
19575.0	5.474044140148053e+17
19576.0	5.473134766806356e+17
19577.0	5.472201335635967e+17
19578.0	5.471293529565866e+17
19579.0	5.4703855452378445e+17
19580.0	5.4694728262396576e+17
19581.0	5.468557580173312e+17
19582.0	5.467648059331924e+17
19583.0	5.4667260744171514e+17
19584.0	5.4658019252415136e+17
19585.0	5.464813903107411e+17
19586.0	5.463871665995775e+17
19587.0	5.4629951773955405e+17
19588.0	5.4618291706702496e+17
19589.0	5.4611434550941005e+17
19590.0	5.4601680655045965e+17
19591.0	5.459283287561556e+17
19592.0	5.458349555799379e+17
19593.0	5.45740130615296e+17
19594.0	5.4563298068834976e+17
19595.0	5.4555214114106016e+17
19596.0	5.4541905573533005e+17
19597.0	5.4536385624801274e+17
19598.0	5.4525036418389325e+17
19599.0	5.451754692236628e+17
19600.0	5.4508135218763085e+17
19601.0	5.449829097755989e+17
19602.0	5.448895393955838e+17
19603.0	5.4476885151361696e+17
19604.0	5.446995082739711e+17
19605.0	5.445899743745364e+17
19606.0	5.4451107818810016e+17
19607.0	5.444163414436521e+17
19608.0	5.443200512688128e+17
19609.0	5.442224858158421e+17
19610.0	5.441300721565694e+17
19611.0	5.440338414709417e+17
19612.0	5.44054530993903e+17
19613.0	5.4397305125601274e+17
19614.0	5.438756117020671e+17
19615.0	5.4378189354434554e+17
19616.0	5.436822628859903e+17
19617.0	5.435895102570494e+17
19618.0	5.434652311420926e+17
19619.0	5.433566296364371e+17
19620.0	5.43264385217331e+17
19621.0	5.4320475948100256e+17
19622.0	5.431087668920319e+17
19623.0	5.4301241659883514e+17
19624.0	5.4291548182937594e+17
19625.0	5.428195262201855e+17
19626.0	5.427228250734591e+17
19627.0	5.426265555206143e+17
19628.0	5.4252143305031686e+17
19629.0	5.424286005198846e+17
19630.0	5.423329349468158e+17
19631.0	5.418486908758695e+17
19632.0	5.4214314954151245e+17
19633.0	5.420444024832e+17
19634.0	5.419499505319934e+17
19635.0	5.4185111763025914e+17
19636.0	5.417560161910783e+17
19637.0	5.416397791647062e+17
19638.0	5.415622473154558e+17
19639.0	5.414654151666345e+17
19640.0	5.4136568146821114e+17
19641.0	5.4122339907229024e+17
19642.0	5.4117458904787616e+17
19643.0	5.410772361762132e+17
19644.0	5.409778055162538e+17
19645.0	5.4086896703242234e+17
19646.0	5.4078722249413965e+17
19647.0	5.406902032793599e+17
19648.0	5.40592928002321e+17
19649.0	5.4049571340288e+17
19650.0	5.403990650344788e+17
19651.0	5.4030160464882336e+17
19652.0	5.4020447477432314e+17
19653.0	5.401077144180052e+17
19654.0	5.400102414494378e+17
19655.0	5.3991297826597536e+17
19656.0	5.3981605510075725e+17
19657.0	5.39718951580467e+17
19658.0	5.396221055205375e+17
19659.0	5.395249782325247e+17
19660.0	5.3942792581283834e+17
19661.0	5.393307688850772e+17
