# Flux units: erg / (cm m2 s)
# Wavelength units: Angstrom
wave	flux
19000.0	6.154396022166867e+17
19001.0	6.153147112925866e+17
19002.0	6.152144627433472e+17
19003.0	6.15100598854178e+17
19004.0	6.149874526104233e+17
19005.0	6.148734836539391e+17
19006.0	6.147618085623124e+17
19007.0	6.146478395359231e+17
19008.0	6.145331980227924e+17
19009.0	6.144044487584425e+17
19010.0	6.142798557697363e+17
19011.0	6.141803731004074e+17
19012.0	6.139892155285501e+17
19013.0	6.139723156990634e+17
19014.0	6.138578711085055e+17
19015.0	6.137473460950356e+17
19016.0	6.136360488402943e+17
19017.0	6.135255272521727e+17
19018.0	6.134112999964671e+17
19019.0	6.133012144761514e+17
19020.0	6.131881154183168e+17
19021.0	6.130775216182612e+17
19022.0	6.129644865235625e+17
19023.0	6.128458264477695e+17
19024.0	6.127288581444948e+17
19025.0	6.126118609005226e+17
19026.0	6.124837609843369e+17
19027.0	6.123155754756778e+17
19028.0	6.122777639649279e+17
19029.0	6.121697381974015e+17
19030.0	6.120604176482301e+17
19031.0	6.119452882676393e+17
19032.0	6.118247651519146e+17
19033.0	6.116884043442857e+17
19034.0	6.115313725385386e+17
19035.0	6.110242712584191e+17
19036.0	6.056548509242705e+17
19037.0	6.109044429291519e+17
19038.0	6.110898700331689e+17
19039.0	6.110256085423443e+17
19040.0	6.109292657988948e+17
19041.0	6.108229541735082e+17
19042.0	6.105309141532668e+17
19043.0	6.10608161558801e+17
19044.0	6.104952627090772e+17
19045.0	6.103786986668031e+17
19046.0	6.102682222373546e+17
19047.0	6.101537035474259e+17
19048.0	6.100005869846527e+17
19049.0	6.095441127014394e+17
19050.0	6.09747428581922e+17
19051.0	6.089024478030505e+17
19052.0	6.091781910648146e+17
19053.0	6.094426749971114e+17
19054.0	6.093667173400576e+17
19055.0	6.091906487069356e+17
19056.0	6.091376399745023e+17
19057.0	6.090472128075092e+17
19058.0	6.087477476108966e+17
19059.0	6.087563846615039e+17
19060.0	6.087134795879763e+17
19061.0	6.086034933328553e+17
19062.0	6.084933360200361e+17
19063.0	6.083816452696745e+17
19064.0	6.08261482025233e+17
19065.0	6.081437556714153e+17
19066.0	6.079764536928937e+17
19067.0	6.079355871210154e+17
19068.0	6.078261612249087e+17
19069.0	6.077147925271892e+17
19070.0	6.076010648829951e+17
19071.0	6.074863489209684e+17
19072.0	6.073116875467433e+17
19073.0	6.072696281847124e+17
19074.0	6.071587017763498e+17
19075.0	6.070471887945727e+17
19076.0	6.069348284934826e+17
19077.0	6.068221269158569e+17
19078.0	6.067094049958569e+17
19079.0	6.066015733547007e+17
19080.0	6.064887904075775e+17
19081.0	6.063733694529533e+17
19082.0	6.062640174465023e+17
19083.0	6.061432480552275e+17
19084.0	6.060180528343721e+17
19085.0	6.059196803973119e+17
19086.0	6.056503303733247e+17
19087.0	6.054691406348285e+17
19088.0	6.054329277830483e+17
19089.0	6.054134740418559e+17
19090.0	6.053437666667178e+17
19091.0	6.052315244352852e+17
19092.0	6.049811188940801e+17
19093.0	6.050362025487017e+17
19094.0	6.049318522497705e+17
19095.0	6.048235967741951e+17
19096.0	6.047132418397524e+17
19097.0	6.04603510039074e+17
19098.0	6.044146435358719e+17
19099.0	6.042880165194412e+17
19100.0	6.042582640143018e+17
19101.0	6.041544651265363e+17
19102.0	6.040412078735359e+17
19103.0	6.03937897132851e+17
19104.0	6.038255101979305e+17
19105.0	6.035375687816538e+17
19106.0	6.035834721533952e+17
19107.0	6.034293659445929e+17
19108.0	6.032647383242068e+17
19109.0	6.030356097881427e+17
19110.0	6.030535350550527e+17
19111.0	6.029757276400296e+17
19112.0	6.028742978349736e+17
19113.0	6.028290057830399e+17
19114.0	6.026834738500947e+17
19115.0	6.025870739942057e+17
19116.0	6.024963506394451e+17
19117.0	6.023817086369791e+17
19118.0	6.022438628360191e+17
19119.0	6.016137488411299e+17
19120.0	6.019953976497492e+17
19121.0	6.019022532029097e+17
19122.0	6.018370395351721e+17
19123.0	6.01730743079185e+17
19124.0	6.015775648601427e+17
19125.0	6.015080483258367e+17
19126.0	6.013882863364778e+17
19127.0	6.011689510808234e+17
19128.0	6.011447128271529e+17
19129.0	6.01061882663185e+17
19130.0	6.009604655808512e+17
19131.0	6.008520115748864e+17
19132.0	6.007421312958463e+17
19133.0	6.006260603639124e+17
19134.0	6.005117881592489e+17
19135.0	6.004115268173823e+17
19136.0	6.003014443728896e+17
19137.0	6.001829690561875e+17
19138.0	6.000802238474921e+17
19139.0	5.999728384802816e+17
19140.0	5.99863437889809e+17
19141.0	5.997535362897235e+17
19142.0	5.996393013444608e+17
19143.0	5.995299755524096e+17
19144.0	5.994194053103615e+17
19145.0	5.993141871400276e+17
19146.0	5.991444471524012e+17
19147.0	5.990891019829247e+17
19148.0	5.989227747606527e+17
19149.0	5.988023520985087e+17
19150.0	5.987643085029375e+17
19151.0	5.986536692645887e+17
19152.0	5.985347730494804e+17
19153.0	5.983041590307494e+17
19154.0	5.983000002385236e+17
19155.0	5.982005207149225e+17
19156.0	5.980815827664895e+17
19157.0	5.978915721270614e+17
19158.0	5.97671289028608e+17
19159.0	5.977162197412521e+17
19160.0	5.976183606870015e+17
19161.0	5.974628530913279e+17
19162.0	5.970643386368e+17
19163.0	5.971609726746623e+17
19164.0	5.971791880475988e+17
19165.0	5.969519462492838e+17
19166.0	5.969726923254442e+17
19167.0	5.968518853951487e+17
19168.0	5.96765648757282e+17
19169.0	5.966666069792084e+17
19170.0	5.965591266110121e+17
19171.0	5.964422321274879e+17
19172.0	5.96336120640307e+17
19173.0	5.962362200784896e+17
19174.0	5.961281167163391e+17
19175.0	5.960217314110121e+17
19176.0	5.959116773479766e+17
19177.0	5.957832165818367e+17
19178.0	5.956723894386687e+17
19179.0	5.955588789196116e+17
19180.0	5.954664751868586e+17
19181.0	5.953545044667048e+17
19182.0	5.952508923652777e+17
19183.0	5.951483445684906e+17
19184.0	5.950392663102803e+17
19185.0	5.949279624145578e+17
19186.0	5.948191100895231e+17
19187.0	5.946995081128618e+17
19188.0	5.945950792406356e+17
19189.0	5.944819859849215e+17
19190.0	5.943654608797696e+17
19191.0	5.942479784946346e+17
19192.0	5.941356423107924e+17
19193.0	5.939952376348672e+17
19194.0	5.938541168514388e+17
19195.0	5.937377984555689e+17
19196.0	5.935556827545599e+17
19197.0	5.932811504582655e+17
19198.0	5.926524337258495e+17
19199.0	5.903364155331922e+17
19200.0	5.905027384912556e+17
19201.0	5.923930969735168e+17
19202.0	5.927577766068224e+17
19203.0	5.927884767450452e+17
19204.0	5.927601638648489e+17
19205.0	5.926900963388073e+17
19206.0	5.92602688721169e+17
19207.0	5.924942454106793e+17
19208.0	5.923923018033833e+17
19209.0	5.923037791300265e+17
19210.0	5.921988871367337e+17
19211.0	5.920934270948692e+17
19212.0	5.919819183073962e+17
19213.0	5.918474681450495e+17
19214.0	5.91730554647347e+17
19215.0	5.916476963815423e+17
19216.0	5.915541671772159e+17
19217.0	5.914440399934804e+17
19218.0	5.912921763392169e+17
19219.0	5.912151499735039e+17
19220.0	5.911221479931903e+17
19221.0	5.910036361161386e+17
19222.0	5.90907130913314e+17
19223.0	5.908041584432468e+17
19224.0	5.906932329436499e+17
19225.0	5.905825272255827e+17
19226.0	5.904805290224297e+17
19227.0	5.903733813324457e+17
19228.0	5.902679736494762e+17
19229.0	5.901600923058175e+17
19230.0	5.900502845183315e+17
19231.0	5.899417799010986e+17
19232.0	5.898340373189971e+17
19233.0	5.897197639958527e+17
19234.0	5.896175413275306e+17
19235.0	5.89507275591953e+17
19236.0	5.894022586084009e+17
19237.0	5.892925668633258e+17
19238.0	5.891749520779945e+17
19239.0	5.890772287793833e+17
19240.0	5.88970288288017e+17
19241.0	5.888598521937919e+17
19242.0	5.887542101191338e+17
19243.0	5.886330323424595e+17
19244.0	5.885404174265001e+17
19245.0	5.884315473455786e+17
19246.0	5.883231803714218e+17
19247.0	5.882153371260244e+17
19248.0	5.88106244956706e+17
19249.0	5.879911131993428e+17
19250.0	5.87861002883345e+17
19251.0	5.87745901884211e+17
19252.0	5.876468497601876e+17
19253.0	5.875654609687892e+17
19254.0	5.874588154768042e+17
19255.0	5.873324007620607e+17
19256.0	5.872411516512938e+17
19257.0	5.87134614512162e+17
19258.0	5.870255937159167e+17
19259.0	5.869016311311018e+17
19260.0	5.866593253501608e+17
19261.0	5.866933583522474e+17
19262.0	5.865834152984575e+17
19263.0	5.864710338860371e+17
19264.0	5.863368144104105e+17
19265.0	5.862503261842089e+17
19266.0	5.861399382545748e+17
19267.0	5.860532177338367e+17
19268.0	5.859451540777641e+17
19269.0	5.858370442144425e+17
19270.0	5.857252511230633e+17
19271.0	5.855973667941034e+17
19272.0	5.855086434932051e+17
19273.0	5.853813172862975e+17
19274.0	5.852557473043795e+17
19275.0	5.85188031734306e+17
19276.0	5.850780767966548e+17
19277.0	5.849709456741716e+17
19278.0	5.848588201142954e+17
19279.0	5.847491712909312e+17
19280.0	5.846396675904852e+17
19281.0	5.845314430828544e+17
19282.0	5.844155996220073e+17
19283.0	5.842919718125568e+17
19284.0	5.841774459923114e+17
19285.0	5.840680890226004e+17
19286.0	5.839436069033299e+17
19287.0	5.83750622781986e+17
19288.0	5.815494023402825e+17
19289.0	5.799612585607139e+17
19290.0	5.833979984871423e+17
19291.0	5.833796337270784e+17
19292.0	5.833229094704468e+17
19293.0	5.832248892850175e+17
19294.0	5.831183536138921e+17
19295.0	5.830150019787434e+17
19296.0	5.828229469656407e+17
19297.0	5.82782501781504e+17
19298.0	5.826931257769984e+17
19299.0	5.824898647719936e+17
19300.0	5.824770077622271e+17
19301.0	5.823701536735231e+17
19302.0	5.8225968297629e+17
19303.0	5.821424453986985e+17
19304.0	5.820397790429183e+17
19305.0	5.81928219714082e+17
19306.0	5.818141427542697e+17
19307.0	5.816933070929919e+17
19308.0	5.815661422269779e+17
19309.0	5.813670309964457e+17
19310.0	5.812186467969705e+17
19311.0	5.81192653087266e+17
19312.0	5.8109613047808e+17
19313.0	5.80883765596433e+17
19314.0	5.7139155533387085e+17
19315.0	5.720009900818533e+17
19316.0	5.804312831721472e+17
19317.0	5.805548355540308e+17
19318.0	5.804769294330537e+17
19319.0	5.803812524654591e+17
19320.0	5.802404102537215e+17
19321.0	5.800869694013439e+17
19322.0	5.800364926304255e+17
19323.0	5.799139022121641e+17
19324.0	5.798003888969044e+17
19325.0	5.796643715328681e+17
19326.0	5.79589351023138e+17
19327.0	5.794958917238783e+17
19328.0	5.79243007139294e+17
19329.0	5.792887543431168e+17
19330.0	5.791773674001747e+17
19331.0	5.790659006256467e+17
19332.0	5.789603195781119e+17
19333.0	5.788457568479914e+17
19334.0	5.787348292512426e+17
19335.0	5.783185991751e+17
19336.0	5.785065120333824e+17
19337.0	5.783992640296275e+17
19338.0	5.78268616073762e+17
19339.0	5.781733797877076e+17
19340.0	5.780500369812138e+17
19341.0	5.778266647778647e+17
19342.0	5.777677281656832e+17
19343.0	5.777155024399018e+17
19344.0	5.77484957417472e+17
19345.0	5.773001846248788e+17
19346.0	5.772767836940969e+17
19347.0	5.771059687762602e+17
19348.0	5.771467957119658e+17
19349.0	5.770318245964458e+17
19350.0	5.768615178185386e+17
19351.0	5.768023600966314e+17
19352.0	5.76529879024708e+17
19353.0	5.76577237750033e+17
19354.0	5.764598928681642e+17
19355.0	5.7633243670773754e+17
19356.0	5.7622361367292576e+17
19357.0	5.7610770247406925e+17
19358.0	5.7598586395470496e+17
19359.0	5.758315120295934e+17
19360.0	5.75630140908066e+17
19361.0	5.756284179578879e+17
19362.0	5.7550901101636256e+17
19363.0	5.7538884134065485e+17
19364.0	5.752676592997716e+17
19365.0	5.751458117626538e+17
19366.0	5.750236330852351e+17
19367.0	5.748943315009535e+17
19368.0	5.7477556929385805e+17
19369.0	5.7464830376454816e+17
19370.0	5.745243266394794e+17
19371.0	5.7439675576483834e+17
19372.0	5.7426886025106765e+17
19373.0	5.741311766997673e+17
19374.0	5.7400504083633485e+17
19375.0	5.7388498587484154e+17
19376.0	5.737540678757034e+17
19377.0	5.736195323592703e+17
19378.0	5.7348532525684045e+17
19379.0	5.7335203258258765e+17
19380.0	5.732223874848084e+17
19381.0	5.730769340552533e+17
19382.0	5.729309518637737e+17
19383.0	5.727891455912617e+17
19384.0	5.7266478720395936e+17
19385.0	5.72526450180096e+17
19386.0	5.7236655855807136e+17
19387.0	5.722055776752979e+17
19388.0	5.720557779681278e+17
19389.0	5.718714543155881e+17
19390.0	5.715461294871892e+17
19391.0	5.666082943664087e+17
19392.0	5.705988301302439e+17
19393.0	5.711755052668245e+17
19394.0	5.710685478584319e+17
19395.0	5.7084140742246406e+17
19396.0	5.706919475937279e+17
19397.0	5.705363739377663e+17
19398.0	5.7031418788358816e+17
19399.0	5.700382279161172e+17
19400.0	5.6988894809292794e+17
19401.0	5.697513359846058e+17
19402.0	5.6953799152325965e+17
19403.0	5.693401125093375e+17
19404.0	5.691355561634474e+17
19405.0	5.6892859878823245e+17
19406.0	5.6870513766563834e+17
19407.0	5.6844711967238803e+17
19408.0	5.6822322192274765e+17
19409.0	5.6799677249836365e+17
19410.0	5.677635919151103e+17
19411.0	5.675358584744617e+17
19412.0	5.672477920679252e+17
19413.0	5.6689178436785485e+17
19414.0	5.666631146886483e+17
19415.0	5.663506057658367e+17
19416.0	5.6598609201725434e+17
19417.0	5.6562830823915494e+17
19418.0	5.653250467080873e+17
19419.0	5.650193836583594e+17
19420.0	5.6461311875918496e+17
19421.0	5.6419955087769594e+17
19422.0	5.638177462506836e+17
19423.0	5.6326519737985696e+17
19424.0	5.628152778850303e+17
19425.0	5.623066127586645e+17
19426.0	5.616652402731689e+17
19427.0	5.6105144890163194e+17
19428.0	5.603538868633598e+17
19429.0	5.5958010698137594e+17
19430.0	5.5855934082471245e+17
19431.0	5.572849540530177e+17
19432.0	5.5712257395042976e+17
19433.0	5.5630243917987834e+17
19434.0	5.552399948535124e+17
19435.0	5.5386228461841043e+17
19436.0	5.524486004670462e+17
19437.0	5.5106900971574605e+17
19438.0	5.4119288460192576e+17
19439.0	5.466121137640786e+17
19440.0	5.462830722230954e+17
19441.0	5.4427508749107174e+17
19442.0	5.4182046153222816e+17
19443.0	5.389037038731262e+17
19444.0	5.3548949714588986e+17
19445.0	5.3138554761161395e+17
19446.0	5.263450148874922e+17
19447.0	5.199176223337127e+17
19448.0	5.1142684577191296e+17
19449.0	4.990031761855828e+17
19450.0	4.762120115017036e+17
19451.0	4.582511576700269e+17
19452.0	4.8986698620600275e+17
19453.0	5.057256228563632e+17
19454.0	5.155780442106533e+17
19455.0	5.226539375394816e+17
19456.0	5.280462045271382e+17
19457.0	5.321359496314878e+17
19458.0	5.1226697003611866e+17
19459.0	5.365918095201676e+17
19460.0	5.4124817049190374e+17
19461.0	5.4349813301029536e+17
19462.0	5.4537799916148045e+17
19463.0	5.469464327880703e+17
19464.0	5.483020179996671e+17
19465.0	5.49567283068928e+17
19466.0	5.506810127581183e+17
19467.0	5.516304930832383e+17
19468.0	5.5250432997457914e+17
19469.0	5.531392641335293e+17
19470.0	5.539045651600723e+17
19471.0	5.546204426054313e+17
19472.0	5.5512437683650534e+17
19473.0	5.555998040610132e+17
19474.0	5.560498895104681e+17
19475.0	5.5648967703483725e+17
19476.0	5.5696303499946656e+17
19477.0	5.573623158931455e+17
19478.0	5.5759846303771296e+17
19479.0	5.5780190083263123e+17
19480.0	5.58165725876497e+17
19481.0	5.583457241530367e+17
19482.0	5.585694170109268e+17
19483.0	5.587000607025834e+17
19484.0	5.588315468201982e+17
19485.0	5.589712281184938e+17
19486.0	5.5898921860683104e+17
19487.0	5.5921089645117434e+17
19488.0	5.59291664835106e+17
19489.0	5.5934668816165536e+17
19490.0	5.593698551900842e+17
19491.0	5.5951118519937696e+17
19492.0	5.5953121698556576e+17
19493.0	5.595872695943168e+17
19494.0	5.596165347912362e+17
19495.0	5.596025051239764e+17
19496.0	5.5954607950178976e+17
19497.0	5.5945084048943776e+17
19498.0	5.5758702768728685e+17
19499.0	5.519456457457653e+17
19500.0	5.5928915363539616e+17
19501.0	5.5954170092803405e+17
19502.0	5.595813923258368e+17
19503.0	5.5960588111926605e+17
19504.0	5.596164672629418e+17
19505.0	5.595762459847339e+17
19506.0	5.595497218353834e+17
19507.0	5.5953685874387616e+17
19508.0	5.5949181688217594e+17
19509.0	5.593887025747284e+17
19510.0	5.5900187589782163e+17
19511.0	5.4354999816573376e+17
19512.0	5.570507104234149e+17
19513.0	5.5673438286643014e+17
19514.0	5.571579499686556e+17
19515.0	5.589951328550911e+17
19516.0	5.590661907961172e+17
19517.0	5.5905815038525434e+17
19518.0	5.589681766924287e+17
19519.0	5.5889758886297594e+17
19520.0	5.587587000085159e+17
19521.0	5.588127356463785e+17
19522.0	5.587292121639593e+17
19523.0	5.586433986614614e+17
19524.0	5.585166867103746e+17
19525.0	5.58530548535569e+17
19526.0	5.5846292111578445e+17
19527.0	5.583881013734057e+17
19528.0	5.582902666461182e+17
19529.0	5.582091552380245e+17
19530.0	5.581536357253119e+17
19531.0	5.580816042863274e+17
19532.0	5.580019732578303e+17
19533.0	5.5792139173014176e+17
19534.0	5.5783528357778765e+17
19535.0	5.577471382519807e+17
19536.0	5.576670812919123e+17
19537.0	5.5758352712116896e+17
19538.0	5.573765522696875e+17
19539.0	5.57381942509568e+17
19540.0	5.5732804458468685e+17
19541.0	5.5721991647614285e+17
19542.0	5.571546733783721e+17
19543.0	5.569601167425536e+17
19544.0	5.5697914776780794e+17
19545.0	5.5685123995074554e+17
19546.0	5.567515040153598e+17
19547.0	5.567247256212821e+17
19548.0	5.566388990465364e+17
19549.0	5.565433838392659e+17
19550.0	5.564641585397758e+17
19551.0	5.5637406768605856e+17
19552.0	5.56283400954402e+17
19553.0	5.561910442677589e+17
19554.0	5.5609975293433165e+17
19555.0	5.5599224369534285e+17
19556.0	5.5590608667934714e+17
19557.0	5.558233408208894e+17
19558.0	5.557336322080766e+17
19559.0	5.556427166842878e+17
19560.0	5.555063299418792e+17
19561.0	5.5545645931779405e+17
19562.0	5.5532402640595616e+17
19563.0	5.5527625712817485e+17
19564.0	5.5518324557086714e+17
19565.0	5.550897497112575e+17
19566.0	5.549935079107241e+17
19567.0	5.5490662758700365e+17
19568.0	5.548165441432234e+17
19569.0	5.547231685902335e+17
19570.0	5.546293727679828e+17
19571.0	5.545368155936084e+17
19572.0	5.544398814532949e+17
19573.0	5.54331809128994e+17
19574.0	5.5423764819258016e+17
19575.0	5.54155488977442e+17
19576.0	5.540497521115134e+17
19577.0	5.5393782976566605e+17
19578.0	5.538658847293439e+17
19579.0	5.5377046878726816e+17
19580.0	5.536764202582016e+17
19581.0	5.535877902805673e+17
19582.0	5.534932285085013e+17
19583.0	5.533987334957737e+17
19584.0	5.532995743470932e+17
19585.0	5.5319430011289594e+17
19586.0	5.53091072069905e+17
19587.0	5.5299997744933536e+17
19588.0	5.528835695749802e+17
19589.0	5.5281754249188685e+17
19590.0	5.527143224180736e+17
19591.0	5.526308575161002e+17
19592.0	5.5253634824273914e+17
19593.0	5.52426597987123e+17
19594.0	5.523087839723519e+17
19595.0	5.522461680467968e+17
19596.0	5.52106178257442e+17
19597.0	5.520536373996203e+17
19598.0	5.5192320195515725e+17
19599.0	5.5186459326764365e+17
19600.0	5.5176951510685e+17
19601.0	5.516658707092821e+17
19602.0	5.5156049986628256e+17
19603.0	5.514141877927934e+17
19604.0	5.5135460644618234e+17
19605.0	5.5125803553259514e+17
19606.0	5.51187836515123e+17
19607.0	5.510932817335636e+17
19608.0	5.5099545050152954e+17
19609.0	5.5089449870731936e+17
19610.0	5.5074628137123834e+17
19611.0	5.506246058704896e+17
19612.0	5.5060753966694394e+17
19613.0	5.5050951521730554e+17
19614.0	5.504086451421183e+17
19615.0	5.503075039051775e+17
19616.0	5.501190428513622e+17
19617.0	5.5003425359790086e+17
19618.0	5.4996276574071456e+17
19619.0	5.498425153945599e+17
19620.0	5.4974523319691936e+17
19621.0	5.496092337984851e+17
19622.0	5.4962736109103776e+17
19623.0	5.495211782307839e+17
19624.0	5.4940628799542605e+17
19625.0	5.493228384026623e+17
19626.0	5.492120600532308e+17
19627.0	5.490783061453481e+17
19628.0	5.488863446652245e+17
19629.0	5.4840920889098214e+17
19630.0	5.475601442581161e+17
19631.0	5.459674927202305e+17
19632.0	5.4821136783551136e+17
19633.0	5.484126284371285e+17
19634.0	5.484056262563157e+17
19635.0	5.4832057597733536e+17
19636.0	5.4812780443729894e+17
19637.0	5.4801134762939725e+17
19638.0	5.480629570022057e+17
19639.0	5.4797706954014714e+17
19640.0	5.478658312852821e+17
19641.0	5.477029752690006e+17
19642.0	5.4768076181558605e+17
19643.0	5.475837808388777e+17
19644.0	5.474916142241108e+17
19645.0	5.473854851907583e+17
19646.0	5.471712784504146e+17
19647.0	5.472085228912639e+17
19648.0	5.4711436712782496e+17
19649.0	5.470173011465555e+17
19650.0	5.4692100244329805e+17
19651.0	5.468233173128532e+17
19652.0	5.4672628341800954e+17
19653.0	5.4662750294507514e+17
19654.0	5.4653238850355194e+17
19655.0	5.46435307073263e+17
19656.0	5.463388282945535e+17
19657.0	5.4624177447676576e+17
19658.0	5.461441637952171e+17
19659.0	5.460481042371924e+17
19660.0	5.4595112381972474e+17
19661.0	5.458537760511317e+17
