# Flux units: erg / (cm m2 s)
# Wavelength units: Angstrom
wave	flux
19000.0	6.577410396214611e+17
19001.0	6.576115737602729e+17
19002.0	6.575007777947647e+17
19003.0	6.573791976445268e+17
19004.0	6.572581294090922e+17
19005.0	6.571378988460713e+17
19006.0	6.570176561195689e+17
19007.0	6.568942705311743e+17
19008.0	6.567739963473919e+17
19009.0	6.566407762345983e+17
19010.0	6.565121137923412e+17
19011.0	6.563972271221417e+17
19012.0	6.562242933817341e+17
19013.0	6.561717037301759e+17
19014.0	6.560500027140778e+17
19015.0	6.559312836384084e+17
19016.0	6.558124446056447e+17
19017.0	6.556931248357375e+17
19018.0	6.555714067628031e+17
19019.0	6.55452658536721e+17
19020.0	6.553313879261184e+17
19021.0	6.552124382336339e+17
19022.0	6.550913337174697e+17
19023.0	6.549662159514281e+17
19024.0	6.548434339932841e+17
19025.0	6.547156882860714e+17
19026.0	6.545812089733119e+17
19027.0	6.544254978839892e+17
19028.0	6.543547675880106e+17
19029.0	6.542389657905834e+17
19030.0	6.541209718401706e+17
19031.0	6.539970756651689e+17
19032.0	6.538677761081343e+17
19033.0	6.537220426388819e+17
19034.0	6.535503038556841e+17
19035.0	6.530174848510633e+17
19036.0	6.491056674351785e+17
19037.0	6.528809933908649e+17
19038.0	6.530777086951423e+17
19039.0	6.530104445719892e+17
19040.0	6.529074796516691e+17
19041.0	6.527943388605098e+17
19042.0	6.525926519078911e+17
19043.0	6.525620492872362e+17
19044.0	6.524413284799827e+17
19045.0	6.523176817262591e+17
19046.0	6.521991811738282e+17
19047.0	6.520750718582783e+17
19048.0	6.519311589266772e+17
19049.0	6.516503394385916e+17
19050.0	6.516389201663316e+17
19051.0	6.510050980571816e+17
19052.0	6.511275770467667e+17
19053.0	6.51308188250931e+17
19054.0	6.51227308298513e+17
19055.0	6.510761481688403e+17
19056.0	6.509939588246186e+17
19057.0	6.508856628740095e+17
19058.0	6.50682533360435e+17
19059.0	6.506177349287935e+17
19060.0	6.505279480922111e+17
19061.0	6.504102796896938e+17
19062.0	6.502905391611903e+17
19063.0	6.501704865764692e+17
19064.0	6.500441336578047e+17
19065.0	6.499186644090879e+17
19066.0	6.497780604338173e+17
19067.0	6.49691806040064e+17
19068.0	6.495733714081108e+17
19069.0	6.494537592253097e+17
19070.0	6.493321534199124e+17
19071.0	6.492094404580691e+17
19072.0	6.49064016178927e+17
19073.0	6.489750989613737e+17
19074.0	6.488555698257919e+17
19075.0	6.487357972108627e+17
19076.0	6.48615322189824e+17
19077.0	6.484948666023935e+17
19078.0	6.48374488399872e+17
19079.0	6.482565014399657e+17
19080.0	6.481354773845331e+17
19081.0	6.480123056357375e+17
19082.0	6.478939892831571e+17
19083.0	6.477656340736682e+17
19084.0	6.476328243036159e+17
19085.0	6.475244745960106e+17
19086.0	6.473115227215188e+17
19087.0	6.471709303504895e+17
19088.0	6.470820048841385e+17
19089.0	6.47001896194321e+17
19090.0	6.469117712968362e+17
19091.0	6.467959980905812e+17
19092.0	6.466144801477975e+17
19093.0	6.46574442160674e+17
19094.0	6.464602898431999e+17
19095.0	6.463434870751232e+17
19096.0	6.462249900179455e+17
19097.0	6.461068340974931e+17
19098.0	6.459528194643284e+17
19099.0	6.458269498692948e+17
19100.0	6.457387702900052e+17
19101.0	6.456250178295124e+17
19102.0	6.455048048825684e+17
19103.0	6.453901470116521e+17
19104.0	6.452693600043005e+17
19105.0	6.450683688867158e+17
19106.0	6.450154365605204e+17
19107.0	6.448720052748287e+17
19108.0	6.447125408426665e+17
19109.0	6.445063050974548e+17
19110.0	6.444646092417705e+17
19111.0	6.443856872603647e+17
19112.0	6.442814729966931e+17
19113.0	6.441956996896084e+17
19114.0	6.440610677740883e+17
19115.0	6.43945575935727e+17
19116.0	6.438387169536682e+17
19117.0	6.437173100281855e+17
19118.0	6.435756969033727e+17
19119.0	6.431207906607099e+17
19120.0	6.433176949882879e+17
19121.0	6.432126722026153e+17
19122.0	6.431278793140906e+17
19123.0	6.430133376953002e+17
19124.0	6.428571853651965e+17
19125.0	6.427737266847743e+17
19126.0	6.4264508276736e+17
19127.0	6.424518776061951e+17
19128.0	6.423845837733887e+17
19129.0	6.422943512920063e+17
19130.0	6.421838305427455e+17
19131.0	6.42066695725602e+17
19132.0	6.41948628095249e+17
19133.0	6.418246116835328e+17
19134.0	6.41700951298321e+17
19135.0	6.415926141736275e+17
19136.0	6.414737405378559e+17
19137.0	6.413494968647679e+17
19138.0	6.412356605181951e+17
19139.0	6.411194015416319e+17
19140.0	6.410009080496127e+17
19141.0	6.408822516088831e+17
19142.0	6.407599036213929e+17
19143.0	6.406424402504361e+17
19144.0	6.405228287666857e+17
19145.0	6.404077217557161e+17
19146.0	6.402383496085504e+17
19147.0	6.401664541349204e+17
19148.0	6.400238471697748e+17
19149.0	6.399004669640703e+17
19150.0	6.398140780030633e+17
19151.0	6.396946935709695e+17
19152.0	6.395682928372394e+17
19153.0	6.393974263993682e+17
19154.0	6.393231368170153e+17
19155.0	6.392064482738175e+17
19156.0	6.390797135336788e+17
19157.0	6.389157333740202e+17
19158.0	6.387383412282708e+17
19159.0	6.386941828268031e+17
19160.0	6.385792006662825e+17
19161.0	6.384176854990847e+17
19162.0	6.381173789250899e+17
19163.0	6.38124573065216e+17
19164.0	6.381050710196224e+17
19165.0	6.379480037720061e+17
19166.0	6.378885034453674e+17
19167.0	6.377651696566271e+17
19168.0	6.376625725068628e+17
19169.0	6.375535048742227e+17
19170.0	6.374380418367487e+17
19171.0	6.373167610899114e+17
19172.0	6.371995237220352e+17
19173.0	6.370883111223295e+17
19174.0	6.369714922061823e+17
19175.0	6.368553197720916e+17
19176.0	6.367368947171327e+17
19177.0	6.366036463626922e+17
19178.0	6.364888356793002e+17
19179.0	6.363680632122025e+17
19180.0	6.362590209551017e+17
19181.0	6.361391378202623e+17
19182.0	6.360247906074623e+17
19183.0	6.359120351330304e+17
19184.0	6.357937940682067e+17
19185.0	6.356742940131327e+17
19186.0	6.355554281368234e+17
19187.0	6.354276457993556e+17
19188.0	6.353128893622953e+17
19189.0	6.351902797201407e+17
19190.0	6.35065285476352e+17
19191.0	6.349376683245567e+17
19192.0	6.34813057859584e+17
19193.0	6.346707752539476e+17
19194.0	6.345216133606058e+17
19195.0	6.343741757456383e+17
19196.0	6.341737621837139e+17
19197.0	6.338804484232534e+17
19198.0	6.333026534774099e+17
19199.0	6.317793612573353e+17
19200.0	6.318213190473044e+17
19201.0	6.330044553101311e+17
19202.0	6.33312805790242e+17
19203.0	6.333470438238889e+17
19204.0	6.333159631224831e+17
19205.0	6.332428907271508e+17
19206.0	6.33151062942242e+17
19207.0	6.330384383300948e+17
19208.0	6.329322269485738e+17
19209.0	6.328318513119231e+17
19210.0	6.327195357500756e+17
19211.0	6.326056438289748e+17
19212.0	6.324868684098217e+17
19213.0	6.323513675743231e+17
19214.0	6.322297614194004e+17
19215.0	6.321314641302867e+17
19216.0	6.32024233812514e+17
19217.0	6.319051166973951e+17
19218.0	6.317600167078569e+17
19219.0	6.316607636067667e+17
19220.0	6.315591382772394e+17
19221.0	6.314366300673363e+17
19222.0	6.313278147919872e+17
19223.0	6.312144784763562e+17
19224.0	6.310950762883753e+17
19225.0	6.309774436772521e+17
19226.0	6.308641532193449e+17
19227.0	6.307478338448042e+17
19228.0	6.306332324571818e+17
19229.0	6.305160978497536e+17
19230.0	6.303981473103872e+17
19231.0	6.302800696836095e+17
19232.0	6.301633069711359e+17
19233.0	6.300409069742762e+17
19234.0	6.299291783353684e+17
19235.0	6.298101564309503e+17
19236.0	6.29695126105839e+17
19237.0	6.295766080072361e+17
19238.0	6.294519311324499e+17
19239.0	6.293425596224852e+17
19240.0	6.292260789769556e+17
19241.0	6.291068052045824e+17
19242.0	6.28990383628834e+17
19243.0	6.288610974935721e+17
19244.0	6.287571216760832e+17
19245.0	6.286390922838015e+17
19246.0	6.285215309758463e+17
19247.0	6.284041644933119e+17
19248.0	6.282857838979754e+17
19249.0	6.281640755418452e+17
19250.0	6.280372190969855e+17
19251.0	6.279137619957075e+17
19252.0	6.277919880686249e+17
19253.0	6.276977285660671e+17
19254.0	6.275812665152852e+17
19255.0	6.274477170797225e+17
19256.0	6.273444085060948e+17
19257.0	6.272281359679487e+17
19258.0	6.271063458228906e+17
19259.0	6.269735403869524e+17
19260.0	6.267637665366013e+17
19261.0	6.267449239055018e+17
19262.0	6.26627431174417e+17
19263.0	6.265062369700522e+17
19264.0	6.263698713389737e+17
19265.0	6.262669477325481e+17
19266.0	6.261494711495338e+17
19267.0	6.260463193729705e+17
19268.0	6.259281802297344e+17
19269.0	6.258100236102314e+17
19270.0	6.256884259837268e+17
19271.0	6.255574800924671e+17
19272.0	6.254520155067731e+17
19273.0	6.253174424513193e+17
19274.0	6.251844333120169e+17
19275.0	6.251003847027369e+17
19276.0	6.249805953804969e+17
19277.0	6.248621678089556e+17
19278.0	6.247403792018089e+17
19279.0	6.246186438623231e+17
19280.0	6.244993551302655e+17
19281.0	6.243801640555859e+17
19282.0	6.242575191812777e+17
19283.0	6.241286994526208e+17
19284.0	6.239999954168489e+17
19285.0	6.238784036623699e+17
19286.0	6.237357674070015e+17
19287.0	6.235208431610538e+17
19288.0	6.217276943848781e+17
19289.0	6.206418206064623e+17
19290.0	6.231335413394089e+17
19291.0	6.231185947972948e+17
19292.0	6.230500765772458e+17
19293.0	6.229424294155604e+17
19294.0	6.228267891687423e+17
19295.0	6.227125320635731e+17
19296.0	6.225551628959744e+17
19297.0	6.224641522313898e+17
19298.0	6.223544586687827e+17
19299.0	6.221908218129066e+17
19300.0	6.221142100541439e+17
19301.0	6.219947428544511e+17
19302.0	6.218726317752319e+17
19303.0	6.217452811714559e+17
19304.0	6.216270117950804e+17
19305.0	6.215027297441108e+17
19306.0	6.213769052378452e+17
19307.0	6.212456539313492e+17
19308.0	6.211094796304383e+17
19309.0	6.209273317730985e+17
19310.0	6.207768404251988e+17
19311.0	6.207074723692543e+17
19312.0	6.205932581857962e+17
19313.0	6.203802426277888e+17
19314.0	6.139524907619672e+17
19315.0	6.142822800075493e+17
19316.0	6.199580346198698e+17
19317.0	6.199911272589993e+17
19318.0	6.198963080964777e+17
19319.0	6.197858668292778e+17
19320.0	6.196502447783936e+17
19321.0	6.195062097925459e+17
19322.0	6.1940584953501e+17
19323.0	6.192739516066474e+17
19324.0	6.191505003773951e+17
19325.0	6.190155504637267e+17
19326.0	6.189119837306879e+17
19327.0	6.187984972589737e+17
19328.0	6.186125606868308e+17
19329.0	6.185587663612585e+17
19330.0	6.184330963451903e+17
19331.0	6.183059381900627e+17
19332.0	6.181819880483497e+17
19333.0	6.180507370913792e+17
19334.0	6.179261709462185e+17
19335.0	6.176626982606166e+17
19336.0	6.176684132794365e+17
19337.0	6.175439059244372e+17
19338.0	6.173987878294868e+17
19339.0	6.172836726396244e+17
19340.0	6.171469616775168e+17
19341.0	6.169660066103295e+17
19342.0	6.168526488338431e+17
19343.0	6.167576747616937e+17
19344.0	6.16570200068369e+17
19345.0	6.163709922290346e+17
19346.0	6.162854600944298e+17
19347.0	6.161559671799807e+17
19348.0	6.160971789063508e+17
19349.0	6.159600281015636e+17
19350.0	6.15798571864337e+17
19351.0	6.156846014398463e+17
19352.0	6.154765159366655e+17
19353.0	6.154157476719274e+17
19354.0	6.152787254924628e+17
19355.0	6.151324709508438e+17
19356.0	6.150004357988351e+17
19357.0	6.14861186863377e+17
19358.0	6.147176933621759e+17
19359.0	6.145595491571027e+17
19360.0	6.143777266379434e+17
19361.0	6.142878457091412e+17
19362.0	6.141396433327444e+17
19363.0	6.139906176144724e+17
19364.0	6.138430571063978e+17
19365.0	6.136941831520255e+17
19366.0	6.135440446149972e+17
19367.0	6.133914879219028e+17
19368.0	6.132387327683242e+17
19369.0	6.130777261604864e+17
19370.0	6.129223965431124e+17
19371.0	6.127587015961258e+17
19372.0	6.125970077515776e+17
19373.0	6.124338831600297e+17
19374.0	6.122732262173353e+17
19375.0	6.121080555743914e+17
19376.0	6.11941937577984e+17
19377.0	6.117710445761876e+17
19378.0	6.115965310511786e+17
19379.0	6.114111258274474e+17
19380.0	6.112368414512468e+17
19381.0	6.110607598157823e+17
19382.0	6.108758150567252e+17
19383.0	6.106961169525418e+17
19384.0	6.105155699212287e+17
19385.0	6.103078427514195e+17
19386.0	6.101120521513642e+17
19387.0	6.09910541778944e+17
19388.0	6.097001285069482e+17
19389.0	6.094622229004287e+17
19390.0	6.090621512406356e+17
19391.0	6.054438231867368e+17
19392.0	6.080641502281725e+17
19393.0	6.085379916562431e+17
19394.0	6.083769739334996e+17
19395.0	6.0814424290973e+17
19396.0	6.079219464754516e+17
19397.0	6.076961709359103e+17
19398.0	6.074301360198996e+17
19399.0	6.071434017942186e+17
19400.0	6.069069303600468e+17
19401.0	6.06675648118784e+17
19402.0	6.064093583289002e+17
19403.0	6.061362541931178e+17
19404.0	6.058532809998335e+17
19405.0	6.055571876042067e+17
19406.0	6.052407869265236e+17
19407.0	6.048929531559935e+17
19408.0	6.045559394314922e+17
19409.0	6.042466415979177e+17
19410.0	6.039051763187711e+17
19411.0	6.035426245956948e+17
19412.0	6.031469810024447e+17
19413.0	6.027140977917951e+17
19414.0	6.023212445990911e+17
19415.0	6.018781111386112e+17
19416.0	6.014029493436415e+17
19417.0	6.009446977241087e+17
19418.0	6.004753883813206e+17
19419.0	5.999736429477887e+17
19420.0	5.99450006393105e+17
19421.0	5.988923647983616e+17
19422.0	5.983043749675008e+17
19423.0	5.976697321029631e+17
19424.0	5.970145699343018e+17
19425.0	5.963109273436159e+17
19426.0	5.955511284749652e+17
19427.0	5.947610008038057e+17
19428.0	5.939073722089471e+17
19429.0	5.929687290565972e+17
19430.0	5.917405163290624e+17
19431.0	5.904782115296598e+17
19432.0	5.898948915669673e+17
19433.0	5.887645364955818e+17
19434.0	5.874601882025983e+17
19435.0	5.858972252067155e+17
19436.0	5.842371830874112e+17
19437.0	5.825129721014953e+17
19438.0	5.750362870207839e+17
19439.0	5.776578698368338e+17
19440.0	5.768310549381119e+17
19441.0	5.7449289137957523e+17
19442.0	5.717094172371627e+17
19443.0	5.685423235923966e+17
19444.0	5.6488567980250426e+17
19445.0	5.6056630326504115e+17
19446.0	5.554059294889301e+17
19447.0	5.490225610489852e+17
19448.0	5.4078785534470854e+17
19449.0	5.2930081501566285e+17
19450.0	5.1001912962580365e+17
19451.0	4.954214519625052e+17
19452.0	5.213101701988351e+17
19453.0	5.3538665714592474e+17
19454.0	5.447222836243111e+17
19455.0	5.516779535903403e+17
19456.0	5.57119521545694e+17
19457.0	5.61416128045602e+17
19458.0	5.5016953702866054e+17
19459.0	5.6681106309994157e+17
19460.0	5.712554020743849e+17
19461.0	5.73778818044177e+17
19462.0	5.759336387881643e+17
19463.0	5.777916562505727e+17
19464.0	5.79456491201058e+17
19465.0	5.809676078459561e+17
19466.0	5.823238951840425e+17
19467.0	5.835438484881407e+17
19468.0	5.846438860117332e+17
19469.0	5.856173023210154e+17
19470.0	5.86569042956561e+17
19471.0	5.873652441197226e+17
19472.0	5.881265762162004e+17
19473.0	5.888349032153087e+17
19474.0	5.894343553100457e+17
19475.0	5.900237837871786e+17
19476.0	5.906068901199871e+17
19477.0	5.911201109595475e+17
19478.0	5.915774436070739e+17
19479.0	5.919524320007508e+17
19480.0	5.923862394262868e+17
19481.0	5.927329948412586e+17
19482.0	5.930563438728532e+17
19483.0	5.933425175298047e+17
19484.0	5.936314786512895e+17
19485.0	5.938771000994474e+17
19486.0	5.940587592504662e+17
19487.0	5.943279389857108e+17
19488.0	5.945261552216746e+17
19489.0	5.946807192387584e+17
19490.0	5.948308652556287e+17
19491.0	5.950378387090089e+17
19492.0	5.95177399001634e+17
19493.0	5.952925133526356e+17
19494.0	5.953914505527295e+17
19495.0	5.954693774355114e+17
19496.0	5.955109156552701e+17
19497.0	5.954729348344489e+17
19498.0	5.939085377361231e+17
19499.0	5.901879488457382e+17
19500.0	5.954817419640832e+17
19501.0	5.957937947563348e+17
19502.0	5.958873820517715e+17
19503.0	5.959509233805994e+17
19504.0	5.959869418962944e+17
19505.0	5.960061478240253e+17
19506.0	5.960216750675284e+17
19507.0	5.96033914605841e+17
19508.0	5.960191164022783e+17
19509.0	5.95960336097826e+17
19510.0	5.956424732158633e+17
19511.0	5.854132190227063e+17
19512.0	5.941274091017554e+17
19513.0	5.94058358764338e+17
19514.0	5.943858802895521e+17
19515.0	5.958085037610324e+17
19516.0	5.958957162037247e+17
19517.0	5.959087460188159e+17
19518.0	5.958877949810004e+17
19519.0	5.958497301342889e+17
19520.0	5.957768185206099e+17
19521.0	5.957901609511593e+17
19522.0	5.957331219120127e+17
19523.0	5.956815396623702e+17
19524.0	5.956215382562132e+17
19525.0	5.956085877134675e+17
19526.0	5.95559288283682e+17
19527.0	5.955027927564287e+17
19528.0	5.954402813389481e+17
19529.0	5.953776733825705e+17
19530.0	5.953247138633044e+17
19531.0	5.95267576397824e+17
19532.0	5.952083814165161e+17
19533.0	5.951423214081364e+17
19534.0	5.950746302349311e+17
19535.0	5.95003882602496e+17
19536.0	5.949309838513492e+17
19537.0	5.948590749559465e+17
19538.0	5.947236879958017e+17
19539.0	5.94687286190626e+17
19540.0	5.946337334569642e+17
19541.0	5.945540736974847e+17
19542.0	5.944834969829376e+17
19543.0	5.943562298458112e+17
19544.0	5.943228445141673e+17
19545.0	5.942095908962303e+17
19546.0	5.941199264634195e+17
19547.0	5.94080935514385e+17
19548.0	5.940011564968618e+17
19549.0	5.939102596377257e+17
19550.0	5.938338474579284e+17
19551.0	5.937485520917844e+17
19552.0	5.936622735807827e+17
19553.0	5.935772270766762e+17
19554.0	5.934923758174207e+17
19555.0	5.933983478404436e+17
19556.0	5.933128013053951e+17
19557.0	5.932279467606015e+17
19558.0	5.931394500919295e+17
19559.0	5.930500139690665e+17
19560.0	5.929378913452031e+17
19561.0	5.928666933843283e+17
19562.0	5.927580866357929e+17
19563.0	5.926860843472212e+17
19564.0	5.925939370262527e+17
19565.0	5.925013112051027e+17
19566.0	5.924066807862612e+17
19567.0	5.923147401745748e+17
19568.0	5.922190040672937e+17
19569.0	5.921255289694889e+17
19570.0	5.920316120017578e+17
19571.0	5.91937065259281e+17
19572.0	5.918406931557033e+17
19573.0	5.917414708128425e+17
19574.0	5.916433940043092e+17
19575.0	5.915580222319274e+17
19576.0	5.914570990288895e+17
19577.0	5.913516806504448e+17
19578.0	5.912744147200682e+17
19579.0	5.911764830344531e+17
19580.0	5.910792932513108e+17
19581.0	5.909832154480639e+17
19582.0	5.908859277978282e+17
19583.0	5.907875896142506e+17
19584.0	5.906861115047935e+17
19585.0	5.905794146325844e+17
19586.0	5.904752805500244e+17
19587.0	5.903813956687188e+17
19588.0	5.90267498504738e+17
19589.0	5.901880065873235e+17
19590.0	5.90084938207505e+17
19591.0	5.899951754182655e+17
19592.0	5.898970367437482e+17
19593.0	5.897900678010196e+17
19594.0	5.896716240814077e+17
19595.0	5.895955962396671e+17
19596.0	5.894491620420266e+17
19597.0	5.893945847797076e+17
19598.0	5.892691871137792e+17
19599.0	5.891932997812223e+17
19600.0	5.890937999851519e+17
19601.0	5.889894558378666e+17
19602.0	5.888802987966463e+17
19603.0	5.88746652262946e+17
19604.0	5.886686323365206e+17
19605.0	5.885676306300927e+17
19606.0	5.884883854076586e+17
19607.0	5.883892403798015e+17
19608.0	5.88287012119074e+17
19609.0	5.88183586803985e+17
19610.0	5.880598708442452e+17
19611.0	5.879468753158144e+17
19612.0	5.878826058558121e+17
19613.0	5.877793654396244e+17
19614.0	5.876738898788351e+17
19615.0	5.875675385473705e+17
19616.0	5.874149421481984e+17
19617.0	5.873269954925908e+17
19618.0	5.87222371025988e+17
19619.0	5.871039881936896e+17
19620.0	5.870087536552618e+17
19621.0	5.86901478318626e+17
19622.0	5.868534369703252e+17
19623.0	5.867449891160063e+17
19624.0	5.866303737473706e+17
19625.0	5.86529774903842e+17
19626.0	5.864113540431871e+17
19627.0	5.862701442706089e+17
19628.0	5.860826296614912e+17
19629.0	5.857183939952637e+17
19630.0	5.849240108531711e+17
19631.0	5.83892277849839e+17
19632.0	5.853608637628415e+17
19633.0	5.8555895368035e+17
19634.0	5.855513080933034e+17
19635.0	5.854733133327018e+17
19636.0	5.853388644985514e+17
19637.0	5.852193376698367e+17
19638.0	5.852010879036073e+17
19639.0	5.851047697667412e+17
19640.0	5.849900793200637e+17
19641.0	5.84847470886912e+17
19642.0	5.847967315525631e+17
19643.0	5.846940237430783e+17
19644.0	5.845918173626367e+17
19645.0	5.844837133713407e+17
19646.0	5.843323056379219e+17
19647.0	5.842906822038868e+17
19648.0	5.841893046179156e+17
19649.0	5.840860323949225e+17
19650.0	5.839835612839935e+17
19651.0	5.838799967180118e+17
19652.0	5.837767890873001e+17
19653.0	5.836721634323114e+17
19654.0	5.835704341539497e+17
19655.0	5.834693237451434e+17
19656.0	5.833666076868607e+17
19657.0	5.832636254999892e+17
19658.0	5.831597885139625e+17
19659.0	5.830568895840255e+17
19660.0	5.829534797878612e+17
19661.0	5.828498038631082e+17
19662.0	5.827453408073044e+17
19663.0	5.826373453086717e+17
19664.0	5.825315914558121e+17
19665.0	5.82434832847121e+17
