# Flux units: erg / (cm m2 s)
# Wavelength units: Angstrom
wave	flux
19000.0	4.1017435254074016e+17
19001.0	4.1010589185256096e+17
19002.0	4.100373516124159e+17
19003.0	4.0996878683559245e+17
19004.0	4.0989450934681594e+17
19005.0	4.0982887163494394e+17
19006.0	4.097599718031359e+17
19007.0	4.096928391714132e+17
19008.0	4.096237817036799e+17
19009.0	4.095553326197418e+17
19010.0	4.0948050910248954e+17
19011.0	4.0941385511075834e+17
19012.0	4.093405019766783e+17
19013.0	4.0928039927807994e+17
19014.0	4.0920655953483085e+17
19015.0	4.091373593209514e+17
19016.0	4.0907073210286086e+17
19017.0	4.090049193487018e+17
19018.0	4.0893438338880845e+17
19019.0	4.088668959888725e+17
19020.0	4.0879701336173216e+17
19021.0	4.0872865494466554e+17
19022.0	4.086615627180715e+17
19023.0	4.085893896514218e+17
19024.0	4.0852228917602976e+17
19025.0	4.0845329923659085e+17
19026.0	4.083851199862101e+17
19027.0	4.0831579590055245e+17
19028.0	4.082457712962218e+17
19029.0	4.0817579849154554e+17
19030.0	4.0810559101556045e+17
19031.0	4.080412338946048e+17
19032.0	4.0797427637507405e+17
19033.0	4.0790037203954336e+17
19034.0	4.078350890958846e+17
19035.0	4.0776817170186234e+17
19036.0	4.0766331368243194e+17
19037.0	4.0762953059095885e+17
19038.0	4.075607592446634e+17
19039.0	4.0749260865535994e+17
19040.0	4.0742312917073914e+17
19041.0	4.0735541031512736e+17
19042.0	4.072140422075731e+17
19043.0	4.072188090340693e+17
19044.0	4.071529046343679e+17
19045.0	4.070822382316201e+17
19046.0	4.070125075081897e+17
19047.0	4.0694395957848736e+17
19048.0	4.068666461825706e+17
19049.0	4.0665472191255866e+17
19050.0	4.067409744887808e+17
19051.0	4.066600291052202e+17
19052.0	4.066024313847808e+17
19053.0	4.065354141663231e+17
19054.0	4.0646484038778874e+17
19055.0	4.0637492345787725e+17
19056.0	4.0632539376080205e+17
19057.0	4.062633121895764e+17
19058.0	4.0611603521645203e+17
19059.0	4.060914514919423e+17
19060.0	4.060583478777172e+17
19061.0	4.059886268710911e+17
19062.0	4.0591755383057056e+17
19063.0	4.058539466511701e+17
19064.0	4.057852789041834e+17
19065.0	4.0571605597115725e+17
19066.0	4.0562109490135034e+17
19067.0	4.0557478181601274e+17
19068.0	4.055137423895211e+17
19069.0	4.0544519704630605e+17
19070.0	4.0537278322660685e+17
19071.0	4.0530653216767994e+17
19072.0	4.0521126113880736e+17
19073.0	4.051743885230079e+17
19074.0	4.051004353238357e+17
19075.0	4.0503689406491296e+17
19076.0	4.049671121709738e+17
19077.0	4.048999292775083e+17
19078.0	4.048319276559018e+17
19079.0	4.0476244390707194e+17
19080.0	4.0469650057024845e+17
19081.0	4.0462885686258336e+17
19082.0	4.0456245592719354e+17
19083.0	4.0449178176498336e+17
19084.0	4.044238253020499e+17
19085.0	4.043569358001493e+17
19086.0	4.042457317288617e+17
19087.0	4.041575032160254e+17
19088.0	4.0411444400182605e+17
19089.0	4.040841158983679e+17
19090.0	4.040185090845354e+17
19091.0	4.0394579788868256e+17
19092.0	4.038218810916864e+17
19093.0	4.038136484418901e+17
19094.0	4.0374692622281376e+17
19095.0	4.0367655041542816e+17
19096.0	4.036111874304682e+17
19097.0	4.0354302027366394e+17
19098.0	4.03446663689011e+17
19099.0	4.033708059262976e+17
19100.0	4.0334157561200634e+17
19101.0	4.0327257350908576e+17
19102.0	4.0320402984359245e+17
19103.0	4.031354712883199e+17
19104.0	4.0307152940346016e+17
19105.0	4.0293444724544877e+17
19106.0	4.0293479047932576e+17
19107.0	4.028511773087061e+17
19108.0	4.02772812051251e+17
19109.0	4.0272969817128954e+17
19110.0	4.0266351540961274e+17
19111.0	4.025734943211519e+17
19112.0	4.025043538761044e+17
19113.0	4.02462702829568e+17
19114.0	4.023801598356138e+17
19115.0	4.0232496999519565e+17
19116.0	4.022566646360746e+17
19117.0	4.0219133932994554e+17
19118.0	4.021239195282091e+17
19119.0	4.019163453805907e+17
19120.0	4.019895396204544e+17
19121.0	4.0192024657264634e+17
19122.0	4.0185696906554016e+17
19123.0	4.017907104568661e+17
19124.0	4.0172160629254816e+17
19125.0	4.016543699217066e+17
19126.0	4.015863752207017e+17
19127.0	4.015012446207999e+17
19128.0	4.014499900162047e+17
19129.0	4.0138523583447034e+17
19130.0	4.013186830652757e+17
19131.0	4.012508654338047e+17
19132.0	4.011819524598441e+17
19133.0	4.011165087345322e+17
19134.0	4.0104871396201805e+17
19135.0	4.0098309687214074e+17
19136.0	4.009139857173162e+17
19137.0	4.008429846091093e+17
19138.0	4.007805369450496e+17
19139.0	4.0071434327818234e+17
19140.0	4.00647470134067e+17
19141.0	4.005795727409151e+17
19142.0	4.0051160152801274e+17
19143.0	4.0044362947624954e+17
19144.0	4.003758090485759e+17
19145.0	4.0030996413808634e+17
19146.0	4.002392295778986e+17
19147.0	4.0017465666000205e+17
19148.0	4.000851291712171e+17
19149.0	4.000105285113174e+17
19150.0	3.999766375563263e+17
19151.0	3.9990785873018874e+17
19152.0	3.9984272139878394e+17
19153.0	3.997212132507646e+17
19154.0	3.9970288393256954e+17
19155.0	3.9964208176387405e+17
19156.0	3.9957386217826976e+17
19157.0	3.9949012059204275e+17
19158.0	3.994013506644649e+17
19159.0	3.993696012511915e+17
19160.0	3.9930484769860256e+17
19161.0	3.9923900243858765e+17
19162.0	3.9916950708551674e+17
19163.0	3.991059495387135e+17
19164.0	3.9903866423432525e+17
19165.0	3.989122765728425e+17
19166.0	3.9890160213906765e+17
19167.0	3.988391638422868e+17
19168.0	3.987714969261396e+17
19169.0	3.987046718068054e+17
19170.0	3.9863876468080634e+17
19171.0	3.985697778870954e+17
19172.0	3.9850455331416736e+17
19173.0	3.98439761383697e+17
19174.0	3.983711522171562e+17
19175.0	3.983041205982549e+17
19176.0	3.982392666619904e+17
19177.0	3.981707353696938e+17
19178.0	3.981046471895721e+17
19179.0	3.9803760165956256e+17
19180.0	3.9797207971048096e+17
19181.0	3.9790420238008314e+17
19182.0	3.978363435745279e+17
19183.0	3.977720652365823e+17
19184.0	3.9770626744210765e+17
19185.0	3.976387416642901e+17
19186.0	3.975724322346323e+17
19187.0	3.9750649106486605e+17
19188.0	3.974410688703146e+17
19189.0	3.9737449701703674e+17
19190.0	3.973077069201406e+17
19191.0	3.972414219572564e+17
19192.0	3.9717495286442656e+17
19193.0	3.971009429023402e+17
19194.0	3.9703166404526074e+17
19195.0	3.9697679010583885e+17
19196.0	3.9690954667458554e+17
19197.0	3.968409997235542e+17
19198.0	3.9677331113683616e+17
19199.0	3.966746978069161e+17
19200.0	3.9662119498547194e+17
19201.0	3.965771884877142e+17
19202.0	3.9651187415668045e+17
19203.0	3.964446574990676e+17
19204.0	3.9638024137823565e+17
19205.0	3.963129107753642e+17
19206.0	3.962468412598954e+17
19207.0	3.9617499597810336e+17
19208.0	3.9611103997242016e+17
19209.0	3.960479904956416e+17
19210.0	3.9597982354855245e+17
19211.0	3.9591532193382394e+17
19212.0	3.958489344202069e+17
19213.0	3.95782499930385e+17
19214.0	3.957161371631616e+17
19215.0	3.956509065783979e+17
19216.0	3.9558487173584205e+17
19217.0	3.955205008435882e+17
19218.0	3.9544448055159456e+17
19219.0	3.9538404461554336e+17
19220.0	3.953214328143872e+17
19221.0	3.952516514796885e+17
19222.0	3.9518527654898336e+17
19223.0	3.951219267600383e+17
19224.0	3.950543903566506e+17
19225.0	3.949898723841366e+17
19226.0	3.949260480096938e+17
19227.0	3.948588943365461e+17
19228.0	3.947934842355712e+17
19229.0	3.9472106188745376e+17
19230.0	3.946602879604053e+17
19231.0	3.945971983581183e+17
19232.0	3.945308662093142e+17
19233.0	3.9446329716026016e+17
19234.0	3.943963834712063e+17
19235.0	3.9433156756329805e+17
19236.0	3.9426608462124365e+17
19237.0	3.9419731963630925e+17
19238.0	3.941327737017685e+17
19239.0	3.9406861462186656e+17
19240.0	3.940010019520512e+17
19241.0	3.9393758554357754e+17
19242.0	3.938669577983317e+17
19243.0	3.93804990451985e+17
19244.0	3.9373859783529805e+17
19245.0	3.9367460408087885e+17
19246.0	3.9360947870324045e+17
19247.0	3.9354410369460915e+17
19248.0	3.9347710255431674e+17
19249.0	3.934077062567253e+17
19250.0	3.933339993331029e+17
19251.0	3.9326973469655034e+17
19252.0	3.932134306392746e+17
19253.0	3.9314822249403725e+17
19254.0	3.9308382797387085e+17
19255.0	3.9301612687414605e+17
19256.0	3.929502535821995e+17
19257.0	3.928859711198549e+17
19258.0	3.9281944344657914e+17
19259.0	3.927564568144554e+17
19260.0	3.926877111932244e+17
19261.0	3.926252868075519e+17
19262.0	3.9255876885108045e+17
19263.0	3.9249128522601805e+17
19264.0	3.924222258009429e+17
19265.0	3.9235858807302816e+17
19266.0	3.922934113151657e+17
19267.0	3.9223239300000416e+17
19268.0	3.9216400718015136e+17
19269.0	3.921000074138966e+17
19270.0	3.920348747661312e+17
19271.0	3.919642353467392e+17
19272.0	3.919048884617216e+17
19273.0	3.91839322472448e+17
19274.0	3.917719162322944e+17
19275.0	3.9170929688139085e+17
19276.0	3.916440158251691e+17
19277.0	3.9157961312610976e+17
19278.0	3.9151297045899936e+17
19279.0	3.9144858684402336e+17
19280.0	3.913834848146772e+17
19281.0	3.9131846086929056e+17
19282.0	3.912528516087808e+17
19283.0	3.911862875848704e+17
19284.0	3.9112279651778554e+17
19285.0	3.910550373269503e+17
19286.0	3.9098981610946566e+17
19287.0	3.9092380293748045e+17
19288.0	3.908553457445546e+17
19289.0	3.9076964940294816e+17
19290.0	3.9073117274548896e+17
19291.0	3.9066379230030483e+17
19292.0	3.906003763112618e+17
19293.0	3.9053469665634976e+17
19294.0	3.904711904897706e+17
19295.0	3.904039482469034e+17
19296.0	3.903065161728e+17
19297.0	3.9026962677978445e+17
19298.0	3.902083806440106e+17
19299.0	3.901091078296917e+17
19300.0	3.90081070235648e+17
19301.0	3.900149636005887e+17
19302.0	3.899503818746538e+17
19303.0	3.898826630190421e+17
19304.0	3.89818874855424e+17
19305.0	3.8975381420987725e+17
19306.0	3.896901316029098e+17
19307.0	3.8962446991359994e+17
19308.0	3.895598490408276e+17
19309.0	3.894930741832363e+17
19310.0	3.8942792182224205e+17
19311.0	3.8936351940280314e+17
19312.0	3.892992579119786e+17
19313.0	3.8923678857734816e+17
19314.0	3.8889712768778125e+17
19315.0	3.888547859092828e+17
19316.0	3.890006024257536e+17
19317.0	3.889772278491818e+17
19318.0	3.889120218010965e+17
19319.0	3.888439139936938e+17
19320.0	3.887709316360874e+17
19321.0	3.886882105240234e+17
19322.0	3.886522007464618e+17
19323.0	3.8858895245967354e+17
19324.0	3.8852387902149965e+17
19325.0	3.884586748608511e+17
19326.0	3.883934623814997e+17
19327.0	3.8833055152646816e+17
19328.0	3.8820221274466976e+17
19329.0	3.8820075711146656e+17
19330.0	3.8813665661201056e+17
19331.0	3.8807221707298125e+17
19332.0	3.880065211301887e+17
19333.0	3.879439124048555e+17
19334.0	3.8787262804131834e+17
19335.0	3.876865448083457e+17
19336.0	3.87746293297971e+17
19337.0	3.876835812529493e+17
19338.0	3.8761684260618234e+17
19339.0	3.8755208513890976e+17
19340.0	3.8748331526062074e+17
19341.0	3.873793025332566e+17
19342.0	3.873453529279146e+17
19343.0	3.872964612543829e+17
19344.0	3.871859136615766e+17
19345.0	3.8712436287952205e+17
19346.0	3.8709641923788806e+17
19347.0	3.869804828732073e+17
19348.0	3.8697472668030285e+17
19349.0	3.869095827778219e+17
19350.0	3.868225002187434e+17
19351.0	3.8678024218651296e+17
19352.0	3.86653942325794e+17
19353.0	3.8665106000008525e+17
19354.0	3.8658807812150605e+17
19355.0	3.8652289668000416e+17
19356.0	3.8645785113395194e+17
19357.0	3.8639450365187405e+17
19358.0	3.8633001566863354e+17
19359.0	3.862525639305897e+17
19360.0	3.861518134629717e+17
19361.0	3.861360490315774e+17
19362.0	3.8607198264579405e+17
19363.0	3.860078057401002e+17
19364.0	3.85944203034624e+17
19365.0	3.85879118062114e+17
19366.0	3.8581061011810976e+17
19367.0	3.8574974216874656e+17
19368.0	3.8568631751147514e+17
19369.0	3.856232017646932e+17
19370.0	3.855591529949866e+17
19371.0	3.854914680433322e+17
19372.0	3.85428730482961e+17
19373.0	3.853625461134677e+17
19374.0	3.852976725338793e+17
19375.0	3.85236323218227e+17
19376.0	3.8517206822857376e+17
19377.0	3.851082430851753e+17
19378.0	3.850441711069866e+17
19379.0	3.849796847315627e+17
19380.0	3.849105684736682e+17
19381.0	3.848471155747498e+17
19382.0	3.847847222269268e+17
19383.0	3.8471941768260256e+17
19384.0	3.846516485652479e+17
19385.0	3.8459261583359994e+17
19386.0	3.845278368355668e+17
19387.0	3.844625710885546e+17
19388.0	3.8439795559847245e+17
19389.0	3.843347071019691e+17
19390.0	3.8427001324830714e+17
19391.0	3.8417014372433914e+17
19392.0	3.841407403251029e+17
19393.0	3.8407605402118816e+17
19394.0	3.8401244397567994e+17
19395.0	3.8393033670000634e+17
19396.0	3.8387929915064314e+17
19397.0	3.838171745878014e+17
19398.0	3.837383663419392e+17
19399.0	3.836587565645823e+17
19400.0	3.836109386328746e+17
19401.0	3.835587616309247e+17
19402.0	3.834956916020566e+17
19403.0	3.8343100956235085e+17
19404.0	3.833628845583018e+17
19405.0	3.832973004636159e+17
19406.0	3.832348946027861e+17
19407.0	3.831473318658047e+17
19408.0	3.83097222795537e+17
19409.0	3.830394164084736e+17
19410.0	3.8297369970387616e+17
19411.0	3.8290754553337165e+17
19412.0	3.8284143428457805e+17
19413.0	3.8275416682659834e+17
19414.0	3.82711203172625e+17
19415.0	3.8264428291249485e+17
19416.0	3.825752834659668e+17
19417.0	3.8251148789241165e+17
19418.0	3.8244480600855885e+17
19419.0	3.82377523220753e+17
19420.0	3.823095550836736e+17
19421.0	3.822420695012693e+17
19422.0	3.821720602760533e+17
19423.0	3.82106131898914e+17
19424.0	3.82037171179793e+17
19425.0	3.819662715038378e+17
19426.0	3.818983474768554e+17
19427.0	3.818275633539754e+17
19428.0	3.8175294850334714e+17
19429.0	3.8168450620020045e+17
19430.0	3.8160926583903565e+17
19431.0	3.81521702682624e+17
19432.0	3.814594940938922e+17
19433.0	3.813820627681279e+17
19434.0	3.813064998649855e+17
19435.0	3.812238678818815e+17
19436.0	3.8113577945879885e+17
19437.0	3.8106041326851405e+17
19438.0	3.808948183717204e+17
19439.0	3.8088870985727994e+17
19440.0	3.8079667116878496e+17
19441.0	3.8070266996544845e+17
19442.0	3.806053535143253e+17
19443.0	3.805051276143274e+17
19444.0	3.803999488704512e+17
19445.0	3.8029436376842234e+17
19446.0	3.8018517331258016e+17
19447.0	3.8007664324990285e+17
19448.0	3.799683025600512e+17
19449.0	3.798679564233385e+17
19450.0	3.7976855694103885e+17
19451.0	3.796920824758271e+17
19452.0	3.7965460371319456e+17
19453.0	3.796272030242133e+17
19454.0	3.795999620683093e+17
19455.0	3.795780428453204e+17
19456.0	3.7954822490903885e+17
19457.0	3.794807424024576e+17
19458.0	3.788810413058733e+17
19459.0	3.792617948403029e+17
19460.0	3.794391767100074e+17
19461.0	3.794377704996863e+17
19462.0	3.7941288960873805e+17
19463.0	3.7938082904801274e+17
19464.0	3.793424989115733e+17
19465.0	3.7930301009865376e+17
19466.0	3.792612778224298e+17
19467.0	3.792164405029546e+17
19468.0	3.7917069826239136e+17
19469.0	3.7907574033831245e+17
19470.0	3.7907259971338234e+17
19471.0	3.7902082676271776e+17
19472.0	3.7896956544723616e+17
19473.0	3.7891595343407776e+17
19474.0	3.788143072029353e+17
19475.0	3.787943061749759e+17
19476.0	3.787511229491883e+17
19477.0	3.7869387307636045e+17
19478.0	3.7863880570961914e+17
19479.0	3.78536977375778e+17
19480.0	3.7852390093400736e+17
19481.0	3.784624913601876e+17
19482.0	3.7840402667711136e+17
19483.0	3.7834794435870714e+17
19484.0	3.78287119470865e+17
19485.0	3.7822973817651194e+17
19486.0	3.7812197301507424e+17
19487.0	3.78108993671441e+17
19488.0	3.7805097169715194e+17
19489.0	3.7799153414526285e+17
19490.0	3.779135680457386e+17
19491.0	3.778681150024363e+17
19492.0	3.778088362748586e+17
19493.0	3.7774702544595616e+17
19494.0	3.776862933920427e+17
19495.0	3.776285218876074e+17
19496.0	3.7756005805370016e+17
19497.0	3.775069922088277e+17
19498.0	3.7744602450493434e+17
19499.0	3.773264467154259e+17
19500.0	3.7732290224892576e+17
19501.0	3.7728103253934074e+17
19502.0	3.7722840094474234e+17
19503.0	3.771662837219328e+17
19504.0	3.771030371827711e+17
19505.0	3.7703906908351136e+17
19506.0	3.7697952073209165e+17
19507.0	3.769176151818238e+17
19508.0	3.7685461170257914e+17
19509.0	3.767931679451818e+17
19510.0	3.767234110772564e+17
19511.0	3.7627143483555776e+17
19512.0	3.766014221221887e+17
19513.0	3.765212379348991e+17
19514.0	3.764676203293354e+17
19515.0	3.764149470014122e+17
19516.0	3.763498201557674e+17
19517.0	3.762933704163327e+17
19518.0	3.7621951389586765e+17
19519.0	3.7615688846322336e+17
19520.0	3.760642981538473e+17
19521.0	3.760475052791125e+17
19522.0	3.759777511374847e+17
19523.0	3.759138551802539e+17
19524.0	3.7582651229470726e+17
19525.0	3.757980970734933e+17
19526.0	3.7573386885748045e+17
19527.0	3.756742887691604e+17
19528.0	3.7560752278951245e+17
19529.0	3.7554452308514125e+17
19530.0	3.754875542306816e+17
19531.0	3.75424880283921e+17
19532.0	3.753624763105279e+17
19533.0	3.7529820468346874e+17
19534.0	3.752399093104638e+17
19535.0	3.7517867841399456e+17
19536.0	3.7511496973243725e+17
19537.0	3.7505422327807994e+17
19538.0	3.7495188023323315e+17
19539.0	3.74925291491601e+17
19540.0	3.7486944412412576e+17
19541.0	3.7479707818939725e+17
19542.0	3.747401280694954e+17
19543.0	3.746395232141312e+17
19544.0	3.7461716813305165e+17
19545.0	3.745565162602494e+17
19546.0	3.7448693303650976e+17
19547.0	3.74437010542865e+17
19548.0	3.743745598728874e+17
19549.0	3.7431027251718816e+17
19550.0	3.742468303836501e+17
19551.0	3.7418963196095136e+17
19552.0	3.7412501947678714e+17
19553.0	3.740656019177472e+17
19554.0	3.740011464403627e+17
19555.0	3.739344214250836e+17
19556.0	3.7387528942824096e+17
19557.0	3.7381771624447994e+17
19558.0	3.7375630778914125e+17
19559.0	3.736943760943785e+17
19560.0	3.7361723739122336e+17
19561.0	3.7357133492824736e+17
19562.0	3.734969862062079e+17
19563.0	3.7344915883731616e+17
19564.0	3.7338124578542925e+17
19565.0	3.7332362695365965e+17
19566.0	3.7325974931155616e+17
19567.0	3.7320243911065594e+17
19568.0	3.7314058389203616e+17
19569.0	3.73079312171008e+17
19570.0	3.7301800521782605e+17
19571.0	3.7295552078370125e+17
19572.0	3.7289431204713805e+17
19573.0	3.7282873662068045e+17
19574.0	3.7276924083787085e+17
19575.0	3.7271069527463245e+17
19576.0	3.7264750116427085e+17
19577.0	3.725819000127487e+17
19578.0	3.725258240557055e+17
19579.0	3.7246556239298554e+17
19580.0	3.7240191417931085e+17
19581.0	3.723377958540629e+17
19582.0	3.722807317189972e+17
19583.0	3.722204329366869e+17
19584.0	3.7215648727695354e+17
19585.0	3.7209662917618336e+17
19586.0	3.720354745461418e+17
19587.0	3.7197497310904314e+17
19588.0	3.719080915064149e+17
19589.0	3.718527102659242e+17
19590.0	3.7178936795682125e+17
19591.0	3.717291533402112e+17
19592.0	3.7166780800914765e+17
19593.0	3.7160307361054714e+17
19594.0	3.715407129782953e+17
19595.0	3.7148424758012576e+17
19596.0	3.7142016476665165e+17
19597.0	3.71362006827008e+17
19598.0	3.712900460620459e+17
19599.0	3.712392017302869e+17
19600.0	3.7117611506401274e+17
19601.0	3.7111617894918816e+17
19602.0	3.710548023006548e+17
19603.0	3.709895912194047e+17
19604.0	3.7093384759104845e+17
19605.0	3.708687377323349e+17
19606.0	3.708095602971989e+17
19607.0	3.70750740496384e+17
19608.0	3.7068453131059194e+17
19609.0	3.7062765927464954e+17
19610.0	3.705473653364053e+17
19611.0	3.704734503753045e+17
19612.0	3.7044563375117645e+17
19613.0	3.7038078240139936e+17
19614.0	3.7032235686516045e+17
19615.0	3.7026303941017594e+17
19616.0	3.7018204677079034e+17
19617.0	3.701101456348501e+17
19618.0	3.7007194552183456e+17
19619.0	3.700066628577963e+17
19620.0	3.699399804846078e+17
19621.0	3.69846719226402e+17
19622.0	3.69836060241647e+17
19623.0	3.6977437796816205e+17
19624.0	3.6970985971602765e+17
19625.0	3.696538540135765e+17
19626.0	3.6959084906632525e+17
19627.0	3.6953229679220045e+17
19628.0	3.694707292329301e+17
19629.0	3.6930503199511885e+17
19630.0	3.6934995341038925e+17
19631.0	3.6926538407826765e+17
19632.0	3.6922879297017165e+17
19633.0	3.6916814857721165e+17
19634.0	3.691069934578346e+17
19635.0	3.6904088060122445e+17
19636.0	3.689321578102782e+17
19637.0	3.6887069112401914e+17
19638.0	3.688590303996586e+17
19639.0	3.688013065704789e+17
19640.0	3.687412952378025e+17
19641.0	3.686636560143702e+17
19642.0	3.686193019486208e+17
19643.0	3.685585512999595e+17
19644.0	3.6849964838202016e+17
19645.0	3.68437924794641e+17
19646.0	3.683238524485631e+17
19647.0	3.6831285477375994e+17
19648.0	3.6825824975912954e+17
19649.0	3.681962970229418e+17
19650.0	3.6813598663639034e+17
19651.0	3.680759455241557e+17
19652.0	3.6801605484762445e+17
19653.0	3.6795392832744096e+17
19654.0	3.678954600792063e+17
