# Flux units: erg / (cm m2 s)
# Wavelength units: Angstrom
wave	flux
19000.0	5.118258682964651e+17
19001.0	5.117245166452736e+17
19002.0	5.1164555971133434e+17
19003.0	5.1155417903923194e+17
19004.0	5.114642393901738e+17
19005.0	5.113711484207103e+17
19006.0	5.112813252334932e+17
19007.0	5.111907217659221e+17
19008.0	5.110964227670015e+17
19009.0	5.109915251813033e+17
19010.0	5.10895787675921e+17
19011.0	5.1082285620920314e+17
19012.0	5.1072574667707725e+17
19013.0	5.1064940258481485e+17
19014.0	5.1055470533672954e+17
19015.0	5.1046392389085856e+17
19016.0	5.103773020061696e+17
19017.0	5.1028901337497594e+17
19018.0	5.101980030599166e+17
19019.0	5.101086571844949e+17
19020.0	5.100177587874474e+17
19021.0	5.099289822887935e+17
19022.0	5.0983841545147725e+17
19023.0	5.097434805960703e+17
19024.0	5.0965221428865696e+17
19025.0	5.0956625908858874e+17
19026.0	5.094754229769557e+17
19027.0	5.0938492115135136e+17
19028.0	5.092958708345515e+17
19029.0	5.092049424482303e+17
19030.0	5.091169112773972e+17
19031.0	5.0902705782128634e+17
19032.0	5.089354356970836e+17
19033.0	5.0883324665309856e+17
19034.0	5.0874388407036576e+17
19035.0	5.086052442177534e+17
19036.0	5.0829820725384525e+17
19037.0	5.084372429788501e+17
19038.0	5.0838426178901325e+17
19039.0	5.0830364558841165e+17
19040.0	5.082159492628479e+17
19041.0	5.081267808763903e+17
19042.0	5.0791276420792294e+17
19043.0	5.0794935461696845e+17
19044.0	5.078588727143081e+17
19045.0	5.0776814838087674e+17
19046.0	5.0767489460251296e+17
19047.0	5.075831430840319e+17
19048.0	5.074728072336724e+17
19049.0	5.071555417604092e+17
19050.0	5.0730497488541e+17
19051.0	5.071882129418921e+17
19052.0	5.07114268061423e+17
19053.0	5.0704576543020365e+17
19054.0	5.069606900553045e+17
19055.0	5.068126804770816e+17
19056.0	5.067709375053823e+17
19057.0	5.0669472805027834e+17
19058.0	5.064807499694078e+17
19059.0	5.064681590882302e+17
19060.0	5.0642659605217274e+17
19061.0	5.06336752242961e+17
19062.0	5.062469394715989e+17
19063.0	5.061575132053503e+17
19064.0	5.060628339228671e+17
19065.0	5.0596534040221e+17
19066.0	5.058393839151785e+17
19067.0	5.0579919402434554e+17
19068.0	5.0571248888272205e+17
19069.0	5.0562324849404576e+17
19070.0	5.055308826498388e+17
19071.0	5.0544360778192205e+17
19072.0	5.053089081283923e+17
19073.0	5.052660490523989e+17
19074.0	5.05176495628834e+17
19075.0	5.0508787669620045e+17
19076.0	5.049977362797909e+17
19077.0	5.049074811491669e+17
19078.0	5.0481647943243085e+17
19079.0	5.0473023307775994e+17
19080.0	5.046407996811945e+17
19081.0	5.0454710298432845e+17
19082.0	5.044623878302377e+17
19083.0	5.043658332744362e+17
19084.0	5.0426436299434656e+17
19085.0	5.041940618455722e+17
19086.0	5.0400769633594016e+17
19087.0	5.039119993055912e+17
19088.0	5.038583375200254e+17
19089.0	5.0382156095378765e+17
19090.0	5.037477549746857e+17
19091.0	5.036532649252181e+17
19092.0	5.034714521927682e+17
19093.0	5.0348465446365856e+17
19094.0	5.0339616163976525e+17
19095.0	5.033072087007232e+17
19096.0	5.032183677495978e+17
19097.0	5.031298680750079e+17
19098.0	5.029905451100842e+17
19099.0	5.02890839863023e+17
19100.0	5.0286070253049165e+17
19101.0	5.027713586823166e+17
19102.0	5.0267883135740563e+17
19103.0	5.025957301714943e+17
19104.0	5.0250891702654285e+17
19105.0	5.023088559958701e+17
19106.0	5.0232988819346765e+17
19107.0	5.0221381076036256e+17
19108.0	5.021085437263871e+17
19109.0	5.020593672596138e+17
19110.0	5.019726554071039e+17
19111.0	5.018547203167573e+17
19112.0	5.017602698335572e+17
19113.0	5.017098845683711e+17
19114.0	5.015983727749801e+17
19115.0	5.015239252071764e+17
19116.0	5.014379210735615e+17
19117.0	5.0134249988860576e+17
19118.0	5.0118305314242554e+17
19119.0	5.00334998567867e+17
19120.0	5.010431037581994e+17
19121.0	5.009902442730836e+17
19122.0	5.009103138411861e+17
19123.0	5.0082380212688205e+17
19124.0	5.007316668295849e+17
19125.0	5.0064211815956474e+17
19126.0	5.005351276860757e+17
19127.0	5.0038637166155085e+17
19128.0	5.003550958551038e+17
19129.0	5.0028185289140896e+17
19130.0	5.0020560058449914e+17
19131.0	5.0012042587450016e+17
19132.0	5.0003303699141965e+17
19133.0	4.999418849787902e+17
19134.0	4.9985698534522874e+17
19135.0	4.9976900981882874e+17
19136.0	4.996798487024981e+17
19137.0	4.995870779681449e+17
19138.0	4.9950261489172474e+17
19139.0	4.994174760430251e+17
19140.0	4.9933004528680954e+17
19141.0	4.992420803859796e+17
19142.0	4.9915129963915936e+17
19143.0	4.990636433691988e+17
19144.0	4.989738607968255e+17
19145.0	4.988897285111808e+17
19146.0	4.987373636375893e+17
19147.0	4.9871069974801056e+17
19148.0	4.985863789696341e+17
19149.0	4.984912170625707e+17
19150.0	4.984515361505278e+17
19151.0	4.9836311050540365e+17
19152.0	4.98274778742784e+17
19153.0	4.980989724633768e+17
19154.0	4.980884399368874e+17
19155.0	4.980099234747732e+17
19156.0	4.979229206773759e+17
19157.0	4.97808209608704e+17
19158.0	4.976850863041195e+17
19159.0	4.976577527240019e+17
19160.0	4.975698797483349e+17
19161.0	4.9748034715648e+17
19162.0	4.9738806268177056e+17
19163.0	4.973038114177023e+17
19164.0	4.9721983425140045e+17
19165.0	4.9704040898669203e+17
19166.0	4.9703902724314445e+17
19167.0	4.969577362489343e+17
19168.0	4.9687234070882976e+17
19169.0	4.967853878935552e+17
19170.0	4.966985102961322e+17
19171.0	4.966099111466324e+17
19172.0	4.965236752777215e+17
19173.0	4.9643627115533645e+17
19174.0	4.963467004652202e+17
19175.0	4.962608061524649e+17
19176.0	4.961741134539434e+17
19177.0	4.9607151259921056e+17
19178.0	4.959989621151061e+17
19179.0	4.9591179119602336e+17
19180.0	4.9582277541232634e+17
19181.0	4.957287767255722e+17
19182.0	4.9564519557147296e+17
19183.0	4.955628265712297e+17
19184.0	4.9547623775163725e+17
19185.0	4.953880965502293e+17
19186.0	4.953015309391187e+17
19187.0	4.9520876775451296e+17
19188.0	4.951268398552404e+17
19189.0	4.9503913472163834e+17
19190.0	4.9495180553748474e+17
19191.0	4.9486089455752525e+17
19192.0	4.9477521513294496e+17
19193.0	4.946747938482858e+17
19194.0	4.945770874667007e+17
19195.0	4.945048457532756e+17
19196.0	4.944091694847317e+17
19197.0	4.943091659527508e+17
19198.0	4.941957146432851e+17
19199.0	4.9405808855394976e+17
19200.0	4.939780378154325e+17
19201.0	4.9393717739519994e+17
19202.0	4.93876209062161e+17
19203.0	4.938016397197311e+17
19204.0	4.93722448044578e+17
19205.0	4.936385837749589e+17
19206.0	4.9355434747057485e+17
19207.0	4.9345409458722125e+17
19208.0	4.933727249498111e+17
19209.0	4.9329719657977165e+17
19210.0	4.932123281238697e+17
19211.0	4.931278351280809e+17
19212.0	4.9304081303688525e+17
19213.0	4.9294449112514554e+17
19214.0	4.928625455398911e+17
19215.0	4.927793098566313e+17
19216.0	4.9269171398464845e+17
19217.0	4.925970247057408e+17
19218.0	4.9249024835147085e+17
19219.0	4.924075005356715e+17
19220.0	4.9233978867056634e+17
19221.0	4.92249731441186e+17
19222.0	4.9216930789894816e+17
19223.0	4.9208567347718816e+17
19224.0	4.9199695367154336e+17
19225.0	4.919126867487402e+17
19226.0	4.918283304173568e+17
19227.0	4.91743444135663e+17
19228.0	4.916600673839785e+17
19229.0	4.9157290240682656e+17
19230.0	4.9148687653273594e+17
19231.0	4.9140000131208525e+17
19232.0	4.913145902530559e+17
19233.0	4.912232413178538e+17
19234.0	4.9114138346345805e+17
19235.0	4.9105252328843936e+17
19236.0	4.909699568063828e+17
19237.0	4.9088222461951994e+17
19238.0	4.907899107846826e+17
19239.0	4.9071164779834016e+17
19240.0	4.9062459858397856e+17
19241.0	4.905378537362771e+17
19242.0	4.904513815882409e+17
19243.0	4.903520482361342e+17
19244.0	4.902813921094314e+17
19245.0	4.901946610330281e+17
19246.0	4.9010884263717536e+17
19247.0	4.9002226500239354e+17
19248.0	4.899371574711636e+17
19249.0	4.898480349424298e+17
19250.0	4.897454852582058e+17
19251.0	4.896540922129065e+17
19252.0	4.8956303995480736e+17
19253.0	4.89504889774626e+17
19254.0	4.8942156873727994e+17
19255.0	4.8931581048040083e+17
19256.0	4.8924845359322445e+17
19257.0	4.891634104445609e+17
19258.0	4.890771855507455e+17
19259.0	4.8898266110798496e+17
19260.0	4.888924435163817e+17
19261.0	4.888162864900778e+17
19262.0	4.887235075768319e+17
19263.0	4.8863039200078496e+17
19264.0	4.885280491656532e+17
19265.0	4.884525150633983e+17
19266.0	4.8836239114458445e+17
19267.0	4.883023921851051e+17
19268.0	4.882174025138175e+17
19269.0	4.881317694362964e+17
19270.0	4.880406724389546e+17
19271.0	4.879451196926634e+17
19272.0	4.878716326903807e+17
19273.0	4.8777249416369485e+17
19274.0	4.876647876526079e+17
19275.0	4.8762031453853005e+17
19276.0	4.8753277473041056e+17
19277.0	4.874481357728426e+17
19278.0	4.8736037226850976e+17
19279.0	4.8727439847369376e+17
19280.0	4.8718801405651616e+17
19281.0	4.8710391951960736e+17
19282.0	4.870204243487402e+17
19283.0	4.869339005408596e+17
19284.0	4.868445924840789e+17
19285.0	4.867566165382485e+17
19286.0	4.866673994978645e+17
19287.0	4.8657295838194336e+17
19288.0	4.863638917611519e+17
19289.0	4.862330856101204e+17
19290.0	4.863142144245759e+17
19291.0	4.862211032525483e+17
19292.0	4.8616470167770445e+17
19293.0	4.860812342591487e+17
19294.0	4.8599526409939616e+17
19295.0	4.859125198487551e+17
19296.0	4.857719975925079e+17
19297.0	4.857317053606571e+17
19298.0	4.856539663127893e+17
19299.0	4.855105060164949e+17
19300.0	4.854851466253651e+17
19301.0	4.854010300683605e+17
19302.0	4.8531434275252896e+17
19303.0	4.8522437800755194e+17
19304.0	4.851442392585558e+17
19305.0	4.850579555046741e+17
19306.0	4.8497310452503885e+17
19307.0	4.8488342688017056e+17
19308.0	4.847984272823636e+17
19309.0	4.847113743630336e+17
19310.0	4.8462300240500045e+17
19311.0	4.8453522030591994e+17
19312.0	4.8444494741940896e+17
19313.0	4.8432623030108154e+17
19314.0	4.8293108679092915e+17
19315.0	4.829276546618717e+17
19316.0	4.8400271454590304e+17
19317.0	4.840197216796672e+17
19318.0	4.8394571661093536e+17
19319.0	4.8386591515388576e+17
19320.0	4.8376157932530336e+17
19321.0	4.83648936677649e+17
19322.0	4.836123358527487e+17
19323.0	4.835280473292798e+17
19324.0	4.834438034751486e+17
19325.0	4.8335986937036794e+17
19326.0	4.8327576959057914e+17
19327.0	4.8319079907327994e+17
19328.0	4.830066149512534e+17
19329.0	4.8302228431175674e+17
19330.0	4.8293675623164576e+17
19331.0	4.8284835875826336e+17
19332.0	4.827685904362155e+17
19333.0	4.826825530976938e+17
19334.0	4.8259672477532154e+17
19335.0	4.823112898751148e+17
19336.0	4.8242790082368845e+17
19337.0	4.823439739890346e+17
19338.0	4.8223844425181856e+17
19339.0	4.8217181941050016e+17
19340.0	4.82067072749841e+17
19341.0	4.8191312690326195e+17
19342.0	4.818798327278251e+17
19343.0	4.818222608023552e+17
19344.0	4.8164911049605126e+17
19345.0	4.815170572386304e+17
19346.0	4.814809711247359e+17
19347.0	4.813792308013738e+17
19348.0	4.814035672716627e+17
19349.0	4.813205585701546e+17
19350.0	4.8120151765155834e+17
19351.0	4.811520614946132e+17
19352.0	4.809670331290963e+17
19353.0	4.809889506044585e+17
19354.0	4.8090503991787514e+17
19355.0	4.808104620676437e+17
19356.0	4.807354724559529e+17
19357.0	4.806510290927615e+17
19358.0	4.805658439669076e+17
19359.0	4.8045755885158374e+17
19360.0	4.803140113836713e+17
19361.0	4.8031035178352634e+17
19362.0	4.8022671079069005e+17
19363.0	4.8014248553130656e+17
19364.0	4.800577105384789e+17
19365.0	4.799725126199979e+17
19366.0	4.798872314445823e+17
19367.0	4.7980267553423354e+17
19368.0	4.79717685793041e+17
19369.0	4.796304252556628e+17
19370.0	4.795456260756821e+17
19371.0	4.7945641497722874e+17
19372.0	4.793761899653802e+17
19373.0	4.7929034689303885e+17
19374.0	4.7920583572193274e+17
19375.0	4.7912149253270176e+17
19376.0	4.7903631950042445e+17
19377.0	4.7895006958059514e+17
19378.0	4.7886463000029856e+17
19379.0	4.7877935127156045e+17
19380.0	4.786928302598825e+17
19381.0	4.7860626688573434e+17
19382.0	4.785131011877545e+17
19383.0	4.7843027165293216e+17
19384.0	4.78346327691537e+17
19385.0	4.7826200016104096e+17
19386.0	4.781764118926676e+17
19387.0	4.7808907480924154e+17
19388.0	4.780005108918953e+17
19389.0	4.7790840607320736e+17
19390.0	4.7779689127389856e+17
19391.0	4.774981851764051e+17
19392.0	4.7756853225280845e+17
19393.0	4.775527293736276e+17
19394.0	4.7747488448948896e+17
19395.0	4.773600802373632e+17
19396.0	4.772953245177172e+17
19397.0	4.772121026756608e+17
19398.0	4.7709011400021325e+17
19399.0	4.7696591220026016e+17
19400.0	4.7690217045360634e+17
19401.0	4.768518894168746e+17
19402.0	4.767657770702164e+17
19403.0	4.7667430650019834e+17
19404.0	4.7658406793707514e+17
19405.0	4.764893397909503e+17
19406.0	4.763953013282132e+17
19407.0	4.762611715407871e+17
19408.0	4.76170695020817e+17
19409.0	4.760970877119146e+17
19410.0	4.7601563467775994e+17
19411.0	4.759209658111317e+17
19412.0	4.7582059870289914e+17
19413.0	4.756852227877546e+17
19414.0	4.756177006450004e+17
19415.0	4.7551354594044576e+17
19416.0	4.7539481421195936e+17
19417.0	4.752998375533225e+17
19418.0	4.75191253733649e+17
19419.0	4.750795277511339e+17
19420.0	4.749638492662442e+17
19421.0	4.748441675978068e+17
19422.0	4.747169642840063e+17
19423.0	4.7459303818963616e+17
19424.0	4.7446079437100365e+17
19425.0	4.743206738591743e+17
19426.0	4.7417327413275296e+17
19427.0	4.7401811452450125e+17
19428.0	4.7385402664113485e+17
19429.0	4.7367731767760205e+17
19430.0	4.7347233407194445e+17
19431.0	4.732530019620181e+17
19432.0	4.730606629246292e+17
19433.0	4.728251738663594e+17
19434.0	4.725534142147242e+17
19435.0	4.722484467903145e+17
19436.0	4.719001377352362e+17
19437.0	4.714852304027647e+17
19438.0	4.70622271368943e+17
19439.0	4.7043113931243514e+17
19440.0	4.7002105480041805e+17
19441.0	4.6936386098080416e+17
19442.0	4.685530024028842e+17
19443.0	4.675555808335189e+17
19444.0	4.663423417712638e+17
19445.0	4.6479366121936205e+17
19446.0	4.628101938020351e+17
19447.0	4.601505659923113e+17
19448.0	4.5643231297972915e+17
19449.0	4.50659416748851e+17
19450.0	4.389659282330959e+17
19451.0	4.283982535458822e+17
19452.0	4.460865143876266e+17
19453.0	4.536627776279895e+17
19454.0	4.5801798575499904e+17
19455.0	4.6096167147492685e+17
19456.0	4.630175209750528e+17
19457.0	4.645138880004095e+17
19458.0	4.614978769606012e+17
19459.0	4.659896008747699e+17
19460.0	4.6743990381663565e+17
19461.0	4.680568214825642e+17
19462.0	4.6853638827540474e+17
19463.0	4.689102151963987e+17
19464.0	4.6920821287594656e+17
19465.0	4.694449340809215e+17
19466.0	4.6963242590098765e+17
19467.0	4.697767631563434e+17
19468.0	4.6988747362795514e+17
19469.0	4.698976162938879e+17
19470.0	4.700358895643306e+17
19471.0	4.7008670446605645e+17
19472.0	4.7011306832308896e+17
19473.0	4.7012460279889914e+17
19474.0	4.7004653561664826e+17
19475.0	4.700639831523327e+17
19476.0	4.700885300368723e+17
19477.0	4.7007935618525856e+17
19478.0	4.700557651826005e+17
19479.0	4.69951412646707e+17
19480.0	4.699782677965481e+17
19481.0	4.6993023847191885e+17
19482.0	4.698891714822143e+17
19483.0	4.6983872393161376e+17
19484.0	4.697826083383978e+17
19485.0	4.6972302000127994e+17
19486.0	4.695924476826967e+17
19487.0	4.6960474419363834e+17
19488.0	4.6953761764365645e+17
19489.0	4.6943833693006483e+17
19490.0	4.6934171722274125e+17
19491.0	4.693320586493951e+17
19492.0	4.692786769734313e+17
19493.0	4.692111056175104e+17
19494.0	4.691396375434581e+17
19495.0	4.690637832759977e+17
19496.0	4.6896120933471565e+17
19497.0	4.688906746331136e+17
19498.0	4.6867603350268563e+17
19499.0	4.6839707642538656e+17
19500.0	4.6865735060466336e+17
19501.0	4.6862001983105696e+17
19502.0	4.6855368467633485e+17
19503.0	4.6848203463939405e+17
19504.0	4.684065136792916e+17
19505.0	4.6832883216329376e+17
19506.0	4.682539114080938e+17
19507.0	4.68172978327825e+17
19508.0	4.6809211354480634e+17
19509.0	4.679975036081493e+17
19510.0	4.6781956606306976e+17
19511.0	4.6597444748356186e+17
19512.0	4.6752700175482874e+17
19513.0	4.6752011862234445e+17
19514.0	4.6747796824391674e+17
19515.0	4.675135337747797e+17
19516.0	4.6745405197298336e+17
19517.0	4.673914899442346e+17
19518.0	4.673000650222249e+17
19519.0	4.6722242572888736e+17
19520.0	4.670933396619263e+17
19521.0	4.6708955723857914e+17
19522.0	4.6699682306457594e+17
19523.0	4.669143198466047e+17
19524.0	4.6679788310145715e+17
19525.0	4.6677228722148685e+17
19526.0	4.6669520122675194e+17
19527.0	4.6661432120442874e+17
19528.0	4.6653004882903034e+17
19529.0	4.6644749003653114e+17
19530.0	4.663777472195242e+17
19531.0	4.662981385606484e+17
19532.0	4.6621838128360096e+17
19533.0	4.6613811950168736e+17
19534.0	4.6605890503748256e+17
19535.0	4.6597672107595085e+17
19536.0	4.658936761636181e+17
19537.0	4.6581385016989005e+17
19538.0	4.656518496518144e+17
19539.0	4.6563119284442445e+17
19540.0	4.6557081513929376e+17
19541.0	4.654812337537024e+17
19542.0	4.6541026165609805e+17
19543.0	4.652630385797802e+17
19544.0	4.652444701163519e+17
19545.0	4.651323434379947e+17
19546.0	4.6504786624075085e+17
19547.0	4.6500923858834765e+17
19548.0	4.649372860022783e+17
19549.0	4.648492914617002e+17
19550.0	4.647801138271573e+17
19551.0	4.647011842960042e+17
19552.0	4.6462075467202554e+17
19553.0	4.6453984955378336e+17
19554.0	4.64458612805905e+17
19555.0	4.643714643962538e+17
19556.0	4.6429566696161274e+17
19557.0	4.6422101415253325e+17
19558.0	4.64141731041553e+17
19559.0	4.640623067223381e+17
19560.0	4.639541185653417e+17
19561.0	4.638997838036991e+17
19562.0	4.6379637973975034e+17
19563.0	4.637427754860543e+17
19564.0	4.636616329003008e+17
19565.0	4.635821701332992e+17
19566.0	4.6350051912799565e+17
19567.0	4.634224532040362e+17
19568.0	4.633406173697364e+17
19569.0	4.632612048644778e+17
19570.0	4.6318225331322874e+17
19571.0	4.6310238285987834e+17
19572.0	4.6301960687233696e+17
19573.0	4.629338642535764e+17
19574.0	4.628506627538943e+17
19575.0	4.6278325623412045e+17
19576.0	4.6269849997585056e+17
19577.0	4.626079582344534e+17
19578.0	4.625415699518805e+17
19579.0	4.62460536627746e+17
19580.0	4.623808849772543e+17
19581.0	4.6230264135461536e+17
19582.0	4.622241175524693e+17
19583.0	4.621444051544745e+17
19584.0	4.6206388045960525e+17
19585.0	4.619721131425791e+17
19586.0	4.6188921083658234e+17
19587.0	4.618178324507306e+17
19588.0	4.6172173220795725e+17
19589.0	4.616551479814826e+17
19590.0	4.6157238674391034e+17
19591.0	4.615034226693461e+17
19592.0	4.614254499987456e+17
19593.0	4.613377997406207e+17
19594.0	4.612343006756863e+17
19595.0	4.6118472232468474e+17
19596.0	4.611047430291455e+17
19597.0	4.610228549058559e+17
19598.0	4.6090142274464416e+17
19599.0	4.608617409238357e+17
19600.0	4.6078594383871994e+17
19601.0	4.6070155122660685e+17
19602.0	4.6061661831823354e+17
19603.0	4.6052900462045856e+17
19604.0	4.604589907815082e+17
19605.0	4.6036613909708806e+17
19606.0	4.603080999261525e+17
19607.0	4.602310943921492e+17
19608.0	4.601500714838697e+17
19609.0	4.6006902634577914e+17
19610.0	4.5995917437829114e+17
19611.0	4.5986202534980256e+17
19612.0	4.5983453699986765e+17
19613.0	4.5975312129501856e+17
19614.0	4.5967099157981856e+17
19615.0	4.595937903815337e+17
19616.0	4.5947712714397005e+17
19617.0	4.593728745723221e+17
19618.0	4.5930255895319885e+17
19619.0	4.5920525962881696e+17
19620.0	4.5913783842897914e+17
19621.0	4.5903363045676365e+17
19622.0	4.590360028949162e+17
19623.0	4.5895501032543565e+17
19624.0	4.588683801919487e+17
19625.0	4.588003116012885e+17
19626.0	4.587186244550656e+17
19627.0	4.5863767466748576e+17
19628.0	4.5855149311481165e+17
19629.0	4.582795361211731e+17
19630.0	4.583474274325844e+17
19631.0	4.5823756015588685e+17
19632.0	4.582140787643732e+17
19633.0	4.581502177596757e+17
19634.0	4.5808304353443834e+17
19635.0	4.579965202158931e+17
19636.0	4.5784661823761056e+17
19637.0	4.577395891066196e+17
19638.0	4.577663584829439e+17
19639.0	4.576901285456553e+17
19640.0	4.5757661984413005e+17
19641.0	4.574336533572267e+17
19642.0	4.5744508654059514e+17
19643.0	4.573693353132031e+17
19644.0	4.5728942739073696e+17
19645.0	4.5720807851513165e+17
19646.0	4.570524396377428e+17
19647.0	4.570612197840213e+17
19648.0	4.569850591925589e+17
19649.0	4.5690600683820365e+17
19650.0	4.568279613265238e+17
19651.0	4.567487772710228e+17
19652.0	4.5666998510332576e+17
19653.0	4.565917119807487e+17
19654.0	4.565125215638868e+17
19655.0	4.564330416701439e+17
