# Flux units: erg / (cm m2 s)
# Wavelength units: Angstrom
wave	flux
19000.0	6.567202635382781e+17
19001.0	6.565899826539178e+17
19002.0	6.564729629704191e+17
19003.0	6.563486389065044e+17
19004.0	6.562243356742996e+17
19005.0	6.561019146360148e+17
19006.0	6.559783349212499e+17
19007.0	6.557825270546432e+17
19008.0	6.557263162507264e+17
19009.0	6.556058803765245e+17
19010.0	6.554550722887679e+17
19011.0	6.55358670545442e+17
19012.0	6.551660562918057e+17
19013.0	6.551134333654355e+17
19014.0	6.549866314465279e+17
19015.0	6.548647003728553e+17
19016.0	6.547409725991593e+17
19017.0	6.545997434628777e+17
19018.0	6.544901513325225e+17
19019.0	6.543730859311103e+17
19020.0	6.542451934931625e+17
19021.0	6.541242516460884e+17
19022.0	6.54003543142127e+17
19023.0	6.538779431010304e+17
19024.0	6.537558190893738e+17
19025.0	6.536258404046163e+17
19026.0	6.53502340870963e+17
19027.0	6.533398921915049e+17
19028.0	6.5326442100381e+17
19029.0	6.531397409133908e+17
19030.0	6.530188642178388e+17
19031.0	6.528962447889748e+17
19032.0	6.527728008298495e+17
19033.0	6.526445690727081e+17
19034.0	6.525256728575999e+17
19035.0	6.524015768939178e+17
19036.0	6.481107343463735e+17
19037.0	6.521567246112083e+17
19038.0	6.520336816974505e+17
19039.0	6.519119346139135e+17
19040.0	6.517894317167956e+17
19041.0	6.516657557427539e+17
19042.0	6.515378464576852e+17
19043.0	6.514212131394899e+17
19044.0	6.51297097392674e+17
19045.0	6.511705848108372e+17
19046.0	6.510439572351657e+17
19047.0	6.509267339182079e+17
19048.0	6.507913559758163e+17
19049.0	6.506773931709779e+17
19050.0	6.505558959980543e+17
19051.0	6.499070288505503e+17
19052.0	6.502748496680278e+17
19053.0	6.501732971795795e+17
19054.0	6.500683858924883e+17
19055.0	6.49930647675426e+17
19056.0	6.498211295046314e+17
19057.0	6.496993364934655e+17
19058.0	6.495597564177065e+17
19059.0	6.494556729464148e+17
19060.0	6.493313909653503e+17
19061.0	6.492111740338175e+17
19062.0	6.49088170336802e+17
19063.0	6.489663590804137e+17
19064.0	6.488357258046121e+17
19065.0	6.487101164661417e+17
19066.0	6.485954358061737e+17
19067.0	6.48476288422161e+17
19068.0	6.483547767089834e+17
19069.0	6.482323864988329e+17
19070.0	6.48107758068258e+17
19071.0	6.479849506646698e+17
19072.0	6.478656492797951e+17
19073.0	6.477434131404116e+17
19074.0	6.476218866073599e+17
19075.0	6.474997906975401e+17
19076.0	6.473763215725908e+17
19077.0	6.472546657850708e+17
19078.0	6.471280386987348e+17
19079.0	6.47011212861986e+17
19080.0	6.468887594576553e+17
19081.0	6.467646562238463e+17
19082.0	6.46640921809169e+17
19083.0	6.465164756211028e+17
19084.0	6.463867347533823e+17
19085.0	6.462786463509162e+17
19086.0	6.461303542863188e+17
19087.0	6.459267718578176e+17
19088.0	6.459083480279721e+17
19089.0	6.457237542622547e+17
19090.0	6.456687722496e+17
19091.0	6.45547371405858e+17
19092.0	6.453976636238505e+17
19093.0	6.453057319600128e+17
19094.0	6.451829054723412e+17
19095.0	6.450608514356564e+17
19096.0	6.44925184156194e+17
19097.0	6.448176829562877e+17
19098.0	6.446975505399807e+17
19099.0	6.445754621100031e+17
19100.0	6.444475918319615e+17
19101.0	6.443309139842388e+17
19102.0	6.442064758352553e+17
19103.0	6.440900901208063e+17
19104.0	6.439692732639913e+17
19105.0	6.43847630758434e+17
19106.0	6.437058299385172e+17
19107.0	6.436038950693546e+17
19108.0	6.434836549992447e+17
19109.0	6.429000845666979e+17
19110.0	6.43238920856098e+17
19111.0	6.431181211959295e+17
19112.0	6.429982387601407e+17
19113.0	6.428773530468351e+17
19114.0	6.427562207084543e+17
19115.0	6.426256186103124e+17
19116.0	6.425128150411946e+17
19117.0	6.423918317404159e+17
19118.0	6.422477576077312e+17
19119.0	6.42002203338342e+17
19120.0	6.420003725246463e+17
19121.0	6.418908990930944e+17
19122.0	6.417879568919209e+17
19123.0	6.416652819584339e+17
19124.0	6.415263434014719e+17
19125.0	6.414182083024212e+17
19126.0	6.412777145674409e+17
19127.0	6.410833327641939e+17
19128.0	6.406314409678157e+17
19129.0	6.409360938194259e+17
19130.0	6.408200383365119e+17
19131.0	6.406846401915561e+17
19132.0	6.405793458246995e+17
19133.0	6.403677055789741e+17
19134.0	6.401284460511236e+17
19135.0	6.40215767196194e+17
19136.0	6.400968224669695e+17
19137.0	6.399660466547369e+17
19138.0	6.397724724647252e+17
19139.0	6.397343075838634e+17
19140.0	6.39614470726178e+17
19141.0	6.394940389064703e+17
19142.0	6.393703753056255e+17
19143.0	6.392484800932522e+17
19144.0	6.391272710690131e+17
19145.0	6.390097219245396e+17
19146.0	6.388417009724074e+17
19147.0	6.387660478218239e+17
19148.0	6.386477471279785e+17
19149.0	6.385282196701181e+17
19150.0	6.384057597646164e+17
19151.0	6.382896199761919e+17
19152.0	6.381627232660138e+17
19153.0	6.380481796199766e+17
19154.0	6.379216558533289e+17
19155.0	6.378076425071274e+17
19156.0	6.376885335009962e+17
19157.0	6.375642508208809e+17
19158.0	6.371250674160975e+17
19159.0	6.373264607674367e+17
19160.0	6.371985371518292e+17
19161.0	6.370441918676992e+17
19162.0	6.362594024270513e+17
19163.0	6.368444321278633e+17
19164.0	6.367280531243005e+17
19165.0	6.365982185837907e+17
19166.0	6.364698913363284e+17
19167.0	6.363006059413503e+17
19168.0	6.362361777269417e+17
19169.0	6.361134463800659e+17
19170.0	6.360080990251689e+17
19171.0	6.358562078982144e+17
19172.0	6.35765866504738e+17
19173.0	6.356475793724756e+17
19174.0	6.355258761893204e+17
19175.0	6.354090750290602e+17
19176.0	6.352894852857855e+17
19177.0	6.351610994578772e+17
19178.0	6.350440550279849e+17
19179.0	6.348826218594305e+17
19180.0	6.346642629678424e+17
19181.0	6.34683741315618e+17
19182.0	6.345590610154836e+17
19183.0	6.34435322126882e+17
19184.0	6.343141993654953e+17
19185.0	6.342117527912447e+17
19186.0	6.340934536353108e+17
19187.0	6.339676519180969e+17
19188.0	6.338486864270676e+17
19189.0	6.337154319908863e+17
19190.0	6.335921629342378e+17
19191.0	6.33484884312064e+17
19192.0	6.333636298495316e+17
19193.0	6.331211978899455e+17
19194.0	6.330770250181289e+17
19195.0	6.330033047426388e+17
19196.0	6.328974796565162e+17
19197.0	6.327779087177044e+17
19198.0	6.326559736594431e+17
19199.0	6.285356673881418e+17
19200.0	6.298438886315366e+17
19201.0	6.322987638019412e+17
19202.0	6.321825102080682e+17
19203.0	6.320550022479871e+17
19204.0	6.319418847352148e+17
19205.0	6.318253123742377e+17
19206.0	6.317057997362516e+17
19207.0	6.315826256805887e+17
19208.0	6.314554148869459e+17
19209.0	6.313446027034623e+17
19210.0	6.312295658072746e+17
19211.0	6.311107093681492e+17
19212.0	6.309923642146815e+17
19213.0	6.308297007868585e+17
19214.0	6.306885535094099e+17
19215.0	6.306198850633727e+17
19216.0	6.305111928908457e+17
19217.0	6.3039668762269e+17
19218.0	6.302293047640061e+17
19219.0	6.301495159597737e+17
19220.0	6.300357493085524e+17
19221.0	6.298966886274388e+17
19222.0	6.298027083257172e+17
19223.0	6.296825497649151e+17
19224.0	6.295551499479721e+17
19225.0	6.2943549470365e+17
19226.0	6.293257989739859e+17
19227.0	6.292069237303978e+17
19228.0	6.290899325681663e+17
19229.0	6.289712654319615e+17
19230.0	6.288344521288364e+17
19231.0	6.287192661251412e+17
19232.0	6.286076607288659e+17
19233.0	6.28490901791266e+17
19234.0	6.283756309927251e+17
19235.0	6.282562223734784e+17
19236.0	6.281398824468479e+17
19237.0	6.280200539078655e+17
19238.0	6.278904826298367e+17
19239.0	6.2778262959773e+17
19240.0	6.276421593508521e+17
19241.0	6.275386440679423e+17
19242.0	6.27424524116514e+17
19243.0	6.27297648447761e+17
19244.0	6.271901692679507e+17
19245.0	6.270715202371583e+17
19246.0	6.269523043461802e+17
19247.0	6.268334112068947e+17
19248.0	6.267152696868863e+17
19249.0	6.265959611017897e+17
19250.0	6.264776758569642e+17
19251.0	6.263544922942121e+17
19252.0	6.262198511512234e+17
19253.0	6.261217873450324e+17
19254.0	6.260007595147263e+17
19255.0	6.258732011530921e+17
19256.0	6.257538310515369e+17
19257.0	6.25647973179938e+17
19258.0	6.255297886683135e+17
19259.0	6.254067283481939e+17
19260.0	6.252438315073533e+17
19261.0	6.251735895681705e+17
19262.0	6.250521372742995e+17
19263.0	6.249342105026559e+17
19264.0	6.247874172725929e+17
19265.0	6.246876263219199e+17
19266.0	6.245709657407487e+17
19267.0	6.244608061210623e+17
19268.0	6.243404736364541e+17
19269.0	6.242233268655444e+17
19270.0	6.241025243392681e+17
19271.0	6.239646926591316e+17
19272.0	6.238652852076541e+17
19273.0	6.231470004415139e+17
19274.0	6.23334711064439e+17
19275.0	6.235115366296233e+17
19276.0	6.233916474829482e+17
19277.0	6.232723319073449e+17
19278.0	6.231537517330431e+17
19279.0	6.230197524583764e+17
19280.0	6.229120072198826e+17
19281.0	6.227979080302591e+17
19282.0	6.226797017781588e+17
19283.0	6.224912316366847e+17
19284.0	6.222871027602771e+17
19285.0	6.223081924897449e+17
19286.0	6.222025976010067e+17
19287.0	6.220857115060906e+17
19288.0	6.210043009564667e+17
19289.0	6.189641375241499e+17
19290.0	6.217287555437908e+17
19291.0	6.215935278273876e+17
19292.0	6.214906491000148e+17
19293.0	6.213710219575295e+17
19294.0	6.21251450179857e+17
19295.0	6.211330307872084e+17
19296.0	6.210134740391252e+17
19297.0	6.208912128038227e+17
19298.0	6.20773252337937e+17
19299.0	6.206557022846975e+17
19300.0	6.205362698278228e+17
19301.0	6.20416063312145e+17
19302.0	6.202958164612436e+17
19303.0	6.201698666151935e+17
19304.0	6.200532465789608e+17
19305.0	6.199367074228905e+17
19306.0	6.19813986701585e+17
19307.0	6.196889055657983e+17
19308.0	6.195724307922943e+17
19309.0	6.193287956267005e+17
19310.0	6.191370657420626e+17
19311.0	6.192050448542377e+17
19312.0	6.190951303217151e+17
19313.0	6.189618742078121e+17
19314.0	6.173810797576169e+17
19315.0	6.173680777647475e+17
19316.0	6.186079467427156e+17
19317.0	6.184941101864276e+17
19318.0	6.183729644262739e+17
19319.0	6.182530055143423e+17
19320.0	6.181283396146515e+17
19321.0	6.180105945262761e+17
19322.0	6.178751646444202e+17
19323.0	6.17695372308207e+17
19324.0	6.176437616771072e+17
19325.0	6.174269248285353e+17
19326.0	6.174013685148329e+17
19327.0	6.172782969399978e+17
19328.0	6.17158275113506e+17
19329.0	6.170358623240191e+17
19330.0	6.169104938085033e+17
19331.0	6.167877948276735e+17
19332.0	6.166658101368148e+17
19333.0	6.165411700320937e+17
19334.0	6.164160203893417e+17
19335.0	6.162955202723839e+17
19336.0	6.161679982613844e+17
19337.0	6.16045295575586e+17
19338.0	6.159088483652947e+17
19339.0	6.157958861116756e+17
19340.0	6.15668392272418e+17
19341.0	6.155453780197375e+17
19342.0	6.153880879147689e+17
19343.0	6.152930584778067e+17
19344.0	6.151662620813993e+17
19345.0	6.14917282883174e+17
19346.0	6.148803185519273e+17
19347.0	6.147809169724756e+17
19348.0	6.146590909661183e+17
19349.0	6.145275485749247e+17
19350.0	6.143984184677716e+17
19351.0	6.142715478321833e+17
19352.0	6.141404910714879e+17
19353.0	6.140154424415572e+17
19354.0	6.138846442597034e+17
19355.0	6.137478845737641e+17
19356.0	6.136223895999828e+17
19357.0	6.134904322523133e+17
19358.0	6.133515642295636e+17
19359.0	6.131930067457364e+17
19360.0	6.130879337682259e+17
19361.0	6.129526613824852e+17
19362.0	6.128218968948735e+17
19363.0	6.126857601329833e+17
19364.0	6.12547996610287e+17
19365.0	6.124105145952938e+17
19366.0	6.122709454946303e+17
19367.0	6.121304983863295e+17
19368.0	6.119910095366825e+17
19369.0	6.11835672928802e+17
19370.0	6.116314647101439e+17
19371.0	6.115586357242537e+17
19372.0	6.114137498539348e+17
19373.0	6.112650613577044e+17
19374.0	6.11119291048482e+17
19375.0	6.109697548834132e+17
19376.0	6.108183386215763e+17
19377.0	6.106650795922771e+17
19378.0	6.105061049849171e+17
19379.0	6.103496976411306e+17
19380.0	6.101925824386388e+17
19381.0	6.100325060575231e+17
19382.0	6.098656332262057e+17
19383.0	6.097002676180308e+17
19384.0	6.095400259813376e+17
19385.0	6.093697343029247e+17
19386.0	6.091945666063018e+17
19387.0	6.090191388628308e+17
19388.0	6.088419320354131e+17
19389.0	6.086610150664873e+17
19390.0	6.084689569775615e+17
19391.0	6.045499243801198e+17
19392.0	6.080856119924051e+17
19393.0	6.078958890123263e+17
19394.0	6.07688719335424e+17
19395.0	6.074768401541802e+17
19396.0	6.072619496723796e+17
19397.0	6.07057198850594e+17
19398.0	6.068218850443264e+17
19399.0	6.065469973506729e+17
19400.0	6.063491800629247e+17
19401.0	6.061083523547136e+17
19402.0	6.058540728844287e+17
19403.0	6.055869958935892e+17
19404.0	6.053129027409236e+17
19405.0	6.050277047489875e+17
19406.0	6.047261343612927e+17
19407.0	6.044167926972415e+17
19408.0	6.040487133708288e+17
19409.0	6.037538245793108e+17
19410.0	6.034046051505492e+17
19411.0	6.030346989950292e+17
19412.0	6.026360661213183e+17
19413.0	6.022271983768916e+17
19414.0	6.017983397407401e+17
19415.0	6.013372337575252e+17
19416.0	6.008408369004541e+17
19417.0	6.002850040294057e+17
19418.0	5.998375850388137e+17
19419.0	5.992282703877462e+17
19420.0	5.986436952096767e+17
19421.0	5.979902664769535e+17
19422.0	5.972713782902783e+17
19423.0	5.965081259016191e+17
19424.0	5.956570967965696e+17
19425.0	5.947435903178068e+17
19426.0	5.937464976517801e+17
19427.0	5.926007770273108e+17
19428.0	5.915014972746409e+17
19429.0	5.903479522459647e+17
19430.0	5.890035511459841e+17
19431.0	5.869178510639122e+17
19432.0	5.862476990119935e+17
19433.0	5.845683191939072e+17
19434.0	5.826882459839144e+17
19435.0	5.804428434429266e+17
19436.0	5.776391678547274e+17
19437.0	5.750926321822376e+17
19438.0	5.677807581528066e+17
19439.0	5.695477482433198e+17
19440.0	5.663114969568595e+17
19441.0	5.625529990381565e+17
19442.0	5.5799049757218125e+17
19443.0	5.523703035767464e+17
19444.0	5.469856860209149e+17
19445.0	5.4085975228634496e+17
19446.0	5.3313314498805754e+17
19447.0	5.242015269431974e+17
19448.0	5.136725880515247e+17
19449.0	4.989075428387498e+17
19450.0	4.6630866514520576e+17
19451.0	4.545240540468562e+17
19452.0	4.847550940403035e+17
19453.0	5.071954500736348e+17
19454.0	5.189306059238053e+17
19455.0	5.280738240189779e+17
19456.0	5.364305172103171e+17
19457.0	5.430167563752787e+17
19458.0	5.46287854358805e+17
19459.0	5.537732436688897e+17
19460.0	5.5866334774995584e+17
19461.0	5.625716026638334e+17
19462.0	5.658396767638869e+17
19463.0	5.6865420811960294e+17
19464.0	5.711412454227967e+17
19465.0	5.736972005933056e+17
19466.0	5.760470585704443e+17
19467.0	5.783207362428928e+17
19468.0	5.801176788369408e+17
19469.0	5.815626921323177e+17
19470.0	5.830139668245161e+17
19471.0	5.842169326381738e+17
19472.0	5.852958491847337e+17
19473.0	5.862455011267924e+17
19474.0	5.871250526175232e+17
19475.0	5.880055427235837e+17
19476.0	5.888650174092627e+17
19477.0	5.895921383156394e+17
19478.0	5.902439397982207e+17
19479.0	5.90810054725905e+17
19480.0	5.913199401850195e+17
19481.0	5.917720711965353e+17
19482.0	5.921808892384595e+17
19483.0	5.925464581341183e+17
19484.0	5.928714359537663e+17
19485.0	5.931630399062013e+17
19486.0	5.934190707081215e+17
19487.0	5.936478376951807e+17
19488.0	5.938701318225919e+17
19489.0	5.940568150507519e+17
19490.0	5.941441966637053e+17
19491.0	5.943889243056809e+17
19492.0	5.94520917025314e+17
19493.0	5.94636927209745e+17
19494.0	5.947337961985366e+17
19495.0	5.948146303631359e+17
19496.0	5.948721442674003e+17
19497.0	5.949658878006612e+17
19498.0	5.948318676243804e+17
19499.0	5.890943836225475e+17
19500.0	5.950930016359763e+17
19501.0	5.951114701351593e+17
19502.0	5.951254498202963e+17
19503.0	5.951332299745961e+17
19504.0	5.951313940578301e+17
19505.0	5.951390066496851e+17
19506.0	5.951309073088512e+17
19507.0	5.951125365369514e+17
19508.0	5.950908360469162e+17
19509.0	5.950630753468415e+17
19510.0	5.950248387433812e+17
19511.0	5.905856139537038e+17
19512.0	5.942054539842868e+17
19513.0	5.932460428754913e+17
19514.0	5.93720271018392e+17
19515.0	5.947243975322284e+17
19516.0	5.947681406276947e+17
19517.0	5.947074447147005e+17
19518.0	5.946550850508116e+17
19519.0	5.94596897820945e+17
19520.0	5.9453518919325e+17
19521.0	5.944721627152383e+17
19522.0	5.944023389481641e+17
19523.0	5.943364841810602e+17
19524.0	5.942655941520041e+17
19525.0	5.941889164028586e+17
19526.0	5.941184876773376e+17
19527.0	5.940426564785492e+17
19528.0	5.939661535619754e+17
19529.0	5.938889204170751e+17
19530.0	5.938125700333568e+17
19531.0	5.937350425182207e+17
19532.0	5.936528273091241e+17
19533.0	5.935697294087508e+17
19534.0	5.934856615755773e+17
19535.0	5.93399157690641e+17
19536.0	5.933121434288127e+17
19537.0	5.932306845226324e+17
19538.0	5.931411750693546e+17
19539.0	5.930215057042092e+17
19540.0	5.929643518110378e+17
19541.0	5.928758791897088e+17
19542.0	5.927846851641343e+17
19543.0	5.926930865979392e+17
19544.0	5.926011659091967e+17
19545.0	5.924880481168041e+17
19546.0	5.923598822102356e+17
19547.0	5.92320295739938e+17
19548.0	5.922289214291968e+17
19549.0	5.921282760288938e+17
19550.0	5.920396724753748e+17
19551.0	5.919440863144617e+17
19552.0	5.918478286454783e+17
19553.0	5.917501298835455e+17
19554.0	5.916517056468307e+17
19555.0	5.915560190323369e+17
19556.0	5.914586791630164e+17
19557.0	5.913600667418623e+17
19558.0	5.912620998240937e+17
19559.0	5.911613890625536e+17
19560.0	5.910630425602729e+17
19561.0	5.909636609037651e+17
19562.0	5.908653333457578e+17
19563.0	5.907652075498154e+17
19564.0	5.906655162837674e+17
19565.0	5.905648689261226e+17
19566.0	5.904631172781396e+17
19567.0	5.903634376163327e+17
19568.0	5.902611198771199e+17
19569.0	5.901598642754899e+17
19570.0	5.900602616490665e+17
19571.0	5.899586336631466e+17
19572.0	5.898545775247359e+17
19573.0	5.897539917534548e+17
19574.0	5.896458076509524e+17
19575.0	5.895499081056255e+17
19576.0	5.894465890462378e+17
19577.0	5.89336246624802e+17
19578.0	5.892397374373888e+17
19579.0	5.891377534249641e+17
19580.0	5.890346305191936e+17
19581.0	5.889324479064746e+17
19582.0	5.888301908448595e+17
19583.0	5.887267500108457e+17
19584.0	5.886214908062378e+17
19585.0	5.885115769727657e+17
19586.0	5.883858021690026e+17
19587.0	5.882591586549759e+17
19588.0	5.88175550587426e+17
19589.0	5.880532732040531e+17
19590.0	5.87992098021922e+17
19591.0	5.878950623794516e+17
19592.0	5.877906836291583e+17
19593.0	5.876833648814762e+17
19594.0	5.875585902794067e+17
19595.0	5.874765944324095e+17
19596.0	5.863753307739484e+17
19597.0	5.872640309504682e+17
19598.0	5.871487686803455e+17
19599.0	5.870596536314537e+17
19600.0	5.869553231156564e+17
19601.0	5.868466173116415e+17
19602.0	5.867429854969855e+17
19603.0	5.865486887682045e+17
19604.0	5.865298568325801e+17
19605.0	5.864120536530944e+17
19606.0	5.863239870403924e+17
19607.0	5.862204928688128e+17
19608.0	5.861131799232512e+17
19609.0	5.860044111347711e+17
19610.0	5.859043854428842e+17
19611.0	5.857986034182825e+17
19612.0	5.856939574209193e+17
19613.0	5.855875390504959e+17
19614.0	5.854806820257791e+17
19615.0	5.853775514304511e+17
19616.0	5.852391280039252e+17
19617.0	5.851658649075711e+17
19618.0	5.850323214838442e+17
19619.0	5.849163076643497e+17
19620.0	5.848132236957011e+17
19621.0	5.847442874433535e+17
19622.0	5.84639357002274e+17
19623.0	5.845337312854015e+17
19624.0	5.844278771886761e+17
19625.0	5.84321648820224e+17
19626.0	5.84216427504162e+17
19627.0	5.841112818952873e+17
19628.0	5.839084155742894e+17
19629.0	5.838942280613887e+17
19630.0	5.837323133867351e+17
19631.0	5.794897202948758e+17
19632.0	5.835806251242838e+17
19633.0	5.834726111707136e+17
19634.0	5.833717798229332e+17
19635.0	5.832636834512895e+17
19636.0	5.831593342708393e+17
19637.0	5.830301714481151e+17
19638.0	5.829484823445503e+17
19639.0	5.828395342495741e+17
19640.0	5.82733767254562e+17
19641.0	5.825977199711574e+17
19642.0	5.825255091557716e+17
19643.0	5.824174423539711e+17
19644.0	5.823111426823508e+17
19645.0	5.821937796950697e+17
19646.0	5.821034170504531e+17
19647.0	5.81997691998481e+17
19648.0	5.818916754423807e+17
19649.0	5.817857731810644e+17
19650.0	5.816805174717098e+17
19651.0	5.815743555829759e+17
19652.0	5.814685339222015e+17
19653.0	5.813615573598208e+17
19654.0	5.81257037611008e+17
19655.0	5.811508487389183e+17
19656.0	5.810447529104724e+17
19657.0	5.80940039524625e+17
19658.0	5.808332408706388e+17
19659.0	5.807289403441151e+17
19660.0	5.806235293756074e+17
19661.0	5.805176931046742e+17
19662.0	5.804122016055295e+17
19663.0	5.803030069553836e+17
19664.0	5.801806265319423e+17
19665.0	5.800952737038335e+17
