# Flux units: erg / (cm m2 s)
# Wavelength units: Angstrom
wave	flux
19000.0	7.253319435856556e+17
19001.0	7.251932628385791e+17
19002.0	7.250647237787647e+17
19003.0	7.249305261834239e+17
19004.0	7.247969933852671e+17
19005.0	7.246633976725501e+17
19006.0	7.245295087779839e+17
19007.0	7.243801080889344e+17
19008.0	7.242585101828093e+17
19009.0	7.241224343781375e+17
19010.0	7.239715005311658e+17
19011.0	7.23855283917073e+17
19012.0	7.236861439945385e+17
19013.0	7.235911736273577e+17
19014.0	7.234532836463956e+17
19015.0	7.233203748208637e+17
19016.0	7.231854876819455e+17
19017.0	7.230527062234451e+17
19018.0	7.229165307341481e+17
19019.0	7.227849445124777e+17
19020.0	7.226489545512276e+17
19021.0	7.225158934724607e+17
19022.0	7.223819328552957e+17
19023.0	7.222451142393855e+17
19024.0	7.221111192289279e+17
19025.0	7.219744265819475e+17
19026.0	7.218379945410557e+17
19027.0	7.216710892038825e+17
19028.0	7.215742260871165e+17
19029.0	7.214395591491583e+17
19030.0	7.213048657870847e+17
19031.0	7.211700948303871e+17
19032.0	7.21035280532548e+17
19033.0	7.208957858108756e+17
19034.0	7.207652937433088e+17
19035.0	7.206248832652628e+17
19036.0	7.180398076013226e+17
19037.0	7.203588546407081e+17
19038.0	7.202245604365651e+17
19039.0	7.200911705243645e+17
19040.0	7.199563098095615e+17
19041.0	7.198212885927251e+17
19042.0	7.19681689293073e+17
19043.0	7.195515561181183e+17
19044.0	7.194161816010752e+17
19045.0	7.192801565474815e+17
19046.0	7.191438760607744e+17
19047.0	7.190102937698301e+17
19048.0	7.188663041523711e+17
19049.0	7.187365955807914e+17
19050.0	7.186035424712019e+17
19051.0	7.181051629666299e+17
19052.0	7.182549415624704e+17
19053.0	7.181965753057279e+17
19054.0	7.18065375379456e+17
19055.0	7.179172782800896e+17
19056.0	7.177941305786365e+17
19057.0	7.176591499067391e+17
19058.0	7.175199037674838e+17
19059.0	7.173894988016298e+17
19060.0	7.172532293599232e+17
19061.0	7.171191819206655e+17
19062.0	7.169837003090602e+17
19063.0	7.16848526139938e+17
19064.0	7.167074284950868e+17
19065.0	7.16568978854161e+17
19066.0	7.164397478739965e+17
19067.0	7.163073806729216e+17
19068.0	7.161722347454463e+17
19069.0	7.160369516642301e+17
19070.0	7.159004266495999e+17
19071.0	7.157651951583232e+17
19072.0	7.156305651302399e+17
19073.0	7.154954468851711e+17
19074.0	7.153603826068136e+17
19075.0	7.152250356323667e+17
19076.0	7.150886623117311e+17
19077.0	7.149536108959062e+17
19078.0	7.14817617858833e+17
19079.0	7.14683589713374e+17
19080.0	7.145477469721939e+17
19081.0	7.144108845957119e+17
19082.0	7.142751640485887e+17
19083.0	7.14135946989841e+17
19084.0	7.139941055550803e+17
19085.0	7.138708447472297e+17
19086.0	7.137130628601172e+17
19087.0	7.135269501272063e+17
19088.0	7.134541016378025e+17
19089.0	7.132808691930454e+17
19090.0	7.131903249350653e+17
19091.0	7.130562784744787e+17
19092.0	7.129028915189075e+17
19093.0	7.12787429040674e+17
19094.0	7.126515156953769e+17
19095.0	7.125159309038931e+17
19096.0	7.123805080125437e+17
19097.0	7.122459843799722e+17
19098.0	7.121105596710911e+17
19099.0	7.1197504059037e+17
19100.0	7.11836173336576e+17
19101.0	7.117029938386259e+17
19102.0	7.115643592288936e+17
19103.0	7.114336466807466e+17
19104.0	7.11298138505216e+17
19105.0	7.111617432343891e+17
19106.0	7.110135560972969e+17
19107.0	7.108903512134995e+17
19108.0	7.107551493619711e+17
19109.0	7.103985500553212e+17
19110.0	7.104739839137108e+17
19111.0	7.103487048067756e+17
19112.0	7.102141890035711e+17
19113.0	7.10078958211345e+17
19114.0	7.099434837300564e+17
19115.0	7.098014964733267e+17
19116.0	7.096712767558995e+17
19117.0	7.095353439769939e+17
19118.0	7.093846220821842e+17
19119.0	7.09098634442615e+17
19120.0	7.091097184501759e+17
19121.0	7.089791841599488e+17
19122.0	7.088595651264511e+17
19123.0	7.087239746027519e+17
19124.0	7.085756184352084e+17
19125.0	7.084505684770816e+17
19126.0	7.083165229951657e+17
19127.0	7.080949574882644e+17
19128.0	7.079506500823721e+17
19129.0	7.079066993688573e+17
19130.0	7.077747219584339e+17
19131.0	7.076488253101395e+17
19132.0	7.075165310899539e+17
19133.0	7.073568149296468e+17
19134.0	7.072040034325846e+17
19135.0	7.071091396007251e+17
19136.0	7.069743237649748e+17
19137.0	7.068304882182825e+17
19138.0	7.066986987126783e+17
19139.0	7.065671463250602e+17
19140.0	7.06431846326818e+17
19141.0	7.062962263031807e+17
19142.0	7.061593435144191e+17
19143.0	7.060224176641364e+17
19144.0	7.058886320892585e+17
19145.0	7.057527444690259e+17
19146.0	7.055861197307904e+17
19147.0	7.054769787677353e+17
19148.0	7.053450487529471e+17
19149.0	7.052096532643837e+17
19150.0	7.050744565858301e+17
19151.0	7.049390975877119e+17
19152.0	7.048006471079252e+17
19153.0	7.046667046660777e+17
19154.0	7.045253714411519e+17
19155.0	7.043950938423293e+17
19156.0	7.042593653260287e+17
19157.0	7.041170850272598e+17
19158.0	7.038385562583037e+17
19159.0	7.038487147227817e+17
19160.0	7.037127777495722e+17
19161.0	7.035708385176233e+17
19162.0	7.031011280595629e+17
19163.0	7.032925570727933e+17
19164.0	7.031724934430719e+17
19165.0	7.030306852831232e+17
19166.0	7.028875478783316e+17
19167.0	7.027324384619177e+17
19168.0	7.02625964307251e+17
19169.0	7.024863560597504e+17
19170.0	7.023567998812159e+17
19171.0	7.022017953923071e+17
19172.0	7.020827455258623e+17
19173.0	7.019481996634793e+17
19174.0	7.018107783959892e+17
19175.0	7.016775540888916e+17
19176.0	7.015413648982015e+17
19177.0	7.013972358900393e+17
19178.0	7.012587703107584e+17
19179.0	7.011057867074217e+17
19180.0	7.009894179099987e+17
19181.0	7.008546949780819e+17
19182.0	7.007225025396735e+17
19183.0	7.005868126808746e+17
19184.0	7.004484355315027e+17
19185.0	7.00314857644578e+17
19186.0	7.001787489146196e+17
19187.0	7.000391449313279e+17
19188.0	6.99904804659746e+17
19189.0	6.997649381829289e+17
19190.0	6.996268531668307e+17
19191.0	6.994913712756052e+17
19192.0	6.993587641603411e+17
19193.0	6.992185626984447e+17
19194.0	6.990831464480767e+17
19195.0	6.989478327484415e+17
19196.0	6.988098220414292e+17
19197.0	6.986698077153961e+17
19198.0	6.985188366090239e+17
19199.0	6.963845039915e+17
19200.0	6.968131340380849e+17
19201.0	6.981107070621012e+17
19202.0	6.979864379435689e+17
19203.0	6.978474665312255e+17
19204.0	6.977146494211412e+17
19205.0	6.975802250537641e+17
19206.0	6.974427421999101e+17
19207.0	6.973018418271572e+17
19208.0	6.971598104603305e+17
19209.0	6.970322899173375e+17
19210.0	6.96894993080866e+17
19211.0	6.967575613276159e+17
19212.0	6.966199555806548e+17
19213.0	6.964616033381033e+17
19214.0	6.96313720078336e+17
19215.0	6.961986039098026e+17
19216.0	6.960694921876819e+17
19217.0	6.959321058727252e+17
19218.0	6.957523445044563e+17
19219.0	6.956481852560723e+17
19220.0	6.955163223501481e+17
19221.0	6.953638844956672e+17
19222.0	6.952418840761684e+17
19223.0	6.951042249916415e+17
19224.0	6.949643232127658e+17
19225.0	6.948204638983507e+17
19226.0	6.946886160220159e+17
19227.0	6.945499347856041e+17
19228.0	6.944125078558036e+17
19229.0	6.942738610126847e+17
19230.0	6.941314518089727e+17
19231.0	6.939939140796415e+17
19232.0	6.938566720487423e+17
19233.0	6.937147827290111e+17
19234.0	6.935781964775423e+17
19235.0	6.934390626058239e+17
19236.0	6.933009245317802e+17
19237.0	6.931607220213075e+17
19238.0	6.930143498993664e+17
19239.0	6.928824865740116e+17
19240.0	6.927392862546601e+17
19241.0	6.926006660453716e+17
19242.0	6.924621262968148e+17
19243.0	6.923144981206355e+17
19244.0	6.921830949104297e+17
19245.0	6.920428222152701e+17
19246.0	6.919016397755731e+17
19247.0	6.917618313898665e+17
19248.0	6.916212718742186e+17
19249.0	6.914795249511082e+17
19250.0	6.913391720049321e+17
19251.0	6.911914475694761e+17
19252.0	6.910432623897257e+17
19253.0	6.909153738664617e+17
19254.0	6.907738319749119e+17
19255.0	6.906236758218067e+17
19256.0	6.90486051480098e+17
19257.0	6.903485653407059e+17
19258.0	6.902067477435731e+17
19259.0	6.900608664251049e+17
19260.0	6.898802527043583e+17
19261.0	6.897792196105556e+17
19262.0	6.896339267529385e+17
19263.0	6.894900234682365e+17
19264.0	6.893240302523731e+17
19265.0	6.891971544438099e+17
19266.0	6.890549799813119e+17
19267.0	6.889192586652329e+17
19268.0	6.887752030573907e+17
19269.0	6.886309312331775e+17
19270.0	6.884862655638186e+17
19271.0	6.883253322164906e+17
19272.0	6.881948596524371e+17
19273.0	6.879427363340287e+17
19274.0	6.878365878670675e+17
19275.0	6.877603689048746e+17
19276.0	6.876135042318335e+17
19277.0	6.874683620196352e+17
19278.0	6.873218990211072e+17
19279.0	6.871717278384127e+17
19280.0	6.870242630303743e+17
19281.0	6.868796084060159e+17
19282.0	6.867322434224127e+17
19283.0	6.86554688467763e+17
19284.0	6.864029057635667e+17
19285.0	6.862784539830954e+17
19286.0	6.861379165574484e+17
19287.0	6.859903227046569e+17
19288.0	6.85108856094719e+17
19289.0	6.841649293077142e+17
19290.0	6.855409936979284e+17
19291.0	6.853777585864701e+17
19292.0	6.852403661198676e+17
19293.0	6.850888161995433e+17
19294.0	6.849376322322431e+17
19295.0	6.847856154858836e+17
19296.0	6.846331699418451e+17
19297.0	6.844790686963028e+17
19298.0	6.843261235407529e+17
19299.0	6.841732907925503e+17
19300.0	6.840189720024403e+17
19301.0	6.838640445489151e+17
19302.0	6.837020513708714e+17
19303.0	6.835003224053076e+17
19304.0	6.833457832045225e+17
19305.0	6.831901395036842e+17
19306.0	6.830331102145193e+17
19307.0	6.828709975687167e+17
19308.0	6.827134095982591e+17
19309.0	6.824864847495167e+17
19310.0	6.823038459488936e+17
19311.0	6.822270197213865e+17
19312.0	6.82077522563345e+17
19313.0	6.819161230890323e+17
19314.0	6.802005539072695e+17
19315.0	6.80109754286081e+17
19316.0	6.814214988147369e+17
19317.0	6.812654114264404e+17
19318.0	6.811003381612541e+17
19319.0	6.809361022888617e+17
19320.0	6.807700037959677e+17
19321.0	6.806033315222868e+17
19322.0	6.804255353951572e+17
19323.0	6.802364198901076e+17
19324.0	6.80094857306658e+17
19325.0	6.798643725423956e+17
19326.0	6.797548823336275e+17
19327.0	6.795846627972436e+17
19328.0	6.794129542829398e+17
19329.0	6.792394845803859e+17
19330.0	6.790630253876563e+17
19331.0	6.788870584664063e+17
19332.0	6.787123899618644e+17
19333.0	6.785338404678313e+17
19334.0	6.783559133386068e+17
19335.0	6.781758011168084e+17
19336.0	6.779941030286676e+17
19337.0	6.778127330050048e+17
19338.0	6.776190492737535e+17
19339.0	6.774450666078207e+17
19340.0	6.772562409990825e+17
19341.0	6.770705352534697e+17
19342.0	6.768617012767402e+17
19343.0	6.766933048644948e+17
19344.0	6.765018987801257e+17
19345.0	6.762198785327101e+17
19346.0	6.7607125819392e+17
19347.0	6.759177070313471e+17
19348.0	6.756667465138173e+17
19349.0	6.754424361145684e+17
19350.0	6.752416569491453e+17
19351.0	6.750403958581929e+17
19352.0	6.748337307560617e+17
19353.0	6.746324261841578e+17
19354.0	6.744251363404457e+17
19355.0	6.742117285451091e+17
19356.0	6.740045766939987e+17
19357.0	6.737913456186708e+17
19358.0	6.735740740304896e+17
19359.0	6.73352507265297e+17
19360.0	6.731361332581716e+17
19361.0	6.729148478608726e+17
19362.0	6.726923881982634e+17
19363.0	6.724655129821183e+17
19364.0	6.722361024490153e+17
19365.0	6.719034376585213e+17
19366.0	6.716450107905363e+17
19367.0	6.714057451809449e+17
19368.0	6.711637572583423e+17
19369.0	6.709154646676822e+17
19370.0	6.706588748349439e+17
19371.0	6.704184470536191e+17
19372.0	6.701675672764415e+17
19373.0	6.69910141309201e+17
19374.0	6.695986279044436e+17
19375.0	6.692144156770301e+17
19376.0	6.689468401232553e+17
19377.0	6.686753269568852e+17
19378.0	6.684003021094911e+17
19379.0	6.681212031948116e+17
19380.0	6.678379383575891e+17
19381.0	6.673461232883027e+17
19382.0	6.670213709124947e+17
19383.0	6.667179215465129e+17
19384.0	6.664068637130751e+17
19385.0	6.660336927113215e+17
19386.0	6.654791263802708e+17
19387.0	6.651504197544616e+17
19388.0	6.648151025560234e+17
19389.0	6.642515161645056e+17
19390.0	6.637522127246676e+17
19391.0	6.613964179898342e+17
19392.0	6.626651931323041e+17
19393.0	6.621931718923604e+17
19394.0	6.616742738526205e+17
19395.0	6.608587849727999e+17
19396.0	6.603322186268666e+17
19397.0	6.59384473625122e+17
19398.0	6.586653669851136e+17
19399.0	6.577051761552041e+17
19400.0	6.569048190659241e+17
19401.0	6.563046630271657e+17
19402.0	6.557631211285162e+17
19403.0	6.552061313985193e+17
19404.0	6.546369765092009e+17
19405.0	6.540490483346089e+17
19406.0	6.534437980340224e+17
19407.0	6.527934247119529e+17
19408.0	6.52101842772514e+17
19409.0	6.514678155618985e+17
19410.0	6.507827950518272e+17
19411.0	6.500746760901972e+17
19412.0	6.493437014573055e+17
19413.0	6.485842366649684e+17
19414.0	6.477318567144105e+17
19415.0	6.469072390717439e+17
19416.0	6.460603046559743e+17
19417.0	6.451862729392124e+17
19418.0	6.442222276138324e+17
19419.0	6.43319729365538e+17
19420.0	6.422942396536148e+17
19421.0	6.412378827303594e+17
19422.0	6.400214111180113e+17
19423.0	6.387848347385852e+17
19424.0	6.373739983099219e+17
19425.0	6.357748082715305e+17
19426.0	6.339122683707392e+17
19427.0	6.317722821110442e+17
19428.0	6.290473691206994e+17
19429.0	6.257939450953729e+17
19430.0	6.232469010732374e+17
19431.0	6.209356158031191e+17
19432.0	6.191276856005971e+17
19433.0	6.169405994041344e+17
19434.0	6.146124558980435e+17
19435.0	6.120411012704937e+17
19436.0	6.092686118005416e+17
19437.0	6.064871936360449e+17
19438.0	6.009593762501979e+17
19439.0	5.991693385291095e+17
19440.0	5.944816865815208e+17
19441.0	5.883332193681403e+17
19442.0	5.818898291796652e+17
19443.0	5.7621386799786643e+17
19444.0	5.697013832919717e+17
19445.0	5.6189227494277165e+17
19446.0	5.5175780824514534e+17
19447.0	5.393020163719163e+17
19448.0	5.2471134060980966e+17
19449.0	5.0452899107089043e+17
19450.0	4.751229950012022e+17
19451.0	4.663534866661375e+17
19452.0	4.901697830780936e+17
19453.0	5.155574649978887e+17
19454.0	5.321540161066317e+17
19455.0	5.4516137573307686e+17
19456.0	5.5633273205118336e+17
19457.0	5.649562876248059e+17
19458.0	5.6974823828138906e+17
19459.0	5.774849418286428e+17
19460.0	5.831242043184465e+17
19461.0	5.896667203807914e+17
19462.0	5.947918315945989e+17
19463.0	5.988694440454829e+17
19464.0	6.021601376774826e+17
19465.0	6.050208585263788e+17
19466.0	6.075575718379519e+17
19467.0	6.099158244349268e+17
19468.0	6.12135517360401e+17
19469.0	6.141159400625491e+17
19470.0	6.160416247207251e+17
19471.0	6.178921455637844e+17
19472.0	6.197703778238464e+17
19473.0	6.226041433489418e+17
19474.0	6.253114657079299e+17
19475.0	6.2752449129786e+17
19476.0	6.292441657944748e+17
19477.0	6.306864120375973e+17
19478.0	6.319045082436947e+17
19479.0	6.330134655139839e+17
19480.0	6.340143053712042e+17
19481.0	6.348236361738921e+17
19482.0	6.356978699162963e+17
19483.0	6.363727534227456e+17
19484.0	6.370718855288147e+17
19485.0	6.377559272281427e+17
19486.0	6.383498012480854e+17
19487.0	6.389232210455209e+17
19488.0	6.395277521627817e+17
19489.0	6.400717215148713e+17
19490.0	6.405171124895743e+17
19491.0	6.410414996848639e+17
19492.0	6.414910493818879e+17
19493.0	6.419168019262121e+17
19494.0	6.423217993766227e+17
19495.0	6.427357353082877e+17
19496.0	6.430936479214249e+17
19497.0	6.434540893503487e+17
19498.0	6.434651844728148e+17
19499.0	6.411090419602767e+17
19500.0	6.443927458545663e+17
19501.0	6.446760172628649e+17
19502.0	6.452046767063036e+17
19503.0	6.456570976840361e+17
19504.0	6.464716716463444e+17
19505.0	6.468659295114584e+17
19506.0	6.474450170019839e+17
19507.0	6.477261291825837e+17
19508.0	6.482680284359337e+17
19509.0	6.484073272836095e+17
19510.0	6.488362992358743e+17
19511.0	6.458796022256972e+17
19512.0	6.486259588748626e+17
19513.0	6.48664019457364e+17
19514.0	6.490323455486624e+17
19515.0	6.4974409447069e+17
19516.0	6.498890079535104e+17
19517.0	6.502120114443603e+17
19518.0	6.502733341261823e+17
19519.0	6.503247408442026e+17
19520.0	6.503805056537939e+17
19521.0	6.504819797786623e+17
19522.0	6.506732550007465e+17
19523.0	6.507038832066559e+17
19524.0	6.507293889090899e+17
19525.0	6.507500132805289e+17
19526.0	6.507686018766163e+17
19527.0	6.507829171060736e+17
19528.0	6.50897869836561e+17
19529.0	6.509620524045652e+17
19530.0	6.509653668833961e+17
19531.0	6.509652862828543e+17
19532.0	6.509622184990035e+17
19533.0	6.509562614688425e+17
19534.0	6.509474988687359e+17
19535.0	6.509360250705236e+17
19536.0	6.509193520130729e+17
19537.0	6.509032198111231e+17
19538.0	6.509409439405398e+17
19539.0	6.509482649583616e+17
19540.0	6.50944803049745e+17
19541.0	6.509173390267731e+17
19542.0	6.508860240734889e+17
19543.0	6.508524339199997e+17
19544.0	6.508166254690304e+17
19545.0	6.507546644141395e+17
19546.0	6.506976423619242e+17
19547.0	6.506965787563347e+17
19548.0	6.506524751604394e+17
19549.0	6.50602134634496e+17
19550.0	6.505593488190121e+17
19551.0	6.505100875573929e+17
19552.0	6.504589241789097e+17
19553.0	6.504049104912383e+17
19554.0	6.503500294214995e+17
19555.0	6.502950019705513e+17
19556.0	6.502382091370496e+17
19557.0	6.50241922564096e+17
19558.0	6.501930148823039e+17
19559.0	6.501311722465961e+17
19560.0	6.500670052674217e+17
19561.0	6.500032570895017e+17
19562.0	6.499384191614976e+17
19563.0	6.498714532533588e+17
19564.0	6.498032915491497e+17
19565.0	6.497339194387114e+17
19566.0	6.496624081633279e+17
19567.0	6.495915851732308e+17
19568.0	6.495174602173097e+17
19569.0	6.494446017314815e+17
19570.0	6.493700885927252e+17
19571.0	6.492938429967017e+17
19572.0	6.492157201001129e+17
19573.0	6.491380373957289e+17
19574.0	6.490559148108457e+17
19575.0	6.489806319474003e+17
19576.0	6.489000581791743e+17
19577.0	6.488178030542847e+17
19578.0	6.487340943933439e+17
19579.0	6.486517176336383e+17
19580.0	6.485677418654378e+17
19581.0	6.484834495670953e+17
19582.0	6.483986940078762e+17
19583.0	6.483124166852608e+17
19584.0	6.482240237557075e+17
19585.0	6.481322141461162e+17
19586.0	6.480409215543978e+17
19587.0	6.479484941937322e+17
19588.0	6.478479122672297e+17
19589.0	6.477789553229823e+17
19590.0	6.476853652313428e+17
19591.0	6.475986280032937e+17
19592.0	6.475068750168064e+17
19593.0	6.474133681121961e+17
19594.0	6.473083671369044e+17
19595.0	6.472250911184212e+17
19596.0	6.46926274990353e+17
19597.0	6.470287277162496e+17
19598.0	6.469284786077695e+17
19599.0	6.468482976361129e+17
19600.0	6.467522141705556e+17
19601.0	6.466521638021801e+17
19602.0	6.465555789774847e+17
19603.0	6.464105669285204e+17
19604.0	6.46355320185378e+17
19605.0	6.462500827911508e+17
19606.0	6.46165872910882e+17
19607.0	6.460669670981631e+17
19608.0	6.459671539176788e+17
19609.0	6.458652723161769e+17
19610.0	6.457672117256191e+17
19611.0	6.456663066279935e+17
19612.0	6.455656148107264e+17
19613.0	6.454642728763391e+17
19614.0	6.453604543452499e+17
19615.0	6.452596364192425e+17
19616.0	6.451400180148906e+17
19617.0	6.450556165947391e+17
19618.0	6.449248377066835e+17
19619.0	6.448159407123113e+17
19620.0	6.447137164361728e+17
19621.0	6.446422064190804e+17
19622.0	6.44568495231249e+17
19623.0	6.444762497635667e+17
19624.0	6.443716524900351e+17
19625.0	6.442666225041408e+17
19626.0	6.441615038087165e+17
19627.0	6.440553709305855e+17
19628.0	6.43901218025199e+17
19629.0	6.438377956747945e+17
19630.0	6.435544961646591e+17
19631.0	6.414915095669421e+17
19632.0	6.435205889916927e+17
19633.0	6.434156587603284e+17
19634.0	6.433124314163882e+17
19635.0	6.432036552179711e+17
19636.0	6.430986520057172e+17
19637.0	6.429715590720169e+17
19638.0	6.428833037156351e+17
19639.0	6.427750232839508e+17
19640.0	6.42662175744546e+17
19641.0	6.425271940240724e+17
19642.0	6.424516623684948e+17
19643.0	6.423429741106516e+17
19644.0	6.422312753212073e+17
19645.0	6.421124210491391e+17
19646.0	6.42016887177216e+17
19647.0	6.419078260457472e+17
19648.0	6.417986076278783e+17
19649.0	6.416891084013567e+17
19650.0	6.415797538783231e+17
19651.0	6.414701225312255e+17
19652.0	6.41360359273267e+17
19653.0	6.412494455876265e+17
19654.0	6.411404480697684e+17
19655.0	6.410300738415273e+17
19656.0	6.40919721283857e+17
19657.0	6.408096937847465e+17
19658.0	6.406992128813738e+17
19659.0	6.405885450518527e+17
19660.0	6.404779237791059e+17
19661.0	6.403671148811606e+17
19662.0	6.40256193995298e+17
19663.0	6.401417589118291e+17
19664.0	6.40026088326212e+17
19665.0	6.399228855189503e+17
