# Flux units: erg / (cm m2 s)
# Wavelength units: Angstrom
wave	flux
19000.0	6.201849519887699e+17
19001.0	6.200578896734889e+17
19002.0	6.199554674961065e+17
19003.0	6.198393291057834e+17
19004.0	6.197241199635114e+17
19005.0	6.196098983002112e+17
19006.0	6.194956911072596e+17
19007.0	6.193771853818538e+17
19008.0	6.192603989016575e+17
19009.0	6.191380665029972e+17
19010.0	6.189860361251497e+17
19011.0	6.189142335553536e+17
19012.0	6.187121531770195e+17
19013.0	6.186926124739241e+17
19014.0	6.18572608053794e+17
19015.0	6.184596068630528e+17
19016.0	6.183441943669418e+17
19017.0	6.182342999670783e+17
19018.0	6.181161379648852e+17
19019.0	6.180053413702313e+17
19020.0	6.178895639696724e+17
19021.0	6.177771137007615e+17
19022.0	6.176620409432746e+17
19023.0	6.175426048513363e+17
19024.0	6.174274981199871e+17
19025.0	6.17309480821282e+17
19026.0	6.171883898667008e+17
19027.0	6.170060320844457e+17
19028.0	6.169730287140863e+17
19029.0	6.168572263574185e+17
19030.0	6.167465909638484e+17
19031.0	6.166319205100202e+17
19032.0	6.165155257778175e+17
19033.0	6.163912151356756e+17
19034.0	6.162780012238164e+17
19035.0	6.160762305948329e+17
19036.0	6.106369327366126e+17
19037.0	6.158739646185471e+17
19038.0	6.158212215952724e+17
19039.0	6.157182685588138e+17
19040.0	6.156075264202068e+17
19041.0	6.154936406507519e+17
19042.0	6.152997709720233e+17
19043.0	6.152682135879679e+17
19044.0	6.151522583489193e+17
19045.0	6.150359254127956e+17
19046.0	6.149194286891007e+17
19047.0	6.148081108822697e+17
19048.0	6.146619526698323e+17
19049.0	6.14426066900309e+17
19050.0	6.144493810089983e+17
19051.0	6.13525177307408e+17
19052.0	6.140308569980927e+17
19053.0	6.141179083096064e+17
19054.0	6.140116728807424e+17
19055.0	6.138508864738644e+17
19056.0	6.137760904293033e+17
19057.0	6.136719325790207e+17
19058.0	6.134817197042344e+17
19059.0	6.134167114874879e+17
19060.0	6.133284909438291e+17
19061.0	6.132179251058003e+17
19062.0	6.13103626686737e+17
19063.0	6.129899232296959e+17
19064.0	6.128628251929257e+17
19065.0	6.127431165411327e+17
19066.0	6.126159846004052e+17
19067.0	6.125340526466388e+17
19068.0	6.124218168464724e+17
19069.0	6.1230827452061e+17
19070.0	6.12191322505216e+17
19071.0	6.120765027341652e+17
19072.0	6.119391641643689e+17
19073.0	6.11853339407155e+17
19074.0	6.117402691502079e+17
19075.0	6.116266767024127e+17
19076.0	6.115110951758506e+17
19077.0	6.113976163237887e+17
19078.0	6.112818165536084e+17
19079.0	6.111721650039465e+17
19080.0	6.110573823524863e+17
19081.0	6.109401479206227e+17
19082.0	6.108274678038528e+17
19083.0	6.107064132698111e+17
19084.0	6.105789766828031e+17
19085.0	6.104868531994623e+17
19086.0	6.102814492546388e+17
19087.0	6.100851819719338e+17
19088.0	6.100664959980883e+17
19089.0	6.09950721253922e+17
19090.0	6.099061471270227e+17
19091.0	6.09795647209472e+17
19092.0	6.096048932694698e+17
19093.0	6.095813031056724e+17
19094.0	6.094713782272e+17
19095.0	6.09358918521105e+17
19096.0	6.092443811665236e+17
19097.0	6.091326948900864e+17
19098.0	6.089883714759338e+17
19099.0	6.088688160560467e+17
19100.0	6.087834964328447e+17
19101.0	6.086765214782803e+17
19102.0	6.085551267162793e+17
19103.0	6.084540220396884e+17
19104.0	6.083409145233407e+17
19105.0	6.08156721733086e+17
19106.0	6.08087138579251e+17
19107.0	6.079707099430912e+17
19108.0	6.078423350902783e+17
19109.0	6.074344187538086e+17
19110.0	6.076023863683754e+17
19111.0	6.075174504540841e+17
19112.0	6.074067707407017e+17
19113.0	6.0731881422848e+17
19114.0	6.071922300638547e+17
19115.0	6.070736540139519e+17
19116.0	6.069783464946346e+17
19117.0	6.068629583254868e+17
19118.0	6.067226650083328e+17
19119.0	6.059457250678089e+17
19120.0	6.064780536883882e+17
19121.0	6.063807461851135e+17
19122.0	6.063051942570666e+17
19123.0	6.061933605508436e+17
19124.0	6.060498986467327e+17
19125.0	6.059661815272787e+17
19126.0	6.058511948229289e+17
19127.0	6.055529082257405e+17
19128.0	6.055947494839636e+17
19129.0	6.055085214444201e+17
19130.0	6.054043758275242e+17
19131.0	6.052929372946431e+17
19132.0	6.051809136563539e+17
19133.0	6.050591969116159e+17
19134.0	6.049414207154857e+17
19135.0	6.048424664585556e+17
19136.0	6.047314911166463e+17
19137.0	6.046028070737235e+17
19138.0	6.045048683276969e+17
19139.0	6.043949245049514e+17
19140.0	6.042830023688191e+17
19141.0	6.041707813885267e+17
19142.0	6.04054072922385e+17
19143.0	6.039401589811882e+17
19144.0	6.038293937040041e+17
19145.0	6.037216637048148e+17
19146.0	6.035391595413504e+17
19147.0	6.03487890116881e+17
19148.0	6.033587197444096e+17
19149.0	6.032423812857855e+17
19150.0	6.031601620221951e+17
19151.0	6.030479246841171e+17
19152.0	6.02929941778705e+17
19153.0	6.027715480125437e+17
19154.0	6.02692817081685e+17
19155.0	6.025953538998271e+17
19156.0	6.024810239535786e+17
19157.0	6.023219813285887e+17
19158.0	6.020265692277418e+17
19159.0	6.021260439278931e+17
19160.0	6.020239289832788e+17
19161.0	6.019001832439807e+17
19162.0	6.012921294006956e+17
19163.0	6.01619701047842e+17
19164.0	6.015801572196351e+17
19165.0	6.014097712392873e+17
19166.0	6.013380101231956e+17
19167.0	6.012033134755839e+17
19168.0	6.011344072125097e+17
19169.0	6.010224062933674e+17
19170.0	6.00916899135488e+17
19171.0	6.007807104341331e+17
19172.0	6.006875342503935e+17
19173.0	6.005834323241641e+17
19174.0	6.004692839912788e+17
19175.0	6.003633964100265e+17
19176.0	6.002512494591999e+17
19177.0	6.001209912939862e+17
19178.0	6.000052380106751e+17
19179.0	5.998759355875328e+17
19180.0	5.998000274931711e+17
19181.0	5.996790063038463e+17
19182.0	5.995787274857129e+17
19183.0	5.994713108010324e+17
19184.0	5.993595400093695e+17
19185.0	5.992471537035946e+17
19186.0	5.991365130671444e+17
19187.0	5.990156709746004e+17
19188.0	5.989114897061204e+17
19189.0	5.987995921765716e+17
19190.0	5.986839904474452e+17
19191.0	5.985664955493034e+17
19192.0	5.984628051542015e+17
19193.0	5.983406931662163e+17
19194.0	5.982203030798335e+17
19195.0	5.981145922185897e+17
19196.0	5.979862993644202e+17
19197.0	5.978381631182164e+17
19198.0	5.975661162266623e+17
19199.0	5.942470777678499e+17
19200.0	5.948344047588701e+17
19201.0	5.972555416469504e+17
19202.0	5.972839152746495e+17
19203.0	5.971959552671744e+17
19204.0	5.971061166309373e+17
19205.0	5.970055117056682e+17
19206.0	5.968986058872148e+17
19207.0	5.967778974531583e+17
19208.0	5.966570107611818e+17
19209.0	5.965704417946282e+17
19210.0	5.964599902513833e+17
19211.0	5.963506703313578e+17
19212.0	5.962380267749375e+17
19213.0	5.960909557421395e+17
19214.0	5.959649076794708e+17
19215.0	5.958897411380564e+17
19216.0	5.957952248042835e+17
19217.0	5.956826278745428e+17
19218.0	5.954883809880744e+17
19219.0	5.954445569425407e+17
19220.0	5.953485317778089e+17
19221.0	5.952106237613398e+17
19222.0	5.951287300456447e+17
19223.0	5.950190547981652e+17
19224.0	5.949052011151359e+17
19225.0	5.947848502454953e+17
19226.0	5.946864404092244e+17
19227.0	5.945757228072959e+17
19228.0	5.944678281816746e+17
19229.0	5.94356813762833e+17
19230.0	5.942440616438442e+17
19231.0	5.941328431721129e+17
19232.0	5.940227200428714e+17
19233.0	5.939045633534633e+17
19234.0	5.937978178972329e+17
19235.0	5.936841933630122e+17
19236.0	5.935770689514153e+17
19237.0	5.934644531473065e+17
19238.0	5.933403670402388e+17
19239.0	5.932443576041471e+17
19240.0	5.931333594032809e+17
19241.0	5.930205784134996e+17
19242.0	5.92910516101666e+17
19243.0	5.927835740230995e+17
19244.0	5.926907767248212e+17
19245.0	5.925792129220607e+17
19246.0	5.924673062349482e+17
19247.0	5.923575035505321e+17
19248.0	5.922460882960383e+17
19249.0	5.921316518843732e+17
19250.0	5.920117986689023e+17
19251.0	5.918918365413375e+17
19252.0	5.917709791395839e+17
19253.0	5.916901437166932e+17
19254.0	5.915815729692671e+17
19255.0	5.914494551894697e+17
19256.0	5.913570653678249e+17
19257.0	5.912493782903465e+17
19258.0	5.911382571264682e+17
19259.0	5.910173891690495e+17
19260.0	5.907930404618237e+17
19261.0	5.908026823278592e+17
19262.0	5.906863886783827e+17
19263.0	5.905734606083412e+17
19264.0	5.904129303336275e+17
19265.0	5.90338465079842e+17
19266.0	5.902225264082944e+17
19267.0	5.901396134767273e+17
19268.0	5.900278795949396e+17
19269.0	5.899171065582931e+17
19270.0	5.898048162321748e+17
19271.0	5.896584149598208e+17
19272.0	5.895797915429546e+17
19273.0	5.894310483809619e+17
19274.0	5.893088718006953e+17
19275.0	5.892504924717055e+17
19276.0	5.891371799237971e+17
19277.0	5.890264999307945e+17
19278.0	5.889134356856832e+17
19279.0	5.887991301363028e+17
19280.0	5.886835144261631e+17
19281.0	5.885786225726803e+17
19282.0	5.884648197106345e+17
19283.0	5.883193790737066e+17
19284.0	5.882247032165716e+17
19285.0	5.881139365412863e+17
19286.0	5.880111131787264e+17
19287.0	5.878865119412223e+17
19288.0	5.862319103934451e+17
19289.0	5.840834358411208e+17
19290.0	5.87546113343488e+17
19291.0	5.87429112184832e+17
19292.0	5.873510885534377e+17
19293.0	5.872407374637738e+17
19294.0	5.871284295215785e+17
19295.0	5.870191527329791e+17
19296.0	5.868729892776618e+17
19297.0	5.86783944483362e+17
19298.0	5.866799657298601e+17
19299.0	5.86532535734545e+17
19300.0	5.864575113800361e+17
19301.0	5.863460657168383e+17
19302.0	5.862324665581567e+17
19303.0	5.861109923839999e+17
19304.0	5.860050869070505e+17
19305.0	5.858928878070441e+17
19306.0	5.857778397260457e+17
19307.0	5.85656799732258e+17
19308.0	5.85537488560674e+17
19309.0	5.853093794501971e+17
19310.0	5.851517549892947e+17
19311.0	5.851745660611241e+17
19312.0	5.850838853484543e+17
19313.0	5.849535962152959e+17
19314.0	5.775902563281553e+17
19315.0	5.781086767764933e+17
19316.0	5.845477269088938e+17
19317.0	5.845159568736255e+17
19318.0	5.844086560216404e+17
19319.0	5.842990488616959e+17
19320.0	5.841709798435498e+17
19321.0	5.840394786264404e+17
19322.0	5.839338030672554e+17
19323.0	5.837947507747497e+17
19324.0	5.837062350219944e+17
19325.0	5.835110588874752e+17
19326.0	5.834810910048255e+17
19327.0	5.833768757624831e+17
19328.0	5.832052670027092e+17
19329.0	5.831513087497556e+17
19330.0	5.830317761189204e+17
19331.0	5.829139277108564e+17
19332.0	5.828016020826793e+17
19333.0	5.826822581256191e+17
19334.0	5.825674775713107e+17
19335.0	5.823294903156736e+17
19336.0	5.823294673169065e+17
19337.0	5.822060696349354e+17
19338.0	5.820648393102675e+17
19339.0	5.819682451881983e+17
19340.0	5.818348881313791e+17
19341.0	5.816810337206272e+17
19342.0	5.815516008546301e+17
19343.0	5.814911551318698e+17
19344.0	5.813252428660735e+17
19345.0	5.810130529899858e+17
19346.0	5.810255929103699e+17
19347.0	5.809435236630527e+17
19348.0	5.808883428403881e+17
19349.0	5.807605418382676e+17
19350.0	5.806169999627603e+17
19351.0	5.805108295456084e+17
19352.0	5.803116026221908e+17
19353.0	5.802581227296084e+17
19354.0	5.801340654933331e+17
19355.0	5.799971055992831e+17
19356.0	5.798774730741075e+17
19357.0	5.797513165187754e+17
19358.0	5.796219017581908e+17
19359.0	5.794774758632105e+17
19360.0	5.793155349741567e+17
19361.0	5.792195291032234e+17
19362.0	5.790870088100521e+17
19363.0	5.789564241881769e+17
19364.0	5.788248511086591e+17
19365.0	5.786924280534356e+17
19366.0	5.785590986091177e+17
19367.0	5.784239788261376e+17
19368.0	5.782646559517354e+17
19369.0	5.781146039571796e+17
19370.0	5.779783540888916e+17
19371.0	5.778403881910271e+17
19372.0	5.777066853837482e+17
19373.0	5.775321066373119e+17
19374.0	5.773816793224532e+17
19375.0	5.772375216532137e+17
19376.0	5.770934145253373e+17
19377.0	5.769073303136938e+17
19378.0	5.76744969085474e+17
19379.0	5.765862768945834e+17
19380.0	5.764223239279956e+17
19381.0	5.7624480050053114e+17
19382.0	5.7608133113719456e+17
19383.0	5.7592178107132576e+17
19384.0	5.757722908338858e+17
19385.0	5.756115902005247e+17
19386.0	5.7544774188182176e+17
19387.0	5.7527970135627085e+17
19388.0	5.751089925543252e+17
19389.0	5.7492464170871456e+17
19390.0	5.746973080551422e+17
19391.0	5.6970143019826534e+17
19392.0	5.7416361593623846e+17
19393.0	5.741811512027817e+17
19394.0	5.7400049581861536e+17
19395.0	5.7378585000454816e+17
19396.0	5.735657524341417e+17
19397.0	5.733746358266538e+17
19398.0	5.731471507587071e+17
19399.0	5.728607034234195e+17
19400.0	5.7267120309097805e+17
19401.0	5.72463223214353e+17
19402.0	5.7223659525242874e+17
19403.0	5.719786247946239e+17
19404.0	5.7168420254952096e+17
19405.0	5.7143502761710925e+17
19406.0	5.711355872367956e+17
19407.0	5.707869776598356e+17
19408.0	5.7042303664346464e+17
19409.0	5.701045403516928e+17
19410.0	5.697657513181183e+17
19411.0	5.69307287466803e+17
19412.0	5.688598943410856e+17
19413.0	5.683971170675368e+17
19414.0	5.6784105490786976e+17
19415.0	5.673701597686442e+17
19416.0	5.669056234739028e+17
19417.0	5.664626450628607e+17
19418.0	5.6612098467867296e+17
19419.0	5.657028364075007e+17
19420.0	5.6521421061707085e+17
19421.0	5.6470281262202874e+17
19422.0	5.642100778816851e+17
19423.0	5.6354236915165843e+17
19424.0	5.629837764285779e+17
19425.0	5.621844770728617e+17
19426.0	5.614031440183298e+17
19427.0	5.604949145332393e+17
19428.0	5.594039242631848e+17
19429.0	5.5811907074566803e+17
19430.0	5.5647817967861734e+17
19431.0	5.540479387041809e+17
19432.0	5.52938764448563e+17
19433.0	5.509994408924505e+17
19434.0	5.496861225211221e+17
19435.0	5.4818717683766586e+17
19436.0	5.464819768841551e+17
19437.0	5.4514958316776083e+17
19438.0	5.352740362387464e+17
19439.0	5.401818604852565e+17
19440.0	5.374657215594494e+17
19441.0	5.3344118439062163e+17
19442.0	5.28395000261291e+17
19443.0	5.241871234236415e+17
19444.0	5.2020608691950906e+17
19445.0	5.1556816683444915e+17
19446.0	5.096571142843049e+17
19447.0	5.016571030973095e+17
19448.0	4.904586304640345e+17
19449.0	4.7331595636790586e+17
19450.0	4.3956240733525286e+17
19451.0	4.170164441798024e+17
19452.0	4.598371253048663e+17
19453.0	4.8288517034694035e+17
19454.0	4.962370445814437e+17
19455.0	5.05355296571392e+17
19456.0	5.119765791462741e+17
19457.0	5.1691602732646374e+17
19458.0	5.0447487623061594e+17
19459.0	5.2415097593310214e+17
19460.0	5.2935417879592864e+17
19461.0	5.337960930432325e+17
19462.0	5.371619080579756e+17
19463.0	5.3974934036152314e+17
19464.0	5.417844418980521e+17
19465.0	5.434131956979028e+17
19466.0	5.44764041835315e+17
19467.0	5.459323175392596e+17
19468.0	5.46965963215121e+17
19469.0	5.482967500936531e+17
19470.0	5.5033938529921715e+17
19471.0	5.5190024576040954e+17
19472.0	5.532578998823596e+17
19473.0	5.543711217811452e+17
19474.0	5.552769357665621e+17
19475.0	5.5598919024203066e+17
19476.0	5.568118083900756e+17
19477.0	5.573215627072852e+17
19478.0	5.5779695693660154e+17
19479.0	5.5815604647144083e+17
19480.0	5.585577484571988e+17
19481.0	5.58823168348433e+17
19482.0	5.5916475498277536e+17
19483.0	5.593864646339242e+17
19484.0	5.595852071851347e+17
19485.0	5.5977455673234765e+17
19486.0	5.59947185057519e+17
19487.0	5.602583414571007e+17
19488.0	5.605358919046482e+17
19489.0	5.60786358472977e+17
19490.0	5.60958416512614e+17
19491.0	5.612770449249619e+17
19492.0	5.615144621746858e+17
19493.0	5.616368141467649e+17
19494.0	5.617941262019242e+17
19495.0	5.618564691481941e+17
19496.0	5.6194912439937683e+17
19497.0	5.620062840946687e+17
19498.0	5.613129083213144e+17
19499.0	5.5452761224205203e+17
19500.0	5.621335914971134e+17
19501.0	5.6219865927297683e+17
19502.0	5.622490027349332e+17
19503.0	5.622804472922111e+17
19504.0	5.622793813797545e+17
19505.0	5.622707189536084e+17
19506.0	5.622736246276094e+17
19507.0	5.6228457015323296e+17
19508.0	5.622633307570175e+17
19509.0	5.6222776291928723e+17
19510.0	5.621144639329621e+17
19511.0	5.491904054908142e+17
19512.0	5.607968979899711e+17
19513.0	5.598961888220468e+17
19514.0	5.604277928766103e+17
19515.0	5.61933128372497e+17
19516.0	5.6199085185215136e+17
19517.0	5.6195059226596685e+17
19518.0	5.618978881099092e+17
19519.0	5.618424152937811e+17
19520.0	5.617582455390207e+17
19521.0	5.6175361516721485e+17
19522.0	5.617149935266473e+17
19523.0	5.616538493124607e+17
19524.0	5.615825302760106e+17
19525.0	5.6157684601541965e+17
19526.0	5.615401908742825e+17
19527.0	5.614739624645972e+17
19528.0	5.614027017289728e+17
19529.0	5.613463699892906e+17
19530.0	5.613078296483155e+17
19531.0	5.6123704957992954e+17
19532.0	5.611650723173717e+17
19533.0	5.610919616140627e+17
19534.0	5.610196513936724e+17
19535.0	5.6096875931675296e+17
19536.0	5.608898282476883e+17
19537.0	5.6081599724257274e+17
19538.0	5.606814875910145e+17
19539.0	5.6060074346414086e+17
19540.0	5.605769118482431e+17
19541.0	5.6048862664239776e+17
19542.0	5.604314481426431e+17
19543.0	5.603101716600147e+17
19544.0	5.602700290250069e+17
19545.0	5.601335230944596e+17
19546.0	5.6000915673797965e+17
19547.0	5.6002264317296634e+17
19548.0	5.5993885244347725e+17
19549.0	5.598421971544745e+17
19550.0	5.5977224168625485e+17
19551.0	5.59686300537105e+17
19552.0	5.5960691172966406e+17
19553.0	5.5952312065064954e+17
19554.0	5.5943367313326074e+17
19555.0	5.5934233125847034e+17
19556.0	5.5925702512694605e+17
19557.0	5.591708683905706e+17
19558.0	5.5908204890030074e+17
19559.0	5.589927637024768e+17
19560.0	5.5888302386271565e+17
19561.0	5.588092380162729e+17
19562.0	5.5870445535450445e+17
19563.0	5.586307341702484e+17
19564.0	5.5853938013197645e+17
19565.0	5.5844772983603194e+17
19566.0	5.583525587714047e+17
19567.0	5.582635017437183e+17
19568.0	5.581684650366292e+17
19569.0	5.580844641026047e+17
19570.0	5.5799395969051296e+17
19571.0	5.5790091933231776e+17
19572.0	5.578068371789141e+17
19573.0	5.5771159760732154e+17
19574.0	5.5761295268031136e+17
19575.0	5.575319369722538e+17
19576.0	5.5743398822980256e+17
19577.0	5.57331750461986e+17
19578.0	5.572446801362943e+17
19579.0	5.571510950079147e+17
19580.0	5.570565419040767e+17
19581.0	5.5696293077101216e+17
19582.0	5.5686964972967245e+17
19583.0	5.567743919827626e+17
19584.0	5.5667654565123405e+17
19585.0	5.5656999655833594e+17
19586.0	5.5646714621242016e+17
19587.0	5.5637246762898765e+17
19588.0	5.5624448920780794e+17
19589.0	5.5619623891326285e+17
19590.0	5.560892605333503e+17
19591.0	5.5600672320170656e+17
19592.0	5.559115445174271e+17
19593.0	5.558084569836202e+17
19594.0	5.556856285386067e+17
19595.0	5.5561946395224723e+17
19596.0	5.554591701663744e+17
19597.0	5.554267797935445e+17
19598.0	5.5528341023402656e+17
19599.0	5.5523414925202765e+17
19600.0	5.551384474681343e+17
19601.0	5.5503361755054074e+17
19602.0	5.54935091532049e+17
19603.0	5.547527524144468e+17
19604.0	5.547325942398975e+17
19605.0	5.546239248564224e+17
19606.0	5.545594315603967e+17
19607.0	5.5446330237692576e+17
19608.0	5.543640177486506e+17
19609.0	5.542626611341994e+17
19610.0	5.541486677109417e+17
19611.0	5.5404066627037856e+17
19612.0	5.5397563337714336e+17
19613.0	5.5387665290581325e+17
19614.0	5.537754081394687e+17
19615.0	5.536797388614315e+17
19616.0	5.5351824340746234e+17
19617.0	5.5345222897718605e+17
19618.0	5.533196838677161e+17
19619.0	5.532008568586239e+17
19620.0	5.5310557897905485e+17
19621.0	5.530474492111529e+17
19622.0	5.529950583696043e+17
19623.0	5.528939279679487e+17
19624.0	5.5278892391683405e+17
19625.0	5.5269820559523834e+17
19626.0	5.525968437379071e+17
19627.0	5.5248867955834874e+17
19628.0	5.523040413330091e+17
19629.0	5.521324761939967e+17
19630.0	5.515817338099028e+17
19631.0	5.485756795584514e+17
19632.0	5.519054336251221e+17
19633.0	5.5187526224882336e+17
19634.0	5.5180503163426125e+17
19635.0	5.5170277492217165e+17
19636.0	5.515663979664723e+17
19637.0	5.514340519466324e+17
19638.0	5.5141790520442854e+17
19639.0	5.513235493726889e+17
19640.0	5.512153768045226e+17
19641.0	5.510114169585667e+17
19642.0	5.5102602921465165e+17
19643.0	5.5092666209839776e+17
19644.0	5.5082663158306125e+17
19645.0	5.507069618683903e+17
19646.0	5.505844688977919e+17
19647.0	5.505389522408788e+17
19648.0	5.504418773117609e+17
19649.0	5.5034273654811296e+17
19650.0	5.5024515585583776e+17
19651.0	5.5014603920943776e+17
19652.0	5.5004745174439245e+17
19653.0	5.499476624714409e+17
19654.0	5.498505846063104e+17
19655.0	5.497517584154623e+17
19656.0	5.496539129227945e+17
19657.0	5.495559168546132e+17
19658.0	5.494569147127126e+17
19659.0	5.4935913772701005e+17
19660.0	5.492608444224852e+17
19661.0	5.491623291693738e+17
