# Flux units: erg / (cm m2 s)
# Wavelength units: Angstrom
wave	flux
19000.0	5.871672434709844e+17
19001.0	5.870475906034346e+17
19002.0	5.869529836027904e+17
19003.0	5.868450770933076e+17
19004.0	5.867378949401257e+17
19005.0	5.866290917583529e+17
19006.0	5.865226879281834e+17
19007.0	5.864159475051177e+17
19008.0	5.863043634997929e+17
19009.0	5.861831804103337e+17
19010.0	5.860537057411071e+17
19011.0	5.859798478924457e+17
19012.0	5.858264381478227e+17
19013.0	5.857744343007232e+17
19014.0	5.856628774185641e+17
19015.0	5.85557078896367e+17
19016.0	5.854507411264852e+17
19017.0	5.853474814864042e+17
19018.0	5.852391928758271e+17
19019.0	5.851336920793087e+17
19020.0	5.85026238484753e+17
19021.0	5.849213226538324e+17
19022.0	5.848139708410538e+17
19023.0	5.847017507695274e+17
19024.0	5.845931638041257e+17
19025.0	5.844870677659648e+17
19026.0	5.843738930708479e+17
19027.0	5.842361716310015e+17
19028.0	5.84169885409826e+17
19029.0	5.840632156607828e+17
19030.0	5.83959326945007e+17
19031.0	5.838524423077887e+17
19032.0	5.837428890446505e+17
19033.0	5.836218870093139e+17
19034.0	5.8350695888541e+17
19035.0	5.832692859928575e+17
19036.0	5.80329444702071e+17
19037.0	5.830938578998612e+17
19038.0	5.83082802553378e+17
19039.0	5.82992807259887e+17
19040.0	5.828912529539071e+17
19041.0	5.82786294620706e+17
19042.0	5.825471611316904e+17
19043.0	5.825773866145107e+17
19044.0	5.824700574509737e+17
19045.0	5.823615817744383e+17
19046.0	5.822524294168576e+17
19047.0	5.82146163089954e+17
19048.0	5.820062559283881e+17
19049.0	5.816658388058108e+17
19050.0	5.818045764556116e+17
19051.0	5.813020702452392e+17
19052.0	5.814399903552851e+17
19053.0	5.815010605400063e+17
19054.0	5.814056716511914e+17
19055.0	5.812390548821332e+17
19056.0	5.811825397814612e+17
19057.0	5.810915036714324e+17
19058.0	5.808521138405372e+17
19059.0	5.808301433072297e+17
19060.0	5.807728932246868e+17
19061.0	5.8066886735517e+17
19062.0	5.805629130844841e+17
19063.0	5.804567686021119e+17
19064.0	5.803405271717204e+17
19065.0	5.802273243048618e+17
19066.0	5.800860953083904e+17
19067.0	5.800328901427199e+17
19068.0	5.799285385854975e+17
19069.0	5.798228255571967e+17
19070.0	5.797141635137535e+17
19071.0	5.796082747441151e+17
19072.0	5.794561192361983e+17
19073.0	5.79399685644834e+17
19074.0	5.792943445114879e+17
19075.0	5.791886076455593e+17
19076.0	5.790814664567466e+17
19077.0	5.789750408861012e+17
19078.0	5.788670671978495e+17
19079.0	5.787656731841875e+17
19080.0	5.786588337755476e+17
19081.0	5.78549070307874e+17
19082.0	5.784456423363924e+17
19083.0	5.783320001161897e+17
19084.0	5.782129671667711e+17
19085.0	5.781265165494954e+17
19086.0	5.779038666052948e+17
19087.0	5.777617028382719e+17
19088.0	5.777109012884137e+17
19089.0	5.776612486283263e+17
19090.0	5.775887837779283e+17
19091.0	5.774805571032404e+17
19092.0	5.772733040994989e+17
19093.0	5.772855918723072e+17
19094.0	5.771832624589482e+17
19095.0	5.770788732228948e+17
19096.0	5.769728163315711e+17
19097.0	5.768685499187199e+17
19098.0	5.767084174737405e+17
19099.0	5.765917854138368e+17
19100.0	5.765464350610774e+17
19101.0	5.764446727875242e+17
19102.0	5.763318574743551e+17
19103.0	5.7623719433994234e+17
19104.0	5.761320694229674e+17
19105.0	5.7590360344712557e+17
19106.0	5.7591070726990496e+17
19107.0	5.757781183299583e+17
19108.0	5.756471777514838e+17
19109.0	5.754736734459219e+17
19110.0	5.7545517327974394e+17
19111.0	5.7535377940589203e+17
19112.0	5.752481724934825e+17
19113.0	5.751864760991743e+17
19114.0	5.750572535076181e+17
19115.0	5.749618830737407e+17
19116.0	5.748694132107945e+17
19117.0	5.7476145231517e+17
19118.0	5.746325787596116e+17
19119.0	5.7379914902405005e+17
19120.0	5.7441737272634016e+17
19121.0	5.7432560589864954e+17
19122.0	5.742437415430825e+17
19123.0	5.7414044953695565e+17
19124.0	5.740166776531625e+17
19125.0	5.7392922536618656e+17
19126.0	5.7381582690495136e+17
19127.0	5.735615916845738e+17
19128.0	5.7359609759443616e+17
19129.0	5.7350306981915296e+17
19130.0	5.734075359472298e+17
19131.0	5.7330485253461325e+17
19132.0	5.7320030328586234e+17
19133.0	5.7309046236337485e+17
19134.0	5.729871100291754e+17
19135.0	5.728867106947071e+17
19136.0	5.727822391803903e+17
19137.0	5.726656742293503e+17
19138.0	5.725718057058303e+17
19139.0	5.7247015528038394e+17
19140.0	5.7236632304790176e+17
19141.0	5.722620910982484e+17
19142.0	5.7215411943724365e+17
19143.0	5.720486319226879e+17
19144.0	5.7194432971844256e+17
19145.0	5.718448719353173e+17
19146.0	5.716725690881365e+17
19147.0	5.716289418253652e+17
19148.0	5.714883391782911e+17
19149.0	5.7137645765700256e+17
19150.0	5.713234689873236e+17
19151.0	5.7121889834762234e+17
19152.0	5.711110962064042e+17
19153.0	5.709182006547796e+17
19154.0	5.7088671883810125e+17
19155.0	5.7079719498437965e+17
19156.0	5.7069055669261645e+17
19157.0	5.705371544278358e+17
19158.0	5.703541105273515e+17
19159.0	5.703621442273279e+17
19160.0	5.7026636324099405e+17
19161.0	5.701465574211583e+17
19162.0	5.6986297996847776e+17
19163.0	5.698968753274879e+17
19164.0	5.698514198375081e+17
19165.0	5.696543494853972e+17
19166.0	5.696368298076841e+17
19167.0	5.695313703949652e+17
19168.0	5.694423564287998e+17
19169.0	5.6934229033178445e+17
19170.0	5.6924005598931616e+17
19171.0	5.6912993887191034e+17
19172.0	5.6902997847135565e+17
19173.0	5.6893111390262605e+17
19174.0	5.688245085361492e+17
19175.0	5.6872562670086816e+17
19176.0	5.6862183158797645e+17
19177.0	5.685001695789055e+17
19178.0	5.684029063954432e+17
19179.0	5.682959336778409e+17
19180.0	5.6820366639977805e+17
19181.0	5.680912961721683e+17
19182.0	5.6799688064150176e+17
19183.0	5.6789816594923514e+17
19184.0	5.677947207811071e+17
19185.0	5.676899567839915e+17
19186.0	5.6758745750132045e+17
19187.0	5.6747583392972794e+17
19188.0	5.6737879940573856e+17
19189.0	5.6727446092076365e+17
19190.0	5.671686628879018e+17
19191.0	5.670601056321536e+17
19192.0	5.6695918117082445e+17
19193.0	5.6683921177313274e+17
19194.0	5.6672184445173754e+17
19195.0	5.666286577123326e+17
19196.0	5.6650232345832096e+17
19197.0	5.6634797873343136e+17
19198.0	5.660519300770473e+17
19199.0	5.646179355678035e+17
19200.0	5.647129415865686e+17
19201.0	5.6576958239429965e+17
19202.0	5.658394251755519e+17
19203.0	5.657778405594452e+17
19204.0	5.6569929124194976e+17
19205.0	5.6560848588854605e+17
19206.0	5.6551156922449914e+17
19207.0	5.6539852504214163e+17
19208.0	5.652923557434709e+17
19209.0	5.6521053836410874e+17
19210.0	5.651088953485994e+17
19211.0	5.6500789336255136e+17
19212.0	5.649031232137898e+17
19213.0	5.6478057445894816e+17
19214.0	5.6467223132241914e+17
19215.0	5.645884041723903e+17
19216.0	5.644933895553024e+17
19217.0	5.643866361298943e+17
19218.0	5.6422206771909965e+17
19219.0	5.641649619905193e+17
19220.0	5.640800545974953e+17
19221.0	5.639587751788543e+17
19222.0	5.6387501171234106e+17
19223.0	5.637762559858004e+17
19224.0	5.636702982897664e+17
19225.0	5.6356243491170976e+17
19226.0	5.6346884125491194e+17
19227.0	5.6336696377780896e+17
19228.0	5.632672994252117e+17
19229.0	5.6316466648405325e+17
19230.0	5.6306151701435725e+17
19231.0	5.629583079855445e+17
19232.0	5.6285597661484365e+17
19233.0	5.627469434454015e+17
19234.0	5.6265061335476896e+17
19235.0	5.625461131793749e+17
19236.0	5.6244714368314016e+17
19237.0	5.623432880324607e+17
19238.0	5.6223122769401165e+17
19239.0	5.6213984646266874e+17
19240.0	5.620378188294825e+17
19241.0	5.6193339373213005e+17
19242.0	5.618316070617087e+17
19243.0	5.617137608207017e+17
19244.0	5.6162880337565e+17
19245.0	5.615257495360852e+17
19246.0	5.6142285004690765e+17
19247.0	5.6132062730868045e+17
19248.0	5.612187530472105e+17
19249.0	5.6111219899105274e+17
19250.0	5.609929035481088e+17
19251.0	5.608829085548542e+17
19252.0	5.607784846458879e+17
19253.0	5.607055861044564e+17
19254.0	5.6060572140393805e+17
19255.0	5.604827062424915e+17
19256.0	5.603997236155732e+17
19257.0	5.602993342775296e+17
19258.0	5.6019675362536096e+17
19259.0	5.600837006349652e+17
19260.0	5.599142403375102e+17
19261.0	5.598864843909802e+17
19262.0	5.597789421568e+17
19263.0	5.596719167307775e+17
19264.0	5.5953163341004794e+17
19265.0	5.594588597889705e+17
19266.0	5.5935086533891405e+17
19267.0	5.592771299639296e+17
19268.0	5.591747614037332e+17
19269.0	5.590727899043156e+17
19270.0	5.5896753510372685e+17
19271.0	5.588381414544726e+17
19272.0	5.587625795300009e+17
19273.0	5.586375986380799e+17
19274.0	5.5851747761629843e+17
19275.0	5.5846077111555405e+17
19276.0	5.583567669166079e+17
19277.0	5.5825523973379405e+17
19278.0	5.5815011188080634e+17
19279.0	5.580472023952042e+17
19280.0	5.5794147587522554e+17
19281.0	5.5784334069596154e+17
19282.0	5.577404636463103e+17
19283.0	5.5762852375429114e+17
19284.0	5.57525757923601e+17
19285.0	5.5741999274612045e+17
19286.0	5.573179280632489e+17
19287.0	5.571927886965418e+17
19288.0	5.560946628668067e+17
19289.0	5.5508387020581325e+17
19290.0	5.568769433447083e+17
19291.0	5.5678419197405856e+17
19292.0	5.5671789533702816e+17
19293.0	5.566188943835135e+17
19294.0	5.565163639231828e+17
19295.0	5.564177455600981e+17
19296.0	5.562557939755692e+17
19297.0	5.5620011305205754e+17
19298.0	5.561090827441492e+17
19299.0	5.5594234622771194e+17
19300.0	5.5590632792173216e+17
19301.0	5.5580567455225165e+17
19302.0	5.557019463385087e+17
19303.0	5.5559219468479136e+17
19304.0	5.5549613337914003e+17
19305.0	5.5539345758617594e+17
19306.0	5.552897990677844e+17
19307.0	5.551800073584639e+17
19308.0	5.550738240787796e+17
19309.0	5.5492324786612896e+17
19310.0	5.5479973840595616e+17
19311.0	5.547480599669418e+17
19312.0	5.546553843034794e+17
19313.0	5.545162968487253e+17
19314.0	5.4881993576065485e+17
19315.0	5.492017916280908e+17
19316.0	5.541222463919446e+17
19317.0	5.5414455876102816e+17
19318.0	5.540539090862079e+17
19319.0	5.53957880705843e+17
19320.0	5.538323553932628e+17
19321.0	5.5369945041250976e+17
19322.0	5.5363800057337165e+17
19323.0	5.535299724989781e+17
19324.0	5.534307702887764e+17
19325.0	5.533080144751275e+17
19326.0	5.5323023816785914e+17
19327.0	5.531355881755989e+17
19328.0	5.529292963665239e+17
19329.0	5.5293533511570765e+17
19330.0	5.5282993666020685e+17
19331.0	5.5272427018868045e+17
19332.0	5.526260412667221e+17
19333.0	5.525206239368533e+17
19334.0	5.5241749970288634e+17
19335.0	5.520986296986284e+17
19336.0	5.522095363937621e+17
19337.0	5.521088124201643e+17
19338.0	5.519818283286526e+17
19339.0	5.518977765037396e+17
19340.0	5.5177697663385594e+17
19341.0	5.5160051142929075e+17
19342.0	5.515265193629013e+17
19343.0	5.5147778301842765e+17
19344.0	5.5128950728294406e+17
19345.0	5.5105351462857363e+17
19346.0	5.510510436941823e+17
19347.0	5.5094920305704954e+17
19348.0	5.509557937766399e+17
19349.0	5.5084740946602656e+17
19350.0	5.5070393588776954e+17
19351.0	5.506362114397524e+17
19352.0	5.5041885771311763e+17
19353.0	5.504301485697706e+17
19354.0	5.503246477732522e+17
19355.0	5.502075825116501e+17
19356.0	5.50111314776337e+17
19357.0	5.500031295553534e+17
19358.0	5.4989203488549555e+17
19359.0	5.497572157642068e+17
19360.0	5.495883525259262e+17
19361.0	5.4956613348010656e+17
19362.0	5.494614971995476e+17
19363.0	5.4935301012848634e+17
19364.0	5.4924394836787194e+17
19365.0	5.491345308603732e+17
19366.0	5.4902476187019936e+17
19367.0	5.489141056449194e+17
19368.0	5.487999443795967e+17
19369.0	5.48681992512034e+17
19370.0	5.485720977626452e+17
19371.0	5.4845858766301856e+17
19372.0	5.483516059975678e+17
19373.0	5.482366048228692e+17
19374.0	5.481249082703871e+17
19375.0	5.4800805209483936e+17
19376.0	5.478892696152747e+17
19377.0	5.477726671951188e+17
19378.0	5.476566614147071e+17
19379.0	5.475399542068564e+17
19380.0	5.4742163673579514e+17
19381.0	5.473002244975273e+17
19382.0	5.4716484802314234e+17
19383.0	5.470436903092223e+17
19384.0	5.4692835282124794e+17
19385.0	5.468048906169002e+17
19386.0	5.4667489746179405e+17
19387.0	5.4654647108894714e+17
19388.0	5.464166348008106e+17
19389.0	5.4627805199073274e+17
19390.0	5.460924871038291e+17
19391.0	5.433711666746681e+17
19392.0	5.456042727746216e+17
19393.0	5.45738172085043e+17
19394.0	5.456194541278547e+17
19395.0	5.454511968266922e+17
19396.0	5.453358655602688e+17
19397.0	5.4520581221690003e+17
19398.0	5.450269798869674e+17
19399.0	5.4481380354730643e+17
19400.0	5.4472151459867296e+17
19401.0	5.446092207773013e+17
19402.0	5.444464527015935e+17
19403.0	5.442817160992085e+17
19404.0	5.4411844890132474e+17
19405.0	5.4394608992037536e+17
19406.0	5.4376744304858445e+17
19407.0	5.435411070102185e+17
19408.0	5.4332415950192646e+17
19409.0	5.4319532760978765e+17
19410.0	5.4299566028445e+17
19411.0	5.427912626230611e+17
19412.0	5.4258249477652474e+17
19413.0	5.423035495131818e+17
19414.0	5.4210865222997325e+17
19415.0	5.4184681755989325e+17
19416.0	5.415578684620798e+17
19417.0	5.4128345766079136e+17
19418.0	5.4101563114782726e+17
19419.0	5.4069769486554445e+17
19420.0	5.4036983087540896e+17
19421.0	5.400228858079913e+17
19422.0	5.396878042595326e+17
19423.0	5.393401152623955e+17
19424.0	5.3896234415773e+17
19425.0	5.3857010829666976e+17
19426.0	5.381251894607871e+17
19427.0	5.376488813625343e+17
19428.0	5.3713983993719456e+17
19429.0	5.3655568146322765e+17
19430.0	5.357910713084586e+17
19431.0	5.3483041274374835e+17
19432.0	5.3451304527899296e+17
19433.0	5.3375756088115194e+17
19434.0	5.328743091055273e+17
19435.0	5.3172893115569466e+17
19436.0	5.305343640163668e+17
19437.0	5.293890432488787e+17
19438.0	5.232025715168603e+17
19439.0	5.2597485148132685e+17
19440.0	5.249753587646462e+17
19441.0	5.2310203377035936e+17
19442.0	5.208388057169919e+17
19443.0	5.181392872800256e+17
19444.0	5.1495470639349734e+17
19445.0	5.110705430025558e+17
19446.0	5.0610511383538336e+17
19447.0	4.997294237679612e+17
19448.0	4.9090221264513754e+17
19449.0	4.773827998733654e+17
19450.0	4.5064802229289056e+17
19451.0	4.299645477279088e+17
19452.0	4.669337831647917e+17
19453.0	4.848330351837189e+17
19454.0	4.953312859608401e+17
19455.0	5.024832822793556e+17
19456.0	5.0788963758462317e+17
19457.0	5.119438261059583e+17
19458.0	4.995673212584177e+17
19459.0	5.171259339964448e+17
19460.0	5.203270644880725e+17
19461.0	5.2224096622783136e+17
19462.0	5.2388343924654074e+17
19463.0	5.2522882314185376e+17
19464.0	5.26448731427089e+17
19465.0	5.2756566975883936e+17
19466.0	5.285464180610389e+17
19467.0	5.293826582598995e+17
19468.0	5.3011701168428365e+17
19469.0	5.3066180689483066e+17
19470.0	5.3131625260646394e+17
19471.0	5.318130835040938e+17
19472.0	5.322747330691071e+17
19473.0	5.326462704593577e+17
19474.0	5.329241253434708e+17
19475.0	5.331931396134228e+17
19476.0	5.3354484668388685e+17
19477.0	5.337687266776404e+17
19478.0	5.3395452882234003e+17
19479.0	5.3405305707779386e+17
19480.0	5.342650041368575e+17
19481.0	5.344053870723071e+17
19482.0	5.3454075536779936e+17
19483.0	5.3468847609828685e+17
19484.0	5.34776957248034e+17
19485.0	5.34881057776162e+17
19486.0	5.348601441375575e+17
19487.0	5.3501472185603405e+17
19488.0	5.350578805451434e+17
19489.0	5.350616966627326e+17
19490.0	5.3499511781894816e+17
19491.0	5.351236071762602e+17
19492.0	5.3514450110163616e+17
19493.0	5.351466324372138e+17
19494.0	5.3513447363925325e+17
19495.0	5.3511387443363834e+17
19496.0	5.35052859683635e+17
19497.0	5.350255545548799e+17
19498.0	5.342490515210237e+17
19499.0	5.3083024909489376e+17
19500.0	5.348861419716607e+17
19501.0	5.349339464116906e+17
19502.0	5.3490669476031123e+17
19503.0	5.348681853872811e+17
19504.0	5.348208916736681e+17
19505.0	5.347667627824468e+17
19506.0	5.3471457641321805e+17
19507.0	5.346545762653524e+17
19508.0	5.345937105529515e+17
19509.0	5.345116742309204e+17
19510.0	5.3431138579906554e+17
19511.0	5.2514756779922074e+17
19512.0	5.333236787970041e+17
19513.0	5.32969551263606e+17
19514.0	5.331841371690316e+17
19515.0	5.3405153482506234e+17
19516.0	5.3404977349700256e+17
19517.0	5.3399965757603834e+17
19518.0	5.3391576373657574e+17
19519.0	5.338415807594494e+17
19520.0	5.3371208015544294e+17
19521.0	5.337277014212607e+17
19522.0	5.336374399991807e+17
19523.0	5.3355409966803616e+17
19524.0	5.334369051519658e+17
19525.0	5.3341606344567456e+17
19526.0	5.3333951180526925e+17
19527.0	5.332608375674196e+17
19528.0	5.3317694477653325e+17
19529.0	5.3309110450039456e+17
19530.0	5.330205862264832e+17
19531.0	5.329377398445396e+17
19532.0	5.328543833653247e+17
19533.0	5.327705358729215e+17
19534.0	5.3268598562488314e+17
19535.0	5.326015129015636e+17
19536.0	5.325162342427306e+17
19537.0	5.324325521457151e+17
19538.0	5.322541261040299e+17
19539.0	5.322146388989269e+17
19540.0	5.321717784248319e+17
19541.0	5.3206993576045216e+17
19542.0	5.31993081361203e+17
19543.0	5.318326852343126e+17
19544.0	5.3181833945634125e+17
19545.0	5.3167831212796576e+17
19546.0	5.3156802807726086e+17
19547.0	5.3156532596681376e+17
19548.0	5.3147969435729914e+17
19549.0	5.313814710277459e+17
19550.0	5.313035771401557e+17
19551.0	5.312146475494057e+17
19552.0	5.31125108736e+17
19553.0	5.310331074467157e+17
19554.0	5.309424281321471e+17
19555.0	5.308448835807913e+17
19556.0	5.307590455416149e+17
19557.0	5.3067442748566176e+17
19558.0	5.305851271184383e+17
19559.0	5.304952839383721e+17
19560.0	5.3037297733468154e+17
19561.0	5.3031121467037005e+17
19562.0	5.301936527332692e+17
19563.0	5.3013271138358605e+17
19564.0	5.3004172287890765e+17
19565.0	5.299505710759935e+17
19566.0	5.298566507528191e+17
19567.0	5.297677768065024e+17
19568.0	5.29674154418722e+17
19569.0	5.29583997854242e+17
19570.0	5.294944291214676e+17
19571.0	5.294029490443604e+17
19572.0	5.2930822642073594e+17
19573.0	5.292087638141609e+17
19574.0	5.291147322720255e+17
19575.0	5.290369693166249e+17
19576.0	5.289389671667028e+17
19577.0	5.288349775779156e+17
19578.0	5.2875734038173005e+17
19579.0	5.286655929177428e+17
19580.0	5.285736772621653e+17
19581.0	5.284831783725738e+17
19582.0	5.283923609255936e+17
19583.0	5.283000512151551e+17
19584.0	5.282060586101417e+17
19585.0	5.2810197178340685e+17
19586.0	5.28004108325137e+17
19587.0	5.2792022629963085e+17
19588.0	5.277937840422911e+17
19589.0	5.277394452960598e+17
19590.0	5.276387119551828e+17
19591.0	5.2755924457444685e+17
19592.0	5.2746787110256634e+17
19593.0	5.2736548632439456e+17
19594.0	5.272480962139476e+17
19595.0	5.2718781455837856e+17
19596.0	5.2707744606235296e+17
19597.0	5.270027694156457e+17
19598.0	5.2686296256785056e+17
19599.0	5.2681752063945376e+17
19600.0	5.267265239558826e+17
19601.0	5.26626541605137e+17
19602.0	5.2652870345250125e+17
19603.0	5.2639237249433594e+17
19604.0	5.263392459019604e+17
19605.0	5.262318217374378e+17
19606.0	5.2616886663249914e+17
19607.0	5.260778038187347e+17
19608.0	5.2598349321557325e+17
19609.0	5.2588749797021e+17
19610.0	5.257611942647125e+17
19611.0	5.2565049728477875e+17
19612.0	5.256140801703935e+17
19613.0	5.255199970383189e+17
19614.0	5.254236872201557e+17
19615.0	5.253320943162708e+17
19616.0	5.251806387677867e+17
19617.0	5.2508869081606816e+17
19618.0	5.2498788805946003e+17
19619.0	5.248732025061375e+17
19620.0	5.2478534176385683e+17
19621.0	5.246935020950868e+17
19622.0	5.246826667398485e+17
19623.0	5.2458510268497914e+17
19624.0	5.2448178383530656e+17
19625.0	5.2440095239700474e+17
19626.0	5.2430375017076045e+17
19627.0	5.241989531085483e+17
19628.0	5.2406209233988256e+17
19629.0	5.237530111421096e+17
19630.0	5.2339443044625043e+17
19631.0	5.2232301310552755e+17
19632.0	5.236088003450196e+17
19633.0	5.2361267658096634e+17
19634.0	5.2355257178521594e+17
19635.0	5.234554790303059e+17
19636.0	5.2329066588187296e+17
19637.0	5.231680700110164e+17
19638.0	5.231906566875817e+17
19639.0	5.2310457209323514e+17
19640.0	5.2299569942582605e+17
19641.0	5.228048310512301e+17
19642.0	5.228209469652992e+17
19643.0	5.227283105185792e+17
19644.0	5.2263534363060896e+17
19645.0	5.22527864660514e+17
19646.0	5.223643691526825e+17
19647.0	5.2236606896428365e+17
19648.0	5.22274930373427e+17
19649.0	5.221822526128126e+17
19650.0	5.220904552366079e+17
19651.0	5.219972536074239e+17
19652.0	5.2190460541665274e+17
19653.0	5.218115738664959e+17
19654.0	5.2171951308799994e+17
19655.0	5.216266552519338e+17
19656.0	5.215347757372757e+17
19657.0	5.214421263581182e+17
