# Flux units: erg / (cm m2 s)
# Wavelength units: Angstrom
wave	flux
19000.0	7.714371304161279e+17
19001.0	7.712843095517866e+17
19002.0	7.71145711432499e+17
19003.0	7.709994603861331e+17
19004.0	7.708529059517782e+17
19005.0	7.707078904075603e+17
19006.0	7.705622289405267e+17
19007.0	7.70361498079505e+17
19008.0	7.702649419857917e+17
19009.0	7.701230534350164e+17
19010.0	7.699456328379052e+17
19011.0	7.69831354691311e+17
19012.0	7.696351135531005e+17
19013.0	7.695413468113578e+17
19014.0	7.693910327427072e+17
19015.0	7.692473725179219e+17
19016.0	7.691011803316224e+17
19017.0	7.689350460473343e+17
19018.0	7.688077426294783e+17
19019.0	7.686663529212585e+17
19020.0	7.685155500763817e+17
19021.0	7.683724446182058e+17
19022.0	7.682298152135338e+17
19023.0	7.680810526179325e+17
19024.0	7.679369016595796e+17
19025.0	7.677866798656169e+17
19026.0	7.676405458403327e+17
19027.0	7.674651150210386e+17
19028.0	7.673559755958952e+17
19029.0	7.672085384003583e+17
19030.0	7.670652925728083e+17
19031.0	7.66920137498078e+17
19032.0	7.667744265382569e+17
19033.0	7.666225063307944e+17
19034.0	7.664816486001322e+17
19035.0	7.663346017544874e+17
19036.0	7.63156774745973e+17
19037.0	7.660454867020457e+17
19038.0	7.658992467006804e+17
19039.0	7.657552837869567e+17
19040.0	7.65610202252356e+17
19041.0	7.654640782934012e+17
19042.0	7.653126028219731e+17
19043.0	7.651740147690153e+17
19044.0	7.650271934371155e+17
19045.0	7.648810436132863e+17
19046.0	7.64731906466338e+17
19047.0	7.645920954941437e+17
19048.0	7.644319329200808e+17
19049.0	7.64296454803729e+17
19050.0	7.641527491406505e+17
19051.0	7.635988774562465e+17
19052.0	7.638367414692524e+17
19053.0	7.637067606873428e+17
19054.0	7.635751575486463e+17
19055.0	7.634115541073919e+17
19056.0	7.632820682533544e+17
19057.0	7.631378406790483e+17
19058.0	7.629795219210241e+17
19059.0	7.628486272002728e+17
19060.0	7.627015022007636e+17
19061.0	7.625585919175336e+17
19062.0	7.624131667296255e+17
19063.0	7.622682222089555e+17
19064.0	7.621134700074323e+17
19065.0	7.619645889926484e+17
19066.0	7.618281445086547e+17
19067.0	7.616868874802515e+17
19068.0	7.615428598344362e+17
19069.0	7.613979178303488e+17
19070.0	7.612502815451817e+17
19071.0	7.611052492237481e+17
19072.0	7.609626332408489e+17
19073.0	7.608176445401769e+17
19074.0	7.606731139973117e+17
19075.0	7.605281996756308e+17
19076.0	7.6038166020096e+17
19077.0	7.602378832347136e+17
19078.0	7.600870434799615e+17
19079.0	7.599485528746664e+17
19080.0	7.598028508626943e+17
19081.0	7.596554702902611e+17
19082.0	7.595088767090688e+17
19083.0	7.593605571717802e+17
19084.0	7.592061441496404e+17
19085.0	7.590786737984851e+17
19086.0	7.58902964477406e+17
19087.0	7.587051348164608e+17
19088.0	7.586376374201004e+17
19089.0	7.584421424485715e+17
19090.0	7.583534080327676e+17
19091.0	7.58209679860258e+17
19092.0	7.580430176529064e+17
19093.0	7.579227956183039e+17
19094.0	7.577764183233874e+17
19095.0	7.576309472777556e+17
19096.0	7.5748030297757e+17
19097.0	7.573430126422696e+17
19098.0	7.571999162717523e+17
19099.0	7.570550905896957e+17
19100.0	7.569063484063743e+17
19101.0	7.567654848036864e+17
19102.0	7.566169909231615e+17
19103.0	7.564784168512169e+17
19104.0	7.563343788594515e+17
19105.0	7.561899352784896e+17
19106.0	7.560295302736553e+17
19107.0	7.558998296712531e+17
19108.0	7.557567341395968e+17
19109.0	7.552565670226597e+17
19110.0	7.554656058212351e+17
19111.0	7.553232642856276e+17
19112.0	7.551800721451689e+17
19113.0	7.550363663422804e+17
19114.0	7.548918925623296e+17
19115.0	7.547398238765055e+17
19116.0	7.546022909706239e+17
19117.0	7.544583370047487e+17
19118.0	7.542948124164096e+17
19119.0	7.540266646896637e+17
19120.0	7.540047419015165e+17
19121.0	7.538699632552617e+17
19122.0	7.537398455992317e+17
19123.0	7.535938357253459e+17
19124.0	7.534356139955539e+17
19125.0	7.533021682991103e+17
19126.0	7.531500986346152e+17
19127.0	7.529026738454524e+17
19128.0	7.525490327814138e+17
19129.0	7.527222344679424e+17
19130.0	7.525843950982483e+17
19131.0	7.524300317087059e+17
19132.0	7.522976477304148e+17
19133.0	7.520692320862209e+17
19134.0	7.518515681209006e+17
19135.0	7.518654226060627e+17
19136.0	7.517230009592489e+17
19137.0	7.515670746322259e+17
19138.0	7.513818913570815e+17
19139.0	7.512907495505919e+17
19140.0	7.5114847694138e+17
19141.0	7.510050798392659e+17
19142.0	7.508584819239593e+17
19143.0	7.507132419844778e+17
19144.0	7.505701403011753e+17
19145.0	7.504290228032855e+17
19146.0	7.502345031472468e+17
19147.0	7.501378529613139e+17
19148.0	7.499982099010902e+17
19149.0	7.49855039431202e+17
19150.0	7.497099710387539e+17
19151.0	7.495697276338173e+17
19152.0	7.494210708744872e+17
19153.0	7.492819259577684e+17
19154.0	7.491311594635263e+17
19155.0	7.489956633116671e+17
19156.0	7.488528124477437e+17
19157.0	7.487044779507711e+17
19158.0	7.4831841240023e+17
19159.0	7.484202643619839e+17
19160.0	7.482716031287296e+17
19161.0	7.481018186814804e+17
19162.0	7.474472116988593e+17
19163.0	7.478459790000127e+17
19164.0	7.477070939903315e+17
19165.0	7.475562573114025e+17
19166.0	7.4740476715991e+17
19167.0	7.472258429048148e+17
19168.0	7.471209296603817e+17
19169.0	7.469779245858815e+17
19170.0	7.468481610689194e+17
19171.0	7.466803812193619e+17
19172.0	7.46559869358353e+17
19173.0	7.464182766458194e+17
19174.0	7.462723914825727e+17
19175.0	7.461334438379519e+17
19176.0	7.459898480656381e+17
19177.0	7.45836540801843e+17
19178.0	7.456972917265747e+17
19179.0	7.455237658203476e+17
19180.0	7.45323052855023e+17
19181.0	7.452657634159272e+17
19182.0	7.451196374996308e+17
19183.0	7.449786336673791e+17
19184.0	7.448265163276288e+17
19185.0	7.447001875262122e+17
19186.0	7.445586690528595e+17
19187.0	7.444085957372586e+17
19188.0	7.442684655785299e+17
19189.0	7.441152261226493e+17
19190.0	7.439694609164969e+17
19191.0	7.438339994375508e+17
19192.0	7.436901308956671e+17
19193.0	7.434593047849641e+17
19194.0	7.433710564889939e+17
19195.0	7.432619918622719e+17
19196.0	7.431259096263338e+17
19197.0	7.429819837622952e+17
19198.0	7.428320852093608e+17
19199.0	7.395362478227446e+17
19200.0	7.40502653632513e+17
19201.0	7.424049852448768e+17
19202.0	7.422690562408447e+17
19203.0	7.421213321549139e+17
19204.0	7.419827667511977e+17
19205.0	7.41842391924736e+17
19206.0	7.416992769594708e+17
19207.0	7.415519022590633e+17
19208.0	7.414004743230803e+17
19209.0	7.4126843735354e+17
19210.0	7.411284773437437e+17
19211.0	7.409859687350271e+17
19212.0	7.408441903546365e+17
19213.0	7.406659819274239e+17
19214.0	7.405057379838634e+17
19215.0	7.404035183214591e+17
19216.0	7.402680445392212e+17
19217.0	7.401294000029696e+17
19218.0	7.399302510936061e+17
19219.0	7.398324525072381e+17
19220.0	7.396975509678761e+17
19221.0	7.395318952536745e+17
19222.0	7.394163149154986e+17
19223.0	7.392716326786387e+17
19224.0	7.391199332313769e+17
19225.0	7.389751812292605e+17
19226.0	7.388425335690578e+17
19227.0	7.3869952024576e+17
19228.0	7.385590939691689e+17
19229.0	7.384161162974548e+17
19230.0	7.382592093421568e+17
19231.0	7.381186765302441e+17
19232.0	7.379801409060861e+17
19233.0	7.378382243932842e+17
19234.0	7.376993244239187e+17
19235.0	7.375553232022185e+17
19236.0	7.374150377144317e+17
19237.0	7.372705482757459e+17
19238.0	7.37117429755631e+17
19239.0	7.369847862897322e+17
19240.0	7.368163838656511e+17
19241.0	7.36690535871283e+17
19242.0	7.365533183770624e+17
19243.0	7.363991139516415e+17
19244.0	7.36269443268608e+17
19245.0	7.361258978279423e+17
19246.0	7.359818994024445e+17
19247.0	7.358385018809002e+17
19248.0	7.356957997749587e+17
19249.0	7.355518515412991e+17
19250.0	7.354079936249855e+17
19251.0	7.352592266952701e+17
19252.0	7.350959063695357e+17
19253.0	7.349772507676671e+17
19254.0	7.348309962260476e+17
19255.0	7.346759965605888e+17
19256.0	7.345368013122217e+17
19257.0	7.344032276895059e+17
19258.0	7.342596162584573e+17
19259.0	7.341102383584595e+17
19260.0	7.339364349291177e+17
19261.0	7.33827162125107e+17
19262.0	7.336796381074772e+17
19263.0	7.335365337677824e+17
19264.0	7.333603451775657e+17
19265.0	7.332386375204864e+17
19266.0	7.330985975392938e+17
19267.0	7.329627342460242e+17
19268.0	7.328169223432872e+17
19269.0	7.326733745258493e+17
19270.0	7.325274686707028e+17
19271.0	7.323606059756202e+17
19272.0	7.322368372375551e+17
19273.0	7.314270103885132e+17
19274.0	7.316212226020687e+17
19275.0	7.318042695783764e+17
19276.0	7.316577281463635e+17
19277.0	7.315120190040745e+17
19278.0	7.31366855540736e+17
19279.0	7.312084561122644e+17
19280.0	7.310704012951552e+17
19281.0	7.309300983311017e+17
19282.0	7.307849803060564e+17
19283.0	7.305865237364735e+17
19284.0	7.303718518478163e+17
19285.0	7.303297491446441e+17
19286.0	7.301983395031722e+17
19287.0	7.300542773242538e+17
19288.0	7.292205071510184e+17
19289.0	7.276649895340671e+17
19290.0	7.296139158093823e+17
19291.0	7.294474243102038e+17
19292.0	7.293196083483987e+17
19293.0	7.291715614408701e+17
19294.0	7.290235233413802e+17
19295.0	7.288766576896681e+17
19296.0	7.287282331549693e+17
19297.0	7.285774480659795e+17
19298.0	7.284298035320148e+17
19299.0	7.282835853410304e+17
19300.0	7.281347046058664e+17
19301.0	7.27984763970082e+17
19302.0	7.278350320708264e+17
19303.0	7.276777382608893e+17
19304.0	7.275273249270442e+17
19305.0	7.273810165585236e+17
19306.0	7.272287434702847e+17
19307.0	7.270730502067539e+17
19308.0	7.269253557605716e+17
19309.0	7.266804000183636e+17
19310.0	7.264737989492733e+17
19311.0	7.264657286889471e+17
19312.0	7.263220876181504e+17
19313.0	7.261574509800106e+17
19314.0	7.251200051249134e+17
19315.0	7.250249174570344e+17
19316.0	7.257067286953983e+17
19317.0	7.255587631573676e+17
19318.0	7.254010022417747e+17
19319.0	7.252465978878633e+17
19320.0	7.250879814740649e+17
19321.0	7.249361602521769e+17
19322.0	7.247649020663126e+17
19323.0	7.245689687900161e+17
19324.0	7.244645447412394e+17
19325.0	7.242349834928127e+17
19326.0	7.241510598038867e+17
19327.0	7.239922547862186e+17
19328.0	7.238352000516096e+17
19329.0	7.236758310398632e+17
19330.0	7.23512909033199e+17
19331.0	7.23352101654801e+17
19332.0	7.231926544891904e+17
19333.0	7.230294689404244e+17
19334.0	7.22864829506082e+17
19335.0	7.227061110308861e+17
19336.0	7.225404732123817e+17
19337.0	7.22376419582498e+17
19338.0	7.221966184382463e+17
19339.0	7.220446330792617e+17
19340.0	7.218706404868093e+17
19341.0	7.217056836834644e+17
19342.0	7.215034256763561e+17
19343.0	7.213659945522516e+17
19344.0	7.211942569574399e+17
19345.0	7.20881302599543e+17
19346.0	7.208128818970624e+17
19347.0	7.2066941335197e+17
19348.0	7.204996549094057e+17
19349.0	7.203192566360745e+17
19350.0	7.201415449542655e+17
19351.0	7.199627662415187e+17
19352.0	7.197797373007187e+17
19353.0	7.19603075453201e+17
19354.0	7.194189196427263e+17
19355.0	7.19226943971874e+17
19356.0	7.190430617698304e+17
19357.0	7.18850241925393e+17
19358.0	7.186535810771626e+17
19359.0	7.184322661100204e+17
19360.0	7.182704397953705e+17
19361.0	7.180731572114774e+17
19362.0	7.178797823208105e+17
19363.0	7.176791097606143e+17
19364.0	7.174701175188138e+17
19365.0	7.172628176786772e+17
19366.0	7.170532927602687e+17
19367.0	7.168342502670335e+17
19368.0	7.166218630157651e+17
19369.0	7.163910891940521e+17
19370.0	7.16104368529954e+17
19371.0	7.15960180801536e+17
19372.0	7.157384458447529e+17
19373.0	7.155056865793364e+17
19374.0	7.152633914239657e+17
19375.0	7.150264632999935e+17
19376.0	7.147851413629608e+17
19377.0	7.145401821254998e+17
19378.0	7.142908574564351e+17
19379.0	7.140225107798697e+17
19380.0	7.137502610238122e+17
19381.0	7.134853248756393e+17
19382.0	7.132093368762368e+17
19383.0	7.129230020881065e+17
19384.0	7.126401682855251e+17
19385.0	7.123516709142527e+17
19386.0	7.120555236917247e+17
19387.0	7.117434930593791e+17
19388.0	7.114207103287293e+17
19389.0	7.110990463587668e+17
19390.0	7.107687890987689e+17
19391.0	7.078577389786412e+17
19392.0	7.100787719842472e+17
19393.0	7.097277826990079e+17
19394.0	7.093397031834964e+17
19395.0	7.089584437460991e+17
19396.0	7.08567540764945e+17
19397.0	7.081733776911017e+17
19398.0	7.077263461143892e+17
19399.0	7.072540174319612e+17
19400.0	7.068497191021225e+17
19401.0	7.063579926025556e+17
19402.0	7.058753291550719e+17
19403.0	7.053610024872617e+17
19404.0	7.048096244563968e+17
19405.0	7.042486720877906e+17
19406.0	7.036482999724713e+17
19407.0	7.030369549287423e+17
19408.0	7.023498739668308e+17
19409.0	7.016807272895828e+17
19410.0	7.009606108708861e+17
19411.0	7.001980548065962e+17
19412.0	6.994481739988991e+17
19413.0	6.986926946342228e+17
19414.0	6.97878888648977e+17
19415.0	6.970298853228541e+17
19416.0	6.961266151828136e+17
19417.0	6.951328365761875e+17
19418.0	6.942064498092713e+17
19419.0	6.931098654561622e+17
19420.0	6.92002055467827e+17
19421.0	6.908009600341332e+17
19422.0	6.894916219174911e+17
19423.0	6.881064226826921e+17
19424.0	6.865980288401409e+17
19425.0	6.849574498992127e+17
19426.0	6.83142287458304e+17
19427.0	6.812031793496064e+17
19428.0	6.794091895455743e+17
19429.0	6.775181213171711e+17
19430.0	6.75438085153314e+17
19431.0	6.728625975984138e+17
19432.0	6.709763635849897e+17
19433.0	6.68437096501521e+17
19434.0	6.656297730572287e+17
19435.0	6.624688798520659e+17
19436.0	6.588281752562345e+17
19437.0	6.550832289240403e+17
19438.0	6.491593804611581e+17
19439.0	6.473418513143126e+17
19440.0	6.429430964551679e+17
19441.0	6.380548971473576e+17
19442.0	6.324859904021847e+17
19443.0	6.262277272851794e+17
19444.0	6.19829203916117e+17
19445.0	6.126738225845591e+17
19446.0	6.044428657491968e+17
19447.0	5.954807423216294e+17
19448.0	5.851409908673199e+17
19449.0	5.718762851751252e+17
19450.0	5.433790669258709e+17
19451.0	5.3156721976497517e+17
19452.0	5.5992018163903194e+17
19453.0	5.790393337643013e+17
19454.0	5.900194949016229e+17
19455.0	5.993660705406976e+17
19456.0	6.077158442489176e+17
19457.0	6.1517455729623e+17
19458.0	6.20958908800479e+17
19459.0	6.277035891971415e+17
19460.0	6.334263901290492e+17
19461.0	6.383727467473578e+17
19462.0	6.427602387817815e+17
19463.0	6.466900779335677e+17
19464.0	6.502247722647551e+17
19465.0	6.538650554728448e+17
19466.0	6.572262964592636e+17
19467.0	6.603625347765586e+17
19468.0	6.630504818977452e+17
19469.0	6.653849487365459e+17
19470.0	6.676260682640041e+17
19471.0	6.696162553757696e+17
19472.0	6.714587862794239e+17
19473.0	6.731247244716714e+17
19474.0	6.746919451055444e+17
19475.0	6.762678848585725e+17
19476.0	6.779120120408745e+17
19477.0	6.793762002261331e+17
19478.0	6.806609489559552e+17
19479.0	6.818330500748628e+17
19480.0	6.829017060256426e+17
19481.0	6.838707532682579e+17
19482.0	6.847784660150953e+17
19483.0	6.856053880782847e+17
19484.0	6.863579524715859e+17
19485.0	6.870584545771519e+17
19486.0	6.877083878468265e+17
19487.0	6.882933568700415e+17
19488.0	6.888666313348435e+17
19489.0	6.89370423169297e+17
19490.0	6.897604902955688e+17
19491.0	6.903145343658666e+17
19492.0	6.908235232225962e+17
19493.0	6.912454266541395e+17
19494.0	6.916277110396244e+17
19495.0	6.9200612701853e+17
19496.0	6.922952814974291e+17
19497.0	6.926393157178708e+17
19498.0	6.927914676606298e+17
19499.0	6.891017550692307e+17
19500.0	6.934023213416447e+17
19501.0	6.936144056942591e+17
19502.0	6.938150594499923e+17
19503.0	6.939824616723796e+17
19504.0	6.941369515201876e+17
19505.0	6.943010962363731e+17
19506.0	6.944251355769513e+17
19507.0	6.945355430100991e+17
19508.0	6.946379465228287e+17
19509.0	6.947471281706323e+17
19510.0	6.948137747524265e+17
19511.0	6.920446960904856e+17
19512.0	6.944484542294675e+17
19513.0	6.938481545357972e+17
19514.0	6.942665725007178e+17
19515.0	6.950266584694784e+17
19516.0	6.951446321474216e+17
19517.0	6.951618525615443e+17
19518.0	6.951816741431978e+17
19519.0	6.951947674320895e+17
19520.0	6.95207941181713e+17
19521.0	6.952070353518591e+17
19522.0	6.951955806377299e+17
19523.0	6.9518673065629e+17
19524.0	6.951919673147391e+17
19525.0	6.95165641625873e+17
19526.0	6.951428072057513e+17
19527.0	6.951122215021225e+17
19528.0	6.950773322328746e+17
19529.0	6.950407643332605e+17
19530.0	6.950092318354089e+17
19531.0	6.949639384552787e+17
19532.0	6.949153632419839e+17
19533.0	6.948638586568704e+17
19534.0	6.948091838070783e+17
19535.0	6.947502103549268e+17
19536.0	6.946892525775529e+17
19537.0	6.946324664549375e+17
19538.0	6.945714864477526e+17
19539.0	6.944685614432257e+17
19540.0	6.944351148747433e+17
19541.0	6.943698368244393e+17
19542.0	6.942987633644884e+17
19543.0	6.942235044085759e+17
19544.0	6.941462881807017e+17
19545.0	6.940445629568339e+17
19546.0	6.9392350052352e+17
19547.0	6.939024491020287e+17
19548.0	6.938204168344916e+17
19549.0	6.937303984024233e+17
19550.0	6.936551902674943e+17
19551.0	6.935671975444479e+17
19552.0	6.934776262950911e+17
19553.0	6.933856362605225e+17
19554.0	6.932920443513513e+17
19555.0	6.932008297736873e+17
19556.0	6.931075704728234e+17
19557.0	6.93011549921826e+17
19558.0	6.929156208066559e+17
19559.0	6.928158193003177e+17
19560.0	6.92718187577344e+17
19561.0	6.926190685541716e+17
19562.0	6.925207069523965e+17
19563.0	6.924193430678185e+17
19564.0	6.9231850305181e+17
19565.0	6.922160963234474e+17
19566.0	6.921106912269652e+17
19567.0	6.920082213044221e+17
19568.0	6.919017950347263e+17
19569.0	6.917969479204861e+17
19570.0	6.916929985970175e+17
19571.0	6.915910351366825e+17
19572.0	6.91481453072657e+17
19573.0	6.91375468253457e+17
19574.0	6.912601778115923e+17
19575.0	6.911589862430036e+17
19576.0	6.910491076416852e+17
19577.0	6.90933193576721e+17
19578.0	6.908267356400297e+17
19579.0	6.907166888471209e+17
19580.0	6.906056903666346e+17
19581.0	6.904948323254271e+17
19582.0	6.903838817998163e+17
19583.0	6.902712947965951e+17
19584.0	6.901569700233215e+17
19585.0	6.900354692153341e+17
19586.0	6.89906570493952e+17
19587.0	6.897800257557844e+17
19588.0	6.896648920410793e+17
19589.0	6.895545168341674e+17
19590.0	6.894644979826687e+17
19591.0	6.893571373618516e+17
19592.0	6.892419798794239e+17
19593.0	6.891235005082281e+17
19594.0	6.889859836106067e+17
19595.0	6.888925180198911e+17
19596.0	6.879996247277572e+17
19597.0	6.886565957599232e+17
19598.0	6.885268095238143e+17
19599.0	6.884258104737792e+17
19600.0	6.883088619536383e+17
19601.0	6.881863029227519e+17
19602.0	6.880701039247359e+17
19603.0	6.878764816400381e+17
19604.0	6.878303729571155e+17
19605.0	6.876957381055828e+17
19606.0	6.875971793016148e+17
19607.0	6.87479925575953e+17
19608.0	6.873589184375466e+17
19609.0	6.872361413028521e+17
19610.0	6.871219213172735e+17
19611.0	6.870015323493716e+17
19612.0	6.868824729758377e+17
19613.0	6.867613943245481e+17
19614.0	6.866393001623551e+17
19615.0	6.865220390966612e+17
19616.0	6.863783203613353e+17
19617.0	6.862805663743999e+17
19618.0	6.861279244670291e+17
19619.0	6.859942635328852e+17
19620.0	6.858765736695123e+17
19621.0	6.858012846544212e+17
19622.0	6.856809629351935e+17
19623.0	6.855598148681727e+17
19624.0	6.854377715269631e+17
19625.0	6.853164219236351e+17
19626.0	6.851950549139455e+17
19627.0	6.850737904549888e+17
19628.0	6.848780306131629e+17
19629.0	6.848233617053012e+17
19630.0	6.846536870789121e+17
19631.0	6.81322231802537e+17
19632.0	6.844616743583743e+17
19633.0	6.843381973341523e+17
19634.0	6.842203617187156e+17
19635.0	6.8409521354397e+17
19636.0	6.839752252020052e+17
19637.0	6.838236843693398e+17
19638.0	6.837309511041023e+17
19639.0	6.836056683621033e+17
19640.0	6.834816534183933e+17
19641.0	6.833285715984384e+17
19642.0	6.832404270415872e+17
19643.0	6.831155607939754e+17
19644.0	6.829914557426346e+17
19645.0	6.82855367774481e+17
19646.0	6.827501877024084e+17
19647.0	6.826272986497023e+17
19648.0	6.825063876307625e+17
19649.0	6.823843519092051e+17
19650.0	6.822618883686399e+17
19651.0	6.821382665710249e+17
19652.0	6.820150495237459e+17
19653.0	6.818912043794431e+17
19654.0	6.817686307383977e+17
19655.0	6.816449753164458e+17
19656.0	6.815218339064489e+17
19657.0	6.813990420916905e+17
19658.0	6.812753601058131e+17
19659.0	6.811529432618323e+17
19660.0	6.810296936387923e+17
19661.0	6.809063091688788e+17
19662.0	6.807828954087423e+17
19663.0	6.806558351207081e+17
19664.0	6.805205053429076e+17
19665.0	6.804125280195924e+17
19666.0	6.80287470232098e+17
