# Flux units: erg / (cm m2 s)
# Wavelength units: Angstrom
wave	flux
19000.0	7.231886725567828e+17
19001.0	7.230506799551828e+17
19002.0	7.229134683329875e+17
19003.0	7.227758775457106e+17
19004.0	7.226382881565353e+17
19005.0	7.225007407104e+17
19006.0	7.223631920059732e+17
19007.0	7.222256525290153e+17
19008.0	7.220877847778642e+17
19009.0	7.219505130373119e+17
19010.0	7.218112908055892e+17
19011.0	7.216755306921983e+17
19012.0	7.215377598294697e+17
19013.0	7.214007239486121e+17
19014.0	7.212632813600768e+17
19015.0	7.211258589042004e+17
19016.0	7.209882426714794e+17
19017.0	7.208486865731583e+17
19018.0	7.207136540317011e+17
19019.0	7.205763241301331e+17
19020.0	7.204386918192467e+17
19021.0	7.203014328014164e+17
19022.0	7.201643542784681e+17
19023.0	7.200270597488639e+17
19024.0	7.1988975515293e+17
19025.0	7.197525373790889e+17
19026.0	7.19615172804608e+17
19027.0	7.194778220713299e+17
19028.0	7.193408781855402e+17
19029.0	7.192036948049919e+17
19030.0	7.190665378485586e+17
19031.0	7.189293867641513e+17
19032.0	7.187922642010111e+17
19033.0	7.186548056741204e+17
19034.0	7.185180492737194e+17
19035.0	7.183810114355199e+17
19036.0	7.182166435124563e+17
19037.0	7.181068996881064e+17
19038.0	7.179698912100351e+17
19039.0	7.178329557128531e+17
19040.0	7.176959564622505e+17
19041.0	7.175590171901951e+17
19042.0	7.174217759282516e+17
19043.0	7.172851889777321e+17
19044.0	7.171482828406783e+17
19045.0	7.170114383598931e+17
19046.0	7.168743900359336e+17
19047.0	7.167377705096531e+17
19048.0	7.166002005540861e+17
19049.0	7.164641942350504e+17
19050.0	7.163274445455357e+17
19051.0	7.161878385349971e+17
19052.0	7.16053823951121e+17
19053.0	7.159172848156671e+17
19054.0	7.157806387254612e+17
19055.0	7.156433039305386e+17
19056.0	7.155073616445437e+17
19057.0	7.153707637888339e+17
19058.0	7.15234183549201e+17
19059.0	7.150976238616575e+17
19060.0	7.149609924515155e+17
19061.0	7.148245749508777e+17
19062.0	7.146880718864383e+17
19063.0	7.145516178953556e+17
19064.0	7.144147345473535e+17
19065.0	7.142782296653824e+17
19066.0	7.141423602204671e+17
19067.0	7.140059843832488e+17
19068.0	7.138696331526144e+17
19069.0	7.137333133792595e+17
19070.0	7.135969592126122e+17
19071.0	7.134607241641983e+17
19072.0	7.13324467724834e+17
19073.0	7.131882108660394e+17
19074.0	7.130520241919316e+17
19075.0	7.129158358401023e+17
19076.0	7.127795872301055e+17
19077.0	7.126435028970153e+17
19078.0	7.125069534156116e+17
19079.0	7.12371319410961e+17
19080.0	7.122352631797075e+17
19081.0	7.120992090456063e+17
19082.0	7.119628221633875e+17
19083.0	7.118267905387177e+17
19084.0	7.116902195265533e+17
19085.0	7.115552840133289e+17
19086.0	7.114179999694845e+17
19087.0	7.112828575372628e+17
19088.0	7.111475790697812e+17
19089.0	7.110107113805139e+17
19090.0	7.108759030945108e+17
19091.0	7.107400272183296e+17
19092.0	7.106041807022761e+17
19093.0	7.104685711643987e+17
19094.0	7.103293345322326e+17
19095.0	7.101927751243092e+17
19096.0	7.100612723692884e+17
19097.0	7.099257847458474e+17
19098.0	7.097901747885395e+17
19099.0	7.096545077886973e+17
19100.0	7.09518974587153e+17
19101.0	7.093834311794687e+17
19102.0	7.092475794904403e+17
19103.0	7.091123875654313e+17
19104.0	7.089769017595219e+17
19105.0	7.088414407000063e+17
19106.0	7.087058967330815e+17
19107.0	7.085705423486973e+17
19108.0	7.084352068386816e+17
19109.0	7.082967472712361e+17
19110.0	7.081644906599764e+17
19111.0	7.080291961143293e+17
19112.0	7.078939066018474e+17
19113.0	7.077586416959488e+17
19114.0	7.076233994392916e+17
19115.0	7.074880636496553e+17
19116.0	7.073529943381332e+17
19117.0	7.072178151358463e+17
19118.0	7.070823961591808e+17
19119.0	7.069399545195177e+17
19120.0	7.068123170952531e+17
19121.0	7.066772997931008e+17
19122.0	7.065423567301289e+17
19123.0	7.064071498454356e+17
19124.0	7.062723077253802e+17
19125.0	7.061373058023423e+17
19126.0	7.060021881165139e+17
19127.0	7.058612966916093e+17
19128.0	7.057313487650815e+17
19129.0	7.055974699368445e+17
19130.0	7.054629909037055e+17
19131.0	7.053281694755498e+17
19132.0	7.051933472085331e+17
19133.0	7.050554665948502e+17
19134.0	7.049234577271466e+17
19135.0	7.047890950160381e+17
19136.0	7.046543890710527e+17
19137.0	7.045190892126207e+17
19138.0	7.043843090284543e+17
19139.0	7.042503970652159e+17
19140.0	7.041157896863744e+17
19141.0	7.039812024401919e+17
19142.0	7.038466307129344e+17
19143.0	7.03711864230161e+17
19144.0	7.03576849654306e+17
19145.0	7.034420687011839e+17
19146.0	7.033054083503443e+17
19147.0	7.031728263309994e+17
19148.0	7.030386956348074e+17
19149.0	7.029042959439188e+17
19150.0	7.027698304024575e+17
19151.0	7.026355688439807e+17
19152.0	7.025010000527359e+17
19153.0	7.023669201076223e+17
19154.0	7.022321430691839e+17
19155.0	7.020983586127872e+17
19156.0	7.019640972640255e+17
19157.0	7.018298535313407e+17
19158.0	7.01693494960674e+17
19159.0	7.015614217104042e+17
19160.0	7.014270447386623e+17
19161.0	7.012931920549204e+17
19162.0	7.011543164824234e+17
19163.0	7.010249798057984e+17
19164.0	7.008909315276797e+17
19165.0	7.007568228515837e+17
19166.0	7.006224333668351e+17
19167.0	7.004883960638121e+17
19168.0	7.003539917591891e+17
19169.0	7.002204170878975e+17
19170.0	7.000869503500287e+17
19171.0	6.99952846287667e+17
19172.0	6.998191270526975e+17
19173.0	6.996852396960425e+17
19174.0	6.995511810020691e+17
19175.0	6.994175424375465e+17
19176.0	6.992837209314643e+17
19177.0	6.991493384372224e+17
19178.0	6.990160933683197e+17
19179.0	6.988821019929257e+17
19180.0	6.987473881486676e+17
19181.0	6.986145211962708e+17
19182.0	6.984800815196842e+17
19183.0	6.983473686380543e+17
19184.0	6.982130628995753e+17
19185.0	6.980801352695807e+17
19186.0	6.97946550182434e+17
19187.0	6.978129218939561e+17
19188.0	6.976793378553853e+17
19189.0	6.975457783534931e+17
19190.0	6.974122017248595e+17
19191.0	6.972786074102441e+17
19192.0	6.971449864617983e+17
19193.0	6.970099972614825e+17
19194.0	6.968774893415081e+17
19195.0	6.967445162732202e+17
19196.0	6.966111581678249e+17
19197.0	6.964777106538493e+17
19198.0	6.963442876765523e+17
19199.0	6.961817632200019e+17
19200.0	6.9605887325853e+17
19201.0	6.959441057764691e+17
19202.0	6.958107739553791e+17
19203.0	6.95677429551377e+17
19204.0	6.955440006321491e+17
19205.0	6.954107682859689e+17
19206.0	6.952774191284223e+17
19207.0	6.951441442100563e+17
19208.0	6.950100255375359e+17
19209.0	6.948776089135785e+17
19210.0	6.947443276338515e+17
19211.0	6.946109911990271e+17
19212.0	6.944778676251305e+17
19213.0	6.943441197290835e+17
19214.0	6.942108087397033e+17
19215.0	6.940781254279167e+17
19216.0	6.939445688620371e+17
19217.0	6.938118269698048e+17
19218.0	6.936756006595242e+17
19219.0	6.935448527394132e+17
19220.0	6.934123623656105e+17
19221.0	6.932779783334569e+17
19222.0	6.93146074812689e+17
19223.0	6.930129310362281e+17
19224.0	6.928790687055872e+17
19225.0	6.92745951912482e+17
19226.0	6.926135856900778e+17
19227.0	6.924804877713405e+17
19228.0	6.923470545179987e+17
19229.0	6.922135242364244e+17
19230.0	6.920804110783827e+17
19231.0	6.919473295873364e+17
19232.0	6.918135904993279e+17
19233.0	6.916810888009043e+17
19234.0	6.915479927696041e+17
19235.0	6.914150187925503e+17
19236.0	6.91281930031377e+17
19237.0	6.911487932454227e+17
19238.0	6.910156265401e+17
19239.0	6.908827043627007e+17
19240.0	6.907479255766355e+17
19241.0	6.906160697311231e+17
19242.0	6.904834513611434e+17
19243.0	6.903496179012948e+17
19244.0	6.902172200118953e+17
19245.0	6.900841497755647e+17
19246.0	6.899509927171411e+17
19247.0	6.898178287381162e+17
19248.0	6.896848188997631e+17
19249.0	6.8955168323229e+17
19250.0	6.894185249155753e+17
19251.0	6.892850535639721e+17
19252.0	6.891506741455529e+17
19253.0	6.890190289240063e+17
19254.0	6.888856158732287e+17
19255.0	6.887518309974015e+17
19256.0	6.886193925630633e+17
19257.0	6.884862178885631e+17
19258.0	6.883529255638356e+17
19259.0	6.88219378225425e+17
19260.0	6.880861599301631e+17
19261.0	6.87953103954466e+17
19262.0	6.878197736712874e+17
19263.0	6.876863313302867e+17
19264.0	6.875512496455679e+17
19265.0	6.874189375995903e+17
19266.0	6.87285739926323e+17
19267.0	6.871527416922111e+17
19268.0	6.870192527245311e+17
19269.0	6.868857285246975e+17
19270.0	6.867521703510015e+17
19271.0	6.866173951999999e+17
19272.0	6.864837072125951e+17
19273.0	6.863065364561919e+17
19274.0	6.861954584936447e+17
19275.0	6.860821722300415e+17
19276.0	6.859483896610816e+17
19277.0	6.858145582983849e+17
19278.0	6.856806831052116e+17
19279.0	6.855464809660415e+17
19280.0	6.854124856060585e+17
19281.0	6.852787398071635e+17
19282.0	6.851446588833791e+17
19283.0	6.850100548599807e+17
19284.0	6.848754141364223e+17
19285.0	6.847411836157951e+17
19286.0	6.846077141516287e+17
19287.0	6.844733236183039e+17
19288.0	6.843327655706623e+17
19289.0	6.841853225030995e+17
19290.0	6.840697070026751e+17
19291.0	6.839339544390313e+17
19292.0	6.838002340855807e+17
19293.0	6.836653433115987e+17
19294.0	6.835300796639914e+17
19295.0	6.833944578228223e+17
19296.0	6.832593279735123e+17
19297.0	6.831240907500201e+17
19298.0	6.829887653762388e+17
19299.0	6.828533282242559e+17
19300.0	6.827177822300842e+17
19301.0	6.82582083772962e+17
19302.0	6.824463368017236e+17
19303.0	6.823101710292307e+17
19304.0	6.821740845290836e+17
19305.0	6.820382389917012e+17
19306.0	6.819019400500564e+17
19307.0	6.81765384556817e+17
19308.0	6.816288970113023e+17
19309.0	6.814913701172563e+17
19310.0	6.813539551412223e+17
19311.0	6.812181627316905e+17
19312.0	6.810808507258195e+17
19313.0	6.809420373688319e+17
19314.0	6.807993166681427e+17
19315.0	6.806620124916394e+17
19316.0	6.805301906898943e+17
19317.0	6.803920523362303e+17
19318.0	6.802536541454335e+17
19319.0	6.801150328176639e+17
19320.0	6.799758143608148e+17
19321.0	6.798370981718697e+17
19322.0	6.796970671385258e+17
19323.0	6.795577002732202e+17
19324.0	6.794183206152874e+17
19325.0	6.7927765694109e+17
19326.0	6.791377693529428e+17
19327.0	6.7899698984605e+17
19328.0	6.788560301238953e+17
19329.0	6.78714678583842e+17
19330.0	6.785728371490815e+17
19331.0	6.784309409087488e+17
19332.0	6.782885566611455e+17
19333.0	6.781457917804543e+17
19334.0	6.780021577700691e+17
19335.0	6.778590609801213e+17
19336.0	6.777150544456361e+17
19337.0	6.775705759820458e+17
19338.0	6.774249245114368e+17
19339.0	6.772798354969939e+17
19340.0	6.771335532030634e+17
19341.0	6.76987301667362e+17
19342.0	6.768387860463613e+17
19343.0	6.766929105999188e+17
19344.0	6.765442827812861e+17
19345.0	6.763875584879273e+17
19346.0	6.762440971430569e+17
19347.0	6.760957221011455e+17
19348.0	6.759452387923284e+17
19349.0	6.75792763888162e+17
19350.0	6.756405916729343e+17
19351.0	6.754876563040938e+17
19352.0	6.753338312534697e+17
19353.0	6.751792458454356e+17
19354.0	6.750236716302335e+17
19355.0	6.748669020383914e+17
19356.0	6.747097390208339e+17
19357.0	6.745511990132735e+17
19358.0	6.743912788000767e+17
19359.0	6.742286292134569e+17
19360.0	6.740689351431508e+17
19361.0	6.739055915390292e+17
19362.0	6.737414495491412e+17
19363.0	6.735756254336339e+17
19364.0	6.734083339408724e+17
19365.0	6.732395973006676e+17
19366.0	6.730692798272852e+17
19367.0	6.72896984949282e+17
19368.0	6.72723126854178e+17
19369.0	6.725469839119699e+17
19370.0	6.723660149336745e+17
19371.0	6.721917334235817e+17
19372.0	6.720100435143337e+17
19373.0	6.718260986074452e+17
19374.0	6.716397816818346e+17
19375.0	6.714509473349631e+17
19376.0	6.712593208399188e+17
19377.0	6.710637716220585e+17
19378.0	6.708665952239615e+17
19379.0	6.706662229759316e+17
19380.0	6.704601455656959e+17
19381.0	6.702530810260138e+17
19382.0	6.700419547223379e+17
19383.0	6.698266708847274e+17
19384.0	6.696075440160767e+17
19385.0	6.693843463656788e+17
19386.0	6.691565176444244e+17
19387.0	6.689237251741012e+17
19388.0	6.686854790600019e+17
19389.0	6.684403102471507e+17
19390.0	6.681907816650068e+17
19391.0	6.679109573454505e+17
19392.0	6.676722869775017e+17
19393.0	6.674025775016617e+17
19394.0	6.67125120447283e+17
19395.0	6.668394541613055e+17
19396.0	6.665396616691711e+17
19397.0	6.662358930467497e+17
19398.0	6.65921736741137e+17
19399.0	6.655939044879017e+17
19400.0	6.65260221669922e+17
19401.0	6.649105022102185e+17
19402.0	6.645495856365568e+17
19403.0	6.641729994227711e+17
19404.0	6.637773761718953e+17
19405.0	6.633692308264275e+17
19406.0	6.629421025503914e+17
19407.0	6.624961721182889e+17
19408.0	6.62025705427217e+17
19409.0	6.615370567778304e+17
19410.0	6.61027840589824e+17
19411.0	6.604892697264127e+17
19412.0	6.599204132618239e+17
19413.0	6.593275522362026e+17
19414.0	6.58691292537378e+17
19415.0	6.580269276463103e+17
19416.0	6.573211535103316e+17
19417.0	6.565798083209897e+17
19418.0	6.557830476376746e+17
19419.0	6.549261162381311e+17
19420.0	6.540289151161683e+17
19421.0	6.530619980906495e+17
19422.0	6.520248567420244e+17
19423.0	6.509148674632361e+17
19424.0	6.497452735594495e+17
19425.0	6.485023272206335e+17
19426.0	6.471643673133055e+17
19427.0	6.457176595191123e+17
19428.0	6.441493238994259e+17
19429.0	6.424208413644115e+17
19430.0	6.405508827884202e+17
19431.0	6.384778413954388e+17
19432.0	6.363075154280447e+17
19433.0	6.340824300257281e+17
19434.0	6.316494142395732e+17
19435.0	6.289791226915497e+17
19436.0	6.26010601169442e+17
19437.0	6.227015045393068e+17
19438.0	6.18875918168883e+17
19439.0	6.148897232999766e+17
19440.0	6.108164878849364e+17
19441.0	6.062818794493267e+17
19442.0	6.010891355728557e+17
19443.0	5.950319951347711e+17
19444.0	5.885919667508561e+17
19445.0	5.815733762129921e+17
19446.0	5.732477468759381e+17
19447.0	5.6391748106758784e+17
19448.0	5.5279804540955366e+17
19449.0	5.3743839084544006e+17
19450.0	5.0447927332918317e+17
19451.0	4.9327735297802214e+17
19452.0	5.2289698620156634e+17
19453.0	5.460760513041756e+17
19454.0	5.582026909067943e+17
19455.0	5.680199997849598e+17
19456.0	5.767013114139992e+17
19457.0	5.840669113319419e+17
19458.0	5.904256023046825e+17
19459.0	5.965718840759639e+17
19460.0	6.019223614652415e+17
19461.0	6.065115705114623e+17
19462.0	6.105595954331648e+17
19463.0	6.142762615308285e+17
19464.0	6.18034274238464e+17
19465.0	6.213149642457087e+17
19466.0	6.241882139000831e+17
19467.0	6.267570388729855e+17
19468.0	6.290443910250496e+17
19469.0	6.31106685842227e+17
19470.0	6.330313196874409e+17
19471.0	6.349381277406548e+17
19472.0	6.36641453818948e+17
19473.0	6.381788690295465e+17
19474.0	6.395621376961193e+17
19475.0	6.408147557504339e+17
19476.0	6.419524075825834e+17
19477.0	6.429844256587776e+17
19478.0	6.439214500894035e+17
19479.0	6.448133633824084e+17
19480.0	6.456189077771604e+17
19481.0	6.463723782100308e+17
19482.0	6.470438207094783e+17
19483.0	6.476604413487785e+17
19484.0	6.482300591494484e+17
19485.0	6.487417441047892e+17
19486.0	6.492088335422803e+17
19487.0	6.496323113757353e+17
19488.0	6.500297331441663e+17
19489.0	6.50386004386338e+17
19490.0	6.507021917137577e+17
19491.0	6.510087946371071e+17
19492.0	6.51274308690466e+17
19493.0	6.5151711576064e+17
19494.0	6.517415194132479e+17
19495.0	6.519414990045183e+17
19496.0	6.521204334657533e+17
19497.0	6.522852494802943e+17
19498.0	6.524287947112447e+17
19499.0	6.52522878612275e+17
19500.0	6.526767386154324e+17
19501.0	6.527762513439402e+17
19502.0	6.528649168333482e+17
19503.0	6.529409752236031e+17
19504.0	6.530056410453334e+17
19505.0	6.530613919438164e+17
19506.0	6.531061385265151e+17
19507.0	6.531457003203242e+17
19508.0	6.531752080179199e+17
19509.0	6.531950649016319e+17
19510.0	6.532069744181247e+17
19511.0	6.53188963447603e+17
19512.0	6.532079570037417e+17
19513.0	6.531941246784852e+17
19514.0	6.531862630148778e+17
19515.0	6.531749520255657e+17
19516.0	6.531548252383914e+17
19517.0	6.531272636279465e+17
19518.0	6.530956844335103e+17
19519.0	6.530597005907284e+17
19520.0	6.530197167101268e+17
19521.0	6.529761610301439e+17
19522.0	6.529300938009257e+17
19523.0	6.528798181468841e+17
19524.0	6.528262398978729e+17
19525.0	6.527702172084906e+17
19526.0	6.527126687711231e+17
19527.0	6.526507218370559e+17
19528.0	6.525862922944511e+17
19529.0	6.525199140083027e+17
19530.0	6.524516738706089e+17
19531.0	6.523804350152704e+17
19532.0	6.523071628312576e+17
19533.0	6.522319701453482e+17
19534.0	6.521549451777364e+17
19535.0	6.520761766379519e+17
19536.0	6.51995732054289e+17
19537.0	6.519137628411219e+17
19538.0	6.518301424702804e+17
19539.0	6.51743250752034e+17
19540.0	6.51659058278127e+17
19541.0	6.51571502391842e+17
19542.0	6.514826991195475e+17
19543.0	6.5139272332957e+17
19544.0	6.513016235360255e+17
19545.0	6.512084776910847e+17
19546.0	6.511131738767359e+17
19547.0	6.510223019737088e+17
19548.0	6.509267662143487e+17
19549.0	6.508305918722047e+17
19550.0	6.507345642607956e+17
19551.0	6.506369206539604e+17
19552.0	6.505384832750931e+17
19553.0	6.504392393315668e+17
19554.0	6.503392795601578e+17
19555.0	6.502388470906879e+17
19556.0	6.501376168645972e+17
19557.0	6.50035744350754e+17
19558.0	6.499332944909652e+17
19559.0	6.49830105944337e+17
19560.0	6.497266828662102e+17
19561.0	6.496225729708032e+17
19562.0	6.495179380883455e+17
19563.0	6.49412742357538e+17
19564.0	6.493072580586152e+17
19565.0	6.492012395451732e+17
19566.0	6.490947068100607e+17
19567.0	6.489878412569257e+17
19568.0	6.48880645542161e+17
19569.0	6.487729701388287e+17
19570.0	6.486649801626964e+17
19571.0	6.485566086447101e+17
19572.0	6.484478998347775e+17
19573.0	6.483388059877375e+17
19574.0	6.48229221756655e+17
19575.0	6.481198297645055e+17
19576.0	6.480099243895466e+17
19577.0	6.478991428943871e+17
19578.0	6.4778905597597e+17
19579.0	6.476794411264682e+17
19580.0	6.475684970321235e+17
19581.0	6.474572020842495e+17
19582.0	6.473458033273514e+17
19583.0	6.472341048175274e+17
19584.0	6.471222093851306e+17
19585.0	6.470097802275497e+17
19586.0	6.468969912685908e+17
19587.0	6.467847344969044e+17
19588.0	6.466706810950995e+17
19589.0	6.465592025066154e+17
19590.0	6.464465532179796e+17
19591.0	6.463335398637567e+17
19592.0	6.462201824367956e+17
19593.0	6.461066852696063e+17
19594.0	6.459920776604329e+17
19595.0	6.458792215926099e+17
19596.0	6.457580086536873e+17
19597.0	6.456512174096383e+17
19598.0	6.45536378135074e+17
19599.0	6.454227454918656e+17
19600.0	6.453083113171625e+17
19601.0	6.451936184238079e+17
19602.0	6.450789596441257e+17
19603.0	6.449625094772051e+17
19604.0	6.448494478884863e+17
19605.0	6.447333979979776e+17
19606.0	6.44619365777408e+17
19607.0	6.445043459380564e+17
19608.0	6.443891001655295e+17
19609.0	6.442737033980585e+17
19610.0	6.441584047773012e+17
19611.0	6.44042912309794e+17
19612.0	6.439273804158291e+17
19613.0	6.438117339474602e+17
19614.0	6.436960700727295e+17
19615.0	6.435803093095763e+17
19616.0	6.434642874509993e+17
19617.0	6.433485998784511e+17
19618.0	6.432308807947603e+17
19619.0	6.431141635205801e+17
19620.0	6.429982932860927e+17
19621.0	6.42884491682338e+17
19622.0	6.427683345574569e+17
19623.0	6.426521268912127e+17
19624.0	6.425358726681939e+17
19625.0	6.424195647580842e+17
19626.0	6.423032267887956e+17
19627.0	6.421868443598847e+17
19628.0	6.420697864383146e+17
19629.0	6.419536195966292e+17
19630.0	6.418370358411263e+17
19631.0	6.41690912371507e+17
19632.0	6.41604342775808e+17
19633.0	6.414877585309695e+17
19634.0	6.413711365373951e+17
19635.0	6.412544846244521e+17
19636.0	6.411378023028052e+17
19637.0	6.410194475723433e+17
19638.0	6.409043288872276e+17
19639.0	6.407875733749759e+17
19640.0	6.406707950736724e+17
19641.0	6.405521111602516e+17
19642.0	6.404372035884372e+17
19643.0	6.40320257794594e+17
19644.0	6.402033907837609e+17
19645.0	6.400856729583615e+17
19646.0	6.399697457512447e+17
19647.0	6.398528421101567e+17
19648.0	6.3973592399872e+17
19649.0	6.396189817700351e+17
19650.0	6.395020521242621e+17
19651.0	6.393850992001023e+17
19652.0	6.392681285200554e+17
19653.0	6.391511478435839e+17
19654.0	6.390341791208788e+17
19655.0	6.38917170692096e+17
19656.0	6.388001663877119e+17
19657.0	6.386831847325695e+17
19658.0	6.385661855312553e+17
19659.0	6.384491675254783e+17
19660.0	6.383321583277396e+17
19661.0	6.382151389937663e+17
19662.0	6.380981171432105e+17
19663.0	6.379809321342292e+17
19664.0	6.378639508286121e+17
19665.0	6.377470407562579e+17
