# Flux units: erg / (cm m2 s)
# Wavelength units: Angstrom
wave	flux
19000.0	6.471823596191741e+17
19001.0	6.470522835566591e+17
19002.0	6.469412794138623e+17
19003.0	6.468204857655295e+17
19004.0	6.466997293066921e+17
19005.0	6.465786862370813e+17
19006.0	6.464649909589331e+17
19007.0	6.463424443711487e+17
19008.0	6.462191077862057e+17
19009.0	6.460972941530452e+17
19010.0	6.459365250826237e+17
19011.0	6.458590780282195e+17
19012.0	6.457162277235369e+17
19013.0	6.456202226215594e+17
19014.0	6.454943070289919e+17
19015.0	6.453753277666644e+17
19016.0	6.452532831671636e+17
19017.0	6.451378864695978e+17
19018.0	6.450151543537664e+17
19019.0	6.44895612215842e+17
19020.0	6.447732794676566e+17
19021.0	6.446544707736916e+17
19022.0	6.445341440212991e+17
19023.0	6.444094048610985e+17
19024.0	6.442905127703892e+17
19025.0	6.441704404025343e+17
19026.0	6.44046718640674e+17
19027.0	6.439125369137833e+17
19028.0	6.438093724844032e+17
19029.0	6.436875873725097e+17
19030.0	6.435691472180564e+17
19031.0	6.434484155755178e+17
19032.0	6.433272661803007e+17
19033.0	6.431981706761556e+17
19034.0	6.430845256597503e+17
19035.0	6.429589463804585e+17
19036.0	6.4158443297396e+17
19037.0	6.427207233350314e+17
19038.0	6.426007823187965e+17
19039.0	6.424827224479059e+17
19040.0	6.423621518666409e+17
19041.0	6.422407134838783e+17
19042.0	6.421095403312467e+17
19043.0	6.420003000330921e+17
19044.0	6.418784276796756e+17
19045.0	6.417582850572285e+17
19046.0	6.416334225844905e+17
19047.0	6.415164487587156e+17
19048.0	6.413757116841983e+17
19049.0	6.412650206461951e+17
19050.0	6.411506600815273e+17
19051.0	6.408375736030545e+17
19052.0	6.408857247722153e+17
19053.0	6.407931056619519e+17
19054.0	6.406735163381076e+17
19055.0	6.405278640286378e+17
19056.0	6.404293590515711e+17
19057.0	6.403111536383316e+17
19058.0	6.40187229151778e+17
19059.0	6.400698886040233e+17
19060.0	6.399481450856447e+17
19061.0	6.39829941280222e+17
19062.0	6.397089697234944e+17
19063.0	6.395886833063252e+17
19064.0	6.39456553013521e+17
19065.0	6.393311847776255e+17
19066.0	6.392209279898964e+17
19067.0	6.391063810583209e+17
19068.0	6.389865710441812e+17
19069.0	6.388663063674879e+17
19070.0	6.387435238501033e+17
19071.0	6.38624913826338e+17
19072.0	6.385040227303423e+17
19073.0	6.383842758404778e+17
19074.0	6.382644338098175e+17
19075.0	6.381440815420756e+17
19076.0	6.380217093674324e+17
19077.0	6.379021105364991e+17
19078.0	6.377797667433129e+17
19079.0	6.376626621950633e+17
19080.0	6.375410296160255e+17
19081.0	6.37418037453346e+17
19082.0	6.372976019286697e+17
19083.0	6.371717184225279e+17
19084.0	6.370396762101075e+17
19085.0	6.369410565188266e+17
19086.0	6.367829320968873e+17
19087.0	6.366647582108329e+17
19088.0	6.365700597743615e+17
19089.0	6.364252132605951e+17
19090.0	6.363365085544448e+17
19091.0	6.362170475763028e+17
19092.0	6.360855158106794e+17
19093.0	6.359796699627519e+17
19094.0	6.35859651072273e+17
19095.0	6.357395588513791e+17
19096.0	6.356179579393363e+17
19097.0	6.354993576323753e+17
19098.0	6.353784285779284e+17
19099.0	6.352581905350655e+17
19100.0	6.351368093346474e+17
19101.0	6.350185867946665e+17
19102.0	6.348889337277098e+17
19103.0	6.347791035706025e+17
19104.0	6.346594637053951e+17
19105.0	6.345369247372627e+17
19106.0	6.344132426814804e+17
19107.0	6.342972396273663e+17
19108.0	6.341780530965161e+17
19109.0	6.339630374147411e+17
19110.0	6.339359571705855e+17
19111.0	6.338190481468073e+17
19112.0	6.336992471504211e+17
19113.0	6.335802958501204e+17
19114.0	6.334602972321108e+17
19115.0	6.333337798967295e+17
19116.0	6.332186375137962e+17
19117.0	6.330989323572564e+17
19118.0	6.329679911496361e+17
19119.0	6.323836607092046e+17
19120.0	6.327295713214463e+17
19121.0	6.32614194127394e+17
19122.0	6.325021932082516e+17
19123.0	6.323824546370899e+17
19124.0	6.322563793114451e+17
19125.0	6.3214241461917e+17
19126.0	6.320224210343252e+17
19127.0	6.317349586075645e+17
19128.0	6.317644193289556e+17
19129.0	6.316563521776297e+17
19130.0	6.315430720656724e+17
19131.0	6.314248648349011e+17
19132.0	6.313051164071252e+17
19133.0	6.311744525129044e+17
19134.0	6.310567274872831e+17
19135.0	6.309459306130089e+17
19136.0	6.308272231415808e+17
19137.0	6.306921028692649e+17
19138.0	6.305863829902676e+17
19139.0	6.304685577906857e+17
19140.0	6.303491974758397e+17
19141.0	6.302297037821268e+17
19142.0	6.301078005306708e+17
19143.0	6.29985391096627e+17
19144.0	6.298678002887337e+17
19145.0	6.297516739919871e+17
19146.0	6.295751379036842e+17
19147.0	6.295037337228627e+17
19148.0	6.293920306692095e+17
19149.0	6.292720145050282e+17
19150.0	6.291538232825172e+17
19151.0	6.290352392634367e+17
19152.0	6.289142407233536e+17
19153.0	6.287927206215679e+17
19154.0	6.286646899113983e+17
19155.0	6.285575850732202e+17
19156.0	6.284377738007891e+17
19157.0	6.283151861787306e+17
19158.0	6.281348578104659e+17
19159.0	6.280770538700799e+17
19160.0	6.279583264757076e+17
19161.0	6.278388149562026e+17
19162.0	6.275724543524864e+17
19163.0	6.27597434298914e+17
19164.0	6.274833870487551e+17
19165.0	6.273589488298666e+17
19166.0	6.272303669881512e+17
19167.0	6.271117529098921e+17
19168.0	6.270050162617001e+17
19169.0	6.268838663771476e+17
19170.0	6.267680529055743e+17
19171.0	6.266401069902505e+17
19172.0	6.265287549299369e+17
19173.0	6.264102664710825e+17
19174.0	6.262861714860713e+17
19175.0	6.261725593949524e+17
19176.0	6.26053369438754e+17
19177.0	6.259195520570707e+17
19178.0	6.258107642544127e+17
19179.0	6.256828483982676e+17
19180.0	6.255744085830313e+17
19181.0	6.254454541473108e+17
19182.0	6.253366489382911e+17
19183.0	6.252190105250474e+17
19184.0	6.250987451493034e+17
19185.0	6.249802202000041e+17
19186.0	6.248613980842665e+17
19187.0	6.247356988478804e+17
19188.0	6.246229061140479e+17
19189.0	6.245034746358441e+17
19190.0	6.243835083139753e+17
19191.0	6.242611881487018e+17
19192.0	6.241465162967721e+17
19193.0	6.240267410254506e+17
19194.0	6.239064982989482e+17
19195.0	6.237883095231145e+17
19196.0	6.236667451015167e+17
19197.0	6.235467067075242e+17
19198.0	6.234203042960724e+17
19199.0	6.224112715650386e+17
19200.0	6.225695836820823e+17
19201.0	6.230642234053972e+17
19202.0	6.229520763846655e+17
19203.0	6.228321896846676e+17
19204.0	6.227135797308073e+17
19205.0	6.225961212532052e+17
19206.0	6.224769848442879e+17
19207.0	6.22349086953745e+17
19208.0	6.222185562985812e+17
19209.0	6.221197173850111e+17
19210.0	6.22000928264465e+17
19211.0	6.218825703183699e+17
19212.0	6.217632593565012e+17
19213.0	6.216293926917459e+17
19214.0	6.215059654399316e+17
19215.0	6.214018670788607e+17
19216.0	6.212861049875114e+17
19217.0	6.211667611702612e+17
19218.0	6.209693822571859e+17
19219.0	6.209135783007572e+17
19220.0	6.208063813277012e+17
19221.0	6.206590229850794e+17
19222.0	6.205697263927295e+17
19223.0	6.204488310325247e+17
19224.0	6.203271137984511e+17
19225.0	6.201947992358912e+17
19226.0	6.198872304342356e+17
19227.0	6.197676579575124e+17
19228.0	6.19650829394466e+17
19229.0	6.195313003986943e+17
19230.0	6.194107676360701e+17
19231.0	6.192910552793087e+17
19232.0	6.191216757222057e+17
19233.0	6.189883722825727e+17
19234.0	6.1887314671261e+17
19235.0	6.187529584421546e+17
19236.0	6.186361474252799e+17
19237.0	6.185149663630676e+17
19238.0	6.183869002110292e+17
19239.0	6.182772060192768e+17
19240.0	6.181550434200233e+17
19241.0	6.180348225039018e+17
19242.0	6.179161776674132e+17
19243.0	6.177822800347133e+17
19244.0	6.176780571028137e+17
19245.0	6.175575121068031e+17
19246.0	6.17436329157154e+17
19247.0	6.173179660380842e+17
19248.0	6.171979507826687e+17
19249.0	6.17077078630946e+17
19250.0	6.169552143166121e+17
19251.0	6.168263950073855e+17
19252.0	6.166899731027284e+17
19253.0	6.165943260545021e+17
19254.0	6.164759753086291e+17
19255.0	6.163379973171882e+17
19256.0	6.162324161997482e+17
19257.0	6.16114822455842e+17
19258.0	6.159941190549503e+17
19259.0	6.158665124588201e+17
19260.0	6.15727987110707e+17
19261.0	6.156305437119828e+17
19262.0	6.15505306128657e+17
19263.0	6.153841521197055e+17
19264.0	6.15217042170402e+17
19265.0	6.15128715371042e+17
19266.0	6.15005776056593e+17
19267.0	6.149053404413951e+17
19268.0	6.147839845466111e+17
19269.0	6.146625156153344e+17
19270.0	6.145406641635328e+17
19271.0	6.143871394250752e+17
19272.0	6.142940356629844e+17
19273.0	6.140899080448681e+17
19274.0	6.138696340340733e+17
19275.0	6.136826146324479e+17
19276.0	6.135586922430463e+17
19277.0	6.134369397768191e+17
19278.0	6.133148935695017e+17
19279.0	6.131908785558868e+17
19280.0	6.130623785730047e+17
19281.0	6.129464269690196e+17
19282.0	6.128250202532521e+17
19283.0	6.126895027803476e+17
19284.0	6.125706841598633e+17
19285.0	6.124382613143551e+17
19286.0	6.123288910626815e+17
19287.0	6.12208378572527e+17
19288.0	6.117543348185766e+17
19289.0	6.111283127866693e+17
19290.0	6.118368443280042e+17
19291.0	6.116891386970112e+17
19292.0	6.115892761635498e+17
19293.0	6.114641165942783e+17
19294.0	6.113391363315028e+17
19295.0	6.112153797569193e+17
19296.0	6.110891478439252e+17
19297.0	6.109630545526783e+17
19298.0	6.108294175260672e+17
19299.0	6.104105760762537e+17
19300.0	6.102854460069203e+17
19301.0	6.101590706487296e+17
19302.0	6.100319351428436e+17
19303.0	6.098992746900138e+17
19304.0	6.097762292596733e+17
19305.0	6.096505263183188e+17
19306.0	6.09523628839185e+17
19307.0	6.093913799174825e+17
19308.0	6.092654339861161e+17
19309.0	6.091080777509546e+17
19310.0	6.089675619259731e+17
19311.0	6.088766279472468e+17
19312.0	6.087529943356756e+17
19313.0	6.086243408412671e+17
19314.0	6.070797507144361e+17
19315.0	6.069955891385704e+17
19316.0	6.080485980285608e+17
19317.0	6.079218602125994e+17
19318.0	6.077904665094825e+17
19319.0	6.076607006157481e+17
19320.0	6.075280978345983e+17
19321.0	6.073951867721044e+17
19322.0	6.072544369049599e+17
19323.0	6.071164615699114e+17
19324.0	6.069947664258388e+17
19325.0	6.068330758668287e+17
19326.0	6.066521509986301e+17
19327.0	6.064993854291967e+17
19328.0	6.063630133668522e+17
19329.0	6.062287930523647e+17
19330.0	6.060880793261395e+17
19331.0	6.059499803290282e+17
19332.0	6.058159263885994e+17
19333.0	6.056761350597289e+17
19334.0	6.055379056197632e+17
19335.0	6.053940015661055e+17
19336.0	6.052572244738047e+17
19337.0	6.051156344875689e+17
19338.0	6.049543549703507e+17
19339.0	6.048310471163903e+17
19340.0	6.046773780938751e+17
19341.0	6.045394314199039e+17
19342.0	6.043613974757375e+17
19343.0	6.042523671724031e+17
19344.0	6.04104110969105e+17
19345.0	6.037673392559441e+17
19346.0	6.03733975245346e+17
19347.0	6.036530805429588e+17
19348.0	6.03511773602338e+17
19349.0	6.033571319906303e+17
19350.0	6.031800611984724e+17
19351.0	6.029165743221418e+17
19352.0	6.027559672217599e+17
19353.0	6.026089871354538e+17
19354.0	6.02451698917922e+17
19355.0	6.022839381524481e+17
19356.0	6.021328496055638e+17
19357.0	6.019718176221865e+17
19358.0	6.018085952334505e+17
19359.0	6.016390772643156e+17
19360.0	6.0147424034816e+17
19361.0	6.013093104582655e+17
19362.0	6.011447084930388e+17
19363.0	6.00870637290564e+17
19364.0	6.006140255775401e+17
19365.0	6.004388155184467e+17
19366.0	6.002617509478399e+17
19367.0	6.000832971538431e+17
19368.0	5.999031343207763e+17
19369.0	5.997158038416041e+17
19370.0	5.995275678121983e+17
19371.0	5.992245212392105e+17
19372.0	5.989103215924563e+17
19373.0	5.987141589576361e+17
19374.0	5.985194953670655e+17
19375.0	5.983200024548692e+17
19376.0	5.981184318242815e+17
19377.0	5.976717661306875e+17
19378.0	5.973819841839103e+17
19379.0	5.971669279571967e+17
19380.0	5.969479648761171e+17
19381.0	5.965526996789932e+17
19382.0	5.960913242816511e+17
19383.0	5.958510254751744e+17
19384.0	5.95619968188416e+17
19385.0	5.948985627901948e+17
19386.0	5.946322909659136e+17
19387.0	5.942907531952125e+17
19388.0	5.935193143640063e+17
19389.0	5.932304129414484e+17
19390.0	5.924381379963557e+17
19391.0	5.908925400481777e+17
19392.0	5.913315605741568e+17
19393.0	5.908813838286848e+17
19394.0	5.905256701493248e+17
19395.0	5.901591980802047e+17
19396.0	5.897853631201277e+17
19397.0	5.894030960710996e+17
19398.0	5.890074885488639e+17
19399.0	5.885439924415145e+17
19400.0	5.881892017187497e+17
19401.0	5.877693901963263e+17
19402.0	5.87328594780706e+17
19403.0	5.868722823976276e+17
19404.0	5.864106486311593e+17
19405.0	5.859320887508991e+17
19406.0	5.854419296627369e+17
19407.0	5.849362157185705e+17
19408.0	5.843503389780652e+17
19409.0	5.838702622976681e+17
19410.0	5.833111884879188e+17
19411.0	5.827407430811647e+17
19412.0	5.821614330828116e+17
19413.0	5.815736637325311e+17
19414.0	5.809779451275945e+17
19415.0	5.803805553721343e+17
19416.0	5.797609380424361e+17
19417.0	5.791494673093972e+17
19418.0	5.785114254508032e+17
19419.0	5.778154338997588e+17
19420.0	5.771403452918441e+17
19421.0	5.764522598640298e+17
19422.0	5.757494991257599e+17
19423.0	5.7501959641716026e+17
19424.0	5.742329722481323e+17
19425.0	5.73489363952162e+17
19426.0	5.726472002076671e+17
19427.0	5.7180524652789754e+17
19428.0	5.7083328969659706e+17
19429.0	5.698105591376557e+17
19430.0	5.685958835262806e+17
19431.0	5.669902875972953e+17
19432.0	5.652268801414472e+17
19433.0	5.6257546708582445e+17
19434.0	5.587476784960843e+17
19435.0	5.55935915590724e+17
19436.0	5.5388458741050016e+17
19437.0	5.517549076043092e+17
19438.0	5.4784154675445766e+17
19439.0	5.469063515297111e+17
19440.0	5.44282429760034e+17
19441.0	5.413357225334096e+17
19442.0	5.379011861544956e+17
19443.0	5.3322623644685734e+17
19444.0	5.2564227246434976e+17
19445.0	5.177806206708396e+17
19446.0	5.1091883272000845e+17
19447.0	5.019644412821497e+17
19448.0	4.883002358235143e+17
19449.0	4.673281460273152e+17
19450.0	4.2642336718520486e+17
19451.0	4.0925080860316755e+17
19452.0	4.5009083207516026e+17
19453.0	4.78893970834501e+17
19454.0	4.9560190888618586e+17
19455.0	5.062822887161854e+17
19456.0	5.136858278614359e+17
19457.0	5.2033822483196685e+17
19458.0	5.259944132957579e+17
19459.0	5.3430947067986016e+17
19460.0	5.380418020136274e+17
19461.0	5.4099341881289376e+17
19462.0	5.435475965771774e+17
19463.0	5.459049633371476e+17
19464.0	5.480892550785706e+17
19465.0	5.501771193516032e+17
19466.0	5.52055479677747e+17
19467.0	5.5394730357992115e+17
19468.0	5.5747155626120544e+17
19469.0	5.604314468144464e+17
19470.0	5.624415570100221e+17
19471.0	5.638784614574769e+17
19472.0	5.649645118859944e+17
19473.0	5.658833565253631e+17
19474.0	5.6664294428071245e+17
19475.0	5.6721861907578854e+17
19476.0	5.6796344204219706e+17
19477.0	5.685146815212202e+17
19478.0	5.690583599983274e+17
19479.0	5.6961946944361805e+17
19480.0	5.701083475214336e+17
19481.0	5.705866923038035e+17
19482.0	5.710520788538708e+17
19483.0	5.715184785380694e+17
19484.0	5.71979637788945e+17
19485.0	5.723881355957588e+17
19486.0	5.727751489191935e+17
19487.0	5.7316132009629005e+17
19488.0	5.735385727849811e+17
19489.0	5.7390165858276685e+17
19490.0	5.741481617435304e+17
19491.0	5.746202619762005e+17
19492.0	5.749672498954239e+17
19493.0	5.752991570548053e+17
19494.0	5.756067118754475e+17
19495.0	5.758964220297216e+17
19496.0	5.761367887839231e+17
19497.0	5.7642912191610874e+17
19498.0	5.76583613022208e+17
19499.0	5.752375788000585e+17
19500.0	5.77134609301504e+17
19501.0	5.773476196166313e+17
19502.0	5.775421868780202e+17
19503.0	5.777274124457302e+17
19504.0	5.779000175624192e+17
19505.0	5.78064909214242e+17
19506.0	5.782210363785215e+17
19507.0	5.783643660921513e+17
19508.0	5.785020566339584e+17
19509.0	5.786282120009044e+17
19510.0	5.790077182192297e+17
19511.0	5.769054877559451e+17
19512.0	5.794984615040333e+17
19513.0	5.795175102152694e+17
19514.0	5.798584941980329e+17
19515.0	5.806112452378624e+17
19516.0	5.807031291565395e+17
19517.0	5.808803393394007e+17
19518.0	5.812160544374783e+17
19519.0	5.812311040895657e+17
19520.0	5.812405616159402e+17
19521.0	5.815557639110657e+17
19522.0	5.816200415499603e+17
19523.0	5.816170775052288e+17
19524.0	5.816073800646655e+17
19525.0	5.816895479480321e+17
19526.0	5.818774143194452e+17
19527.0	5.818547821346815e+17
19528.0	5.818293842258601e+17
19529.0	5.818025880059904e+17
19530.0	5.817732994607786e+17
19531.0	5.818212452488535e+17
19532.0	5.819368897598804e+17
19533.0	5.818974422608554e+17
19534.0	5.818557302571008e+17
19535.0	5.818114740584447e+17
19536.0	5.817638758383615e+17
19537.0	5.817210566082559e+17
19538.0	5.816628141533866e+17
19539.0	5.815698060913324e+17
19540.0	5.817057206250153e+17
19541.0	5.816887150990675e+17
19542.0	5.816318017492308e+17
19543.0	5.81572562657826e+17
19544.0	5.815146249890473e+17
19545.0	5.81411140743987e+17
19546.0	5.813065416529236e+17
19547.0	5.813292003317075e+17
19548.0	5.812647819739135e+17
19549.0	5.81190084006161e+17
19550.0	5.811322809745408e+17
19551.0	5.810645839992148e+17
19552.0	5.809954867554986e+17
19553.0	5.809233713605289e+17
19554.0	5.80954447797726e+17
19555.0	5.809031135013546e+17
19556.0	5.808308259302057e+17
19557.0	5.807558063991465e+17
19558.0	5.806805865900713e+17
19559.0	5.8060449003165e+17
19560.0	5.805244839624701e+17
19561.0	5.804472197098154e+17
19562.0	5.803708974279337e+17
19563.0	5.802922704459092e+17
19564.0	5.802123558125567e+17
19565.0	5.801317393323348e+17
19566.0	5.800475358833322e+17
19567.0	5.799684685692927e+17
19568.0	5.798834626800298e+17
19569.0	5.79800748139042e+17
19570.0	5.79719121600512e+17
19571.0	5.796345023561727e+17
19572.0	5.795471024979968e+17
19573.0	5.794627231678463e+17
19574.0	5.793699299939668e+17
19575.0	5.792922617599316e+17
19576.0	5.7920540128925e+17
19577.0	5.791157775411882e+17
19578.0	5.790263269479764e+17
19579.0	5.789392081780736e+17
19580.0	5.788507059169961e+17
19581.0	5.787625536006825e+17
19582.0	5.786747074685609e+17
19583.0	5.785848201783977e+17
19584.0	5.785430980384084e+17
19585.0	5.784739661217791e+17
19586.0	5.783798369921706e+17
19587.0	5.782962166213289e+17
19588.0	5.781660310874796e+17
19589.0	5.781153420148735e+17
19590.0	5.780154204116307e+17
19591.0	5.779315126610602e+17
19592.0	5.778389905790292e+17
19593.0	5.778987824097961e+17
19594.0	5.777898201939967e+17
19595.0	5.777152860138153e+17
19596.0	5.775809021913769e+17
19597.0	5.775273407195818e+17
19598.0	5.773979061059583e+17
19599.0	5.773386748439209e+17
19600.0	5.772441810195796e+17
19601.0	5.77142166528546e+17
19602.0	5.770481634377727e+17
19603.0	5.76904661058628e+17
19604.0	5.768548271347028e+17
19605.0	5.767357224626858e+17
19606.0	5.766669410500607e+17
19607.0	5.765709844621994e+17
19608.0	5.764723087070547e+17
19609.0	5.7637597735813114e+17
19610.0	5.7628783091384326e+17
19611.0	5.763570964190549e+17
19612.0	5.7635741092194976e+17
19613.0	5.7625836893416096e+17
19614.0	5.7615734304058003e+17
19615.0	5.76062648029457e+17
19616.0	5.759538228974932e+17
19617.0	5.7586390498891085e+17
19618.0	5.757131262612819e+17
19619.0	5.755999663860393e+17
19620.0	5.755049688257875e+17
19621.0	5.7546841281003514e+17
19622.0	5.753708338653866e+17
19623.0	5.752715252596735e+17
19624.0	5.751711357818196e+17
19625.0	5.7507242780043936e+17
19626.0	5.7497268082005325e+17
19627.0	5.7487248924344294e+17
19628.0	5.747510410040662e+17
19629.0	5.746590141295274e+17
19630.0	5.7451751103528954e+17
19631.0	5.7349264963010534e+17
19632.0	5.743683855624873e+17
19633.0	5.742669939955028e+17
19634.0	5.7417170723799034e+17
19635.0	5.740676936717652e+17
19636.0	5.739687210298026e+17
19637.0	5.7383498285056006e+17
19638.0	5.7376882252840954e+17
19639.0	5.7366783018926074e+17
19640.0	5.735599842175658e+17
19641.0	5.733804001285463e+17
19642.0	5.733654900768766e+17
19643.0	5.732641909942954e+17
19644.0	5.731582700683263e+17
19645.0	5.730368337827155e+17
19646.0	5.7307956178670944e+17
19647.0	5.730719835881471e+17
19648.0	5.7297060984695456e+17
19649.0	5.728688548435284e+17
19650.0	5.7276756044458656e+17
19651.0	5.7266535986626554e+17
19652.0	5.7256407972795725e+17
19653.0	5.7246243929893536e+17
19654.0	5.723600751427583e+17
19655.0	5.7225798130947405e+17
19656.0	5.721566178443263e+17
19657.0	5.720554368314026e+17
19658.0	5.719535422974634e+17
19659.0	5.718514520992426e+17
19660.0	5.717496454359722e+17
19661.0	5.716476425491796e+17
19662.0	5.715455863947263e+17
19663.0	5.7143897963014816e+17
