# Flux units: erg / (cm m2 s)
# Wavelength units: Angstrom
wave	flux
19000.0	5.4400560940100256e+17
19001.0	5.4389215655362554e+17
19002.0	5.438038867967999e+17
19003.0	5.437027252174846e+17
19004.0	5.436016592683007e+17
19005.0	5.4349991125538125e+17
19006.0	5.4340026794420896e+17
19007.0	5.432987938193407e+17
19008.0	5.431899166780073e+17
19009.0	5.4308570569987405e+17
19010.0	5.429318552038057e+17
19011.0	5.4289139953390925e+17
19012.0	5.427800827756542e+17
19013.0	5.426930732673706e+17
19014.0	5.4258594598966605e+17
19015.0	5.424863988678655e+17
19016.0	5.42383384105233e+17
19017.0	5.4229047908324685e+17
19018.0	5.421883931492351e+17
19019.0	5.4208830964585805e+17
19020.0	5.4198589473860256e+17
19021.0	5.4188751999467514e+17
19022.0	5.4178635107532794e+17
19023.0	5.4168181014527974e+17
19024.0	5.415829875195903e+17
19025.0	5.414851084724905e+17
19026.0	5.413809819396778e+17
19027.0	5.412789483645609e+17
19028.0	5.411834372816896e+17
19029.0	5.4108087214844576e+17
19030.0	5.409838873269588e+17
19031.0	5.4088342374973434e+17
19032.0	5.4078208957480954e+17
19033.0	5.4067098728529914e+17
19034.0	5.405804121292799e+17
19035.0	5.4047681533706234e+17
19036.0	5.399060156514302e+17
19037.0	5.402791740702719e+17
19038.0	5.401775268604585e+17
19039.0	5.4007967759291725e+17
19040.0	5.399799320805374e+17
19041.0	5.3987856246374394e+17
19042.0	5.3976423810990074e+17
19043.0	5.396791178559488e+17
19044.0	5.3957740815100576e+17
19045.0	5.3947862439253325e+17
19046.0	5.393705616452266e+17
19047.0	5.3927590256530765e+17
19048.0	5.391482638827519e+17
19049.0	5.3906250910050976e+17
19050.0	5.3897135226443085e+17
19051.0	5.3880532605337594e+17
19052.0	5.3876605499473914e+17
19053.0	5.386774570336256e+17
19054.0	5.3857734633717754e+17
19055.0	5.38444199554799e+17
19056.0	5.3837319201532576e+17
19057.0	5.382763603558399e+17
19058.0	5.381724166946815e+17
19059.0	5.380753262466389e+17
19060.0	5.379742390463145e+17
19061.0	5.3787755250974714e+17
19062.0	5.377769571614719e+17
19063.0	5.376773407637504e+17
19064.0	5.375612492098218e+17
19065.0	5.374566274695167e+17
19066.0	5.373698225034581e+17
19067.0	5.3727656005686605e+17
19068.0	5.371783361680724e+17
19069.0	5.370787516470613e+17
19070.0	5.369751579306666e+17
19071.0	5.3687859736302925e+17
19072.0	5.367781967003647e+17
19073.0	5.366792153901738e+17
19074.0	5.3658022387384314e+17
19075.0	5.364805604300115e+17
19076.0	5.363782216493738e+17
19077.0	5.3627917931205965e+17
19078.0	5.361765623791613e+17
19079.0	5.360816305296723e+17
19080.0	5.359805789809321e+17
19081.0	5.35877535347507e+17
19082.0	5.35777767395601e+17
19083.0	5.356722080186367e+17
19084.0	5.3555783557010765e+17
19085.0	5.3548317996482554e+17
19086.0	5.3534016391522976e+17
19087.0	5.3527114021164365e+17
19088.0	5.3517566142491296e+17
19089.0	5.350600037018283e+17
19090.0	5.349845764844202e+17
19091.0	5.3488497287932576e+17
19092.0	5.347787893899262e+17
19093.0	5.3468992627889485e+17
19094.0	5.345906411612842e+17
19095.0	5.3449136631971834e+17
19096.0	5.3438993162130765e+17
19097.0	5.342925609937577e+17
19098.0	5.341920564521642e+17
19099.0	5.3409195624147616e+17
19100.0	5.339928316258985e+17
19101.0	5.3389577137684474e+17
19102.0	5.337811334288724e+17
19103.0	5.3369747565882016e+17
19104.0	5.335988171702272e+17
19105.0	5.334963812914517e+17
19106.0	5.333984957431807e+17
19107.0	5.332982739675817e+17
19108.0	5.332012650288467e+17
19109.0	5.3307282614299296e+17
19110.0	5.3300378552238074e+17
19111.0	5.329046736295251e+17
19112.0	5.328055898385065e+17
19113.0	5.3270731848417274e+17
19114.0	5.326080090395988e+17
19115.0	5.325034539188223e+17
19116.0	5.3240847040948896e+17
19117.0	5.3230977850627405e+17
19118.0	5.322019893673983e+17
19119.0	5.311153627114139e+17
19120.0	5.320105193198931e+17
19121.0	5.3191418790106445e+17
19122.0	5.318183695155198e+17
19123.0	5.317196281195179e+17
19124.0	5.3161897481994234e+17
19125.0	5.3152196581130234e+17
19126.0	5.314227308855294e+17
19127.0	5.310894400252585e+17
19128.0	5.312219965991594e+17
19129.0	5.3111794766097056e+17
19130.0	5.310267286792873e+17
19131.0	5.3093005773154976e+17
19132.0	5.3083136764586656e+17
19133.0	5.3072319787390285e+17
19134.0	5.3063253848227834e+17
19135.0	5.3053567948991136e+17
19136.0	5.304379598962687e+17
19137.0	5.3031816120674976e+17
19138.0	5.3023912779666765e+17
19139.0	5.301425531082068e+17
19140.0	5.3004431356067834e+17
19141.0	5.299459160976042e+17
19142.0	5.298443624906751e+17
19143.0	5.297415376601087e+17
19144.0	5.2964609962803194e+17
19145.0	5.2955256657892685e+17
19146.0	5.293777632275115e+17
19147.0	5.2934255512125434e+17
19148.0	5.2925640146070176e+17
19149.0	5.2915719960002554e+17
19150.0	5.2906024064341325e+17
19151.0	5.2896244709021e+17
19152.0	5.288640020217855e+17
19153.0	5.2876180347071136e+17
19154.0	5.2865192256252576e+17
19155.0	5.285705522260651e+17
19156.0	5.284721211386538e+17
19157.0	5.283728825079124e+17
19158.0	5.2825341321106765e+17
19159.0	5.2817563760285e+17
19160.0	5.2807869409525754e+17
19161.0	5.279819486986239e+17
19162.0	5.278353554669567e+17
19163.0	5.277851044894036e+17
19164.0	5.2768826702779725e+17
19165.0	5.2758543276004685e+17
19166.0	5.274746915302057e+17
19167.0	5.273901112229887e+17
19168.0	5.2729557342836045e+17
19169.0	5.2719686495764474e+17
19170.0	5.2710090760082765e+17
19171.0	5.270000468929194e+17
19172.0	5.269054186411349e+17
19173.0	5.267555323215872e+17
19174.0	5.266011589356202e+17
19175.0	5.2651073428520954e+17
19176.0	5.264129159856126e+17
19177.0	5.2629655424860154e+17
19178.0	5.262169683787775e+17
19179.0	5.261159983393451e+17
19180.0	5.260214730577236e+17
19181.0	5.259070190299819e+17
19182.0	5.258251413924521e+17
19183.0	5.257301357931177e+17
19184.0	5.2563134693157536e+17
19185.0	5.2553360440907085e+17
19186.0	5.2543722860052474e+17
19187.0	5.2533210620013216e+17
19188.0	5.252420337314473e+17
19189.0	5.251452984011434e+17
19190.0	5.2504766884522656e+17
19191.0	5.2494631831251616e+17
19192.0	5.2485282119461523e+17
19193.0	5.24754309157137e+17
19194.0	5.2465594182314656e+17
19195.0	5.245605035813546e+17
19196.0	5.24460938633762e+17
19197.0	5.243645712138239e+17
19198.0	5.2426732739406496e+17
19199.0	5.2388541574239546e+17
19200.0	5.238817659988651e+17
19201.0	5.239757651050494e+17
19202.0	5.238794315890687e+17
19203.0	5.2378158532744525e+17
19204.0	5.236817159432874e+17
19205.0	5.235866162517332e+17
19206.0	5.234890172443306e+17
19207.0	5.233793082327038e+17
19208.0	5.232654209253374e+17
19209.0	5.231979869328726e+17
19210.0	5.231007089994409e+17
19211.0	5.230052578951166e+17
19212.0	5.229082186175828e+17
19213.0	5.2279934469188256e+17
19214.0	5.226982643422549e+17
19215.0	5.2261589499248634e+17
19216.0	5.22519814672657e+17
19217.0	5.2242199399628794e+17
19218.0	5.222201452134397e+17
19219.0	5.222110389600255e+17
19220.0	5.221287812486485e+17
19221.0	5.2199264029245434e+17
19222.0	5.219370293439146e+17
19223.0	5.2183822643145376e+17
19224.0	5.2173837704014496e+17
19225.0	5.216277023599273e+17
19226.0	5.2154745365026125e+17
19227.0	5.2145047840576845e+17
19228.0	5.213565635351891e+17
19229.0	5.2125959108689914e+17
19230.0	5.211616555565056e+17
19231.0	5.210643277807615e+17
19232.0	5.2096803781563725e+17
19233.0	5.208636690617683e+17
19234.0	5.207722860827988e+17
19235.0	5.2067441850013e+17
19236.0	5.205817046685013e+17
19237.0	5.204828952548693e+17
19238.0	5.2037623731978234e+17
19239.0	5.202916090576894e+17
19240.0	5.201927577010175e+17
19241.0	5.2009489599037434e+17
19242.0	5.1999928396458656e+17
19243.0	5.1988532961826125e+17
19244.0	5.198079753977855e+17
19245.0	5.1971061392779936e+17
19246.0	5.196122632312147e+17
19247.0	5.195167749373951e+17
19248.0	5.194212335157247e+17
19249.0	5.1932419158179834e+17
19250.0	5.1922477322513056e+17
19251.0	5.191153986393428e+17
19252.0	5.1900144659988474e+17
19253.0	5.189344872628223e+17
19254.0	5.188409140183039e+17
19255.0	5.187225927024638e+17
19256.0	5.186433111293951e+17
19257.0	5.1855133591470074e+17
19258.0	5.184546207170559e+17
19259.0	5.1834957716957856e+17
19260.0	5.1824963277728403e+17
19261.0	5.1816297447205536e+17
19262.0	5.1806096466466125e+17
19263.0	5.179632456302591e+17
19264.0	5.1780131285019296e+17
19265.0	5.1775100035618125e+17
19266.0	5.176441969486507e+17
19267.0	5.1758508571361274e+17
19268.0	5.1748758869770234e+17
19269.0	5.173913378095104e+17
19270.0	5.172949101314047e+17
19271.0	5.171526181584896e+17
19272.0	5.170973394687317e+17
19273.0	5.1691765122116256e+17
19274.0	5.168358246842366e+17
19275.0	5.1681198090485754e+17
19276.0	5.167128095227904e+17
19277.0	5.166168857903103e+17
19278.0	5.1652055786673485e+17
19279.0	5.164221237734057e+17
19280.0	5.1631630211263136e+17
19281.0	5.162297221010773e+17
19282.0	5.161353056616446e+17
19283.0	5.1599418424907085e+17
19284.0	5.158800817040042e+17
19285.0	5.157642657857535e+17
19286.0	5.156853972817236e+17
19287.0	5.1559309595989325e+17
19288.0	5.153638594205012e+17
19289.0	5.1508860185913965e+17
19290.0	5.153028912272724e+17
19291.0	5.1517511560069114e+17
19292.0	5.151094249706836e+17
19293.0	5.15011629809664e+17
19294.0	5.1491441157515936e+17
19295.0	5.148188164663978e+17
19296.0	5.147196080346453e+17
19297.0	5.146223753297919e+17
19298.0	5.145240981034325e+17
19299.0	5.1442922231780685e+17
19300.0	5.1428209242494285e+17
19301.0	5.141785804974762e+17
19302.0	5.140802595105449e+17
19303.0	5.1397551033330336e+17
19304.0	5.1388338789853856e+17
19305.0	5.1378811029858976e+17
19306.0	5.136920265534122e+17
19307.0	5.1358946009197216e+17
19308.0	5.1349481373477536e+17
19309.0	5.133890212244139e+17
19310.0	5.132865981382655e+17
19311.0	5.1320094241150285e+17
19312.0	5.13107017404689e+17
19313.0	5.130109186299222e+17
19314.0	5.121430701561175e+17
19315.0	5.121029724001629e+17
19316.0	5.1271477937657165e+17
19317.0	5.126186558554111e+17
19318.0	5.1252039953066656e+17
19319.0	5.1242466482148685e+17
19320.0	5.123258823912106e+17
19321.0	5.122271714738175e+17
19322.0	5.121206884412074e+17
19323.0	5.1202697321949856e+17
19324.0	5.1193295139416736e+17
19325.0	5.1182528787469645e+17
19326.0	5.1173654521009485e+17
19327.0	5.116358728963413e+17
19328.0	5.1153624489437856e+17
19329.0	5.114404693606398e+17
19330.0	5.1133639162156365e+17
19331.0	5.112366231803221e+17
19332.0	5.1114272760354125e+17
19333.0	5.110422771684693e+17
19334.0	5.109441440164522e+17
19335.0	5.108389626161834e+17
19336.0	5.107445425416874e+17
19337.0	5.10644318179601e+17
19338.0	5.1051828934082554e+17
19339.0	5.104442323326293e+17
19340.0	5.1032212649629005e+17
19341.0	5.102350219171157e+17
19342.0	5.100926338946387e+17
19343.0	5.100414240991913e+17
19344.0	5.099379964772351e+17
19345.0	5.095696935245135e+17
19346.0	5.096219113510227e+17
19347.0	5.096246730205866e+17
19348.0	5.095348305395711e+17
19349.0	5.094280921437524e+17
19350.0	5.093255428789588e+17
19351.0	5.0922246408328525e+17
19352.0	5.0911182016129696e+17
19353.0	5.0902102676165965e+17
19354.0	5.0891772867379194e+17
19355.0	5.0880155575036595e+17
19356.0	5.0870926400552954e+17
19357.0	5.086050046530901e+17
19358.0	5.08499498963217e+17
19359.0	5.083551431131136e+17
19360.0	5.081996413195605e+17
19361.0	5.080960939502251e+17
19362.0	5.0799449637300896e+17
19363.0	5.0788723187165856e+17
19364.0	5.0777939149236896e+17
19365.0	5.0767139494516045e+17
19366.0	5.075626870439934e+17
19367.0	5.074535677515093e+17
19368.0	5.073439683510271e+17
19369.0	5.0722710168971936e+17
19370.0	5.071131632817493e+17
19371.0	5.069955176682836e+17
19372.0	5.068897002018132e+17
19373.0	5.067741657213609e+17
19374.0	5.066621545261739e+17
19375.0	5.065479096543914e+17
19376.0	5.0643296076868256e+17
19377.0	5.062174155560277e+17
19378.0	5.060861364273151e+17
19379.0	5.0596771521713485e+17
19380.0	5.058479426022057e+17
19381.0	5.057264566140927e+17
19382.0	5.0559605738045434e+17
19383.0	5.05467412554274e+17
19384.0	5.053561405352619e+17
19385.0	5.05230931403298e+17
19386.0	5.0501087822260896e+17
19387.0	5.0482739203276794e+17
19388.0	5.046956966193834e+17
19389.0	5.0456224505091405e+17
19390.0	5.0442680244633594e+17
19391.0	5.038578806904143e+17
19392.0	5.040197520239271e+17
19393.0	5.0382071692001274e+17
19394.0	5.036737085221547e+17
19395.0	5.0352457116549114e+17
19396.0	5.0328124567934317e+17
19397.0	5.0298861810701645e+17
19398.0	5.028246236867242e+17
19399.0	5.02526129681203e+17
19400.0	5.0220590128168954e+17
19401.0	5.0203859986240845e+17
19402.0	5.016645670709932e+17
19403.0	5.0133356867747834e+17
19404.0	5.0096128218453325e+17
19405.0	5.005377236806314e+17
19406.0	5.001670432565931e+17
19407.0	4.9986707117834234e+17
19408.0	4.995270231545175e+17
19409.0	4.993840045184341e+17
19410.0	4.9913245574976845e+17
19411.0	4.988694680655188e+17
19412.0	4.9859593254557005e+17
19413.0	4.9831235194716154e+17
19414.0	4.980142657677994e+17
19415.0	4.977125348780715e+17
19416.0	4.97378439340578e+17
19417.0	4.970635600068607e+17
19418.0	4.9672596397315405e+17
19419.0	4.963690446411092e+17
19420.0	4.9598262551074125e+17
19421.0	4.9557734795072845e+17
19422.0	4.9517291218752845e+17
19423.0	4.947631553205589e+17
19424.0	4.9433262560378874e+17
19425.0	4.9388475782266874e+17
19426.0	4.933771300175871e+17
19427.0	4.9286118945150285e+17
19428.0	4.9235639447934285e+17
19429.0	4.9174243163067725e+17
19430.0	4.9116159127060474e+17
19431.0	4.903688641096363e+17
19432.0	4.896885178717526e+17
19433.0	4.887479191950675e+17
19434.0	4.8746126862800224e+17
19435.0	4.8567399705040294e+17
19436.0	4.827236715375278e+17
19437.0	4.8005673130830496e+17
19438.0	4.777036017740458e+17
19439.0	4.766724338832725e+17
19440.0	4.7472172006550176e+17
19441.0	4.727121003937791e+17
19442.0	4.7058832511904435e+17
19443.0	4.6819822454265165e+17
19444.0	4.648856696389629e+17
19445.0	4.5730786086748096e+17
19446.0	4.4983077551035725e+17
19447.0	4.434030882368166e+17
19448.0	4.348712908226572e+17
19449.0	4.1586528515085594e+17
19450.0	3.7193309819153594e+17
19451.0	3.5071714366149856e+17
19452.0	3.9965396632426016e+17
19453.0	4.264569049797974e+17
19454.0	4.394351509635063e+17
19455.0	4.461990139396096e+17
19456.0	4.522164856291323e+17
19457.0	4.611341975289859e+17
19458.0	4.634121968025632e+17
19459.0	4.680683557486599e+17
19460.0	4.7019541453428026e+17
19461.0	4.72063442751761e+17
19462.0	4.739032661622784e+17
19463.0	4.755892067805865e+17
19464.0	4.770848761533781e+17
19465.0	4.788156700295161e+17
19466.0	4.818345492043095e+17
19467.0	4.8389426878873645e+17
19468.0	4.852077694724779e+17
19469.0	4.8604013371501203e+17
19470.0	4.867642429014018e+17
19471.0	4.872934075487571e+17
19472.0	4.8774213278542483e+17
19473.0	4.881731856717141e+17
19474.0	4.88543902446387e+17
19475.0	4.8874307798958054e+17
19476.0	4.892044753371134e+17
19477.0	4.894928431742974e+17
19478.0	4.897513381298174e+17
19479.0	4.899885336406698e+17
19480.0	4.902084456830293e+17
19481.0	4.904173167793492e+17
19482.0	4.9064470453944314e+17
19483.0	4.9083046865578656e+17
19484.0	4.909943004069887e+17
19485.0	4.911393571252906e+17
19486.0	4.9127696643741e+17
19487.0	4.914091961352192e+17
19488.0	4.9152538856215885e+17
19489.0	4.9161617441204896e+17
19490.0	4.9152913519411155e+17
19491.0	4.9180090463245645e+17
19492.0	4.9187943661349536e+17
19493.0	4.9194408796487674e+17
19494.0	4.919995519030613e+17
19495.0	4.92047544946961e+17
19496.0	4.921916387928743e+17
19497.0	4.9233023180909216e+17
19498.0	4.926509069019821e+17
19499.0	4.920463239151612e+17
19500.0	4.929826682393944e+17
19501.0	4.93054634037521e+17
19502.0	4.930743692165119e+17
19503.0	4.9329555262231885e+17
19504.0	4.93273058709777e+17
19505.0	4.9324695294225056e+17
19506.0	4.933848892003671e+17
19507.0	4.9340121559859194e+17
19508.0	4.9336745774284794e+17
19509.0	4.9332761905506976e+17
19510.0	4.9331454652798285e+17
19511.0	4.921184339973454e+17
19512.0	4.932634743057065e+17
19513.0	4.9308518968197075e+17
19514.0	4.9312367934177254e+17
19515.0	4.931522380081835e+17
19516.0	4.9315892044322125e+17
19517.0	4.93231828631552e+17
19518.0	4.931842436934313e+17
19519.0	4.931234949322069e+17
19520.0	4.930579277545471e+17
19521.0	4.9300134966941005e+17
19522.0	4.929334880676521e+17
19523.0	4.928730758294187e+17
19524.0	4.928064260319913e+17
19525.0	4.9273989807909536e+17
19526.0	4.9267404554895354e+17
19527.0	4.926929407486635e+17
19528.0	4.9263898696963405e+17
19529.0	4.925683390218239e+17
19530.0	4.924991063719934e+17
19531.0	4.924273376362495e+17
19532.0	4.9235491305117005e+17
19533.0	4.9228186547213645e+17
19534.0	4.9220785865577805e+17
19535.0	4.921320786274985e+17
19536.0	4.9205403451391994e+17
19537.0	4.919839327343957e+17
19538.0	4.9189216604651514e+17
19539.0	4.9175682270713184e+17
19540.0	4.9175169887546016e+17
19541.0	4.916775745486847e+17
19542.0	4.915995718888106e+17
19543.0	4.915199187703125e+17
19544.0	4.914435336437759e+17
19545.0	4.913008253861886e+17
19546.0	4.9116562157731834e+17
19547.0	4.912072376713215e+17
19548.0	4.9117486833991674e+17
19549.0	4.911100785065982e+17
19550.0	4.910416074724692e+17
19551.0	4.909612562120702e+17
19552.0	4.9088700955142816e+17
19553.0	4.9080386460494496e+17
19554.0	4.9072019264416416e+17
19555.0	4.9064205192178336e+17
19556.0	4.905620873063082e+17
19557.0	4.9047940198563834e+17
19558.0	4.903970192840021e+17
19559.0	4.9031467712730445e+17
19560.0	4.9022834828465485e+17
19561.0	4.901459776066902e+17
19562.0	4.9006527479371085e+17
19563.0	4.8998339939314336e+17
19564.0	4.8990006164848634e+17
19565.0	4.898165667572394e+17
19566.0	4.897289513118378e+17
19567.0	4.8964904583604896e+17
19568.0	4.8956226673486496e+17
19569.0	4.8947835234331296e+17
19570.0	4.8939704051739296e+17
19571.0	4.893119841566719e+17
19572.0	4.8922418877562874e+17
19573.0	4.891435662835711e+17
19574.0	4.890507665386155e+17
19575.0	4.8897699299546445e+17
19576.0	4.8889175537090554e+17
19577.0	4.8880394523989325e+17
19578.0	4.8871672580669434e+17
19579.0	4.88633797775633e+17
19580.0	4.8854872463769594e+17
19581.0	4.884646457595221e+17
19582.0	4.8838166872500896e+17
19583.0	4.8829630233531725e+17
19584.0	4.8821017761546234e+17
19585.0	4.8811151150721696e+17
19586.0	4.880223675875328e+17
19587.0	4.879521807335424e+17
19588.0	4.8780630892216326e+17
19589.0	4.8777991640405325e+17
19590.0	4.8768177206722554e+17
19591.0	4.876100336003753e+17
19592.0	4.875246581230249e+17
19593.0	4.874366844840619e+17
19594.0	4.8732273069697696e+17
19595.0	4.8726219081209165e+17
19596.0	4.8716979393003514e+17
19597.0	4.870929753221802e+17
19598.0	4.869447521839785e+17
19599.0	4.8692172643368954e+17
19600.0	4.868365926880596e+17
19601.0	4.867416958610089e+17
19602.0	4.866576383038804e+17
19603.0	4.8651972357652454e+17
19604.0	4.8648541815439354e+17
19605.0	4.863672039331157e+17
19606.0	4.863176938793642e+17
19607.0	4.8623230106555725e+17
19608.0	4.8614352932044794e+17
19609.0	4.860525637446313e+17
19610.0	4.8597173398405114e+17
19611.0	4.8588330805930656e+17
19612.0	4.857998999901525e+17
19613.0	4.8571206748951885e+17
19614.0	4.856219518195028e+17
19615.0	4.85540178829858e+17
19616.0	4.8544887267655674e+17
19617.0	4.8536384455748256e+17
19618.0	4.852025033839955e+17
19619.0	4.850973759504382e+17
19620.0	4.850159733178366e+17
19621.0	4.850183225475072e+17
19622.0	4.8493395083700896e+17
19623.0	4.8484732224143354e+17
19624.0	4.847595083355477e+17
19625.0	4.846739761310378e+17
19626.0	4.8458672447160314e+17
19627.0	4.8450052977677645e+17
19628.0	4.844061526239914e+17
19629.0	4.8431077198397434e+17
19630.0	4.842235922568532e+17
19631.0	4.838310653810004e+17
19632.0	4.8406619960115194e+17
19633.0	4.8397554713012883e+17
19634.0	4.8389353254857376e+17
19635.0	4.8380223310615885e+17
19636.0	4.837169900290046e+17
19637.0	4.835900615819264e+17
19638.0	4.8354516519266976e+17
19639.0	4.8345838007965005e+17
19640.0	4.83358416113937e+17
19641.0	4.8312991665356826e+17
19642.0	4.8319879418565965e+17
19643.0	4.831116298376532e+17
19644.0	4.8301834236504736e+17
19645.0	4.8290251805818874e+17
19646.0	4.8285061137913165e+17
19647.0	4.827663809467734e+17
19648.0	4.826798052693332e+17
19649.0	4.8259216374934176e+17
19650.0	4.8250625489633274e+17
19651.0	4.824190380496212e+17
19652.0	4.823320837663403e+17
19653.0	4.8224618917396474e+17
19654.0	4.8215880791053645e+17
