# Flux units: erg / (cm m2 s)
# Wavelength units: Angstrom
wave	flux
19000.0	8.96603383870259e+17
19001.0	8.964560262266877e+17
19002.0	8.963152245598889e+17
19003.0	8.961704294962515e+17
19004.0	8.960252312201896e+17
19005.0	8.958796781060093e+17
19006.0	8.957336103507284e+17
19007.0	8.955864810171049e+17
19008.0	8.954385830073683e+17
19009.0	8.952886146891776e+17
19010.0	8.951335733602984e+17
19011.0	8.94996082677077e+17
19012.0	8.948445767270399e+17
19013.0	8.947001229399379e+17
19014.0	8.945488668306089e+17
19015.0	8.944004435542016e+17
19016.0	8.942500608387753e+17
19017.0	8.941005077566803e+17
19018.0	8.939505302110207e+17
19019.0	8.937995960844288e+17
19020.0	8.936471116032682e+17
19021.0	8.934965263029587e+17
19022.0	8.933446881640445e+17
19023.0	8.93191438362214e+17
19024.0	8.930629794136061e+17
19025.0	8.929419415868753e+17
19026.0	8.928210932028755e+17
19027.0	8.926664315983187e+17
19028.0	8.925145153055401e+17
19029.0	8.923604435599359e+17
19030.0	8.922059754526034e+17
19031.0	8.920511701232298e+17
19032.0	8.918960270125737e+17
19033.0	8.917373220989609e+17
19034.0	8.915843048013821e+17
19035.0	8.914228853342208e+17
19036.0	8.911404182536192e+17
19037.0	8.911126329469608e+17
19038.0	8.909579352713897e+17
19039.0	8.908022527732392e+17
19040.0	8.906450470436864e+17
19041.0	8.904874924878505e+17
19042.0	8.903267385169236e+17
19043.0	8.901715039704404e+17
19044.0	8.900130240113322e+17
19045.0	8.898543242706943e+17
19046.0	8.896940125192191e+17
19047.0	8.895348323909631e+17
19048.0	8.893716043399165e+17
19049.0	8.892143637976404e+17
19050.0	8.890548395966463e+17
19051.0	8.888760144669354e+17
19052.0	8.887289708369234e+17
19053.0	8.885753852111526e+17
19054.0	8.884148919861245e+17
19055.0	8.882447759092396e+17
19056.0	8.880925588848637e+17
19057.0	8.879309789156692e+17
19058.0	8.877691451910825e+17
19059.0	8.876069376141994e+17
19060.0	8.874442623724201e+17
19061.0	8.87282258079471e+17
19062.0	8.871193978688851e+17
19063.0	8.869563610781011e+17
19064.0	8.867901339598845e+17
19065.0	8.866233779399337e+17
19066.0	8.864638625469782e+17
19067.0	8.863025933757097e+17
19068.0	8.861386229328554e+17
19069.0	8.859744163506858e+17
19070.0	8.858954961868115e+17
19071.0	8.857515626332159e+17
19072.0	8.855864054819497e+17
19073.0	8.854209348763645e+17
19074.0	8.852554785314132e+17
19075.0	8.850896795118249e+17
19076.0	8.849232184912553e+17
19077.0	8.847570134630397e+17
19078.0	8.845904384972114e+17
19079.0	8.844245210584404e+17
19080.0	8.842575382664532e+17
19081.0	8.840890463638866e+17
19082.0	8.839224849596416e+17
19083.0	8.837518115995645e+17
19084.0	8.835789110640637e+17
19085.0	8.83420554137873e+17
19086.0	8.832375215620095e+17
19087.0	8.830827804054866e+17
19088.0	8.829125523406845e+17
19089.0	8.8273985746589e+17
19090.0	8.825776022137513e+17
19091.0	8.824088346056019e+17
19092.0	8.822386347824468e+17
19093.0	8.820714393392467e+17
19094.0	8.81901417214771e+17
19095.0	8.817316808622076e+17
19096.0	8.815621710020607e+17
19097.0	8.813924375855101e+17
19098.0	8.81222364709956e+17
19099.0	8.810519449654611e+17
19100.0	8.808812862854483e+17
19101.0	8.807101992271871e+17
19102.0	8.805370649291433e+17
19103.0	8.803681607264937e+17
19104.0	8.801967353277096e+17
19105.0	8.800232744331945e+17
19106.0	8.798488777894568e+17
19107.0	8.796765342575273e+17
19108.0	8.795038350486186e+17
19109.0	8.79323825587268e+17
19110.0	8.791571696713727e+17
19111.0	8.789869993481555e+17
19112.0	8.788145085961555e+17
19113.0	8.786416301506559e+17
19114.0	8.784684711062185e+17
19115.0	8.782944128030038e+17
19116.0	8.781206571887273e+17
19117.0	8.77946986299392e+17
19118.0	8.777704171459923e+17
19119.0	8.775366765532498e+17
19120.0	8.774239240148306e+17
19121.0	8.772500099956735e+17
19122.0	8.770763616157693e+17
19123.0	8.769014499115007e+17
19124.0	8.767252295843839e+17
19125.0	8.765505938653181e+17
19126.0	8.763729042735103e+17
19127.0	8.761529730072575e+17
19128.0	8.760187766702079e+17
19129.0	8.758440784560127e+17
19130.0	8.756711879868416e+17
19131.0	8.754948963565565e+17
19132.0	8.753178459766784e+17
19133.0	8.751374935610707e+17
19134.0	8.749630479837864e+17
19135.0	8.747867971780607e+17
19136.0	8.746089688946004e+17
19137.0	8.744273446262098e+17
19138.0	8.742526933882196e+17
19139.0	8.740751805164204e+17
19140.0	8.738968837292033e+17
19141.0	8.737182484616532e+17
19142.0	8.735384857651881e+17
19143.0	8.733589798999379e+17
19144.0	8.731804588572668e+17
19145.0	8.729832505125544e+17
19146.0	8.727239926131369e+17
19147.0	8.725546513640104e+17
19148.0	8.72376429515025e+17
19149.0	8.721959834266281e+17
19150.0	8.720152131185322e+17
19151.0	8.718343277466964e+17
19152.0	8.716529868734461e+17
19153.0	8.714707010235049e+17
19154.0	8.712866650303145e+17
19155.0	8.711075026785619e+17
19156.0	8.709252759683071e+17
19157.0	8.707418475899561e+17
19158.0	8.705566314594303e+17
19159.0	8.703760433239382e+17
19160.0	8.701936308060157e+17
19161.0	8.700091236526762e+17
19162.0	8.698132771984723e+17
19163.0	8.69638992962082e+17
19164.0	8.694586447407786e+17
19165.0	8.69274613920563e+17
19166.0	8.69087272955631e+17
19167.0	8.689039192358911e+17
19168.0	8.687192455686825e+17
19169.0	8.685340638314492e+17
19170.0	8.683487414452221e+17
19171.0	8.681624816320511e+17
19172.0	8.679763231812268e+17
19173.0	8.677896616935424e+17
19174.0	8.676013065459028e+17
19175.0	8.67415394160913e+17
19176.0	8.672278866821117e+17
19177.0	8.670347508667732e+17
19178.0	8.668513381471574e+17
19179.0	8.666626959693142e+17
19180.0	8.66474070988117e+17
19181.0	8.662825629821608e+17
19182.0	8.660949661646847e+17
19183.0	8.659062796670294e+17
19184.0	8.657161984234836e+17
19185.0	8.654787826417661e+17
19186.0	8.652732343429801e+17
19187.0	8.650800755987795e+17
19188.0	8.648916497072127e+17
19189.0	8.647004794825386e+17
19190.0	8.645086833278975e+17
19191.0	8.643165133209599e+17
19192.0	8.641240337743871e+17
19193.0	8.639308890111999e+17
19194.0	8.637372795191293e+17
19195.0	8.635427892232191e+17
19196.0	8.633468177787561e+17
19197.0	8.631486247512745e+17
19198.0	8.629416366877352e+17
19199.0	8.626743121630548e+17
19200.0	8.624907899721042e+17
19201.0	8.623571699324242e+17
19202.0	8.621723570143231e+17
19203.0	8.619797657594537e+17
19204.0	8.617840254211411e+17
19205.0	8.61588131431492e+17
19206.0	8.613906642982226e+17
19207.0	8.611902687019004e+17
19208.0	8.609893776184658e+17
19209.0	8.607950897676288e+17
19210.0	8.605369260223145e+17
19211.0	8.603157219246079e+17
19212.0	8.601150251772585e+17
19213.0	8.599109880862036e+17
19214.0	8.59709054858035e+17
19215.0	8.595096538710013e+17
19216.0	8.593071386132479e+17
19217.0	8.591027866697727e+17
19218.0	8.588696812344659e+17
19219.0	8.58623849022532e+17
19220.0	8.584258571818324e+17
19221.0	8.58214352691746e+17
19222.0	8.5801449830045e+17
19223.0	8.578095067256147e+17
19224.0	8.576011046223871e+17
19225.0	8.57391468135492e+17
19226.0	8.571865561126228e+17
19227.0	8.569769099788284e+17
19228.0	8.567683459754666e+17
19229.0	8.565383711686655e+17
19230.0	8.56251176128785e+17
19231.0	8.560401496495443e+17
19232.0	8.558279466680319e+17
19233.0	8.556133182603261e+17
19234.0	8.554021426036735e+17
19235.0	8.551879274747222e+17
19236.0	8.549741302382591e+17
19237.0	8.547583587429033e+17
19238.0	8.5453841643165e+17
19239.0	8.543229723716264e+17
19240.0	8.541029938495485e+17
19241.0	8.538827178115068e+17
19242.0	8.536627971708243e+17
19243.0	8.534356698770089e+17
19244.0	8.532201718502739e+17
19245.0	8.529973476327421e+17
19246.0	8.527337849793194e+17
19247.0	8.524933994905599e+17
19248.0	8.5226871076509e+17
19249.0	8.520430741269162e+17
19250.0	8.518165125049e+17
19251.0	8.515855658778624e+17
19252.0	8.513505612617042e+17
19253.0	8.510336108505769e+17
19254.0	8.508032140967935e+17
19255.0	8.505663975413076e+17
19256.0	8.503417757848918e+17
19257.0	8.5011124453376e+17
19258.0	8.498788497533609e+17
19259.0	8.49642808025634e+17
19260.0	8.494092592523944e+17
19261.0	8.491764658733053e+17
19262.0	8.489395104863572e+17
19263.0	8.487009081360381e+17
19264.0	8.484530107886249e+17
19265.0	8.482222512275455e+17
19266.0	8.479846683727188e+17
19267.0	8.477479143123624e+17
19268.0	8.475066536121684e+17
19269.0	8.472643282578089e+17
19270.0	8.470202907885565e+17
19271.0	8.467684147243689e+17
19272.0	8.465232579351892e+17
19273.0	8.462333395337215e+17
19274.0	8.459918201847807e+17
19275.0	8.456852498371924e+17
19276.0	8.453801902779049e+17
19277.0	8.451306504410451e+17
19278.0	8.448799503198889e+17
19279.0	8.446279759691773e+17
19280.0	8.443729906674348e+17
19281.0	8.441167481929727e+17
19282.0	8.438555719587155e+17
19283.0	8.435917900830034e+17
19284.0	8.433253239925417e+17
19285.0	8.430587903737855e+17
19286.0	8.427915441427795e+17
19287.0	8.42522645495808e+17
19288.0	8.422119803890344e+17
19289.0	8.419007367479292e+17
19290.0	8.417039362293757e+17
19291.0	8.41419356058419e+17
19292.0	8.410587913169577e+17
19293.0	8.406780195373055e+17
19294.0	8.403978380727636e+17
19295.0	8.401159848984576e+17
19296.0	8.398321659936765e+17
19297.0	8.395463552139263e+17
19298.0	8.392586307130706e+17
19299.0	8.389688360435711e+17
19300.0	8.386768959875754e+17
19301.0	8.383828333341353e+17
19302.0	8.380862300509523e+17
19303.0	8.377861723389952e+17
19304.0	8.374870261891072e+17
19305.0	8.371849468226217e+17
19306.0	8.367301994042708e+17
19307.0	8.363280909205505e+17
19308.0	8.360196072712872e+17
19309.0	8.356687548601683e+17
19310.0	8.353478599857492e+17
19311.0	8.350342901836458e+17
19312.0	8.347173259313152e+17
19313.0	8.343952151281664e+17
19314.0	8.340203222248105e+17
19315.0	8.336968259032403e+17
19316.0	8.334130601263101e+17
19317.0	8.330790558149288e+17
19318.0	8.32517117505263e+17
19319.0	8.321092327658836e+17
19320.0	8.317672250234196e+17
19321.0	8.314220535174483e+17
19322.0	8.310722542960639e+17
19323.0	8.307221845420714e+17
19324.0	8.303683717911892e+17
19325.0	8.30009872744448e+17
19326.0	8.296471795335169e+17
19327.0	8.292777657892863e+17
19328.0	8.289053124329471e+17
19329.0	8.282344087617535e+17
19330.0	8.277337065914365e+17
19331.0	8.273524574999891e+17
19332.0	8.269698049944233e+17
19333.0	8.265822480891903e+17
19334.0	8.261909690187776e+17
19335.0	8.257961623988905e+17
19336.0	8.253975410595155e+17
19337.0	8.249952701164198e+17
19338.0	8.24583292015957e+17
19339.0	8.238363865776122e+17
19340.0	8.233939711120724e+17
19341.0	8.229803849154556e+17
19342.0	8.225561787411114e+17
19343.0	8.220934831166803e+17
19344.0	8.215904925341012e+17
19345.0	8.211182277449041e+17
19346.0	8.206996662648833e+17
19347.0	8.2028351469213e+17
19348.0	8.197766864612005e+17
19349.0	8.189975317184511e+17
19350.0	8.185545744886442e+17
19351.0	8.1810306381469e+17
19352.0	8.176347661380266e+17
19353.0	8.171618193549994e+17
19354.0	8.1659245391162e+17
19355.0	8.160118831054845e+17
19356.0	8.155188667176275e+17
19357.0	8.150166719343273e+17
19358.0	8.144956897449298e+17
19359.0	8.137864478982143e+17
19360.0	8.132666455665318e+17
19361.0	8.127395237549394e+17
19362.0	8.122048056393725e+17
19363.0	8.116610202774185e+17
19364.0	8.109184750977025e+17
19365.0	8.103204899607892e+17
19366.0	8.097503881374377e+17
19367.0	8.091692274723496e+17
19368.0	8.085784287161004e+17
19369.0	8.079747958090408e+17
19370.0	8.073562964710739e+17
19371.0	8.067301320425471e+17
19372.0	8.060565010950824e+17
19373.0	8.051704961783123e+17
19374.0	8.045109881514666e+17
19375.0	8.038408467251199e+17
19376.0	8.031602284866217e+17
19377.0	8.024688429105151e+17
19378.0	8.017667618592082e+17
19379.0	8.010548938189484e+17
19380.0	8.003207942897664e+17
19381.0	7.99529402245666e+17
19382.0	7.985454017500498e+17
19383.0	7.977957066801151e+17
19384.0	7.970360232946344e+17
19385.0	7.962627293926739e+17
19386.0	7.954619938373632e+17
19387.0	7.94635411722513e+17
19388.0	7.937921102730579e+17
19389.0	7.929257920211625e+17
19390.0	7.920373534294012e+17
19391.0	7.909962828567892e+17
19392.0	7.899133471184211e+17
19393.0	7.889813278905684e+17
19394.0	7.880181245717162e+17
19395.0	7.870284891684863e+17
19396.0	7.859937465423186e+17
19397.0	7.849655924686847e+17
19398.0	7.839156877131773e+17
19399.0	7.828342816374784e+17
19400.0	7.817455720202237e+17
19401.0	7.806256367883604e+17
19402.0	7.794731113949866e+17
19403.0	7.782971282380118e+17
19404.0	7.770989791630675e+17
19405.0	7.758725143418195e+17
19406.0	7.745935643770879e+17
19407.0	7.73260714390323e+17
19408.0	7.718727550238719e+17
19409.0	7.704884378512042e+17
19410.0	7.690602346971133e+17
19411.0	7.675817967834451e+17
19412.0	7.66056722263791e+17
19413.0	7.644914323379539e+17
19414.0	7.628871311906131e+17
19415.0	7.612415657814697e+17
19416.0	7.595505954936147e+17
19417.0	7.578146245181437e+17
19418.0	7.560528659830099e+17
19419.0	7.541620291403773e+17
19420.0	7.522075831610024e+17
19421.0	7.501858012659711e+17
19422.0	7.480971225989119e+17
19423.0	7.459562563043327e+17
19424.0	7.437483552451244e+17
19425.0	7.414354475483135e+17
19426.0	7.390322511664467e+17
19427.0	7.36546791480798e+17
19428.0	7.339725485856083e+17
19429.0	7.312972997197823e+17
19430.0	7.285098850986668e+17
19431.0	7.255790219253076e+17
19432.0	7.225538041085948e+17
19433.0	7.194002861675862e+17
19434.0	7.160881399289172e+17
19435.0	7.126076162921811e+17
19436.0	7.089818479624192e+17
19437.0	7.051922478115497e+17
19438.0	7.011475930830163e+17
19439.0	6.96986576687377e+17
19440.0	6.925893633747625e+17
19441.0	6.879260898405032e+17
19442.0	6.830253339049985e+17
19443.0	6.77836933300224e+17
19444.0	6.72357192984166e+17
19445.0	6.665500878700545e+17
19446.0	6.603908389885268e+17
19447.0	6.538431507901094e+17
19448.0	6.468783877827244e+17
19449.0	6.394953195672916e+17
19450.0	6.315182368227323e+17
19451.0	6.271057424023551e+17
19452.0	6.354981636538367e+17
19453.0	6.428715105910785e+17
19454.0	6.49812122166886e+17
19455.0	6.563254134374399e+17
19456.0	6.624298166910977e+17
19457.0	6.68161081239142e+17
19458.0	6.735212554398378e+17
19459.0	6.786268519552343e+17
19460.0	6.83407394174839e+17
19461.0	6.879306965144916e+17
19462.0	6.921957492654081e+17
19463.0	6.9622624199639e+17
19464.0	7.000684476672681e+17
19465.0	7.036817372435798e+17
19466.0	7.071151005455699e+17
19467.0	7.103929161263785e+17
19468.0	7.135121496866816e+17
19469.0	7.164620210263378e+17
19470.0	7.192741300316841e+17
19471.0	7.219744931315711e+17
19472.0	7.245495737690793e+17
19473.0	7.269861187824297e+17
19474.0	7.293271964035753e+17
19475.0	7.31562039854148e+17
19476.0	7.337201058709501e+17
19477.0	7.357992103400787e+17
19478.0	7.377609429439825e+17
19479.0	7.396452116463615e+17
19480.0	7.414618484550314e+17
19481.0	7.432353922853545e+17
19482.0	7.449178225508348e+17
19483.0	7.465515368142164e+17
19484.0	7.480847087173628e+17
19485.0	7.495316325881172e+17
19486.0	7.509434660727468e+17
19487.0	7.523139479142399e+17
19488.0	7.5363889709056e+17
19489.0	7.549202225692671e+17
19490.0	7.561506153562111e+17
19491.0	7.573688270454783e+17
19492.0	7.585212061974528e+17
19493.0	7.596302443479039e+17
19494.0	7.607083644660394e+17
19495.0	7.61771427032815e+17
19496.0	7.627607492613459e+17
19497.0	7.637131537853097e+17
19498.0	7.646038861021184e+17
19499.0	7.653909605296809e+17
19500.0	7.66360851526451e+17
19501.0	7.671943978636628e+17
19502.0	7.679979515718314e+17
19503.0	7.687753848324093e+17
19504.0	7.69528471416559e+17
19505.0	7.702601259461289e+17
19506.0	7.709834166140927e+17
19507.0	7.716882003350871e+17
19508.0	7.723560509723987e+17
19509.0	7.72996476174336e+17
19510.0	7.738020697123496e+17
19511.0	7.744040352437587e+17
19512.0	7.750658119696383e+17
19513.0	7.756160550218408e+17
19514.0	7.761711766088361e+17
19515.0	7.767175595032575e+17
19516.0	7.772316974273876e+17
19517.0	7.777055809383081e+17
19518.0	7.7816443975325e+17
19519.0	7.786097778098173e+17
19520.0	7.792397520644776e+17
19521.0	7.797566989139967e+17
19522.0	7.801784170272083e+17
19523.0	7.805893963240787e+17
19524.0	7.809846784382292e+17
19525.0	7.813689865753939e+17
19526.0	7.817427664502783e+17
19527.0	7.821055733268479e+17
19528.0	7.824576331382783e+17
19529.0	7.829843067185833e+17
19530.0	7.833897712047444e+17
19531.0	7.837088384811007e+17
19532.0	7.840178260060841e+17
19533.0	7.843145710567421e+17
19534.0	7.845970219193683e+17
19535.0	7.848696164472147e+17
19536.0	7.851309695412905e+17
19537.0	7.853866481614845e+17
19538.0	7.858370392358911e+17
19539.0	7.860645739364351e+17
19540.0	7.863001717669888e+17
19541.0	7.865190678790143e+17
19542.0	7.867588938476198e+17
19543.0	7.871256138700118e+17
19544.0	7.873239931245908e+17
19545.0	7.875033031158442e+17
19546.0	7.876814168915965e+17
19547.0	7.879263752901972e+17
19548.0	7.882140346395306e+17
19549.0	7.883749379276799e+17
19550.0	7.885353236387155e+17
19551.0	7.886808592766292e+17
19552.0	7.888412108739927e+17
19553.0	7.893184197689344e+17
19554.0	7.89447450820608e+17
19555.0	7.895748096032765e+17
19556.0	7.8969748586496e+17
19557.0	7.898160735191037e+17
19558.0	7.899759180251133e+17
19559.0	7.901526501971283e+17
19560.0	7.902555127065258e+17
19561.0	7.903578635108352e+17
19562.0	7.905568566717098e+17
19563.0	7.908974096897363e+17
19564.0	7.909893340135424e+17
19565.0	7.910774139781119e+17
19566.0	7.911614075721044e+17
19567.0	7.912424701864617e+17
19568.0	7.913185200482988e+17
19569.0	7.913927718120105e+17
19570.0	7.914627231558316e+17
19571.0	7.915288362920618e+17
19572.0	7.917689327932758e+17
19573.0	7.920331402510336e+17
19574.0	7.920901316149247e+17
19575.0	7.921477462523901e+17
19576.0	7.921980640591871e+17
19577.0	7.922416674843306e+17
19578.0	7.922807550421673e+17
19579.0	7.923172710722217e+17
19580.0	7.923505081352191e+17
19581.0	7.923810602844157e+17
19582.0	7.924086491578367e+17
19583.0	7.925836559329962e+17
19584.0	7.927220934104403e+17
19585.0	7.92738291253248e+17
19586.0	7.927532566697302e+17
19587.0	7.927692385058815e+17
19588.0	7.927685265926826e+17
19589.0	7.927852576713386e+17
19590.0	7.927885774629545e+17
19591.0	7.927921342327466e+17
19592.0	7.927911140382036e+17
19593.0	7.928097022148607e+17
19594.0	7.928116545235626e+17
19595.0	7.929733151632037e+17
19596.0	7.930095313005226e+17
19597.0	7.930062953949864e+17
19598.0	7.929858257933654e+17
19599.0	7.929754411160918e+17
19600.0	7.929564241417556e+17
19601.0	7.929331876975956e+17
19602.0	7.929093119016956e+17
19603.0	7.928761360755369e+17
19604.0	7.92856574960162e+17
19605.0	7.928209011463508e+17
19606.0	7.927987761927508e+17
19607.0	7.92765905572113e+17
19608.0	7.927419788853247e+17
19609.0	7.9286524458653e+17
19610.0	7.928287608526164e+17
19611.0	7.927899645192876e+17
19612.0	7.927495743504383e+17
19613.0	7.927072898940928e+17
19614.0	7.926617646388564e+17
19615.0	7.926175752694441e+17
19616.0	7.925694860361727e+17
19617.0	7.92521157447953e+17
19618.0	7.924554258535764e+17
19619.0	7.923996087549952e+17
19620.0	7.923493731565565e+17
19621.0	7.923093297168381e+17
19622.0	7.922501768882858e+17
19623.0	7.921875195789311e+17
19624.0	7.921237537150291e+17
19625.0	7.920620457164799e+17
19626.0	7.921184200982528e+17
19627.0	7.920511107465216e+17
19628.0	7.919808170076844e+17
19629.0	7.91908363342097e+17
19630.0	7.918166481742504e+17
19631.0	7.916889230890323e+17
19632.0	7.917103938710186e+17
19633.0	7.916444780068863e+17
19634.0	7.915727470198783e+17
19635.0	7.914976031277055e+17
19636.0	7.914244146200573e+17
19637.0	7.913336054218752e+17
19638.0	7.912716721892009e+17
19639.0	7.911936785470806e+17
19640.0	7.911126939467773e+17
19641.0	7.910220627268948e+17
19642.0	7.909559149177514e+17
19643.0	7.908747523391485e+17
19644.0	7.90790325473553e+17
19645.0	7.90703396286191e+17
19646.0	7.906264625446911e+17
19647.0	7.905478466076672e+17
19648.0	7.905422178516991e+17
19649.0	7.904563473066666e+17
19650.0	7.903700643217405e+17
19651.0	7.902965165020499e+17
19652.0	7.9024274552477e+17
19653.0	7.901543479115775e+17
19654.0	7.900652758543017e+17
19655.0	7.899752382682454e+17
19656.0	7.898845585342463e+17
19657.0	7.897934119742122e+17
19658.0	7.897013517549565e+17
19659.0	7.896085875916799e+17
19660.0	7.895151791833088e+17
19661.0	7.894210404068009e+17
19662.0	7.893261603569664e+17
19663.0	7.892295627396436e+17
19664.0	7.891342136268115e+17
19665.0	7.890367483478016e+17
19666.0	7.889458651900585e+17
