# Flux units: erg / (cm m2 s)
# Wavelength units: Angstrom
wave	flux
19000.0	5.128557717443925e+17
19001.0	5.1275975070405965e+17
19002.0	5.126662240163156e+17
19003.0	5.125714228893013e+17
19004.0	5.1247664476105376e+17
19005.0	5.123819178732203e+17
19006.0	5.12287159947537e+17
19007.0	5.1219240684530336e+17
19008.0	5.1209689135841274e+17
19009.0	5.1200141047453e+17
19010.0	5.1190201399814816e+17
19011.0	5.118130091895466e+17
19012.0	5.117175906609834e+17
19013.0	5.116240455882067e+17
19014.0	5.1152934414581754e+17
19015.0	5.1143449988737696e+17
19016.0	5.1133906521074336e+17
19017.0	5.1124522031513594e+17
19018.0	5.1115056633828685e+17
19019.0	5.1105596185422496e+17
19020.0	5.1096126970920954e+17
19021.0	5.108666329290068e+17
19022.0	5.107720374626987e+17
19023.0	5.106774036884138e+17
19024.0	5.1058263380896403e+17
19025.0	5.104881628435796e+17
19026.0	5.103931870238036e+17
19027.0	5.102979993916757e+17
19028.0	5.1020444851677856e+17
19029.0	5.1010987493075616e+17
19030.0	5.10015335108881e+17
19031.0	5.099207950772906e+17
19032.0	5.0982626336440314e+17
19033.0	5.097306023351636e+17
19034.0	5.096372258035027e+17
19035.0	5.095426326440619e+17
19036.0	5.093710356283391e+17
19037.0	5.093537323068074e+17
19038.0	5.092593132808874e+17
19039.0	5.0916486887942816e+17
19040.0	5.090704322374313e+17
19041.0	5.089759758822057e+17
19042.0	5.088800213215913e+17
19043.0	5.087871941039445e+17
19044.0	5.086927734702079e+17
19045.0	5.0859841952590496e+17
19046.0	5.085033695368531e+17
19047.0	5.0840939314981536e+17
19048.0	5.0831263447121914e+17
19049.0	5.082192310960127e+17
19050.0	5.0812668783274656e+17
19051.0	5.0802270586361165e+17
19052.0	5.079359508796756e+17
19053.0	5.07843867451938e+17
19054.0	5.0774958096602445e+17
19055.0	5.0765220935980365e+17
19056.0	5.0756113221550074e+17
19057.0	5.074669099723434e+17
19058.0	5.073721024140628e+17
19059.0	5.0727825241538554e+17
19060.0	5.0718403625396896e+17
19061.0	5.070901647944362e+17
19062.0	5.069959453474815e+17
19063.0	5.069018328552788e+17
19064.0	5.068062789905067e+17
19065.0	5.067120951951359e+17
19066.0	5.0661954529088845e+17
19067.0	5.065254536303957e+17
19068.0	5.0643137986559994e+17
19069.0	5.063373413329577e+17
19070.0	5.0624317760034125e+17
19071.0	5.061492785283071e+17
19072.0	5.060550441216681e+17
19073.0	5.0596120460875085e+17
19074.0	5.0586729568010234e+17
19075.0	5.057733276117674e+17
19076.0	5.0567912235554125e+17
19077.0	5.055851960205311e+17
19078.0	5.054911388232362e+17
19079.0	5.0539760675280205e+17
19080.0	5.053037158596607e+17
19081.0	5.0520983880772256e+17
19082.0	5.0511544103294285e+17
19083.0	5.0502191378595834e+17
19084.0	5.049256912792234e+17
19085.0	5.0483446160206496e+17
19086.0	5.0473675689820154e+17
19087.0	5.046444716545364e+17
19088.0	5.045519014778196e+17
19089.0	5.044565590758741e+17
19090.0	5.0436556239230285e+17
19091.0	5.0427168687827616e+17
19092.0	5.0417730350394016e+17
19093.0	5.0408444308138656e+17
19094.0	5.039906564166996e+17
19095.0	5.0389692679454726e+17
19096.0	5.038032110135978e+17
19097.0	5.0370973409826125e+17
19098.0	5.0361590269433165e+17
19099.0	5.0352225583977805e+17
19100.0	5.034287499138389e+17
19101.0	5.033352918728703e+17
19102.0	5.03240281100561e+17
19103.0	5.031482682070356e+17
19104.0	5.030547350880255e+17
19105.0	5.0296068229474976e+17
19106.0	5.028673756681556e+17
19107.0	5.0277389686538234e+17
19108.0	5.0268055144147616e+17
19109.0	5.025825337726293e+17
19110.0	5.024936785608703e+17
19111.0	5.024002758847146e+17
19112.0	5.0230684447757645e+17
19113.0	5.022136299858602e+17
19114.0	5.021202491899904e+17
19115.0	5.0202645847080954e+17
19116.0	5.019335220614485e+17
19117.0	5.0184013476440736e+17
19118.0	5.0174594586596685e+17
19119.0	5.015444291321854e+17
19120.0	5.015597077932713e+17
19121.0	5.014665565656404e+17
19122.0	5.013737522069503e+17
19123.0	5.012805043006122e+17
19124.0	5.0118727631721805e+17
19125.0	5.01094055743761e+17
19126.0	5.010007928078335e+17
19127.0	5.008840216368469e+17
19128.0	5.0081441240842234e+17
19129.0	5.0072045650356896e+17
19130.0	5.0062805689521485e+17
19131.0	5.005350518390783e+17
19132.0	5.004419140332202e+17
19133.0	5.003482796916735e+17
19134.0	5.002558008808789e+17
19135.0	5.001627157834411e+17
19136.0	5.0006968115746125e+17
19137.0	4.9997454609394336e+17
19138.0	4.9988338765004794e+17
19139.0	4.997905995792383e+17
19140.0	4.996976241628501e+17
19141.0	4.9960465021446816e+17
19142.0	4.99511652777984e+17
19143.0	4.9941804548969805e+17
19144.0	4.993256098802346e+17
19145.0	4.9923286885553485e+17
19146.0	4.9913260234069325e+17
19147.0	4.9904564623988045e+17
19148.0	4.989539583350099e+17
19149.0	4.9886107561274016e+17
19150.0	4.987683543711743e+17
19151.0	4.986756273274879e+17
19152.0	4.9858278997360634e+17
19153.0	4.9848961854341114e+17
19154.0	4.983954807455743e+17
19155.0	4.9830440604794874e+17
19156.0	4.982115980541951e+17
19157.0	4.981186435394217e+17
19158.0	4.980225804162387e+17
19159.0	4.979331455516671e+17
19160.0	4.9784061165568e+17
19161.0	4.977479408855721e+17
19162.0	4.9764779565602125e+17
19163.0	4.9756233531392e+17
19164.0	4.974699289946794e+17
19165.0	4.9737668821865805e+17
19166.0	4.9728277055187616e+17
19167.0	4.97191320953378e+17
19168.0	4.970992638099455e+17
19169.0	4.970065371856895e+17
19170.0	4.9691419573835085e+17
19171.0	4.9682114293705376e+17
19172.0	4.967290638434303e+17
19173.0	4.966364957638655e+17
19174.0	4.965432035377151e+17
19175.0	4.964514472656895e+17
19176.0	4.963589328732159e+17
19177.0	4.9626451091128314e+17
19178.0	4.9617371443582285e+17
19179.0	4.9608079102880416e+17
19180.0	4.959888759324671e+17
19181.0	4.9589471737282554e+17
19182.0	4.9580366888959994e+17
19183.0	4.957115904950271e+17
19184.0	4.956190316429311e+17
19185.0	4.955266669871102e+17
19186.0	4.9543429918556154e+17
19187.0	4.9534185232138234e+17
19188.0	4.952494778089472e+17
19189.0	4.951571750191102e+17
19190.0	4.9506477275436365e+17
19191.0	4.949723518249642e+17
19192.0	4.9488008230993914e+17
19193.0	4.9478772436500474e+17
19194.0	4.946953968287743e+17
19195.0	4.9460305419304954e+17
19196.0	4.94510590132224e+17
19197.0	4.944182944727039e+17
19198.0	4.9432600384634874e+17
19199.0	4.9419049741844474e+17
19200.0	4.941111170695168e+17
19201.0	4.940491747491839e+17
19202.0	4.939569906581504e+17
19203.0	4.938647417651198e+17
19204.0	4.937721462128639e+17
19205.0	4.936802272018432e+17
19206.0	4.935878531088383e+17
19207.0	4.934951625555968e+17
19208.0	4.9340055310827514e+17
19209.0	4.933113199198208e+17
19210.0	4.932190976606207e+17
19211.0	4.931268827414528e+17
19212.0	4.930346711777279e+17
19213.0	4.9294132400619514e+17
19214.0	4.928484641428821e+17
19215.0	4.927578914335402e+17
19216.0	4.926658595258368e+17
19217.0	4.925736735473664e+17
19218.0	4.9247093777585485e+17
19219.0	4.923876019186346e+17
19220.0	4.922971248394239e+17
19221.0	4.9220088660404896e+17
19222.0	4.9211257665181005e+17
19223.0	4.9202053488749216e+17
19224.0	4.919283790381055e+17
19225.0	4.918343955207508e+17
19226.0	4.917440476261034e+17
19227.0	4.9165189925655885e+17
19228.0	4.915597221560319e+17
19229.0	4.914675267403775e+17
19230.0	4.913753101434879e+17
19231.0	4.9128318917672954e+17
19232.0	4.911908763904683e+17
19233.0	4.910985296303444e+17
19234.0	4.910063309291519e+17
19235.0	4.909144343576575e+17
19236.0	4.908222215356416e+17
19237.0	4.9072982059909114e+17
19238.0	4.906372267944619e+17
19239.0	4.9054564004222285e+17
19240.0	4.904531701792766e+17
19241.0	4.903611087716352e+17
19242.0	4.9026889133588474e+17
19243.0	4.901749550743551e+17
19244.0	4.9008449631027194e+17
19245.0	4.89992224768e+17
19246.0	4.8989976951521274e+17
19247.0	4.898076848291839e+17
19248.0	4.8971540070399994e+17
19249.0	4.896230901547007e+17
19250.0	4.895307068342271e+17
19251.0	4.8943687584972794e+17
19252.0	4.8934308764712954e+17
19253.0	4.8925361887860045e+17
19254.0	4.891613908871849e+17
19255.0	4.8906702799503354e+17
19256.0	4.889760606715902e+17
19257.0	4.888842383392768e+17
19258.0	4.8879179504025594e+17
19259.0	4.8869856488980474e+17
19260.0	4.8860519905361914e+17
19261.0	4.8851437559480314e+17
19262.0	4.884218577769813e+17
19263.0	4.883287353502377e+17
19264.0	4.882296364597247e+17
19265.0	4.881413537005568e+17
19266.0	4.8804772781752314e+17
19267.0	4.879589035737087e+17
19268.0	4.878662314754047e+17
19269.0	4.877735293878272e+17
19270.0	4.8768074739875834e+17
19271.0	4.8758349365247994e+17
19272.0	4.8749477028167674e+17
19273.0	4.8739261402316794e+17
19274.0	4.873017748357119e+17
19275.0	4.8721661068137805e+17
19276.0	4.871236736428714e+17
19277.0	4.870306822182228e+17
19278.0	4.8693765563132576e+17
19279.0	4.8684454641663994e+17
19280.0	4.8675046475257165e+17
19281.0	4.866582451497642e+17
19282.0	4.865650753273855e+17
19283.0	4.864711584994645e+17
19284.0	4.8637838245232634e+17
19285.0	4.862831143594666e+17
19286.0	4.8619167734388045e+17
19287.0	4.8609819224965114e+17
19288.0	4.859813268466346e+17
19289.0	4.858625621229566e+17
19290.0	4.8581737807435085e+17
19291.0	4.857206036671145e+17
19292.0	4.856298236892499e+17
19293.0	4.85535864009523e+17
19294.0	4.854420056222378e+17
19295.0	4.853479752684885e+17
19296.0	4.8525362544858445e+17
19297.0	4.851595734242646e+17
19298.0	4.85065386692881e+17
19299.0	4.8497073075869e+17
19300.0	4.8487650725724154e+17
19301.0	4.8478190962387616e+17
19302.0	4.846870869661013e+17
19303.0	4.845916687171583e+17
19304.0	4.844972526971562e+17
19305.0	4.844027159511039e+17
19306.0	4.8430766078907725e+17
19307.0	4.842121631279787e+17
19308.0	4.8411712488297805e+17
19309.0	4.840199836139519e+17
19310.0	4.8392376446266016e+17
19311.0	4.838297874464766e+17
19312.0	4.837345880003923e+17
19313.0	4.836385324968617e+17
19314.0	4.83407695900399e+17
19315.0	4.833198869577728e+17
19316.0	4.8334922443653114e+17
19317.0	4.832531042009087e+17
19318.0	4.8315630826291194e+17
19319.0	4.83059356087091e+17
19320.0	4.829620684368553e+17
19321.0	4.828646471980372e+17
19322.0	4.8276630314243405e+17
19323.0	4.826689230077951e+17
19324.0	4.825716189997738e+17
19325.0	4.8247189424919885e+17
19326.0	4.8237504022009165e+17
19327.0	4.822761989297493e+17
19328.0	4.8217705327274656e+17
19329.0	4.8207840526991354e+17
19330.0	4.819785121879381e+17
19331.0	4.8187918044364794e+17
19332.0	4.8177936796221434e+17
19333.0	4.8167911382056954e+17
19334.0	4.8157850057659725e+17
19335.0	4.814767468314623e+17
19336.0	4.8137638978955936e+17
19337.0	4.8127482562696525e+17
19338.0	4.8117035439226874e+17
19339.0	4.8107073261185696e+17
19340.0	4.8096591017410554e+17
19341.0	4.8086376251391994e+17
19342.0	4.8075677483663354e+17
19343.0	4.80657609396497e+17
19344.0	4.80552923762961e+17
19345.0	4.804226461641385e+17
19346.0	4.8033033645370016e+17
19347.0	4.802360111704746e+17
19348.0	4.801309732154026e+17
19349.0	4.8002408095853216e+17
19350.0	4.799166021981524e+17
19351.0	4.798085655953407e+17
19352.0	4.7969916102027936e+17
19353.0	4.795905174317738e+17
19354.0	4.794805700438697e+17
19355.0	4.7936879729486496e+17
19356.0	4.7925840796712954e+17
19357.0	4.791462400447829e+17
19358.0	4.790331683198292e+17
19359.0	4.7891872254088525e+17
19360.0	4.7880397498176845e+17
19361.0	4.786886785280682e+17
19362.0	4.785726221363883e+17
19363.0	4.78455077605649e+17
19364.0	4.783364931671381e+17
19365.0	4.7821687238601376e+17
19366.0	4.7809610194616314e+17
19367.0	4.7797415542347085e+17
19368.0	4.7785099199337805e+17
19369.0	4.7772597971408205e+17
19370.0	4.775998221800789e+17
19371.0	4.7747344612283725e+17
19372.0	4.773447197873493e+17
19373.0	4.772144396719445e+17
19374.0	4.770825533478228e+17
19375.0	4.769489043674453e+17
19376.0	4.768135721429674e+17
19377.0	4.7667626475083085e+17
19378.0	4.765370890059775e+17
19379.0	4.7639582435792205e+17
19380.0	4.7625239593833805e+17
19381.0	4.7610670406260045e+17
19382.0	4.7595778145430176e+17
19383.0	4.7580665676649805e+17
19384.0	4.756548691689471e+17
19385.0	4.7549897276129274e+17
19386.0	4.7534025351714125e+17
19387.0	4.7517845607328416e+17
19388.0	4.7501349521544525e+17
19389.0	4.748454432254633e+17
19390.0	4.746739615531007e+17
19391.0	4.744302178249385e+17
19392.0	4.7431737168363514e+17
19393.0	4.7413634503365965e+17
19394.0	4.7394876667112096e+17
19395.0	4.737568408425812e+17
19396.0	4.73560219910144e+17
19397.0	4.7335882620927994e+17
19398.0	4.731521626450602e+17
19399.0	4.7293049186112845e+17
19400.0	4.727216027293013e+17
19401.0	4.724988864451925e+17
19402.0	4.722696964625749e+17
19403.0	4.720347583261353e+17
19404.0	4.717911019793066e+17
19405.0	4.7153039998102176e+17
19406.0	4.712749337324202e+17
19407.0	4.710121225584639e+17
19408.0	4.707312637138261e+17
19409.0	4.7046329424500045e+17
19410.0	4.7017718993387514e+17
19411.0	4.6988269659531936e+17
19412.0	4.6958048895303674e+17
19413.0	4.692714107611819e+17
19414.0	4.689533072659797e+17
19415.0	4.686275168698368e+17
19416.0	4.682906189780308e+17
19417.0	4.679480992508585e+17
19418.0	4.6759666201395194e+17
19419.0	4.672358308642815e+17
19420.0	4.668680998748159e+17
19421.0	4.664958359612075e+17
19422.0	4.6611542069739514e+17
19423.0	4.657267321689429e+17
19424.0	4.6532982560085325e+17
19425.0	4.649248433198421e+17
19426.0	4.6451089655289165e+17
19427.0	4.640402407686143e+17
19428.0	4.6360251432523085e+17
19429.0	4.6316782938139296e+17
19430.0	4.627292543604053e+17
19431.0	4.6221842182744723e+17
19432.0	4.617323793088511e+17
19433.0	4.6116362840091283e+17
19434.0	4.6054897614848006e+17
19435.0	4.597836957439318e+17
19436.0	4.5882015597199334e+17
19437.0	4.573962737898838e+17
19438.0	4.549074760673953e+17
19439.0	4.514334796065446e+17
19440.0	4.493353789947904e+17
19441.0	4.473693781972307e+17
19442.0	4.451560257312085e+17
19443.0	4.4272305720087885e+17
19444.0	4.4010434056246586e+17
19445.0	4.3688722445980966e+17
19446.0	4.29306919308495e+17
19447.0	4.2021169824180883e+17
19448.0	4.1234479245339334e+17
19449.0	3.9605934112112416e+17
19450.0	3.49325670307158e+17
19451.0	3.281365133601431e+17
19452.0	3.776832216585575e+17
19453.0	4.0665943092756595e+17
19454.0	4.160777722964645e+17
19455.0	4.2369859764005594e+17
19456.0	4.334734870751923e+17
19457.0	4.377904941804201e+17
19458.0	4.399781169681753e+17
19459.0	4.42702577323213e+17
19460.0	4.4491044287064723e+17
19461.0	4.468178083468628e+17
19462.0	4.4850686050959366e+17
19463.0	4.5138237145306374e+17
19464.0	4.5429834330931315e+17
19465.0	4.558983445260971e+17
19466.0	4.568984142391979e+17
19467.0	4.575586383036415e+17
19468.0	4.580558369019221e+17
19469.0	4.58508891988514e+17
19470.0	4.5883252539391994e+17
19471.0	4.591900634557098e+17
19472.0	4.5947470982676486e+17
19473.0	4.5974124267656525e+17
19474.0	4.6000585872943776e+17
19475.0	4.6028265245463885e+17
19476.0	4.605636774636202e+17
19477.0	4.608027067940864e+17
19478.0	4.61032601559586e+17
19479.0	4.6125340677898234e+17
19480.0	4.614662444985002e+17
19481.0	4.616696128077823e+17
19482.0	4.618666909892607e+17
19483.0	4.6205873852252154e+17
19484.0	4.622417695604734e+17
19485.0	4.624153344737279e+17
19486.0	4.6258045499473914e+17
19487.0	4.627377603390121e+17
19488.0	4.62885332591138e+17
19489.0	4.630218817929215e+17
19490.0	4.6313603998242125e+17
19491.0	4.632783653000534e+17
19492.0	4.633936539243861e+17
19493.0	4.63500708291106e+17
19494.0	4.6359974489620474e+17
19495.0	4.6369097317526176e+17
19496.0	4.637688639171242e+17
19497.0	4.638507017786709e+17
19498.0	4.6390891102863354e+17
19499.0	4.638836066527914e+17
19500.0	4.6405349071476045e+17
19501.0	4.6410454133637126e+17
19502.0	4.6414946289145165e+17
19503.0	4.6418875527113376e+17
19504.0	4.642226569215998e+17
19505.0	4.6425119154066765e+17
19506.0	4.642747113799678e+17
19507.0	4.64293357228305e+17
19508.0	4.643078311422634e+17
19509.0	4.643177636036607e+17
19510.0	4.643210032141653e+17
19511.0	4.64103718204211e+17
19512.0	4.6430457328653645e+17
19513.0	4.642836767746729e+17
19514.0	4.6428538867985056e+17
19515.0	4.6429125476351994e+17
19516.0	4.642824063898964e+17
19517.0	4.6426408077666976e+17
19518.0	4.642444893224959e+17
19519.0	4.642213142549844e+17
19520.0	4.641951397008724e+17
19521.0	4.6416764547891194e+17
19522.0	4.6413733331380896e+17
19523.0	4.6410479012850336e+17
19524.0	4.640700712179028e+17
19525.0	4.640336299163646e+17
19526.0	4.639953913555626e+17
19527.0	4.6395521565545805e+17
19528.0	4.6391334273023994e+17
19529.0	4.638698271058603e+17
19530.0	4.638247627347285e+17
19531.0	4.6377822511431674e+17
19532.0	4.6373026856086176e+17
19533.0	4.636809656358229e+17
19534.0	4.636303800926207e+17
19535.0	4.6357855932689056e+17
19536.0	4.635254675472383e+17
19537.0	4.6347144463209805e+17
19538.0	4.6341410157581645e+17
19539.0	4.63352951349794e+17
19540.0	4.6330281075234125e+17
19541.0	4.6324471132323834e+17
19542.0	4.6318567453709645e+17
19543.0	4.63125475299601e+17
19544.0	4.630650456550058e+17
19545.0	4.6299663292170234e+17
19546.0	4.6292967728960845e+17
19547.0	4.628783137030144e+17
19548.0	4.628145644765183e+17
19549.0	4.6274920086241274e+17
19550.0	4.6268531811723936e+17
19551.0	4.626197704430932e+17
19552.0	4.62553585025024e+17
19553.0	4.62486516216627e+17
19554.0	4.624190809658708e+17
19555.0	4.623518151649962e+17
19556.0	4.6228352483546445e+17
19557.0	4.622147145520468e+17
19558.0	4.621455144080724e+17
19559.0	4.6207586624252576e+17
19560.0	4.6200580948186445e+17
19561.0	4.619353163038719e+17
19562.0	4.618644418636458e+17
19563.0	4.617931926623573e+17
19564.0	4.6172157373317114e+17
19565.0	4.6164961261868365e+17
19566.0	4.615770444485972e+17
19567.0	4.615046771856725e+17
19568.0	4.6143176207674016e+17
19569.0	4.6135840258129914e+17
19570.0	4.6128502043661645e+17
19571.0	4.6121123123473056e+17
19572.0	4.6113716464954016e+17
19573.0	4.610625630808746e+17
19574.0	4.6098766406615034e+17
19575.0	4.6091350646456314e+17
19576.0	4.608391947223039e+17
19577.0	4.6076739103402656e+17
19578.0	4.606915157251412e+17
19579.0	4.606164195082239e+17
19580.0	4.6054048792575994e+17
19581.0	4.604642578486612e+17
19582.0	4.6038823119530656e+17
19583.0	4.6031180419563514e+17
19584.0	4.60235099742754e+17
19585.0	4.601575323118249e+17
19586.0	4.60079798157312e+17
19587.0	4.6000415129818445e+17
19588.0	4.599209643387562e+17
19589.0	4.59849804615953e+17
19590.0	4.597710987111081e+17
19591.0	4.596946914945706e+17
19592.0	4.596168846387881e+17
19593.0	4.5953904059351034e+17
19594.0	4.594582081066325e+17
19595.0	4.5938248113629856e+17
19596.0	4.5930293434340685e+17
19597.0	4.592262126239743e+17
19598.0	4.5914178296217594e+17
19599.0	4.5906929161775776e+17
19600.0	4.589906489070932e+17
19601.0	4.589114008185514e+17
19602.0	4.588322895342251e+17
19603.0	4.5874821722712736e+17
19604.0	4.586747453942442e+17
19605.0	4.5859255059742714e+17
19606.0	4.585168322254164e+17
19607.0	4.584376354471936e+17
19608.0	4.583582557274111e+17
19609.0	4.582786086207487e+17
19610.0	4.581992846852095e+17
19611.0	4.5811960255610874e+17
19612.0	4.580403658620927e+17
19613.0	4.5796070260735994e+17
19614.0	4.5788100558847994e+17
19615.0	4.578012110520318e+17
19616.0	4.577206550396927e+17
19617.0	4.576411222278143e+17
19618.0	4.575535948627966e+17
19619.0	4.574720346641748e+17
19620.0	4.5739250828356256e+17
19621.0	4.573212398583807e+17
19622.0	4.5724144762879994e+17
19623.0	4.571612923822079e+17
19624.0	4.570810968702975e+17
19625.0	4.570008568288597e+17
19626.0	4.5692058505052154e+17
19627.0	4.568402604239529e+17
19628.0	4.567587983720447e+17
19629.0	4.566776088799914e+17
19630.0	4.5659517913224525e+17
19631.0	4.5646963781140486e+17
19632.0	4.5643814970327034e+17
19633.0	4.563576656232447e+17
19634.0	4.5627716308828154e+17
19635.0	4.561965393379328e+17
19636.0	4.5611567022079994e+17
19637.0	4.560311002595327e+17
19638.0	4.559545728761856e+17
19639.0	4.558741303197695e+17
19640.0	4.557916480733183e+17
19641.0	4.556969502659926e+17
19642.0	4.556320351627946e+17
19643.0	4.5555128299683834e+17
19644.0	4.554700768673791e+17
19645.0	4.5538604587417594e+17
19646.0	4.5530857861720736e+17
19647.0	4.55228146127121e+17
19648.0	4.551473567017642e+17
19649.0	4.5506648450880845e+17
19650.0	4.549856740420265e+17
19651.0	4.5490481492131834e+17
19652.0	4.54823941959407e+17
19653.0	4.547430349537279e+17
19654.0	4.5466216506763936e+17
19655.0	4.545811999708502e+17
