# Flux units: erg / (cm m2 s)
# Wavelength units: Angstrom
wave	flux
19000.0	4.100320520394068e+17
19001.0	4.0993884265076045e+17
19002.0	4.098874833283754e+17
19003.0	4.0981382561791994e+17
19004.0	4.0973750969739955e+17
19005.0	4.096617575612415e+17
19006.0	4.095685485221206e+17
19007.0	4.0952454565942605e+17
19008.0	4.0943851733865805e+17
19009.0	4.093601585124694e+17
19010.0	4.091919852371965e+17
19011.0	4.092266517189974e+17
19012.0	4.0911883454818976e+17
19013.0	4.090899909487274e+17
19014.0	4.0900845011380896e+17
19015.0	4.0892643280595616e+17
19016.0	4.08852677787648e+17
19017.0	4.087982289409364e+17
19018.0	4.0872468321839776e+17
19019.0	4.086498899001343e+17
19020.0	4.085807587524608e+17
19021.0	4.08509959110656e+17
19022.0	4.084379063506261e+17
19023.0	4.0835416343620256e+17
19024.0	4.082761147088895e+17
19025.0	4.082202532205908e+17
19026.0	4.081420251867818e+17
19027.0	4.080617566240767e+17
19028.0	4.080039486991018e+17
19029.0	4.079290254972245e+17
19030.0	4.078603895570432e+17
19031.0	4.077861739342506e+17
19032.0	4.0771559917704525e+17
19033.0	4.0762847872942074e+17
19034.0	4.075717357382314e+17
19035.0	4.074981429695829e+17
19036.0	4.0604982134701984e+17
19037.0	4.0735386149847034e+17
19038.0	4.072809530305195e+17
19039.0	4.07210934018594e+17
19040.0	4.071396487462911e+17
19041.0	4.070663309142698e+17
19042.0	4.0638757159130374e+17
19043.0	4.0692713342894074e+17
19044.0	4.068535080845311e+17
19045.0	4.067803023802368e+17
19046.0	4.066974735444649e+17
19047.0	4.0663706745787725e+17
19048.0	4.064337863901182e+17
19049.0	4.052650377084915e+17
19050.0	4.0640396929269754e+17
19051.0	4.061522827411451e+17
19052.0	4.0626045419083085e+17
19053.0	4.0620890200036685e+17
19054.0	4.0613652592940365e+17
19055.0	4.0583986078023686e+17
19056.0	4.059259707501225e+17
19057.0	4.0592161755190605e+17
19058.0	4.0521625844230726e+17
19059.0	4.055235209199614e+17
19060.0	4.0570278624187725e+17
19061.0	4.056346954214059e+17
19062.0	4.055621960379051e+17
19063.0	4.0549241875770016e+17
19064.0	4.0539679869282976e+17
19065.0	4.053201045159936e+17
19066.0	4.050282620474711e+17
19067.0	4.0520187708265805e+17
19068.0	4.0513524014776314e+17
19069.0	4.0506389909121696e+17
19070.0	4.0498517207504205e+17
19071.0	4.0491833563108685e+17
19072.0	4.0459927744238906e+17
19073.0	4.0477648734562976e+17
19074.0	4.0470577711240525e+17
19075.0	4.04635620737024e+17
19076.0	4.0454755992644256e+17
19077.0	4.044880771459754e+17
19078.0	4.0440773735000736e+17
19079.0	4.043482281454249e+17
19080.0	4.0427615637121696e+17
19081.0	4.041958016854698e+17
19082.0	4.04126172254481e+17
19083.0	4.040518244412074e+17
19084.0	4.0395988928211616e+17
19085.0	4.039158186814122e+17
19086.0	4.034982688675157e+17
19087.0	4.032435736018938e+17
19088.0	4.034052649997648e+17
19089.0	4.03593628745728e+17
19090.0	4.035620828261034e+17
19091.0	4.034410135420931e+17
19092.0	4.029511561641995e+17
19093.0	4.0335272826634234e+17
19094.0	4.032816807411712e+17
19095.0	4.0320973787190605e+17
19096.0	4.03136142446865e+17
19097.0	4.030675471215274e+17
19098.0	4.027451438355796e+17
19099.0	4.026275729506305e+17
19100.0	4.0284377799720954e+17
19101.0	4.0277827492249594e+17
19102.0	4.0267951269478394e+17
19103.0	4.0264017263984634e+17
19104.0	4.0257174634495994e+17
19105.0	4.019584164167693e+17
19106.0	4.024188321573547e+17
19107.0	4.022243458460329e+17
19108.0	4.0209112489437875e+17
19109.0	4.021523044106238e+17
19110.0	4.021448640648532e+17
19111.0	4.019251992767143e+17
19112.0	4.0181386692962944e+17
19113.0	4.0192998581643936e+17
19114.0	4.017668745767592e+17
19115.0	4.0175043849748486e+17
19116.0	4.0171047523887776e+17
19117.0	4.016457485997397e+17
19118.0	4.0155445726631245e+17
19119.0	3.975877459181507e+17
19120.0	4.014222229547689e+17
19121.0	4.0135890602120525e+17
19122.0	4.012967332937728e+17
19123.0	4.0122634014993056e+17
19124.0	4.011516990149972e+17
19125.0	4.010848207678122e+17
19126.0	4.010144656523264e+17
19127.0	4.005472023609341e+17
19128.0	4.0087020179729056e+17
19129.0	4.007888724251989e+17
19130.0	4.0072960047841274e+17
19131.0	4.006606319998291e+17
19132.0	4.00588492837137e+17
19133.0	4.00511129878528e+17
19134.0	4.004486455842133e+17
19135.0	4.003767740181161e+17
19136.0	4.0030494830974285e+17
19137.0	4.0020140156955296e+17
19138.0	4.001651178340351e+17
19139.0	4.0009788237195936e+17
19140.0	4.0002766042562554e+17
19141.0	3.9995663380206925e+17
19142.0	3.998791292157951e+17
19143.0	3.9980139338356045e+17
19144.0	3.9973905672874656e+17
19145.0	3.996745084873386e+17
19146.0	3.994874937693526e+17
19147.0	3.994969431867391e+17
19148.0	3.992534391630509e+17
19149.0	3.991498371279532e+17
19150.0	3.99322661327121e+17
19151.0	3.992526206446251e+17
19152.0	3.9918234689863674e+17
19153.0	3.9868164381955354e+17
19154.0	3.989695246980438e+17
19155.0	3.989729485083989e+17
19156.0	3.9890274991035725e+17
19157.0	3.986851035611139e+17
19158.0	3.9841955043082285e+17
19159.0	3.986792552333311e+17
19160.0	3.98619575320576e+17
19161.0	3.9855154496798714e+17
19162.0	3.983828594982912e+17
19163.0	3.9841182599086074e+17
19164.0	3.983383788344661e+17
19165.0	3.977957585103523e+17
19166.0	3.9816664340671136e+17
19167.0	3.981111780704255e+17
19168.0	3.980616342525268e+17
19169.0	3.9798819087100576e+17
19170.0	3.9792222803066874e+17
19171.0	3.978438729094485e+17
19172.0	3.977814702642516e+17
19173.0	3.9771179609402016e+17
19174.0	3.976287932645376e+17
19175.0	3.9757109131564365e+17
19176.0	3.9750210256459085e+17
19177.0	3.974029559289172e+17
19178.0	3.973470313862485e+17
19179.0	3.97266222317568e+17
19180.0	3.97221432463633e+17
19181.0	3.971080985946793e+17
19182.0	3.970738784567295e+17
19183.0	3.9701301274432845e+17
19184.0	3.969385306434217e+17
19185.0	3.9687055369830394e+17
19186.0	3.9680433773172045e+17
19187.0	3.967238621102079e+17
19188.0	3.966612239548416e+17
19189.0	3.9659563636490234e+17
19190.0	3.9652647809406285e+17
19191.0	3.9644613305521485e+17
19192.0	3.963862801274196e+17
19193.0	3.962662615864661e+17
19194.0	3.9616606952052064e+17
19195.0	3.9617653682558285e+17
19196.0	3.961039116828672e+17
19197.0	3.960355801093461e+17
19198.0	3.9596876435729056e+17
19199.0	3.9524280576245734e+17
19200.0	3.9540782303368557e+17
19201.0	3.9575670517050016e+17
19202.0	3.9569192337626445e+17
19203.0	3.9561966901002234e+17
19204.0	3.9554704030214816e+17
19205.0	3.954816803231061e+17
19206.0	3.9541031340168525e+17
19207.0	3.953226436400468e+17
19208.0	3.952117718974462e+17
19209.0	3.95202786300177e+17
19210.0	3.9513195233498445e+17
19211.0	3.950658346549248e+17
19212.0	3.949971252445183e+17
19213.0	3.949083202945023e+17
19214.0	3.948310583487146e+17
19215.0	3.947874929519274e+17
19216.0	3.9472084713908896e+17
19217.0	3.9465077688674976e+17
19218.0	3.944152544837629e+17
19219.0	3.9448986814600525e+17
19220.0	3.9443896775038285e+17
19221.0	3.943078187849045e+17
19222.0	3.943043255588181e+17
19223.0	3.942316783261012e+17
19224.0	3.941593709718186e+17
19225.0	3.9406603673272314e+17
19226.0	3.9402534373512525e+17
19227.0	3.939566367014911e+17
19228.0	3.938907306240683e+17
19229.0	3.938204399610538e+17
19230.0	3.9375077788439885e+17
19231.0	3.9368195781427194e+17
19232.0	3.9361393263465805e+17
19233.0	3.9353350433887565e+17
19234.0	3.9347043626734925e+17
19235.0	3.934019852260693e+17
19236.0	3.9333873470231885e+17
19237.0	3.932652639180117e+17
19238.0	3.93177677692928e+17
19239.0	3.9313203220097696e+17
19240.0	3.9306124647028045e+17
19241.0	3.929905584668672e+17
19242.0	3.92921427878434e+17
19243.0	3.928306228046506e+17
19244.0	3.927865310926164e+17
19245.0	3.9271366386865485e+17
19246.0	3.9264526001329485e+17
19247.0	3.9257961132632736e+17
19248.0	3.9251208561841485e+17
19249.0	3.924346366066686e+17
19250.0	3.922932249482581e+17
19251.0	3.9220842772561894e+17
19252.0	3.921916153473706e+17
19253.0	3.921619121952084e+17
19254.0	3.9209973359575034e+17
19255.0	3.9199885687958163e+17
19256.0	3.919553781650772e+17
19257.0	3.918935242746538e+17
19258.0	3.9182466652569594e+17
19259.0	3.917442682890922e+17
19260.0	3.916435299849557e+17
19261.0	3.9161743246622714e+17
19262.0	3.9153748329977165e+17
19263.0	3.9146567332003834e+17
19264.0	3.9128709481540243e+17
19265.0	3.91295796458291e+17
19266.0	3.911642074404183e+17
19267.0	3.91207633096977e+17
19268.0	3.91137201155823e+17
19269.0	3.910706506934954e+17
19270.0	3.9100250387906554e+17
19271.0	3.9085449381150726e+17
19272.0	3.9085805365712205e+17
19273.0	3.907432500341417e+17
19274.0	3.9065443417893523e+17
19275.0	3.906607949108565e+17
19276.0	3.9058829370982394e+17
19277.0	3.9052183964658336e+17
19278.0	3.904478472306687e+17
19279.0	3.903816927106388e+17
19280.0	3.9029890337122976e+17
19281.0	3.9024715174161056e+17
19282.0	3.9018232374012576e+17
19283.0	3.901054310329002e+17
19284.0	3.900402795107668e+17
19285.0	3.8994521295421434e+17
19286.0	3.899017717088255e+17
19287.0	3.898395622113279e+17
19288.0	3.894279611088893e+17
19289.0	3.887492570109252e+17
19290.0	3.896368888982186e+17
19291.0	3.895237443321857e+17
19292.0	3.894997903824212e+17
19293.0	3.8943015780570445e+17
19294.0	3.893605524919638e+17
19295.0	3.8929524515143674e+17
19296.0	3.88982029977737e+17
19297.0	3.8910775039535795e+17
19298.0	3.8908596028702714e+17
19299.0	3.88742216592043e+17
19300.0	3.889436197999958e+17
19301.0	3.8888433729754445e+17
19302.0	3.8881665059826336e+17
19303.0	3.887349438087168e+17
19304.0	3.8867646954864634e+17
19305.0	3.8861033509137056e+17
19306.0	3.8854496735286605e+17
19307.0	3.884660153122815e+17
19308.0	3.8840373625924256e+17
19309.0	3.8831480764716365e+17
19310.0	3.882413660831742e+17
19311.0	3.8819825506932045e+17
19312.0	3.8813560866515616e+17
19313.0	3.880665344901119e+17
19314.0	3.820690021722785e+17
19315.0	3.8231307906799795e+17
19316.0	3.875399371063301e+17
19317.0	3.87795214471441e+17
19318.0	3.8772977459090765e+17
19319.0	3.8766416078656845e+17
19320.0	3.8749276754411494e+17
19321.0	3.873112488323755e+17
19322.0	3.8744916439859194e+17
19323.0	3.8738373626210976e+17
19324.0	3.8732547828831565e+17
19325.0	3.8723497723166714e+17
19326.0	3.8719144336206496e+17
19327.0	3.8711634190226765e+17
19328.0	3.8656532681850925e+17
19329.0	3.869886686866089e+17
19330.0	3.869129273857364e+17
19331.0	3.868453379244031e+17
19332.0	3.867861513317034e+17
19333.0	3.8671599348831565e+17
19334.0	3.866327340373334e+17
19335.0	3.8558970178874144e+17
19336.0	3.865029931696129e+17
19337.0	3.864475063724714e+17
19338.0	3.863402929717246e+17
19339.0	3.86311571776034e+17
19340.0	3.8614063123879245e+17
19341.0	3.858108663201797e+17
19342.0	3.85922132467166e+17
19343.0	3.860432768991231e+17
19344.0	3.8561872238783194e+17
19345.0	3.852494123128142e+17
19346.0	3.8566136965147296e+17
19347.0	3.853155733340161e+17
19348.0	3.8570690602161485e+17
19349.0	3.856335601576618e+17
19350.0	3.8541260415303674e+17
19351.0	3.854919311643989e+17
19352.0	3.849424594447011e+17
19353.0	3.853682468017491e+17
19354.0	3.853031674216448e+17
19355.0	3.8521810588794886e+17
19356.0	3.8516785078599674e+17
19357.0	3.851012347527168e+17
19358.0	3.850333974779221e+17
19359.0	3.848438501692753e+17
19360.0	3.8452367797343546e+17
19361.0	3.848235872769364e+17
19362.0	3.847660204545364e+17
19363.0	3.846984749634901e+17
19364.0	3.8463150632905376e+17
19365.0	3.845632134130346e+17
19366.0	3.844954066168491e+17
19367.0	3.8442961420506445e+17
19368.0	3.8436338908091725e+17
19369.0	3.842867838932308e+17
19370.0	3.8422416740843514e+17
19371.0	3.84152394338577e+17
19372.0	3.8409430434665805e+17
19373.0	3.8402388400974496e+17
19374.0	3.83959659778321e+17
19375.0	3.8389364227222163e+17
19376.0	3.8382779952878925e+17
19377.0	3.837589231151786e+17
19378.0	3.836929040711678e+17
19379.0	3.8362654137384954e+17
19380.0	3.8355741246313805e+17
19381.0	3.8348799183858336e+17
19382.0	3.834137227384149e+17
19383.0	3.833376356870827e+17
19384.0	3.8328330679746554e+17
19385.0	3.832240214289066e+17
19386.0	3.831579616302421e+17
19387.0	3.830915289579519e+17
19388.0	3.830216772288512e+17
19389.0	3.829515821602133e+17
19390.0	3.828848865749674e+17
19391.0	3.815237466368662e+17
19392.0	3.827445694201855e+17
19393.0	3.8268406546650445e+17
19394.0	3.826157548645034e+17
19395.0	3.8240487364799174e+17
19396.0	3.8244337735871155e+17
19397.0	3.8241687089534285e+17
19398.0	3.822267195370155e+17
19399.0	3.81930088851046e+17
19400.0	3.821099591314091e+17
19401.0	3.8214763551566496e+17
19402.0	3.820826848307883e+17
19403.0	3.820123130778965e+17
19404.0	3.8194775819550714e+17
19405.0	3.8187686970436256e+17
19406.0	3.8181301750770355e+17
19407.0	3.815681964725586e+17
19408.0	3.814894581317637e+17
19409.0	3.816102031960747e+17
19410.0	3.8154666445373434e+17
19411.0	3.8147943325586765e+17
19412.0	3.814088761846442e+17
19413.0	3.8115959919083514e+17
19414.0	3.8126895972570445e+17
19415.0	3.812071996478806e+17
19416.0	3.81108224069905e+17
19417.0	3.8106160955391994e+17
19418.0	3.810070960450218e+17
19419.0	3.809391618118998e+17
19420.0	3.8087251502039034e+17
19421.0	3.808036732097876e+17
19422.0	3.807282006938964e+17
19423.0	3.806670930400597e+17
19424.0	3.8059974873579514e+17
19425.0	3.805291811089066e+17
19426.0	3.8046189992891725e+17
19427.0	3.803917639658153e+17
19428.0	3.8032283099900576e+17
19429.0	3.8025351089793696e+17
19430.0	3.801691101069312e+17
19431.0	3.798765673294512e+17
19432.0	3.800391728059732e+17
19433.0	3.7996472265168205e+17
19434.0	3.7988956366001485e+17
19435.0	3.797892824651093e+17
19436.0	3.7961335713737363e+17
19437.0	3.7965181170483194e+17
19438.0	3.766759856624986e+17
19439.0	3.794118508194476e+17
19440.0	3.7937667312189434e+17
19441.0	3.792743586682197e+17
19442.0	3.791595228190037e+17
19443.0	3.790197004522837e+17
19444.0	3.788464228488532e+17
19445.0	3.786110133425494e+17
19446.0	3.7826083090158925e+17
19447.0	3.776650660894037e+17
19448.0	3.764084628171434e+17
19449.0	3.7220319875126605e+17
19450.0	3.401790407049218e+17
19451.0	3.08591172378077e+17
19452.0	3.529914019304814e+17
19453.0	3.737907969916931e+17
19454.0	3.764389953230164e+17
19455.0	3.7731246940706125e+17
19456.0	3.776837445834069e+17
19457.0	3.778577977136468e+17
19458.0	3.5729093920034304e+17
19459.0	3.774999475956448e+17
19460.0	3.779840215875583e+17
19461.0	3.779740674555904e+17
19462.0	3.779419208417279e+17
19463.0	3.7790748155139405e+17
19464.0	3.778601547726848e+17
19465.0	3.7781581580642976e+17
19466.0	3.777569998503935e+17
19467.0	3.7771012738471245e+17
19468.0	3.7765409917282976e+17
19469.0	3.7717732326987034e+17
19470.0	3.7753594304266234e+17
19471.0	3.774792518511274e+17
19472.0	3.7740274474024954e+17
19473.0	3.773401008526675e+17
19474.0	3.7692911058070125e+17
19475.0	3.770073328123901e+17
19476.0	3.7715368137632416e+17
19477.0	3.770961576154453e+17
19478.0	3.77043353145617e+17
19479.0	3.7662929949381914e+17
19480.0	3.7691127423303674e+17
19481.0	3.768174536643926e+17
19482.0	3.7678292985883296e+17
19483.0	3.767257383567359e+17
19484.0	3.7665717721497594e+17
19485.0	3.7658238354718714e+17
19486.0	3.76150935417652e+17
19487.0	3.764640202184021e+17
19488.0	3.7640441922846714e+17
19489.0	3.763266956995243e+17
19490.0	3.7590527608094656e+17
19491.0	3.7620297904073376e+17
19492.0	3.761452711499093e+17
19493.0	3.7608089851002874e+17
19494.0	3.760145426634068e+17
19495.0	3.7594850348673696e+17
19496.0	3.757643728420862e+17
19497.0	3.7581221412208634e+17
19498.0	3.7565318918307846e+17
19499.0	3.736028507886918e+17
19500.0	3.756205960855551e+17
19501.0	3.755656130243242e+17
19502.0	3.755022775659178e+17
19503.0	3.754382787783338e+17
19504.0	3.7537357513796256e+17
19505.0	3.753027708125183e+17
19506.0	3.752447282162346e+17
19507.0	3.7517221191570765e+17
19508.0	3.751139210865323e+17
19509.0	3.750481007826261e+17
19510.0	3.748982400483327e+17
19511.0	3.656470015683158e+17
19512.0	3.7456451563683744e+17
19513.0	3.741157617390922e+17
19514.0	3.74282420591001e+17
19515.0	3.7454241801611974e+17
19516.0	3.745527243298132e+17
19517.0	3.7450285859908256e+17
19518.0	3.7437122036804243e+17
19519.0	3.743021592652457e+17
19520.0	3.7401127666319315e+17
19521.0	3.7426871563277645e+17
19522.0	3.7415898606906016e+17
19523.0	3.740582770551468e+17
19524.0	3.738328467767301e+17
19525.0	3.7400380590871885e+17
19526.0	3.739456142049279e+17
19527.0	3.738762369215146e+17
19528.0	3.73794125521442e+17
19529.0	3.737162549122389e+17
19530.0	3.736867454670165e+17
19531.0	3.736218876859733e+17
19532.0	3.7355664850288634e+17
19533.0	3.734910898536447e+17
19534.0	3.734276772200448e+17
19535.0	3.733601811518804e+17
19536.0	3.732905895395327e+17
19537.0	3.7323130710698656e+17
19538.0	3.7284487574323245e+17
19539.0	3.7296646868609754e+17
19540.0	3.730341908272468e+17
19541.0	3.7291541254198605e+17
19542.0	3.7288339420392096e+17
19543.0	3.725219915104258e+17
19544.0	3.7276201167530656e+17
19545.0	3.726171369897981e+17
19546.0	3.724311501559125e+17
19547.0	3.725882362079914e+17
19548.0	3.725230597996544e+17
19549.0	3.724417426609493e+17
19550.0	3.723918597335722e+17
19551.0	3.7232997256833696e+17
19552.0	3.7226310110194336e+17
19553.0	3.7219556959191034e+17
19554.0	3.7212370578527565e+17
19555.0	3.720361122900651e+17
19556.0	3.719836215541759e+17
19557.0	3.7193931173833376e+17
19558.0	3.7187720381289805e+17
19559.0	3.718136923335338e+17
19560.0	3.71634621137988e+17
19561.0	3.716798640466602e+17
19562.0	3.715092450727252e+17
19563.0	3.7155645979361274e+17
19564.0	3.714901489658538e+17
19565.0	3.7142666020563616e+17
19566.0	3.713560388217514e+17
19567.0	3.712995025398442e+17
19568.0	3.7123199633544525e+17
19569.0	3.711662732694869e+17
19570.0	3.711043498235221e+17
19571.0	3.710398883343018e+17
19572.0	3.7097227929954976e+17
19573.0	3.7087673787787936e+17
19574.0	3.7082229811882656e+17
19575.0	3.7078543144495776e+17
19576.0	3.707048452336298e+17
19577.0	3.706077108153002e+17
19578.0	3.7058337385567565e+17
19579.0	3.7052341362360314e+17
19580.0	3.7046042321660576e+17
19581.0	3.7039566183464954e+17
19582.0	3.703363180254549e+17
19583.0	3.702732817607338e+17
19584.0	3.702073766619818e+17
19585.0	3.701238269651625e+17
19586.0	3.700555823535445e+17
19587.0	3.7001235564680525e+17
19588.0	3.698446011028823e+17
19589.0	3.6988431696745805e+17
19590.0	3.697854602280959e+17
19591.0	3.6975847771122336e+17
19592.0	3.696934872503636e+17
19593.0	3.696032886729386e+17
19594.0	3.694975871090686e+17
19595.0	3.6949885791327565e+17
19596.0	3.694342382987946e+17
19597.0	3.693749410463744e+17
19598.0	3.691303204989608e+17
19599.0	3.692482944565248e+17
19600.0	3.691849926923606e+17
19601.0	3.691086857196885e+17
19602.0	3.690497889533951e+17
19603.0	3.6888959722891923e+17
19604.0	3.689242862900565e+17
19605.0	3.688082519184726e+17
19606.0	3.6879937257690445e+17
19607.0	3.6873892391813114e+17
19608.0	3.6867105553558176e+17
19609.0	3.686004438685012e+17
19610.0	3.683844919481687e+17
19611.0	3.6824865053518534e+17
19612.0	3.684209889640447e+17
19613.0	3.683545037231444e+17
19614.0	3.682869541776042e+17
19615.0	3.682297809207296e+17
19616.0	3.679938309783554e+17
19617.0	3.678597039871319e+17
19618.0	3.678977139583656e+17
19619.0	3.677662679662588e+17
19620.0	3.6765919150953766e+17
19621.0	3.675177507007145e+17
19622.0	3.6778481343092045e+17
19623.0	3.677084711561898e+17
19624.0	3.67619467116544e+17
19625.0	3.6759358294807885e+17
19626.0	3.675288642082133e+17
19627.0	3.6746757892560205e+17
19628.0	3.673818924406102e+17
19629.0	3.66503833073527e+17
19630.0	3.6726366409850874e+17
19631.0	3.665339687283367e+17
19632.0	3.671435305637206e+17
19633.0	3.6707289310167034e+17
19634.0	3.670183024175785e+17
19635.0	3.669078153625597e+17
19636.0	3.6650598733796646e+17
19637.0	3.6641207365577344e+17
19638.0	3.6673126634181946e+17
19639.0	3.667003988508672e+17
19640.0	3.6662130811863046e+17
19641.0	3.660900917575695e+17
19642.0	3.664932107190272e+17
19643.0	3.6642733344249165e+17
19644.0	3.663765744648191e+17
19645.0	3.662619999906473e+17
19646.0	3.658488767053818e+17
19647.0	3.661885612228606e+17
19648.0	3.6613676114903034e+17
19649.0	3.660696460634795e+17
19650.0	3.6601075111471776e+17
19651.0	3.659475928656554e+17
19652.0	3.658834787347114e+17
19653.0	3.6581995942597965e+17
19654.0	3.6575755580211194e+17
19655.0	3.65689341739008e+17
