# Flux units: erg / (cm m2 s)
# Wavelength units: Angstrom
wave	flux
19000.0	6.961502358252202e+17
19001.0	6.960158857669289e+17
19002.0	6.958966559648425e+17
19003.0	6.957688576191146e+17
19004.0	6.956411823063039e+17
19005.0	6.955149478767274e+17
19006.0	6.953878129300819e+17
19007.0	6.95257621664017e+17
19008.0	6.951313348056404e+17
19009.0	6.94994688016384e+17
19010.0	6.94861927948834e+17
19011.0	6.9473535538845e+17
19012.0	6.945753150084435e+17
19013.0	6.94494662037777e+17
19014.0	6.943665119996585e+17
19015.0	6.942411186678442e+17
19016.0	6.941158415182506e+17
19017.0	6.939895761906346e+17
19018.0	6.938622297811625e+17
19019.0	6.937379963142143e+17
19020.0	6.936099082119849e+17
19021.0	6.934838451197268e+17
19022.0	6.933558626440531e+17
19023.0	6.932247781310463e+17
19024.0	6.930961586105002e+17
19025.0	6.929607034929151e+17
19026.0	6.928218153375059e+17
19027.0	6.926753908566698e+17
19028.0	6.925776414135635e+17
19029.0	6.924547461393066e+17
19030.0	6.923288792006655e+17
19031.0	6.921971620468052e+17
19032.0	6.920602538125993e+17
19033.0	6.919056707813373e+17
19034.0	6.917192160728403e+17
19035.0	6.911796162068479e+17
19036.0	6.885285684751017e+17
19037.0	6.910208120979455e+17
19038.0	6.912198258109097e+17
19039.0	6.911513222010196e+17
19040.0	6.910438093968724e+17
19041.0	6.909249535868927e+17
19042.0	6.907595479231146e+17
19043.0	6.906783737402708e+17
19044.0	6.905508994045268e+17
19045.0	6.904212830377299e+17
19046.0	6.90294820507921e+17
19047.0	6.901632695883091e+17
19048.0	6.900203445551104e+17
19049.0	6.898086239884627e+17
19050.0	6.897033127045802e+17
19051.0	6.892456922578943e+17
19052.0	6.892578735652863e+17
19053.0	6.893486596947967e+17
19054.0	6.892624338223101e+17
19055.0	6.891207389085695e+17
19056.0	6.890212382037334e+17
19057.0	6.889019806493353e+17
19058.0	6.887364773281791e+17
19059.0	6.886368197563731e+17
19060.0	6.88523528179985e+17
19061.0	6.883981328209236e+17
19062.0	6.882712321261568e+17
19063.0	6.881439369570985e+17
19064.0	6.880125677906602e+17
19065.0	6.878800583327743e+17
19066.0	6.87745907434018e+17
19067.0	6.876366660872874e+17
19068.0	6.875103292467881e+17
19069.0	6.873833957665449e+17
19070.0	6.872552552355156e+17
19071.0	6.871256829788159e+17
19072.0	6.869878984845993e+17
19073.0	6.868753561507155e+17
19074.0	6.867483648589823e+17
19075.0	6.866211898567337e+17
19076.0	6.864935559976276e+17
19077.0	6.863657967987369e+17
19078.0	6.86238106596147e+17
19079.0	6.861121171139241e+17
19080.0	6.859837469447507e+17
19081.0	6.858535619002367e+17
19082.0	6.857277375337812e+17
19083.0	6.855926076844713e+17
19084.0	6.854540110331904e+17
19085.0	6.853382429999101e+17
19086.0	6.851504991021738e+17
19087.0	6.850253782603091e+17
19088.0	6.849099698885971e+17
19089.0	6.847989749033642e+17
19090.0	6.846924768411647e+17
19091.0	6.845693531870548e+17
19092.0	6.844138122466644e+17
19093.0	6.843273907098963e+17
19094.0	6.842042680344575e+17
19095.0	6.840795602616319e+17
19096.0	6.839537017815039e+17
19097.0	6.838278948913152e+17
19098.0	6.836849883829588e+17
19099.0	6.835552582806186e+17
19100.0	6.834391900050772e+17
19101.0	6.833168310424915e+17
19102.0	6.831898619106644e+17
19103.0	6.830657047800489e+17
19104.0	6.829374289827156e+17
19105.0	6.827703275618304e+17
19106.0	6.826716104927914e+17
19107.0	6.825287828373503e+17
19108.0	6.823733320045908e+17
19109.0	6.821945128168106e+17
19110.0	6.821104617608531e+17
19111.0	6.820135794900992e+17
19112.0	6.819020200913578e+17
19113.0	6.817947674039636e+17
19114.0	6.816613462441983e+17
19115.0	6.815353677370708e+17
19116.0	6.814161448555859e+17
19117.0	6.812883104388435e+17
19118.0	6.811423152450218e+17
19119.0	6.808030196094291e+17
19120.0	6.808765506519039e+17
19121.0	6.807614775448916e+17
19122.0	6.806586571882495e+17
19123.0	6.805364729883305e+17
19124.0	6.803780017673556e+17
19125.0	6.80281545777698e+17
19126.0	6.801458973726036e+17
19127.0	6.799734643621887e+17
19128.0	6.798712061820927e+17
19129.0	6.797722635993087e+17
19130.0	6.796534208615764e+17
19131.0	6.795285590878889e+17
19132.0	6.794028628574207e+17
19133.0	6.792717598894761e+17
19134.0	6.791401611547988e+17
19135.0	6.790237759995904e+17
19136.0	6.788970832723968e+17
19137.0	6.787672710316031e+17
19138.0	6.786437162729471e+17
19139.0	6.785191651573759e+17
19140.0	6.783933112909823e+17
19141.0	6.782670736457727e+17
19142.0	6.781374560905898e+17
19143.0	6.780125953654783e+17
19144.0	6.778841346692436e+17
19145.0	6.777581618943316e+17
19146.0	6.775895656235008e+17
19147.0	6.775024512576169e+17
19148.0	6.773652604671316e+17
19149.0	6.772363532872361e+17
19150.0	6.771249248206847e+17
19151.0	6.769978903276202e+17
19152.0	6.768641787822079e+17
19153.0	6.767139974632787e+17
19154.0	6.76606528978944e+17
19155.0	6.764782745026559e+17
19156.0	6.763456178946048e+17
19157.0	6.761936052027391e+17
19158.0	6.760351321642324e+17
19159.0	6.75942055874833e+17
19160.0	6.758119007496873e+17
19161.0	6.756508437402964e+17
19162.0	6.754225067393023e+17
19163.0	6.753657481592832e+17
19164.0	6.753053667491839e+17
19165.0	6.751714652717055e+17
19166.0	6.750757598527488e+17
19167.0	6.749493712125951e+17
19168.0	6.748334918205437e+17
19169.0	6.74714415669794e+17
19170.0	6.745911503181139e+17
19171.0	6.744644053718356e+17
19172.0	6.743378035911338e+17
19173.0	6.742165113099603e+17
19174.0	6.740913562845183e+17
19175.0	6.739668581569876e+17
19176.0	6.738403942290771e+17
19177.0	6.737021038318932e+17
19178.0	6.735814399273641e+17
19179.0	6.734534929634644e+17
19180.0	6.733312141819901e+17
19181.0	6.732034401632255e+17
19182.0	6.730791325969065e+17
19183.0	6.729563146376532e+17
19184.0	6.728293616538964e+17
19185.0	6.727012774663508e+17
19186.0	6.725735414060372e+17
19187.0	6.724378753149609e+17
19188.0	6.723132238856191e+17
19189.0	6.721816455632212e+17
19190.0	6.720473925331625e+17
19191.0	6.71910327362082e+17
19192.0	6.717740935020543e+17
19193.0	6.716245309128703e+17
19194.0	6.714652861224276e+17
19195.0	6.71298109903121e+17
19196.0	6.710865397022719e+17
19197.0	6.70799069516049e+17
19198.0	6.703288876881235e+17
19199.0	6.69405018272563e+17
19200.0	6.693642470511958e+17
19201.0	6.699885829728938e+17
19202.0	6.701868996624383e+17
19203.0	6.702034025709567e+17
19204.0	6.701672478801919e+17
19205.0	6.700897972606291e+17
19206.0	6.699934117352788e+17
19207.0	6.698773951894868e+17
19208.0	6.697659578449919e+17
19209.0	6.696537890837844e+17
19210.0	6.695348175809193e+17
19211.0	6.694132066724522e+17
19212.0	6.692880273200467e+17
19213.0	6.691506352029695e+17
19214.0	6.690241116460374e+17
19215.0	6.689119444926463e+17
19216.0	6.687924113025706e+17
19217.0	6.686652703440895e+17
19218.0	6.685233111891967e+17
19219.0	6.684054634102783e+17
19220.0	6.682932892663808e+17
19221.0	6.681662061193898e+17
19222.0	6.680453355754835e+17
19223.0	6.679223352339114e+17
19224.0	6.677949299643732e+17
19225.0	6.676699106246655e+17
19226.0	6.675461094506496e+17
19227.0	6.67420909965585e+17
19228.0	6.67297269293602e+17
19229.0	6.671713393704959e+17
19230.0	6.670445475878227e+17
19231.0	6.66917674225937e+17
19232.0	6.667921005390506e+17
19233.0	6.666616324489215e+17
19234.0	6.665400076293459e+17
19235.0	6.66411993276962e+17
19236.0	6.662876049702911e+17
19237.0	6.661603188189865e+17
19238.0	6.660283274974548e+17
19239.0	6.659078246541994e+17
19240.0	6.657819417772031e+17
19241.0	6.656541281222655e+17
19242.0	6.655279113786708e+17
19243.0	6.653909962238634e+17
19244.0	6.652758670529876e+17
19245.0	6.651485905485823e+17
19246.0	6.650217997445801e+17
19247.0	6.64895250113058e+17
19248.0	6.647662376561322e+17
19249.0	6.646357307686911e+17
19250.0	6.64504681767458e+17
19251.0	6.643729403565395e+17
19252.0	6.642367498376532e+17
19253.0	6.641295870481747e+17
19254.0	6.640031514318164e+17
19255.0	6.638622003778899e+17
19256.0	6.637468720474793e+17
19257.0	6.636201299673087e+17
19258.0	6.634909461730644e+17
19259.0	6.633491963838463e+17
19260.0	6.631626644302506e+17
19261.0	6.630996146738516e+17
19262.0	6.629733548687359e+17
19263.0	6.628429565438634e+17
19264.0	6.627031837398356e+17
19265.0	6.625845904233812e+17
19266.0	6.624580096841044e+17
19267.0	6.623398414603604e+17
19268.0	6.622119537060521e+17
19269.0	6.620830187039401e+17
19270.0	6.619511302826666e+17
19271.0	6.618144632209408e+17
19272.0	6.616932360912895e+17
19273.0	6.615510709960703e+17
19274.0	6.614094850643283e+17
19275.0	6.613086242166099e+17
19276.0	6.611782566499667e+17
19277.0	6.610487408066559e+17
19278.0	6.609170546906452e+17
19279.0	6.607836600249002e+17
19280.0	6.606541161496575e+17
19281.0	6.605225639018495e+17
19282.0	6.603893098151935e+17
19283.0	6.602518804387155e+17
19284.0	6.601095703603881e+17
19285.0	6.599748324687871e+17
19286.0	6.598169846611968e+17
19287.0	6.595822997209087e+17
19288.0	6.581871978741755e+17
19289.0	6.574735305474039e+17
19290.0	6.59157707600691e+17
19291.0	6.591440257810431e+17
19292.0	6.590627182892372e+17
19293.0	6.589423189054804e+17
19294.0	6.588158415557972e+17
19295.0	6.586890975881897e+17
19296.0	6.585401358330538e+17
19297.0	6.584213313333929e+17
19298.0	6.582946807589546e+17
19299.0	6.581429013402964e+17
19300.0	6.580307771785215e+17
19301.0	6.578979469262847e+17
19302.0	6.577630391653716e+17
19303.0	6.576239125637801e+17
19304.0	6.574936631366996e+17
19305.0	6.57356652351761e+17
19306.0	6.572177369333759e+17
19307.0	6.570745821921279e+17
19308.0	6.569263897422505e+17
19309.0	6.567526770496852e+17
19310.0	6.565971972063232e+17
19311.0	6.564883691383466e+17
19312.0	6.563523510752595e+17
19313.0	6.561318728717652e+17
19314.0	6.51893801239621e+17
19315.0	6.520199752712221e+17
19316.0	6.556968720968362e+17
19317.0	6.556712532180992e+17
19318.0	6.55557569684002e+17
19319.0	6.554298402646698e+17
19320.0	6.552860485484543e+17
19321.0	6.551363208435027e+17
19322.0	6.55006103572753e+17
19323.0	6.548612862093993e+17
19324.0	6.54719876718046e+17
19325.0	6.545747284940116e+17
19326.0	6.544446008415572e+17
19327.0	6.543088853275988e+17
19328.0	6.541391114360148e+17
19329.0	6.540304302385834e+17
19330.0	6.538872754274303e+17
19331.0	6.537415406998868e+17
19332.0	6.53599099060224e+17
19333.0	6.53450199240977e+17
19334.0	6.533011271756457e+17
19335.0	6.530879389521238e+17
19336.0	6.530024058388479e+17
19337.0	6.528574461487785e+17
19338.0	6.526955065879209e+17
19339.0	6.525579443219114e+17
19340.0	6.524036080555347e+17
19341.0	6.522283368295082e+17
19342.0	6.520811240292351e+17
19343.0	6.519494396608512e+17
19344.0	6.517669923302058e+17
19345.0	6.515643913688403e+17
19346.0	6.514331770421247e+17
19347.0	6.512914978570239e+17
19348.0	6.511661695369215e+17
19349.0	6.510058579951615e+17
19350.0	6.508362209077929e+17
19351.0	6.506878172747092e+17
19352.0	6.504918767282857e+17
19353.0	6.503666887775572e+17
19354.0	6.502029620936701e+17
19355.0	6.500309580207444e+17
19356.0	6.498699889519273e+17
19357.0	6.497023016566783e+17
19358.0	6.495301409964032e+17
19359.0	6.493364232912895e+17
19360.0	6.491394013134845e+17
19361.0	6.489901002391551e+17
19362.0	6.488153369433428e+17
19363.0	6.486372167363241e+17
19364.0	6.484572467713364e+17
19365.0	6.482755010778452e+17
19366.0	6.480920109733203e+17
19367.0	6.479058639869268e+17
19368.0	6.477192196259837e+17
19369.0	6.475182515071658e+17
19370.0	6.473177075722921e+17
19371.0	6.471247603608234e+17
19372.0	6.469339834919593e+17
19373.0	6.467352362571091e+17
19374.0	6.465382586690217e+17
19375.0	6.463370133766143e+17
19376.0	6.461254038891178e+17
19377.0	6.459153608343551e+17
19378.0	6.457030799086931e+17
19379.0	6.454874363396095e+17
19380.0	6.452588829125289e+17
19381.0	6.45035612840482e+17
19382.0	6.448035744361129e+17
19383.0	6.445745199994195e+17
19384.0	6.443426616705023e+17
19385.0	6.441042486930089e+17
19386.0	6.438584802344959e+17
19387.0	6.43603357639202e+17
19388.0	6.433359435661311e+17
19389.0	6.430257424192852e+17
19390.0	6.425737157061289e+17
19391.0	6.400641995898867e+17
19392.0	6.415638113288191e+17
19393.0	6.418907340472319e+17
19394.0	6.416733970279082e+17
19395.0	6.413930310838953e+17
19396.0	6.411121226066602e+17
19397.0	6.408168712874666e+17
19398.0	6.40489763041007e+17
19399.0	6.401573626314751e+17
19400.0	6.398479845468841e+17
19401.0	6.395241518421332e+17
19402.0	6.391708514254847e+17
19403.0	6.388147960501588e+17
19404.0	6.384511653423785e+17
19405.0	6.380752346284031e+17
19406.0	6.376839643660287e+17
19407.0	6.372677238041258e+17
19408.0	6.368410033542484e+17
19409.0	6.364266335218346e+17
19410.0	6.359844234373802e+17
19411.0	6.355213770992297e+17
19412.0	6.350358512489812e+17
19413.0	6.34523465495347e+17
19414.0	6.340186754165417e+17
19415.0	6.334822093946879e+17
19416.0	6.329158560907263e+17
19417.0	6.323551525142527e+17
19418.0	6.31780241641745e+17
19419.0	6.311697434279935e+17
19420.0	6.30530867601954e+17
19421.0	6.29852446269986e+17
19422.0	6.291378305411753e+17
19423.0	6.283928916721663e+17
19424.0	6.276108344710484e+17
19425.0	6.267887747246761e+17
19426.0	6.259152840032255e+17
19427.0	6.249903795033428e+17
19428.0	6.240047177837225e+17
19429.0	6.229569201766399e+17
19430.0	6.217351947791018e+17
19431.0	6.204607143346176e+17
19432.0	6.195271257380179e+17
19433.0	6.182820326146047e+17
19434.0	6.168836696266067e+17
19435.0	6.152639004453546e+17
19436.0	6.135586474338986e+17
19437.0	6.117020619068756e+17
19438.0	6.062404270030853e+17
19439.0	6.0697645458391e+17
19440.0	6.058830255357951e+17
19441.0	6.035658101489663e+17
19442.0	6.008946195518806e+17
19443.0	5.978620118608553e+17
19444.0	5.943872272203773e+17
19445.0	5.903841453146113e+17
19446.0	5.856538801471487e+17
19447.0	5.799422107582459e+17
19448.0	5.728049456742404e+17
19449.0	5.6336374961274874e+17
19450.0	5.490718749491191e+17
19451.0	5.39053754539486e+17
19452.0	5.5715319922032634e+17
19453.0	5.681819237569881e+17
19454.0	5.7606045839305344e+17
19455.0	5.821693619251882e+17
19456.0	5.870790199913132e+17
19457.0	5.910336870460072e+17
19458.0	5.853001739315981e+17
19459.0	5.96372001512928e+17
19460.0	6.002918519297363e+17
19461.0	6.027400637491882e+17
19462.0	6.048575605702656e+17
19463.0	6.067673998469801e+17
19464.0	6.084739048581802e+17
19465.0	6.100167852468906e+17
19466.0	6.114285754602835e+17
19467.0	6.12744095142161e+17
19468.0	6.139430320472064e+17
19469.0	6.150217650230611e+17
19470.0	6.160656770269184e+17
19471.0	6.170140796955306e+17
19472.0	6.178487838004564e+17
19473.0	6.186418577604608e+17
19474.0	6.193749401709225e+17
19475.0	6.200765471959721e+17
19476.0	6.207589695444308e+17
19477.0	6.213749895593983e+17
19478.0	6.219402548609024e+17
19479.0	6.224481334853631e+17
19480.0	6.229601091059712e+17
19481.0	6.234199228940287e+17
19482.0	6.238482306782548e+17
19483.0	6.24235570598161e+17
19484.0	6.246032069361661e+17
19485.0	6.249400117843284e+17
19486.0	6.252380702812841e+17
19487.0	6.255632505460052e+17
19488.0	6.258463870375252e+17
19489.0	6.260924765001044e+17
19490.0	6.263299304499881e+17
19491.0	6.265991633829887e+17
19492.0	6.268246990083412e+17
19493.0	6.270220817661951e+17
19494.0	6.27198260290082e+17
19495.0	6.273510102706858e+17
19496.0	6.274553035969876e+17
19497.0	6.274703635251199e+17
19498.0	6.262740249914021e+17
19499.0	6.240850106733907e+17
19500.0	6.276768247840768e+17
19501.0	6.280692504373929e+17
19502.0	6.282256381378557e+17
19503.0	6.283325004753578e+17
19504.0	6.2841952941725e+17
19505.0	6.2849694054045e+17
19506.0	6.285600674720425e+17
19507.0	6.286096505765887e+17
19508.0	6.286425802670079e+17
19509.0	6.286317158312618e+17
19510.0	6.283803105776979e+17
19511.0	6.219094941848891e+17
19512.0	6.27279191482914e+17
19513.0	6.273881836180817e+17
19514.0	6.276713517066918e+17
19515.0	6.287311471203668e+17
19516.0	6.288513936916479e+17
19517.0	6.288908447558313e+17
19518.0	6.288998353862655e+17
19519.0	6.288995064829268e+17
19520.0	6.288799061508095e+17
19521.0	6.288976549773311e+17
19522.0	6.288786308726783e+17
19523.0	6.288674258594473e+17
19524.0	6.288342268947114e+17
19525.0	6.28826692456721e+17
19526.0	6.287986983436287e+17
19527.0	6.287730909293225e+17
19528.0	6.287345398928724e+17
19529.0	6.286952188521129e+17
19530.0	6.286587031016788e+17
19531.0	6.28616375513907e+17
19532.0	6.285721845366783e+17
19533.0	6.285357804246356e+17
19534.0	6.284940180892329e+17
19535.0	6.284429732697428e+17
19536.0	6.283891099478697e+17
19537.0	6.283356893347839e+17
19538.0	6.282473619761834e+17
19539.0	6.282075344732159e+17
19540.0	6.281624013854036e+17
19541.0	6.280986278319443e+17
19542.0	6.280400668196864e+17
19543.0	6.27954366353681e+17
19544.0	6.279265635707561e+17
19545.0	6.278366833410047e+17
19546.0	6.277638523278676e+17
19547.0	6.277230172132692e+17
19548.0	6.276558666159444e+17
19549.0	6.275777162466644e+17
19550.0	6.275113286631423e+17
19551.0	6.274367455494143e+17
19552.0	6.273608387133439e+17
19553.0	6.272829930602495e+17
19554.0	6.272049178389162e+17
19555.0	6.2712539788957e+17
19556.0	6.270548717163859e+17
19557.0	6.269750075544916e+17
19558.0	6.268929636128084e+17
19559.0	6.268098494944596e+17
19560.0	6.267142483738623e+17
19561.0	6.26638974947601e+17
19562.0	6.265458914579795e+17
19563.0	6.264693015795028e+17
19564.0	6.263824731952467e+17
19565.0	6.262949314297855e+17
19566.0	6.262055324265129e+17
19567.0	6.26117840085538e+17
19568.0	6.260268248771242e+17
19569.0	6.259418593230847e+17
19570.0	6.258556820346196e+17
19571.0	6.257652524209491e+17
19572.0	6.256738508472319e+17
19573.0	6.255801937865385e+17
19574.0	6.254841551301288e+17
19575.0	6.253994576620201e+17
19576.0	6.253039745411753e+17
19577.0	6.252049269609812e+17
19578.0	6.251168128827391e+17
19579.0	6.250211326995113e+17
19580.0	6.249263171720531e+17
19581.0	6.24832262840866e+17
19582.0	6.247366981408084e+17
19583.0	6.246400047535443e+17
19584.0	6.245403457836372e+17
19585.0	6.244362024736084e+17
19586.0	6.243346842386431e+17
19587.0	6.242420097635667e+17
19588.0	6.241379655789225e+17
19589.0	6.240509457945942e+17
19590.0	6.239499549933567e+17
19591.0	6.238578772978346e+17
19592.0	6.237595640703657e+17
19593.0	6.236554873798655e+17
19594.0	6.235466040169811e+17
19595.0	6.234713993074004e+17
19596.0	6.233245575632212e+17
19597.0	6.232684010755412e+17
19598.0	6.231498380279807e+17
19599.0	6.230646480786772e+17
19600.0	6.229635743001257e+17
19601.0	6.228562772929193e+17
19602.0	6.227470948062548e+17
19603.0	6.226251377278973e+17
19604.0	6.225350628824403e+17
19605.0	6.224312254769834e+17
19606.0	6.223458671263743e+17
19607.0	6.222447018420906e+17
19608.0	6.221406975033344e+17
19609.0	6.220356689155412e+17
19610.0	6.219221177117354e+17
19611.0	6.218127856981334e+17
19612.0	6.217256495218687e+17
19613.0	6.21621614354978e+17
19614.0	6.215150396069204e+17
19615.0	6.214062775293268e+17
19616.0	6.212727285131946e+17
19617.0	6.211779768090623e+17
19618.0	6.210636026828116e+17
19619.0	6.209470192768339e+17
19620.0	6.208494731176617e+17
19621.0	6.207456975781887e+17
19622.0	6.206659988815871e+17
19623.0	6.205554824664404e+17
19624.0	6.204398582278826e+17
19625.0	6.203295594272084e+17
19626.0	6.202054304683348e+17
19627.0	6.200609136268627e+17
19628.0	6.198770725289984e+17
19629.0	6.195645910788776e+17
19630.0	6.189509254665554e+17
19631.0	6.183258207988394e+17
19632.0	6.191623130753705e+17
19633.0	6.193202294598314e+17
19634.0	6.193110493866665e+17
19635.0	6.192375045029887e+17
19636.0	6.191285475300692e+17
19637.0	6.190094671151104e+17
19638.0	6.189583827293524e+17
19639.0	6.188566108089002e+17
19640.0	6.187405507122516e+17
19641.0	6.186119121775274e+17
19642.0	6.185397983903741e+17
19643.0	6.184333679263744e+17
19644.0	6.183258441471316e+17
19645.0	6.18216579731729e+17
19646.0	6.180886119361194e+17
19647.0	6.180111697750697e+17
19648.0	6.179049081318057e+17
19649.0	6.177976752974506e+17
19650.0	6.176903429881855e+17
19651.0	6.175823588840788e+17
19652.0	6.174750760676009e+17
19653.0	6.173657632079871e+17
19654.0	6.172590480905555e+17
19655.0	6.171511115917996e+17
19656.0	6.170436536631295e+17
19657.0	6.169358327174484e+17
19658.0	6.168274270857898e+17
19659.0	6.167195612610559e+17
19660.0	6.166113103992148e+17
19661.0	6.165027908222976e+17
19662.0	6.163936148368041e+17
19663.0	6.162824713033044e+17
19664.0	6.16172398575616e+17
19665.0	6.160684723907241e+17
