# Flux units: erg / (cm m2 s)
# Wavelength units: Angstrom
wave	flux
19000.0	6.960450469451092e+17
19001.0	6.959084598547796e+17
19002.0	6.957889507819519e+17
19003.0	6.956606110214825e+17
19004.0	6.95532287828514e+17
19005.0	6.954042566989139e+17
19006.0	6.952759174976852e+17
19007.0	6.951469947988649e+17
19008.0	6.950140852742825e+17
19009.0	6.948835052661417e+17
19010.0	6.948016246226943e+17
19011.0	6.947412475467092e+17
19012.0	6.946060256324266e+17
19013.0	6.944856289050623e+17
19014.0	6.943520982739625e+17
19015.0	6.9423495919261e+17
19016.0	6.941123590575444e+17
19017.0	6.939877953590612e+17
19018.0	6.938578463839572e+17
19019.0	6.937293094212948e+17
19020.0	6.935989424837972e+17
19021.0	6.934717384709459e+17
19022.0	6.933437403365375e+17
19023.0	6.932102390655657e+17
19024.0	6.930831190086996e+17
19025.0	6.929558215327741e+17
19026.0	6.928247214309375e+17
19027.0	6.926942152425472e+17
19028.0	6.925680208685738e+17
19029.0	6.92438497894946e+17
19030.0	6.923107128311807e+17
19031.0	6.921814520015529e+17
19032.0	6.920521548911956e+17
19033.0	6.9191500562432e+17
19034.0	6.917920670089215e+17
19035.0	6.916590201907881e+17
19036.0	6.912710156834131e+17
19037.0	6.914029440903849e+17
19038.0	6.912736919289855e+17
19039.0	6.911465952204116e+17
19040.0	6.910172310011903e+17
19041.0	6.908877967370922e+17
19042.0	6.907498826388819e+17
19043.0	6.906288764791465e+17
19044.0	6.904983108714496e+17
19045.0	6.903697975366996e+17
19046.0	6.902360440482473e+17
19047.0	6.901091691484499e+17
19048.0	6.899637680078847e+17
19049.0	6.898446016096938e+17
19050.0	6.897180208704168e+17
19051.0	6.895461257095848e+17
19052.0	6.894550306695849e+17
19053.0	6.893330127738195e+17
19054.0	6.892035044802559e+17
19055.0	6.89051850051857e+17
19056.0	6.889423177602387e+17
19057.0	6.888138188259327e+17
19058.0	6.886834135105535e+17
19059.0	6.885550490036906e+17
19060.0	6.884236058776916e+17
19061.0	6.882957977452543e+17
19062.0	6.881656663878313e+17
19063.0	6.880360419120468e+17
19064.0	6.878962860250452e+17
19065.0	6.877613442902697e+17
19066.0	6.876417214119933e+17
19067.0	6.875172563495594e+17
19068.0	6.873875045067434e+17
19069.0	6.87257804673297e+17
19070.0	6.871259527424681e+17
19071.0	6.869982574368084e+17
19072.0	6.868684616237055e+17
19073.0	6.867382486870697e+17
19074.0	6.86608872514082e+17
19075.0	6.864790517448703e+17
19076.0	6.863475389235199e+17
19077.0	6.862182157385727e+17
19078.0	6.860873977036799e+17
19079.0	6.859596299763711e+17
19080.0	6.858285815343786e+17
19081.0	6.856964784346452e+17
19082.0	6.855665916051455e+17
19083.0	6.854306963652607e+17
19084.0	6.852902328991743e+17
19085.0	6.851805310877693e+17
19086.0	6.850180827578367e+17
19087.0	6.849143569907711e+17
19088.0	6.847840625448276e+17
19089.0	6.846417853917865e+17
19090.0	6.84528200843264e+17
19091.0	6.843990828296872e+17
19092.0	6.842659379347456e+17
19093.0	6.841415299847508e+17
19094.0	6.840115880001536e+17
19095.0	6.838816746766336e+17
19096.0	6.837506301493247e+17
19097.0	6.836218786480127e+17
19098.0	6.834920272603817e+17
19099.0	6.833620825494868e+17
19100.0	6.832318863900671e+17
19101.0	6.831022672270675e+17
19102.0	6.829642655378089e+17
19103.0	6.828426858070015e+17
19104.0	6.827127760486397e+17
19105.0	6.825823076089855e+17
19106.0	6.824516313415679e+17
19107.0	6.823216278405119e+17
19108.0	6.821925957402623e+17
19109.0	6.820431328357033e+17
19110.0	6.819312209756159e+17
19111.0	6.818031608354132e+17
19112.0	6.816733664903167e+17
19113.0	6.815434598776831e+17
19114.0	6.814133758459903e+17
19115.0	6.812794532571817e+17
19116.0	6.811515717244244e+17
19117.0	6.810218017062911e+17
19118.0	6.808853428917587e+17
19119.0	6.804158229250042e+17
19120.0	6.806297413069481e+17
19121.0	6.805019145797632e+17
19122.0	6.803738603814911e+17
19123.0	6.80243884143411e+17
19124.0	6.801123854428841e+17
19125.0	6.79983599128849e+17
19126.0	6.798521324448425e+17
19127.0	6.795797045706751e+17
19128.0	6.795895697833983e+17
19129.0	6.794563358294015e+17
19130.0	6.79332524728866e+17
19131.0	6.792038234892969e+17
19132.0	6.790736328523775e+17
19133.0	6.78936590680064e+17
19134.0	6.7881249275904e+17
19135.0	6.786835749535741e+17
19136.0	6.785539512467455e+17
19137.0	6.784108542470825e+17
19138.0	6.78292722164258e+17
19139.0	6.781639287898111e+17
19140.0	6.780340299366399e+17
19141.0	6.779040033669119e+17
19142.0	6.777717772342612e+17
19143.0	6.776394122701482e+17
19144.0	6.775105118011391e+17
19145.0	6.773837165232127e+17
19146.0	6.772028357651114e+17
19147.0	6.77116041634338e+17
19148.0	6.769933027377151e+17
19149.0	6.768632310792191e+17
19150.0	6.767325529243647e+17
19151.0	6.766030172979199e+17
19152.0	6.764192666572116e+17
19153.0	6.762372010781353e+17
19154.0	6.760986671316991e+17
19155.0	6.759786920017919e+17
19156.0	6.758483969966077e+17
19157.0	6.757171599507455e+17
19158.0	6.755756461610323e+17
19159.0	6.754560054569642e+17
19160.0	6.753268202646186e+17
19161.0	6.751972057153535e+17
19162.0	6.750360980247892e+17
19163.0	6.749347135881215e+17
19164.0	6.748071433426259e+17
19165.0	6.746763741014698e+17
19166.0	6.745369597007187e+17
19167.0	6.744135914487807e+17
19168.0	6.742852347013801e+17
19169.0	6.741547947130879e+17
19170.0	6.740256012020394e+17
19171.0	6.738937952687444e+17
19172.0	6.737649513529343e+17
19173.0	6.736347265324372e+17
19174.0	6.734997499849385e+17
19175.0	6.733740191514623e+17
19176.0	6.732436680824148e+17
19177.0	6.731002372860585e+17
19178.0	6.729815825929555e+17
19179.0	6.728497175898794e+17
19180.0	6.727205086298111e+17
19181.0	6.725814785671167e+17
19182.0	6.724592155841876e+17
19183.0	6.723299856525993e+17
19184.0	6.72198577688849e+17
19185.0	6.720682715687593e+17
19186.0	6.719378960329386e+17
19187.0	6.718010204443988e+17
19188.0	6.716763182639785e+17
19189.0	6.715460045242365e+17
19190.0	6.714150432538623e+17
19191.0	6.712813894500352e+17
19192.0	6.711534168309759e+17
19193.0	6.710223107872083e+17
19194.0	6.708902137692159e+17
19195.0	6.707600847186601e+17
19196.0	6.706277235993258e+17
19197.0	6.704957673002326e+17
19198.0	6.703598727593984e+17
19199.0	6.700396835766272e+17
19200.0	6.69959306940689e+17
19201.0	6.699674672387412e+17
19202.0	6.6984099708928e+17
19203.0	6.69710936056354e+17
19204.0	6.695779849382568e+17
19205.0	6.694478800049492e+17
19206.0	6.69316669313297e+17
19207.0	6.691778319089663e+17
19208.0	6.69037147333154e+17
19209.0	6.689223379779583e+17
19210.0	6.687911890823849e+17
19211.0	6.686603610510676e+17
19212.0	6.685286232752127e+17
19213.0	6.683886959110825e+17
19214.0	6.682554787343018e+17
19215.0	6.681323294949375e+17
19216.0	6.680010995094867e+17
19217.0	6.678684775044436e+17
19218.0	6.676707184476159e+17
19219.0	6.675906039556777e+17
19220.0	6.674706529430185e+17
19221.0	6.673149809306281e+17
19222.0	6.671558754609833e+17
19223.0	6.670142106763263e+17
19224.0	6.66879518712354e+17
19225.0	6.667396465732266e+17
19226.0	6.666164364465492e+17
19227.0	6.664835875296596e+17
19228.0	6.663533007033684e+17
19229.0	6.662203270059348e+17
19230.0	6.660870877391529e+17
19231.0	6.659105007599615e+17
19232.0	6.656851292018003e+17
19233.0	6.655466797705897e+17
19234.0	6.654176666845183e+17
19235.0	6.652843380790612e+17
19236.0	6.65152833716224e+17
19237.0	6.650180980615849e+17
19238.0	6.648780547948543e+17
19239.0	6.647522885894143e+17
19240.0	6.646169077809151e+17
19241.0	6.644821441642495e+17
19242.0	6.643491573945684e+17
19243.0	6.642020754565801e+17
19244.0	6.640823609327615e+17
19245.0	6.639474562476714e+17
19246.0	6.638120524404052e+17
19247.0	6.636788261060607e+17
19248.0	6.635442143232e+17
19249.0	6.634091772379136e+17
19250.0	6.632725605777407e+17
19251.0	6.631301305423187e+17
19252.0	6.629786259204777e+17
19253.0	6.628664421995859e+17
19254.0	6.62732725551104e+17
19255.0	6.625806089104041e+17
19256.0	6.62459044209186e+17
19257.0	6.623253774030164e+17
19258.0	6.621891231307091e+17
19259.0	6.620463286102697e+17
19260.0	6.619102940495871e+17
19261.0	6.617783092991315e+17
19262.0	6.616373921491625e+17
19263.0	6.614997737493844e+17
19264.0	6.612429714751485e+17
19265.0	6.610397995991037e+17
19266.0	6.609025972742825e+17
19267.0	6.607810189415764e+17
19268.0	6.606431612567551e+17
19269.0	6.605050176602111e+17
19270.0	6.603660580618237e+17
19271.0	6.602009176877738e+17
19272.0	6.600859821539327e+17
19273.0	6.598878565848404e+17
19274.0	6.597575810831699e+17
19275.0	6.596714318266367e+17
19276.0	6.595303726295721e+17
19277.0	6.593909460653396e+17
19278.0	6.592511283822591e+17
19279.0	6.591096944241321e+17
19280.0	6.58963987239185e+17
19281.0	6.588284104867839e+17
19282.0	6.586886939563348e+17
19283.0	6.585447218850474e+17
19284.0	6.582817116913663e+17
19285.0	6.580290849166676e+17
19286.0	6.578977145618431e+17
19287.0	6.576808877796009e+17
19288.0	6.574493494760787e+17
19289.0	6.572047158564177e+17
19290.0	6.57232970785314e+17
19291.0	6.570672873887062e+17
19292.0	6.569447974939306e+17
19293.0	6.567993498664959e+17
19294.0	6.566536317064532e+17
19295.0	6.565089385644031e+17
19296.0	6.563628049585491e+17
19297.0	6.562152383687338e+17
19298.0	6.558323539181568e+17
19299.0	6.556511262212095e+17
19300.0	6.555035011907583e+17
19301.0	6.553551779485012e+17
19302.0	6.552061126639615e+17
19303.0	6.550520356055721e+17
19304.0	6.549062675333119e+17
19305.0	6.547575395407188e+17
19306.0	6.546079227751081e+17
19307.0	6.544534938146134e+17
19308.0	6.542440875251027e+17
19309.0	6.539834733974868e+17
19310.0	6.538281630739113e+17
19311.0	6.536822576381951e+17
19312.0	6.535169625642324e+17
19313.0	6.532379094373716e+17
19314.0	6.528522078126077e+17
19315.0	6.527144895883949e+17
19316.0	6.527700801246548e+17
19317.0	6.5261340210845e+17
19318.0	6.524551357093203e+17
19319.0	6.522983807975423e+17
19320.0	6.521391913719123e+17
19321.0	6.519792484395689e+17
19322.0	6.518123451296426e+17
19323.0	6.516545273113258e+17
19324.0	6.514945513138857e+17
19325.0	6.513267256765097e+17
19326.0	6.511677565217449e+17
19327.0	6.509816439286442e+17
19328.0	6.506404013670399e+17
19329.0	6.504724003378516e+17
19330.0	6.502999168559784e+17
19331.0	6.501265334162772e+17
19332.0	6.499590533196458e+17
19333.0	6.497869978664959e+17
19334.0	6.49613589680401e+17
19335.0	6.49438934737442e+17
19336.0	6.492636351299583e+17
19337.0	6.490722737848319e+17
19338.0	6.486281060089855e+17
19339.0	6.484633008996351e+17
19340.0	6.482738041323519e+17
19341.0	6.480947522306047e+17
19342.0	6.478832848601087e+17
19343.0	6.477257347082921e+17
19344.0	6.475374644254035e+17
19345.0	6.469953075019775e+17
19346.0	6.467499845484543e+17
19347.0	6.466155212439551e+17
19348.0	6.464236377079808e+17
19349.0	6.462222064680959e+17
19350.0	6.460209032942931e+17
19351.0	6.454927472372396e+17
19352.0	6.451786987252393e+17
19353.0	6.449719820331689e+17
19354.0	6.447566722607785e+17
19355.0	6.44486992214972e+17
19356.0	6.437974879240191e+17
19357.0	6.435665332578985e+17
19358.0	6.433321041002495e+17
19359.0	6.429586050340179e+17
19360.0	6.422267347774121e+17
19361.0	6.419736469787988e+17
19362.0	6.417192302848682e+17
19363.0	6.411090000871424e+17
19364.0	6.408118398702931e+17
19365.0	6.405312958081705e+17
19366.0	6.402473705078783e+17
19367.0	6.399601325462867e+17
19368.0	6.396695248808617e+17
19369.0	6.393714238816255e+17
19370.0	6.390722779414527e+17
19371.0	6.387732624441344e+17
19372.0	6.384736731660287e+17
19373.0	6.38165486403584e+17
19374.0	6.378571143228074e+17
19375.0	6.37543953605154e+17
19376.0	6.372282823868416e+17
19377.0	6.369092962702676e+17
19378.0	6.365880926251689e+17
19379.0	6.362641084361386e+17
19380.0	6.359373467789994e+17
19381.0	6.355977962695337e+17
19382.0	6.35239640666385e+17
19383.0	6.348803468689405e+17
19384.0	6.345257553057108e+17
19385.0	6.341580036243455e+17
19386.0	6.337851521586516e+17
19387.0	6.334065599490729e+17
19388.0	6.330225521240746e+17
19389.0	6.326336793957716e+17
19390.0	6.322388878753791e+17
19391.0	6.316332090567334e+17
19392.0	6.314295347729748e+17
19393.0	6.310229505474559e+17
19394.0	6.306055315259391e+17
19395.0	6.301828753566378e+17
19396.0	6.297420089873747e+17
19397.0	6.292984528808618e+17
19398.0	6.28852807381811e+17
19399.0	6.283536675198291e+17
19400.0	6.27942319264017e+17
19401.0	6.274847098623316e+17
19402.0	6.270182064390141e+17
19403.0	6.265426028440233e+17
19404.0	6.260624159233363e+17
19405.0	6.255718596345855e+17
19406.0	6.250674635407359e+17
19407.0	6.245229871671977e+17
19408.0	6.239508791383382e+17
19409.0	6.234729839154516e+17
19410.0	6.229361548765865e+17
19411.0	6.223822833319933e+17
19412.0	6.217321757889876e+17
19413.0	6.211516942516223e+17
19414.0	6.205572677020329e+17
19415.0	6.198243772508842e+17
19416.0	6.191744242679807e+17
19417.0	6.184503107474772e+17
19418.0	6.176702907897172e+17
19419.0	6.16876883382545e+17
19420.0	6.159646138040319e+17
19421.0	6.148835432027479e+17
19422.0	6.137594351976449e+17
19423.0	6.124304390073006e+17
19424.0	6.108786428564817e+17
19425.0	6.090668924818778e+17
19426.0	6.069423606945107e+17
19427.0	6.042814104207352e+17
19428.0	6.024964044663465e+17
19429.0	6.010435160855891e+17
19430.0	5.995176524775423e+17
19431.0	5.9791112681117e+17
19432.0	5.962752561162921e+17
19433.0	5.9456170754048e+17
19434.0	5.927232486069588e+17
19435.0	5.907364109265577e+17
19436.0	5.885451381156521e+17
19437.0	5.86139446682146e+17
19438.0	5.830481811603455e+17
19439.0	5.799787442645678e+17
19440.0	5.761631967510515e+17
19441.0	5.714858128790867e+17
19442.0	5.659636224316756e+17
19443.0	5.5994872597490323e+17
19444.0	5.543472975052797e+17
19445.0	5.476830155549356e+17
19446.0	5.393091247385259e+17
19447.0	5.286392744290981e+17
19448.0	5.145056224739333e+17
19449.0	4.945430574006271e+17
19450.0	4.621211589935086e+17
19451.0	4.452036849784155e+17
19452.0	4.803571034532532e+17
19453.0	5.054922544381959e+17
19454.0	5.2177796973199296e+17
19455.0	5.3375469966677325e+17
19456.0	5.428927638710958e+17
19457.0	5.501430583175848e+17
19458.0	5.5548124457861184e+17
19459.0	5.61424569501832e+17
19460.0	5.671192293801979e+17
19461.0	5.720035079225336e+17
19462.0	5.759746646736899e+17
19463.0	5.793080531047764e+17
19464.0	5.821316341607084e+17
19465.0	5.845243905703935e+17
19466.0	5.865789596893183e+17
19467.0	5.88401537519889e+17
19468.0	5.901146809259348e+17
19469.0	5.916209741212329e+17
19470.0	5.931163574424916e+17
19471.0	5.945050139721727e+17
19472.0	5.958236519093588e+17
19473.0	5.970836423617193e+17
19474.0	5.983935622283265e+17
19475.0	6.004145762861059e+17
19476.0	6.026069264039944e+17
19477.0	6.044071992754176e+17
19478.0	6.058029654999041e+17
19479.0	6.069545694745942e+17
19480.0	6.080197057751724e+17
19481.0	6.088466778204842e+17
19482.0	6.095134747088209e+17
19483.0	6.102262510256128e+17
19484.0	6.10688006776422e+17
19485.0	6.112913020420095e+17
19486.0	6.116928051478527e+17
19487.0	6.121648831507113e+17
19488.0	6.12583063298594e+17
19489.0	6.12928338264064e+17
19490.0	6.132171119700648e+17
19491.0	6.136817236923731e+17
19492.0	6.139949820674047e+17
19493.0	6.142941638688767e+17
19494.0	6.145832205505876e+17
19495.0	6.148739805391529e+17
19496.0	6.151433592242175e+17
19497.0	6.154256041465172e+17
19498.0	6.156544945859242e+17
19499.0	6.155851193996627e+17
19500.0	6.161516548762281e+17
19501.0	6.163806937939967e+17
19502.0	6.166020010016767e+17
19503.0	6.168180637914452e+17
19504.0	6.170266437331625e+17
19505.0	6.172292521044649e+17
19506.0	6.174350315094015e+17
19507.0	6.176268570940756e+17
19508.0	6.178092925408596e+17
19509.0	6.179837674083667e+17
19510.0	6.181374202828116e+17
19511.0	6.179023999380134e+17
19512.0	6.184211819353427e+17
19513.0	6.185055655297021e+17
19514.0	6.186978190032895e+17
19515.0	6.18875439738607e+17
19516.0	6.190437172423338e+17
19517.0	6.191698633119059e+17
19518.0	6.192987339314516e+17
19519.0	6.194171124995412e+17
19520.0	6.195283139843412e+17
19521.0	6.196364815892479e+17
19522.0	6.197242107701929e+17
19523.0	6.198108984355497e+17
19524.0	6.198924742929066e+17
19525.0	6.199703757302441e+17
19526.0	6.200469857413801e+17
19527.0	6.201194819092479e+17
19528.0	6.201885102265684e+17
19529.0	6.202553219940351e+17
19530.0	6.203188863216297e+17
19531.0	6.203789322573139e+17
19532.0	6.2043558262429e+17
19533.0	6.204888138645503e+17
19534.0	6.205384130472618e+17
19535.0	6.205839493474985e+17
19536.0	6.206246633865215e+17
19537.0	6.206671956563284e+17
19538.0	6.206955351004502e+17
19539.0	6.208581621077335e+17
19540.0	6.210916279735636e+17
19541.0	6.211072637796351e+17
19542.0	6.212064099958776e+17
19543.0	6.216951269425151e+17
19544.0	6.216884953983657e+17
19545.0	6.216436190019581e+17
19546.0	6.216920033744211e+17
19547.0	6.221282427972266e+17
19548.0	6.2210393505792e+17
19549.0	6.220688418755924e+17
19550.0	6.220474827319978e+17
19551.0	6.221703331272022e+17
19552.0	6.223690310090751e+17
19553.0	6.223266004511401e+17
19554.0	6.222829961871359e+17
19555.0	6.22240743957026e+17
19556.0	6.221962346321235e+17
19557.0	6.222616323599018e+17
19558.0	6.224070471319551e+17
19559.0	6.223530335840937e+17
19560.0	6.222952699789311e+17
19561.0	6.22238350058018e+17
19562.0	6.221829377097727e+17
19563.0	6.221243059535871e+17
19564.0	6.220644404428799e+17
19565.0	6.221308170513065e+17
19566.0	6.221749218355882e+17
19567.0	6.221114148301482e+17
19568.0	6.220423376491859e+17
19569.0	6.219758319261012e+17
19570.0	6.21907488678434e+17
19571.0	6.218372280745981e+17
19572.0	6.217638039169705e+17
19573.0	6.216929420596563e+17
19574.0	6.216133870179667e+17
19575.0	6.215473808364884e+17
19576.0	6.216230980900178e+17
19577.0	6.215703217919316e+17
19578.0	6.214903240414548e+17
19579.0	6.214122403616084e+17
19580.0	6.213328789569536e+17
19581.0	6.212535650178388e+17
19582.0	6.211738958211753e+17
19583.0	6.210921530305194e+17
19584.0	6.210094985379839e+17
19585.0	6.209171879187795e+17
19586.0	6.20831097032977e+17
19587.0	6.207568877715455e+17
19588.0	6.206366099526996e+17
19589.0	6.205853628279466e+17
19590.0	6.204945275551744e+17
19591.0	6.204167747360084e+17
19592.0	6.203734709239805e+17
19593.0	6.203635528630272e+17
19594.0	6.20256073823027e+17
19595.0	6.202185663294124e+17
19596.0	6.202333826383871e+17
19597.0	6.201506927039828e+17
19598.0	6.200324441593172e+17
19599.0	6.199691300918612e+17
19600.0	6.198780866418004e+17
19601.0	6.197801544668502e+17
19602.0	6.196883682754559e+17
19603.0	6.195655821929129e+17
19604.0	6.195019009141418e+17
19605.0	6.193876405933396e+17
19606.0	6.193180007464959e+17
19607.0	6.19436788678656e+17
19608.0	6.19365305295394e+17
19609.0	6.192670003866282e+17
19610.0	6.191756857049087e+17
19611.0	6.190791535886335e+17
19612.0	6.189832726380544e+17
19613.0	6.188855895348563e+17
19614.0	6.187859140673535e+17
19615.0	6.186919178971817e+17
19616.0	6.185921994380628e+17
19617.0	6.184953979775658e+17
19618.0	6.183514990968831e+17
19619.0	6.182575553555113e+17
19620.0	6.181643083579391e+17
19621.0	6.18206888862242e+17
19622.0	6.182722328330239e+17
19623.0	6.18190564491264e+17
19624.0	6.180895058821117e+17
19625.0	6.179898500579328e+17
19626.0	6.178890700903766e+17
19627.0	6.177878839044776e+17
19628.0	6.17682155217442e+17
19629.0	6.175769575991978e+17
19630.0	6.174619394375679e+17
19631.0	6.171737420988415e+17
19632.0	6.172776761131007e+17
19633.0	6.171747420209151e+17
19634.0	6.170757563766099e+17
19635.0	6.169700547428351e+17
19636.0	6.168707433409193e+17
19637.0	6.167360833934676e+17
19638.0	6.166640238526463e+17
19639.0	6.165602591484585e+17
19640.0	6.164505026013865e+17
19641.0	6.162873812953772e+17
19642.0	6.162495692253865e+17
19643.0	6.16145465970961e+17
19644.0	6.160728629881512e+17
19645.0	6.160632479656617e+17
19646.0	6.159810557553321e+17
19647.0	6.158766367397203e+17
19648.0	6.157719543218175e+17
19649.0	6.156669090267133e+17
19650.0	6.155621531385856e+17
19651.0	6.154564862476287e+17
19652.0	6.15351605928482e+17
19653.0	6.152462918483967e+17
19654.0	6.15140959523089e+17
19655.0	6.150349682027178e+17
19656.0	6.14929060139281e+17
19657.0	6.148237942237865e+17
19658.0	6.147178476426579e+17
19659.0	6.146116653416447e+17
19660.0	6.145056415853226e+17
19661.0	6.143993684776275e+17
19662.0	6.142929537422676e+17
19663.0	6.141829983851859e+17
19664.0	6.140792073966934e+17
19665.0	6.139733163900927e+17
