# Flux units: erg / (cm m2 s)
# Wavelength units: Angstrom
wave	flux
19000.0	6.908311900607827e+17
19001.0	6.906985240854527e+17
19002.0	6.905721671122943e+17
19003.0	6.904425750724607e+17
19004.0	6.903129796771839e+17
19005.0	6.901835812044799e+17
19006.0	6.900540613066751e+17
19007.0	6.899184739287039e+17
19008.0	6.897929433732436e+17
19009.0	6.896638772292266e+17
19010.0	6.895205577916415e+17
19011.0	6.894051653582847e+17
19012.0	6.892653111148541e+17
19013.0	6.891471959490559e+17
19014.0	6.890153207398399e+17
19015.0	6.888865365229565e+17
19016.0	6.887566282326015e+17
19017.0	6.886272758972415e+17
19018.0	6.884982029025279e+17
19019.0	6.883693489902934e+17
19020.0	6.882385668866047e+17
19021.0	6.881101459663529e+17
19022.0	6.879812782129152e+17
19023.0	6.878503224650409e+17
19024.0	6.877212778517844e+17
19025.0	6.875920536524116e+17
19026.0	6.874612989515091e+17
19027.0	6.873247751951699e+17
19028.0	6.872041888153597e+17
19029.0	6.870741547657898e+17
19030.0	6.869452120741204e+17
19031.0	6.868157341892607e+17
19032.0	6.866862602190845e+17
19033.0	6.86553931186176e+17
19034.0	6.864268567773183e+17
19035.0	6.862965939284649e+17
19036.0	6.855520261854545e+17
19037.0	6.8603891182906e+17
19038.0	6.859087878815741e+17
19039.0	6.857801921287508e+17
19040.0	6.856507956832938e+17
19041.0	6.855214042710015e+17
19042.0	6.85389422666274e+17
19043.0	6.85262688555281e+17
19044.0	6.851332229737129e+17
19045.0	6.850036099623594e+17
19046.0	6.84873029464883e+17
19047.0	6.847451359783594e+17
19048.0	6.846093402133844e+17
19049.0	6.844846511052116e+17
19050.0	6.843560180230825e+17
19051.0	6.841316533075964e+17
19052.0	6.840892734308351e+17
19053.0	6.839680690203306e+17
19054.0	6.838403502265684e+17
19055.0	6.83702992572689e+17
19056.0	6.835811955769343e+17
19057.0	6.834522986730836e+17
19058.0	6.833216407906985e+17
19059.0	6.831943319202474e+17
19060.0	6.830643917531818e+17
19061.0	6.829360286444202e+17
19062.0	6.828067439771647e+17
19063.0	6.82677700272674e+17
19064.0	6.825449844550314e+17
19065.0	6.82413805150754e+17
19066.0	6.822884601233407e+17
19067.0	6.821613941729961e+17
19068.0	6.820323381652137e+17
19069.0	6.819033404582569e+17
19070.0	6.817735261203114e+17
19071.0	6.816450041173332e+17
19072.0	6.815162457653247e+17
19073.0	6.813871803902633e+17
19074.0	6.812583986200575e+17
19075.0	6.8112945264285e+17
19076.0	6.809998092227923e+17
19077.0	6.808712848430419e+17
19078.0	6.807416791717204e+17
19079.0	6.80613828956433e+17
19080.0	6.804848161499817e+17
19081.0	6.803547568646825e+17
19082.0	6.802257125310464e+17
19083.0	6.800948399702015e+17
19084.0	6.799619327524861e+17
19085.0	6.798408400502783e+17
19086.0	6.796992362228394e+17
19087.0	6.79564614443554e+17
19088.0	6.794519472592212e+17
19089.0	6.793100653494272e+17
19090.0	6.791960149535402e+17
19091.0	6.790675938235732e+17
19092.0	6.789337516954963e+17
19093.0	6.788111129728339e+17
19094.0	6.786817148496553e+17
19095.0	6.785528900878336e+17
19096.0	6.784243861902676e+17
19097.0	6.782965806443177e+17
19098.0	6.781681293852671e+17
19099.0	6.780395359393108e+17
19100.0	6.77909944738338e+17
19101.0	6.777825157709823e+17
19102.0	6.776510684506793e+17
19103.0	6.77525538803985e+17
19104.0	6.773970638471167e+17
19105.0	6.772685857445204e+17
19106.0	6.771367532473001e+17
19107.0	6.770112289832959e+17
19108.0	6.768832655218004e+17
19109.0	6.766966423420927e+17
19110.0	6.766259040070313e+17
19111.0	6.764982152025428e+17
19112.0	6.763699013069482e+17
19113.0	6.76241587830784e+17
19114.0	6.761132869375316e+17
19115.0	6.759826492577108e+17
19116.0	6.758559894558036e+17
19117.0	6.757278664709459e+17
19118.0	6.755945972847956e+17
19119.0	6.753717153955837e+17
19120.0	6.753386838534825e+17
19121.0	6.752121341520553e+17
19122.0	6.750874615414781e+17
19123.0	6.749591751185748e+17
19124.0	6.748278271333715e+17
19125.0	6.747026012940968e+17
19126.0	6.745741861060607e+17
19127.0	6.743930153118378e+17
19128.0	6.742822542289577e+17
19129.0	6.741878865832617e+17
19130.0	6.740625391790761e+17
19131.0	6.739334128467965e+17
19132.0	6.738065206105427e+17
19133.0	6.736640844933802e+17
19134.0	6.735334061288106e+17
19135.0	6.734223524932265e+17
19136.0	6.732948026600106e+17
19137.0	6.731617057199444e+17
19138.0	6.73036085755904e+17
19139.0	6.729109819009706e+17
19140.0	6.72783192363281e+17
19141.0	6.726553365555882e+17
19142.0	6.7252669396637e+17
19143.0	6.723978965374292e+17
19144.0	6.722711100675412e+17
19145.0	6.721438065098751e+17
19146.0	6.719966675992575e+17
19147.0	6.718856976400383e+17
19148.0	6.71760322203921e+17
19149.0	6.716326896730111e+17
19150.0	6.715048381994324e+17
19151.0	6.71377490182144e+17
19152.0	6.712488613642239e+17
19153.0	6.711214090485759e+17
19154.0	6.709903660591785e+17
19155.0	6.708667385293481e+17
19156.0	6.707389489916585e+17
19157.0	6.706105976269481e+17
19158.0	6.704438878841513e+17
19159.0	6.703553480141481e+17
19160.0	6.702275142265514e+17
19161.0	6.700973757388116e+17
19162.0	6.698834176507904e+17
19163.0	6.698448918500692e+17
19164.0	6.697182993667412e+17
19165.0	6.695891282253139e+17
19166.0	6.694578647553364e+17
19167.0	6.69327234904883e+17
19168.0	6.692056760756905e+17
19169.0	6.690778702501203e+17
19170.0	6.689532011347968e+17
19171.0	6.688205689236136e+17
19172.0	6.686979085303808e+17
19173.0	6.685706651609769e+17
19174.0	6.684417430213972e+17
19175.0	6.683161080976724e+17
19176.0	6.681886854217727e+17
19177.0	6.680564988553897e+17
19178.0	6.679322639204351e+17
19179.0	6.677988946302292e+17
19180.0	6.676744915036841e+17
19181.0	6.675481508184064e+17
19182.0	6.674230740866388e+17
19183.0	6.672964026804906e+17
19184.0	6.67166821126417e+17
19185.0	6.670420256926378e+17
19186.0	6.669148783028905e+17
19187.0	6.667855444923731e+17
19188.0	6.666597898911743e+17
19189.0	6.665312966191785e+17
19190.0	6.664036011038036e+17
19191.0	6.662762563021482e+17
19192.0	6.661507515416575e+17
19193.0	6.660211268561576e+17
19194.0	6.658947383558143e+17
19195.0	6.657686700905811e+17
19196.0	6.656413079524692e+17
19197.0	6.655138013904895e+17
19198.0	6.653856726035113e+17
19199.0	6.647244911891795e+17
19200.0	6.647834026355372e+17
19201.0	6.650040565104637e+17
19202.0	6.648778030667091e+17
19203.0	6.647495453747882e+17
19204.0	6.646227760316415e+17
19205.0	6.644963730609491e+17
19206.0	6.643687173215572e+17
19207.0	6.642390812415316e+17
19208.0	6.641079652013395e+17
19209.0	6.639868857810943e+17
19210.0	6.638600377248425e+17
19211.0	6.637326903366998e+17
19212.0	6.636054611580244e+17
19213.0	6.634714864899412e+17
19214.0	6.633414203539455e+17
19215.0	6.632215472854356e+17
19216.0	6.630958365846185e+17
19217.0	6.629689199514966e+17
19218.0	6.628158841989801e+17
19219.0	6.627091967639551e+17
19220.0	6.62585951265314e+17
19221.0	6.624489258702163e+17
19222.0	6.623321805641044e+17
19223.0	6.622047212579497e+17
19224.0	6.620753808064511e+17
19225.0	6.619453168375124e+17
19226.0	6.618220284171604e+17
19227.0	6.616944701254314e+17
19228.0	6.615677917986815e+17
19229.0	6.614403105423359e+17
19230.0	6.613113210142719e+17
19231.0	6.611838867341311e+17
19232.0	6.610570618164563e+17
19233.0	6.609279854662995e+17
19234.0	6.608019248207188e+17
19235.0	6.606744248298153e+17
19236.0	6.605475498601129e+17
19237.0	6.604194277141161e+17
19238.0	6.602886635760297e+17
19239.0	6.601646922530815e+17
19240.0	6.600321054102868e+17
19241.0	6.599071428334932e+17
19242.0	6.597809606230016e+17
19243.0	6.596481396681385e+17
19244.0	6.595258941614761e+17
19245.0	6.593981134318249e+17
19246.0	6.592697310292649e+17
19247.0	6.591422688570025e+17
19248.0	6.590144019344042e+17
19249.0	6.588863548664489e+17
19250.0	6.587577216445097e+17
19251.0	6.586269526130687e+17
19252.0	6.584924011582804e+17
19253.0	6.583733389186388e+17
19254.0	6.582451610583037e+17
19255.0	6.581113378745001e+17
19256.0	6.579875350227625e+17
19257.0	6.578609938497535e+17
19258.0	6.577326394791251e+17
19259.0	6.576017969774591e+17
19260.0	6.574660234422953e+17
19261.0	6.573472108336468e+17
19262.0	6.572170074041002e+17
19263.0	6.570882689051305e+17
19264.0	6.569448711039657e+17
19265.0	6.568264403167914e+17
19266.0	6.566984374288383e+17
19267.0	6.565746479289684e+17
19268.0	6.564456463772329e+17
19269.0	6.563165755495764e+17
19270.0	6.561873929437184e+17
19271.0	6.560479485536937e+17
19272.0	6.559277478401363e+17
19273.0	6.556652497010685e+17
19274.0	6.55598804096341e+17
19275.0	6.555404304296618e+17
19276.0	6.554101571649535e+17
19277.0	6.552805298929663e+17
19278.0	6.551512015350442e+17
19279.0	6.55019599864354e+17
19280.0	6.548887210120532e+17
19281.0	6.547604317929471e+17
19282.0	6.546306741480106e+17
19283.0	6.544920828095146e+17
19284.0	6.543567205258579e+17
19285.0	6.542241015267327e+17
19286.0	6.540456131297279e+17
19287.0	6.539162865194324e+17
19288.0	6.536356738804393e+17
19289.0	6.53239847415534e+17
19290.0	6.535252266014036e+17
19291.0	6.53385441354274e+17
19292.0	6.532622529680723e+17
19293.0	6.531302507413504e+17
19294.0	6.529986253728425e+17
19295.0	6.528665683405482e+17
19296.0	6.527343363358719e+17
19297.0	6.526018639975766e+17
19298.0	6.524687463656105e+17
19299.0	6.523365623158099e+17
19300.0	6.522035429703677e+17
19301.0	6.520701505415849e+17
19302.0	6.519366187220991e+17
19303.0	6.518005854197076e+17
19304.0	6.516679425829545e+17
19305.0	6.515348503265279e+17
19306.0	6.514006167999827e+17
19307.0	6.512643495952383e+17
19308.0	6.511304625182036e+17
19309.0	6.509787368565417e+17
19310.0	6.508360508287658e+17
19311.0	6.507233051410431e+17
19312.0	6.505896070174036e+17
19313.0	6.504528082545321e+17
19314.0	6.499536701401768e+17
19315.0	6.498431015758513e+17
19316.0	6.500425140972201e+17
19317.0	6.499066073929044e+17
19318.0	6.497682654756863e+17
19319.0	6.496308177141759e+17
19320.0	6.494920370028543e+17
19321.0	6.493535318573055e+17
19322.0	6.492102175926953e+17
19323.0	6.490659589106346e+17
19324.0	6.489344458795689e+17
19325.0	6.487777526939647e+17
19326.0	6.486530242292393e+17
19327.0	6.48511344484898e+17
19328.0	6.483700267788969e+17
19329.0	6.482276932823721e+17
19330.0	6.48083524358417e+17
19331.0	6.479400207908864e+17
19332.0	6.477974135461203e+17
19333.0	6.476529618561705e+17
19334.0	6.475074456518655e+17
19335.0	6.47362148040704e+17
19336.0	6.472157167091712e+17
19337.0	6.470685570367488e+17
19338.0	6.469144225862995e+17
19339.0	6.467727447993001e+17
19340.0	6.466216535960234e+17
19341.0	6.464031442687314e+17
19342.0	6.462270880088063e+17
19343.0	6.460885169427798e+17
19344.0	6.459362406389075e+17
19345.0	6.45719756461397e+17
19346.0	6.456071609297577e+17
19347.0	6.454716068265984e+17
19348.0	6.453178389583188e+17
19349.0	6.451598997848064e+17
19350.0	6.450007525818367e+17
19351.0	6.448417161084927e+17
19352.0	6.446798982523562e+17
19353.0	6.445207874699263e+17
19354.0	6.443580660208979e+17
19355.0	6.441914047223123e+17
19356.0	6.440286246229334e+17
19357.0	6.438618528044372e+17
19358.0	6.436926099117395e+17
19359.0	6.435169157600595e+17
19360.0	6.433206116373844e+17
19361.0	6.430700388133546e+17
19362.0	6.428967575049556e+17
19363.0	6.427202375647231e+17
19364.0	6.425418061403476e+17
19365.0	6.423616284175017e+17
19366.0	6.421793491386367e+17
19367.0	6.419949928404307e+17
19368.0	6.41808442921233e+17
19369.0	6.416166224396287e+17
19370.0	6.414129119450452e+17
19371.0	6.41178682995507e+17
19372.0	6.409007988910761e+17
19373.0	6.407008508269907e+17
19374.0	6.404992616016553e+17
19375.0	6.402939501412351e+17
19376.0	6.400856526159871e+17
19377.0	6.398656232729257e+17
19378.0	6.395820317693267e+17
19379.0	6.39231594734114e+17
19380.0	6.390084054024191e+17
19381.0	6.387811889097385e+17
19382.0	6.385471053627391e+17
19383.0	6.38308951663138e+17
19384.0	6.378690708155048e+17
19385.0	6.376225310244863e+17
19386.0	6.373715835092991e+17
19387.0	6.371150498103295e+17
19388.0	6.366138631979005e+17
19389.0	6.363409491339946e+17
19390.0	6.360650728428884e+17
19391.0	6.350400126975994e+17
19392.0	6.352064311459837e+17
19393.0	6.3487681232896e+17
19394.0	6.342778845921279e+17
19395.0	6.339609521466028e+17
19396.0	6.33476682490402e+17
19397.0	6.331101363219114e+17
19398.0	6.327012329259007e+17
19399.0	6.323251646387539e+17
19400.0	6.31978525266193e+17
19401.0	6.316025517703167e+17
19402.0	6.312130359154004e+17
19403.0	6.308101670043647e+17
19404.0	6.30395027656977e+17
19405.0	6.299412661097811e+17
19406.0	6.294150153852243e+17
19407.0	6.289524655128575e+17
19408.0	6.28451112456465e+17
19409.0	6.279720542928896e+17
19410.0	6.273509349829289e+17
19411.0	6.267688979879252e+17
19412.0	6.262103236498772e+17
19413.0	6.255228219293695e+17
19414.0	6.248227876285098e+17
19415.0	6.241265930032467e+17
19416.0	6.232657889329151e+17
19417.0	6.224305942342316e+17
19418.0	6.215285205194071e+17
19419.0	6.203991713120257e+17
19420.0	6.192550139046572e+17
19421.0	6.179529257123841e+17
19422.0	6.164394995438932e+17
19423.0	6.145581624502945e+17
19424.0	6.127154624462843e+17
19425.0	6.113485246518611e+17
19426.0	6.100551952149161e+17
19427.0	6.0869246437731e+17
19428.0	6.072088682386772e+17
19429.0	6.056994886647805e+17
19430.0	6.04081749037329e+17
19431.0	6.022653068443649e+17
19432.0	6.005079024162131e+17
19433.0	5.985318540236115e+17
19434.0	5.963849461137408e+17
19435.0	5.939797242325672e+17
19436.0	5.912468764579154e+17
19437.0	5.880734838074024e+17
19438.0	5.834944387481596e+17
19439.0	5.78894053489596e+17
19440.0	5.744201587228671e+17
19441.0	5.701777826163368e+17
19442.0	5.654704455417856e+17
19443.0	5.6004454883437235e+17
19444.0	5.5349525582533914e+17
19445.0	5.446700510478333e+17
19446.0	5.3512109618626554e+17
19447.0	5.2449828793221056e+17
19448.0	5.10181236609298e+17
19449.0	4.912604500372139e+17
19450.0	4.595834499541661e+17
19451.0	4.501342677281439e+17
19452.0	4.7632426575680896e+17
19453.0	5.016899605757961e+17
19454.0	5.174958532941134e+17
19455.0	5.2959881178644474e+17
19456.0	5.3895976752687834e+17
19457.0	5.4844750624194496e+17
19458.0	5.5516454680439546e+17
19459.0	5.6134153109067117e+17
19460.0	5.6617282578677734e+17
19461.0	5.7040829205708794e+17
19462.0	5.7427101912924186e+17
19463.0	5.793061591668046e+17
19464.0	5.835796714793646e+17
19465.0	5.868705613348863e+17
19466.0	5.895542422896636e+17
19467.0	5.918656297609897e+17
19468.0	5.938760576750931e+17
19469.0	5.957265002943827e+17
19470.0	5.973776042120531e+17
19471.0	5.989656163603796e+17
19472.0	6.003854886480553e+17
19473.0	6.017077360634537e+17
19474.0	6.029689756494506e+17
19475.0	6.041359676167507e+17
19476.0	6.052442594607101e+17
19477.0	6.062673800899242e+17
19478.0	6.077035763990522e+17
19479.0	6.093547837762218e+17
19480.0	6.107489251972439e+17
19481.0	6.119342712291327e+17
19482.0	6.129436474736643e+17
19483.0	6.137910640246781e+17
19484.0	6.14494816436224e+17
19485.0	6.15246926516497e+17
19486.0	6.157520520697174e+17
19487.0	6.163491459170301e+17
19488.0	6.167378849868457e+17
19489.0	6.17264087756527e+17
19490.0	6.175731164555944e+17
19491.0	6.179204082521427e+17
19492.0	6.183133227515904e+17
19493.0	6.186234781805225e+17
19494.0	6.188738474409983e+17
19495.0	6.191046930552148e+17
19496.0	6.193175325223593e+17
19497.0	6.196176616073897e+17
19498.0	6.197665338141354e+17
19499.0	6.191043409433933e+17
19500.0	6.201269875463508e+17
19501.0	6.202707513005396e+17
19502.0	6.204023550683818e+17
19503.0	6.205240485347327e+17
19504.0	6.206341984376148e+17
19505.0	6.207981635676842e+17
19506.0	6.209782501343232e+17
19507.0	6.211505315206483e+17
19508.0	6.212776412315644e+17
19509.0	6.215977316384768e+17
19510.0	6.216464835018751e+17
19511.0	6.210244457092434e+17
19512.0	6.218927355636389e+17
19513.0	6.217987407216635e+17
19514.0	6.219274267219282e+17
19515.0	6.22295754141423e+17
19516.0	6.223317576275283e+17
19517.0	6.223391054888959e+17
19518.0	6.223449880002559e+17
19519.0	6.225203654819841e+17
19520.0	6.225301871438506e+17
19521.0	6.225208072820052e+17
19522.0	6.225053280632831e+17
19523.0	6.224881823776768e+17
19524.0	6.22529053073954e+17
19525.0	6.225984462957225e+17
19526.0	6.225699287334912e+17
19527.0	6.225678707982336e+17
19528.0	6.225375082315775e+17
19529.0	6.224990905040895e+17
19530.0	6.224578612647252e+17
19531.0	6.224138256165545e+17
19532.0	6.224510330776232e+17
19533.0	6.224459345515859e+17
19534.0	6.223942995935231e+17
19535.0	6.223401827259732e+17
19536.0	6.222834525973162e+17
19537.0	6.222268430548991e+17
19538.0	6.221650759166634e+17
19539.0	6.220878252954966e+17
19540.0	6.220408839733247e+17
19541.0	6.219765267824639e+17
19542.0	6.219095516468563e+17
19543.0	6.218412441905833e+17
19544.0	6.218127966732287e+17
19545.0	6.217873417917778e+17
19546.0	6.216984767933098e+17
19547.0	6.216526484996095e+17
19548.0	6.215772214220116e+17
19549.0	6.214973213289129e+17
19550.0	6.214226588729343e+17
19551.0	6.213437054342484e+17
19552.0	6.212635517954729e+17
19553.0	6.211817511234217e+17
19554.0	6.210990378407254e+17
19555.0	6.210166645063679e+17
19556.0	6.209330943972694e+17
19557.0	6.208480027344895e+17
19558.0	6.207622510979753e+17
19559.0	6.206752408906409e+17
19560.0	6.205872945845588e+17
19561.0	6.204990685183999e+17
19562.0	6.204110409127252e+17
19563.0	6.203212972075689e+17
19564.0	6.202309782536191e+17
19565.0	6.201399339646975e+17
19566.0	6.200476112519168e+17
19567.0	6.199558616907775e+17
19568.0	6.198621170390356e+17
19569.0	6.198255610232832e+17
19570.0	6.197499684104874e+17
19571.0	6.196552146791082e+17
19572.0	6.19559100944657e+17
19573.0	6.194638237641385e+17
19574.0	6.193651251500372e+17
19575.0	6.192715825938431e+17
19576.0	6.191745268886185e+17
19577.0	6.190758486168916e+17
19578.0	6.189777239932927e+17
19579.0	6.188798592068265e+17
19580.0	6.187812360901972e+17
19581.0	6.18682245063202e+17
19582.0	6.185832907363667e+17
19583.0	6.184834361720831e+17
19584.0	6.183831620375892e+17
19585.0	6.182791113517737e+17
19586.0	6.181769429297834e+17
19587.0	6.180769306596692e+17
19588.0	6.179643627405311e+17
19589.0	6.178760733403818e+17
19590.0	6.177726564838057e+17
19591.0	6.176730539272873e+17
19592.0	6.175704667040425e+17
19593.0	6.174670009139199e+17
19594.0	6.173562018026836e+17
19595.0	6.17260349722897e+17
19596.0	6.170728069420374e+17
19597.0	6.170526586241023e+17
19598.0	6.169405006282751e+17
19599.0	6.168458149145257e+17
19600.0	6.167414130955603e+17
19601.0	6.166346522602153e+17
19602.0	6.165306463136425e+17
19603.0	6.16406171534404e+17
19604.0	6.16319835701248e+17
19605.0	6.162069562152276e+17
19606.0	6.161108140993194e+17
19607.0	6.160053486048595e+17
19608.0	6.158992274008746e+17
19609.0	6.157917891854335e+17
19610.0	6.156874100856148e+17
19611.0	6.155809482342399e+17
19612.0	6.154747185375914e+17
19613.0	6.153681158974121e+17
19614.0	6.152601465432746e+17
19615.0	6.151546205809321e+17
19616.0	6.150430426573482e+17
19617.0	6.149405801447423e+17
19618.0	6.14817101652514e+17
19619.0	6.14704806502946e+17
19620.0	6.14598619308578e+17
19621.0	6.145113733813588e+17
19622.0	6.144037818641065e+17
19623.0	6.142960987013119e+17
19624.0	6.1418831361693e+17
19625.0	6.140803429345961e+17
19626.0	6.13972432859955e+17
19627.0	6.138643554325844e+17
19628.0	6.137437891854336e+17
19629.0	6.136451127312383e+17
19630.0	6.135248729407488e+17
19631.0	6.128538146395475e+17
19632.0	6.133224293356884e+17
19633.0	6.132127663215956e+17
19634.0	6.131057603291818e+17
19635.0	6.129958444684627e+17
19636.0	6.128884403666943e+17
19637.0	6.127673078185983e+17
19638.0	6.126705653579776e+17
19639.0	6.125614702526463e+17
19640.0	6.124506960975188e+17
19641.0	6.123225730427562e+17
19642.0	6.122348535087103e+17
19643.0	6.121251391143935e+17
19644.0	6.120146373094057e+17
19645.0	6.118989807048019e+17
19646.0	6.117981239115776e+17
19647.0	6.116888216076287e+17
19648.0	6.115794727469053e+17
19649.0	6.114699950511444e+17
19650.0	6.113606542994089e+17
19651.0	6.112511875088383e+17
19652.0	6.111416806626644e+17
19653.0	6.110320755998719e+17
19654.0	6.109225636506281e+17
19655.0	6.108128168902655e+17
19656.0	6.107030904722772e+17
19657.0	6.105936417172137e+17
19658.0	6.104839466866004e+17
19659.0	6.103741621775018e+17
19660.0	6.102644605059071e+17
19661.0	6.10154678583296e+17
19662.0	6.100448717045759e+17
19663.0	6.0993358004224e+17
19664.0	6.098229820478806e+17
19665.0	6.097153102097066e+17
