# Flux units: erg / (cm m2 s)
# Wavelength units: Angstrom
wave	flux
19000.0	7.384262202359807e+17
19001.0	7.382820806022484e+17
19002.0	7.381452530384896e+17
19003.0	7.380047047076521e+17
19004.0	7.378641412773204e+17
19005.0	7.377237993062399e+17
19006.0	7.375833415723689e+17
19007.0	7.374399239181651e+17
19008.0	7.372991381897215e+17
19009.0	7.371610024225449e+17
19010.0	7.370043899073875e+17
19011.0	7.368801976844288e+17
19012.0	7.367356060445353e+17
19013.0	7.365999654688084e+17
19014.0	7.364572688154624e+17
19015.0	7.363180148468393e+17
19016.0	7.361774937789778e+17
19017.0	7.360152080482301e+17
19018.0	7.358980760971945e+17
19019.0	7.357580442249897e+17
19020.0	7.356144181138772e+17
19021.0	7.354757492506624e+17
19022.0	7.35338084783445e+17
19023.0	7.351957087147348e+17
19024.0	7.350566176249172e+17
19025.0	7.34916670337843e+17
19026.0	7.347759834551636e+17
19027.0	7.346358284102313e+17
19028.0	7.344967686378836e+17
19029.0	7.343565168443391e+17
19030.0	7.342171332717225e+17
19031.0	7.340770937099604e+17
19032.0	7.33937080152883e+17
19033.0	7.337937849723561e+17
19034.0	7.336562902346412e+17
19035.0	7.33515725546018e+17
19036.0	7.33215089439539e+17
19037.0	7.332368139769174e+17
19038.0	7.330964522926079e+17
19039.0	7.329575464512169e+17
19040.0	7.328176939554132e+17
19041.0	7.326775491166207e+17
19042.0	7.325346410703529e+17
19043.0	7.323982635554131e+17
19044.0	7.32257948008448e+17
19045.0	7.321187712150186e+17
19046.0	7.319771432703316e+17
19047.0	7.318392932750675e+17
19048.0	7.316921352803668e+17
19049.0	7.315572618428416e+17
19050.0	7.3141883778717e+17
19051.0	7.312616068917929e+17
19052.0	7.311401707459923e+17
19053.0	7.31000637436723e+17
19054.0	7.308620855945897e+17
19055.0	7.307131577434111e+17
19056.0	7.305822347810131e+17
19057.0	7.304432218450602e+17
19058.0	7.303028270257492e+17
19059.0	7.301647141874345e+17
19060.0	7.300243934674943e+17
19061.0	7.298858716845395e+17
19062.0	7.29746412614451e+17
19063.0	7.296071724870313e+17
19064.0	7.29463257248563e+17
19065.0	7.293216557279914e+17
19066.0	7.291868355581267e+17
19067.0	7.290501205415251e+17
19068.0	7.289108784567636e+17
19069.0	7.287717315827028e+17
19070.0	7.28631583248657e+17
19071.0	7.284934276284415e+17
19072.0	7.283543131903316e+17
19073.0	7.282150150417064e+17
19074.0	7.280761476481023e+17
19075.0	7.279371003188564e+17
19076.0	7.277972304865961e+17
19077.0	7.276587977626963e+17
19078.0	7.275154912575488e+17
19079.0	7.27381127148339e+17
19080.0	7.2724168849053e+17
19081.0	7.271014441069226e+17
19082.0	7.269607921767763e+17
19083.0	7.268209746335059e+17
19084.0	7.266771943118164e+17
19085.0	7.265479922723498e+17
19086.0	7.2639425033885e+17
19087.0	7.262669258096639e+17
19088.0	7.261291819302911e+17
19089.0	7.259839903651156e+17
19090.0	7.258530825022122e+17
19091.0	7.257143265372841e+17
19092.0	7.255742430751402e+17
19093.0	7.254384847792808e+17
19094.0	7.252962732670973e+17
19095.0	7.251566652992169e+17
19096.0	7.250214642865491e+17
19097.0	7.248841856953002e+17
19098.0	7.247458470636202e+17
19099.0	7.246068079831722e+17
19100.0	7.244687657489747e+17
19101.0	7.243306000624297e+17
19102.0	7.241892777426943e+17
19103.0	7.240538761024854e+17
19104.0	7.23915550892578e+17
19105.0	7.237772529456468e+17
19106.0	7.23638312710963e+17
19107.0	7.235001835148628e+17
19108.0	7.23362493042961e+17
19109.0	7.232057503645696e+17
19110.0	7.230860274521428e+17
19111.0	7.229479821421225e+17
19112.0	7.228098666474153e+17
19113.0	7.226717712853674e+17
19114.0	7.225336675347113e+17
19115.0	7.223937820437161e+17
19116.0	7.222567228145664e+17
19117.0	7.221190243734867e+17
19118.0	7.219773045735424e+17
19119.0	7.217708914092712e+17
19120.0	7.217043427644756e+17
19121.0	7.215672621443753e+17
19122.0	7.214300137521151e+17
19123.0	7.212902450025812e+17
19124.0	7.211534028985684e+17
19125.0	7.21016128082193e+17
19126.0	7.208773324111871e+17
19127.0	7.206821816522067e+17
19128.0	7.2058643953309e+17
19129.0	7.204620016637267e+17
19130.0	7.203273506641236e+17
19131.0	7.201901741342719e+17
19132.0	7.20052455280913e+17
19133.0	7.198830077760851e+17
19134.0	7.1976872865082e+17
19135.0	7.196396738314239e+17
19136.0	7.195023981761875e+17
19137.0	7.193591274624339e+17
19138.0	7.192227379238228e+17
19139.0	7.190898876787369e+17
19140.0	7.189525298151423e+17
19141.0	7.188151404942676e+17
19142.0	7.186768443648681e+17
19143.0	7.185383260771668e+17
19144.0	7.184015966601215e+17
19145.0	7.182656536750761e+17
19146.0	7.181067601575935e+17
19147.0	7.17988177256994e+17
19148.0	7.178538536927232e+17
19149.0	7.177166578690729e+17
19150.0	7.175788219946323e+17
19151.0	7.174423982025385e+17
19152.0	7.173028353933311e+17
19153.0	7.171673142154578e+17
19154.0	7.170264306199208e+17
19155.0	7.168939479356756e+17
19156.0	7.167568016048127e+17
19157.0	7.166196417123668e+17
19158.0	7.164696710174036e+17
19159.0	7.163451400344916e+17
19160.0	7.162056658649087e+17
19161.0	7.160699049126569e+17
19162.0	7.159061096518998e+17
19163.0	7.157972361456297e+17
19164.0	7.156603904065535e+17
19165.0	7.155231659218259e+17
19166.0	7.153830096186025e+17
19167.0	7.152472223820457e+17
19168.0	7.151048031120041e+17
19169.0	7.149719867009704e+17
19170.0	7.148395837085011e+17
19171.0	7.147017935519743e+17
19172.0	7.145662213434025e+17
19173.0	7.144295249215488e+17
19174.0	7.142909410628948e+17
19175.0	7.141562788784812e+17
19176.0	7.140196456508076e+17
19177.0	7.138776298728105e+17
19178.0	7.137461767503872e+17
19179.0	7.136082723689811e+17
19180.0	7.134653432113833e+17
19181.0	7.133334025710249e+17
19182.0	7.131891638119084e+17
19183.0	7.13063039832337e+17
19184.0	7.129199683480233e+17
19185.0	7.127901690396671e+17
19186.0	7.126545149023572e+17
19187.0	7.125149302827688e+17
19188.0	7.123816720717139e+17
19189.0	7.122448096952317e+17
19190.0	7.121081866736982e+17
19191.0	7.11971266835251e+17
19192.0	7.118354920417961e+17
19193.0	7.116896363784874e+17
19194.0	7.11558953050658e+17
19195.0	7.114266612072445e+17
19196.0	7.112909849799338e+17
19197.0	7.111547507703807e+17
19198.0	7.110187216622931e+17
19199.0	7.107062770521428e+17
19200.0	7.106335088137556e+17
19201.0	7.106102702724435e+17
19202.0	7.104743348371455e+17
19203.0	7.103379285213183e+17
19204.0	7.102012579643391e+17
19205.0	7.100655541944319e+17
19206.0	7.099295657710931e+17
19207.0	7.09791084253457e+17
19208.0	7.096497991232169e+17
19209.0	7.095213052220756e+17
19210.0	7.093852057894911e+17
19211.0	7.092486656753663e+17
19212.0	7.091138031430313e+17
19213.0	7.089733957408083e+17
19214.0	7.088370503821994e+17
19215.0	7.087052496917844e+17
19216.0	7.085652155826175e+17
19217.0	7.084337051380393e+17
19218.0	7.082689653200211e+17
19219.0	7.081558225715199e+17
19220.0	7.080252379496447e+17
19221.0	7.07878632624401e+17
19222.0	7.077544706004308e+17
19223.0	7.076176311528105e+17
19224.0	7.07473418957619e+17
19225.0	7.073396065391955e+17
19226.0	7.07209904119262e+17
19227.0	7.070738270562986e+17
19228.0	7.069392591039145e+17
19229.0	7.0680339035805e+17
19230.0	7.066664945669459e+17
19231.0	7.065295794820436e+17
19232.0	7.063891218879828e+17
19233.0	7.062572213731327e+17
19234.0	7.061232081873577e+17
19235.0	7.05987074920721e+17
19236.0	7.058524756508671e+17
19237.0	7.057160619251027e+17
19238.0	7.055773603463165e+17
19239.0	7.054450686427133e+17
19240.0	7.052928657391616e+17
19241.0	7.051680053635753e+17
19242.0	7.050351779075412e+17
19243.0	7.048945008115711e+17
19244.0	7.047654759115433e+17
19245.0	7.046296170921983e+17
19246.0	7.044934952899923e+17
19247.0	7.043571173556223e+17
19248.0	7.042222116219561e+17
19249.0	7.040858089411923e+17
19250.0	7.039491855002281e+17
19251.0	7.038108133141161e+17
19252.0	7.036631698287272e+17
19253.0	7.03541451825698e+17
19254.0	7.034038683085481e+17
19255.0	7.032624279191551e+17
19256.0	7.031333247953578e+17
19257.0	7.029984185723561e+17
19258.0	7.028620349057706e+17
19259.0	7.027234245530964e+17
19260.0	7.025886719814314e+17
19261.0	7.024539286372351e+17
19262.0	7.023160640318122e+17
19263.0	7.021805205542228e+17
19264.0	7.020273498849279e+17
19265.0	7.01903466083123e+17
19266.0	7.017695725049171e+17
19267.0	7.016377049852585e+17
19268.0	7.015014862247251e+17
19269.0	7.013652346787155e+17
19270.0	7.012287700620627e+17
19271.0	7.01081276453137e+17
19272.0	7.009549833732096e+17
19273.0	7.00408802294715e+17
19274.0	7.004874793287677e+17
19275.0	7.005469558876842e+17
19276.0	7.00409744335394e+17
19277.0	7.002732957969065e+17
19278.0	7.001368665522175e+17
19279.0	6.9999648061085e+17
19280.0	6.998606914868564e+17
19281.0	6.997265377219923e+17
19282.0	6.995904099079508e+17
19283.0	6.994506533918036e+17
19284.0	6.993092290106707e+17
19285.0	6.991706076829012e+17
19286.0	6.990412944943786e+17
19287.0	6.989054677614591e+17
19288.0	6.987313776514387e+17
19289.0	6.985182438839634e+17
19290.0	6.984937336296787e+17
19291.0	6.983462835017044e+17
19292.0	6.982187893129215e+17
19293.0	6.980809406458537e+17
19294.0	6.979431326635347e+17
19295.0	6.97805854282001e+17
19296.0	6.976680237902505e+17
19297.0	6.975295859632809e+17
19298.0	6.973909610703529e+17
19299.0	6.972525308630356e+17
19300.0	6.971140486463487e+17
19301.0	6.969753885911722e+17
19302.0	6.968368703034708e+17
19303.0	6.966943867207679e+17
19304.0	6.965567430153556e+17
19305.0	6.964201322971136e+17
19306.0	6.962813598345897e+17
19307.0	6.961402582051498e+17
19308.0	6.960021299178153e+17
19309.0	6.958587713333929e+17
19310.0	6.957154748945747e+17
19311.0	6.955829306938708e+17
19312.0	6.954425972512084e+17
19313.0	6.952890932745556e+17
19314.0	6.951259811261097e+17
19315.0	6.949879257497599e+17
19316.0	6.948830208939348e+17
19317.0	6.947419514208255e+17
19318.0	6.946005554211498e+17
19319.0	6.944600201625599e+17
19320.0	6.943146976651946e+17
19321.0	6.941766799676756e+17
19322.0	6.940280610968916e+17
19323.0	6.938895114218154e+17
19324.0	6.937498120880127e+17
19325.0	6.936039027376127e+17
19326.0	6.934638810715476e+17
19327.0	6.933198934813353e+17
19328.0	6.931767832696148e+17
19329.0	6.930327460468051e+17
19330.0	6.928868442461523e+17
19331.0	6.92742045896977e+17
19332.0	6.925984366329855e+17
19333.0	6.924518936630612e+17
19334.0	6.923015549878271e+17
19335.0	6.921600641269759e+17
19336.0	6.920132865556479e+17
19337.0	6.918657025594708e+17
19338.0	6.917109437169663e+17
19339.0	6.915703997901482e+17
19340.0	6.914201792544767e+17
19341.0	6.912727717685929e+17
19342.0	6.911071874274644e+17
19343.0	6.909729426462036e+17
19344.0	6.908221103712938e+17
19345.0	6.905976596725757e+17
19346.0	6.904991312074068e+17
19347.0	6.903627734056959e+17
19348.0	6.902121277074089e+17
19349.0	6.90057136640273e+17
19350.0	6.899022795811497e+17
19351.0	6.89746205544721e+17
19352.0	6.895876519056723e+17
19353.0	6.894327733856937e+17
19354.0	6.89274190246707e+17
19355.0	6.891118186725375e+17
19356.0	6.889550894858237e+17
19357.0	6.887935611764736e+17
19358.0	6.886279859230036e+17
19359.0	6.884455825626452e+17
19360.0	6.88302208459298e+17
19361.0	6.881348648872617e+17
19362.0	6.87970738905634e+17
19363.0	6.878020883185663e+17
19364.0	6.876316956273321e+17
19365.0	6.874604612790953e+17
19366.0	6.872876576320169e+17
19367.0	6.871129738182655e+17
19368.0	6.86936533569809e+17
19369.0	6.867502966854995e+17
19370.0	6.865264760411475e+17
19371.0	6.863923264006825e+17
19372.0	6.862099626065917e+17
19373.0	6.860229039882239e+17
19374.0	6.858354341882537e+17
19375.0	6.856436318819668e+17
19376.0	6.854493729718271e+17
19377.0	6.852524191514623e+17
19378.0	6.850525303668733e+17
19379.0	6.848480634295636e+17
19380.0	6.846416532712105e+17
19381.0	6.844313768034303e+17
19382.0	6.842131763167232e+17
19383.0	6.839940825131689e+17
19384.0	6.837764858664276e+17
19385.0	6.835502300790784e+17
19386.0	6.833195967665491e+17
19387.0	6.830833793673897e+17
19388.0	6.828414686199807e+17
19389.0	6.825948063552852e+17
19390.0	6.823410890615465e+17
19391.0	6.8193932059607e+17
19392.0	6.818155262727508e+17
19393.0	6.815428964428457e+17
19394.0	6.812619133069993e+17
19395.0	6.80973107864098e+17
19396.0	6.806751699533823e+17
19397.0	6.803654698860543e+17
19398.0	6.800452236607487e+17
19399.0	6.796945513250815e+17
19400.0	6.793762966252202e+17
19401.0	6.790250356888916e+17
19402.0	6.786584194056191e+17
19403.0	6.782782843912191e+17
19404.0	6.778831954247679e+17
19405.0	6.774670785249277e+17
19406.0	6.770373725694633e+17
19407.0	6.765865473146879e+17
19408.0	6.760919165392212e+17
19409.0	6.756153423123796e+17
19410.0	6.751018389165395e+17
19411.0	6.745591653946708e+17
19412.0	6.739852501800276e+17
19413.0	6.733820820717567e+17
19414.0	6.727475969829545e+17
19415.0	6.720654359396351e+17
19416.0	6.713544765953364e+17
19417.0	6.706007116524201e+17
19418.0	6.698058748963497e+17
19419.0	6.689429213151232e+17
19420.0	6.680325641295188e+17
19421.0	6.67062104035601e+17
19422.0	6.660061268366675e+17
19423.0	6.648963119710205e+17
19424.0	6.636914988460714e+17
19425.0	6.624335231975423e+17
19426.0	6.610734045025619e+17
19427.0	6.596031091310591e+17
19428.0	6.580248002953215e+17
19429.0	6.562884639260671e+17
19430.0	6.543965476093952e+17
19431.0	6.52285755662882e+17
19432.0	6.500829444614825e+17
19433.0	6.478099999533738e+17
19434.0	6.453368490120532e+17
19435.0	6.426233464160255e+17
19436.0	6.396035994397354e+17
19437.0	6.362587042152447e+17
19438.0	6.322750695494995e+17
19439.0	6.283566563109548e+17
19440.0	6.242226336169983e+17
19441.0	6.196226499630418e+17
19442.0	6.143750420736684e+17
19443.0	6.0826305705629e+17
19444.0	6.018062708899837e+17
19445.0	5.947418364695896e+17
19446.0	5.864095430126248e+17
19447.0	5.771157594701819e+17
19448.0	5.660652191001264e+17
19449.0	5.5076029405156685e+17
19450.0	5.143180198543327e+17
19451.0	5.0003415687058746e+17
19452.0	5.355066654807388e+17
19453.0	5.59384343644297e+17
19454.0	5.714047311107406e+17
19455.0	5.811812232593405e+17
19456.0	5.898354247248557e+17
19457.0	5.972292592992253e+17
19458.0	6.035857145681238e+17
19459.0	6.097869604563625e+17
19460.0	6.15189288810359e+17
19461.0	6.198386399117311e+17
19462.0	6.239451176326486e+17
19463.0	6.27722515854131e+17
19464.0	6.315075325394944e+17
19465.0	6.34828276891648e+17
19466.0	6.377325794951165e+17
19467.0	6.403449838458195e+17
19468.0	6.426685589858985e+17
19469.0	6.447165085843453e+17
19470.0	6.46745608421376e+17
19471.0	6.486777443385343e+17
19472.0	6.503946869451434e+17
19473.0	6.519320926486527e+17
19474.0	6.533369166124374e+17
19475.0	6.545735980591784e+17
19476.0	6.557400547633833e+17
19477.0	6.567900243208876e+17
19478.0	6.577501877480105e+17
19479.0	6.586511731807572e+17
19480.0	6.594644081115135e+17
19481.0	6.6021493323421e+17
19482.0	6.608881218224128e+17
19483.0	6.615144843618985e+17
19484.0	6.620851053002751e+17
19485.0	6.625931033225897e+17
19486.0	6.630633429620052e+17
19487.0	6.634937544693075e+17
19488.0	6.638914880143359e+17
19489.0	6.642441464228522e+17
19490.0	6.645301042129577e+17
19491.0	6.648670944493567e+17
19492.0	6.651376550892884e+17
19493.0	6.653830934560767e+17
19494.0	6.656053810823167e+17
19495.0	6.657982926422015e+17
19496.0	6.65969297072674e+17
19497.0	6.661437286689449e+17
19498.0	6.662848719618047e+17
19499.0	6.66180366194005e+17
19500.0	6.665304297264468e+17
19501.0	6.666304150132052e+17
19502.0	6.667162132064937e+17
19503.0	6.667915626894676e+17
19504.0	6.668523621318655e+17
19505.0	6.66907433902626e+17
19506.0	6.669549963313151e+17
19507.0	6.669883444734633e+17
19508.0	6.670147755092649e+17
19509.0	6.67032643244305e+17
19510.0	6.670365405915817e+17
19511.0	6.66904251544371e+17
19512.0	6.670157134954495e+17
19513.0	6.66961145180979e+17
19514.0	6.669784998827348e+17
19515.0	6.669836825744726e+17
19516.0	6.669767053497684e+17
19517.0	6.669461630571859e+17
19518.0	6.669143657589418e+17
19519.0	6.668759483809791e+17
19520.0	6.668326107348991e+17
19521.0	6.66787614101777e+17
19522.0	6.667367737546068e+17
19523.0	6.666875164775763e+17
19524.0	6.666315004291753e+17
19525.0	6.665696054345727e+17
19526.0	6.665101108401491e+17
19527.0	6.664468514384553e+17
19528.0	6.663801529171965e+17
19529.0	6.663111486472191e+17
19530.0	6.662396540791465e+17
19531.0	6.661660000736596e+17
19532.0	6.660901659388585e+17
19533.0	6.660125390886227e+17
19534.0	6.659329281228797e+17
19535.0	6.658511289188351e+17
19536.0	6.657672817759572e+17
19537.0	6.656842615401129e+17
19538.0	6.655970685310292e+17
19539.0	6.654910008044202e+17
19540.0	6.654212163239935e+17
19541.0	6.65332137276211e+17
19542.0	6.65240551502643e+17
19543.0	6.651481396609021e+17
19544.0	6.650545444661929e+17
19545.0	6.649483824376489e+17
19546.0	6.648314983000745e+17
19547.0	6.647664403109204e+17
19548.0	6.646703610396672e+17
19549.0	6.64568045048081e+17
19550.0	6.644728127466154e+17
19551.0	6.643727281247571e+17
19552.0	6.642717088022527e+17
19553.0	6.641693447858857e+17
19554.0	6.640662426419199e+17
19555.0	6.639639281882452e+17
19556.0	6.638606969995261e+17
19557.0	6.637561270588755e+17
19558.0	6.63651180469726e+17
19559.0	6.635439063913812e+17
19560.0	6.634384068531539e+17
19561.0	6.633317618505044e+17
19562.0	6.63225569972497e+17
19563.0	6.631170383719082e+17
19564.0	6.630098560789162e+17
19565.0	6.629013642543104e+17
19566.0	6.627912590207658e+17
19567.0	6.62682241999394e+17
19568.0	6.625718822415017e+17
19569.0	6.624620275477161e+17
19570.0	6.623524186401449e+17
19571.0	6.622414421098495e+17
19572.0	6.621298788663295e+17
19573.0	6.620190473191423e+17
19574.0	6.619035958859091e+17
19575.0	6.617950946940244e+17
19576.0	6.616830340060499e+17
19577.0	6.61564506050833e+17
19578.0	6.614557320893779e+17
19579.0	6.613427940229119e+17
19580.0	6.612294749738324e+17
19581.0	6.611160670055082e+17
19582.0	6.610026821058559e+17
19583.0	6.608884516345172e+17
19584.0	6.607739747478185e+17
19585.0	6.606551420764159e+17
19586.0	6.605376210337791e+17
19587.0	6.604256175281491e+17
19588.0	6.602960151423658e+17
19589.0	6.601944941111977e+17
19590.0	6.600803490638505e+17
19591.0	6.599675438869161e+17
19592.0	6.598516254878378e+17
19593.0	6.597348088086527e+17
19594.0	6.596104599983444e+17
19595.0	6.595022745676457e+17
19596.0	6.593423455464106e+17
19597.0	6.59269271752977e+17
19598.0	6.5914478802589e+17
19599.0	6.590362413258067e+17
19600.0	6.589195599828308e+17
19601.0	6.588000742582954e+17
19602.0	6.586838588325887e+17
19603.0	6.585521903326548e+17
19604.0	6.584486733021183e+17
19605.0	6.583220065796095e+17
19606.0	6.582141871718399e+17
19607.0	6.580979576952148e+17
19608.0	6.579795466212691e+17
19609.0	6.578603398878548e+17
19610.0	6.577444516877652e+17
19611.0	6.576262782910464e+17
19612.0	6.575083836058282e+17
19613.0	6.573895456915455e+17
19614.0	6.572704238927871e+17
19615.0	6.571537494704128e+17
19616.0	6.570342127850835e+17
19617.0	6.569168824434687e+17
19618.0	6.567817567185577e+17
19619.0	6.566566010639699e+17
19620.0	6.565396394016765e+17
19621.0	6.564428349352618e+17
19622.0	6.563241619969364e+17
19623.0	6.562054458572799e+17
19624.0	6.560862823951017e+17
19625.0	6.559678149776724e+17
19626.0	6.558490034175999e+17
19627.0	6.55730104406289e+17
19628.0	6.556073699136852e+17
19629.0	6.554890344071167e+17
19630.0	6.553706592643753e+17
19631.0	6.550736684275027e+17
19632.0	6.551349514731519e+17
19633.0	6.550145278323369e+17
19634.0	6.548967201789267e+17
19635.0	6.547760244675924e+17
19636.0	6.546581896910164e+17
19637.0	6.545236626330964e+17
19638.0	6.544197228167165e+17
19639.0	6.543000788970154e+17
19640.0	6.541789864045225e+17
19641.0	6.540443300921343e+17
19642.0	6.539423604102484e+17
19643.0	6.538221341813417e+17
19644.0	6.537019144536063e+17
19645.0	6.53575750558242e+17
19646.0	6.534654117718697e+17
19647.0	6.533460123101865e+17
19648.0	6.532265943935657e+17
19649.0	6.531070544926035e+17
19650.0	6.529877307381076e+17
19651.0	6.528679988778324e+17
19652.0	6.527487434205865e+17
19653.0	6.526292748926976e+17
19654.0	6.525094873879891e+17
19655.0	6.523902411582121e+17
19656.0	6.522706306531327e+17
19657.0	6.521513403831636e+17
19658.0	6.520318299122346e+17
19659.0	6.519123438381738e+17
19660.0	6.517928927865514e+17
19661.0	6.516733814068563e+17
19662.0	6.515538700271615e+17
19663.0	6.514328430357161e+17
19664.0	6.513138210613929e+17
19665.0	6.511953268703231e+17
19666.0	6.510752698815827e+17
