# Flux units: erg / (cm m2 s)
# Wavelength units: Angstrom
wave	flux
19000.0	3.1209119893422074e+17
19001.0	3.120224757874688e+17
19002.0	3.119775184759466e+17
19003.0	3.119200903451989e+17
19004.0	3.1186109480304634e+17
19005.0	3.118037165845162e+17
19006.0	3.1173392605730125e+17
19007.0	3.116925130025642e+17
19008.0	3.116271124436309e+17
19009.0	3.1156181684715514e+17
19010.0	3.1145736983456416e+17
19011.0	3.114587691242837e+17
19012.0	3.1138697225175034e+17
19013.0	3.113498023297023e+17
19014.0	3.112874198870698e+17
19015.0	3.1122865450734925e+17
19016.0	3.11169127092497e+17
19017.0	3.111223234134016e+17
19018.0	3.110636845618517e+17
19019.0	3.1100507353251834e+17
19020.0	3.1095019449002656e+17
19021.0	3.1089495882683725e+17
19022.0	3.108376492900352e+17
19023.0	3.107774156592469e+17
19024.0	3.1071933832014496e+17
19025.0	3.1066674290141856e+17
19026.0	3.1060698867957754e+17
19027.0	3.1054484842304845e+17
19028.0	3.104977607196672e+17
19029.0	3.104388051282602e+17
19030.0	3.103850183873877e+17
19031.0	3.1032882254315514e+17
19032.0	3.10270686204177e+17
19033.0	3.1020421379085645e+17
19034.0	3.101572884769451e+17
19035.0	3.1009837933745485e+17
19036.0	3.0915719310868474e+17
19037.0	3.0998800629759994e+17
19038.0	3.099297410886314e+17
19039.0	3.098743964783957e+17
19040.0	3.098194048887466e+17
19041.0	3.0976155372748794e+17
19042.0	3.0966056928761165e+17
19043.0	3.0965002197620045e+17
19044.0	3.0959210936838816e+17
19045.0	3.0953641869311994e+17
19046.0	3.0947184811704314e+17
19047.0	3.0942066201941325e+17
19048.0	3.0933176074021536e+17
19049.0	3.0923405201681056e+17
19050.0	3.092467336347648e+17
19051.0	3.090859368469844e+17
19052.0	3.0911886706169165e+17
19053.0	3.090855669443242e+17
19054.0	3.0902856072560634e+17
19055.0	3.089327320290646e+17
19056.0	3.089086104469504e+17
19057.0	3.088592771132074e+17
19058.0	3.087654060031999e+17
19059.0	3.08731849019665e+17
19060.0	3.0868809526367565e+17
19061.0	3.0863485004240205e+17
19062.0	3.08577946304512e+17
19063.0	3.085217424911018e+17
19064.0	3.0845018238702925e+17
19065.0	3.083903499414186e+17
19066.0	3.083336809447424e+17
19067.0	3.08295744094208e+17
19068.0	3.082409955994282e+17
19069.0	3.0818497916654925e+17
19070.0	3.081253723045888e+17
19071.0	3.0807175749522765e+17
19072.0	3.0800182726273696e+17
19073.0	3.0795978705469434e+17
19074.0	3.0790435558741325e+17
19075.0	3.0784823384255136e+17
19076.0	3.07781309108497e+17
19077.0	3.0773319156367354e+17
19078.0	3.076740639708501e+17
19079.0	3.076233554995882e+17
19080.0	3.0756582415400954e+17
19081.0	3.0750622229026125e+17
19082.0	3.0745056268779514e+17
19083.0	3.073900880942421e+17
19084.0	3.073211227613866e+17
19085.0	3.07285619446033e+17
19086.0	3.0717625352847354e+17
19087.0	3.071262849324373e+17
19088.0	3.070941224151722e+17
19089.0	3.0703607003217914e+17
19090.0	3.0700539900941645e+17
19091.0	3.0694431285138765e+17
19092.0	3.068619063121237e+17
19093.0	3.0684041417413965e+17
19094.0	3.0678207329293645e+17
19095.0	3.067135558418432e+17
19096.0	3.0665560237451936e+17
19097.0	3.066014219982165e+17
19098.0	3.065301034161493e+17
19099.0	3.064719656441173e+17
19100.0	3.06429415198993e+17
19101.0	3.0637708667781114e+17
19102.0	3.063045997024597e+17
19103.0	3.0626645072500045e+17
19104.0	3.0621146829291514e+17
19105.0	3.061231763761835e+17
19106.0	3.06096133181713e+17
19107.0	3.060335913555285e+17
19108.0	3.0597720813076474e+17
19109.0	3.0588714258268154e+17
19110.0	3.0587593480820045e+17
19111.0	3.0581225933154976e+17
19112.0	3.05747652579601e+17
19113.0	3.057094477479936e+17
19114.0	3.0564852572706125e+17
19115.0	3.0558367881625594e+17
19116.0	3.0553742609394336e+17
19117.0	3.0548541522138445e+17
19118.0	3.0541911134917965e+17
19119.0	3.035459700654057e+17
19120.0	3.0531405958785696e+17
19121.0	3.0526094879402656e+17
19122.0	3.0521029610700794e+17
19123.0	3.051548052903253e+17
19124.0	3.0509655374779725e+17
19125.0	3.050431390766421e+17
19126.0	3.0498838705165645e+17
19127.0	3.0468850843647994e+17
19128.0	3.048742818152448e+17
19129.0	3.0481384975892474e+17
19130.0	3.047642079341226e+17
19131.0	3.047105163340458e+17
19132.0	3.046550968904362e+17
19133.0	3.045912216950101e+17
19134.0	3.0454358247560525e+17
19135.0	3.0448908043113805e+17
19136.0	3.044342468269397e+17
19137.0	3.043577696354303e+17
19138.0	3.04321589219601e+17
19139.0	3.0426830740302496e+17
19140.0	3.04213201064209e+17
19141.0	3.041578258705067e+17
19142.0	3.040994836261546e+17
19143.0	3.040397249303894e+17
19144.0	3.0398737652121594e+17
19145.0	3.039364494218581e+17
19146.0	3.038093023816363e+17
19147.0	3.0380163743088634e+17
19148.0	3.037564484889258e+17
19149.0	3.0370068168703994e+17
19150.0	3.036596466439509e+17
19151.0	3.036050215316138e+17
19152.0	3.035494083810645e+17
19153.0	3.034696931868671e+17
19154.0	3.0341985513854285e+17
19155.0	3.033851028133205e+17
19156.0	3.0332992076731725e+17
19157.0	3.0326532275350176e+17
19158.0	3.0317286085973325e+17
19159.0	3.0315825657282554e+17
19160.0	3.0310796725234336e+17
19161.0	3.030543297587882e+17
19162.0	3.029297433062059e+17
19163.0	3.029430671420074e+17
19164.0	3.028890428637184e+17
19165.0	3.0280481519261005e+17
19166.0	3.027593533063167e+17
19167.0	3.0271110087966714e+17
19168.0	3.02668664274944e+17
19169.0	3.026123028955136e+17
19170.0	3.0256004564254714e+17
19171.0	3.024999385399296e+17
19172.0	3.024500328934058e+17
19173.0	3.023949955159381e+17
19174.0	3.0233210849853434e+17
19175.0	3.0228494445882016e+17
19176.0	3.022304324179285e+17
19177.0	3.0215732839055354e+17
19178.0	3.02111429038353e+17
19179.0	3.020504892265813e+17
19180.0	3.0201059989258234e+17
19181.0	3.019335216223573e+17
19182.0	3.018959547094357e+17
19183.0	3.0184712000853325e+17
19184.0	3.017886658811221e+17
19185.0	3.0173629405375136e+17
19186.0	3.0168265554657274e+17
19187.0	3.016213653007018e+17
19188.0	3.0157120317248845e+17
19189.0	3.015190358523903e+17
19190.0	3.014641169290581e+17
19191.0	3.0140369923822925e+17
19192.0	3.013547973236053e+17
19193.0	3.0129633613578234e+17
19194.0	3.012388506479274e+17
19195.0	3.011908260418901e+17
19196.0	3.011343009797461e+17
19197.0	3.010808488394752e+17
19198.0	3.010274250107562e+17
19199.0	3.005468141857449e+17
19200.0	3.006239043398316e+17
19201.0	3.008626107787947e+17
19202.0	3.008091509140138e+17
19203.0	3.0075331081666554e+17
19204.0	3.0069659117376845e+17
19205.0	3.006442912088064e+17
19206.0	3.005886556886357e+17
19207.0	3.005208983153322e+17
19208.0	3.0044849134632954e+17
19209.0	3.004260653116074e+17
19210.0	3.0037189584049485e+17
19211.0	3.003181635556693e+17
19212.0	3.0026399460884474e+17
19213.0	3.001982657407658e+17
19214.0	3.001377067368448e+17
19215.0	3.000997898442069e+17
19216.0	3.00047052378385e+17
19217.0	2.999920978733738e+17
19218.0	2.998332402521427e+17
19219.0	2.998690986852351e+17
19220.0	2.9982678039483725e+17
19221.0	2.997342611439616e+17
19222.0	2.99719648678161e+17
19223.0	2.996641950509738e+17
19224.0	2.9960760364892154e+17
19225.0	2.9953790745859405e+17
19226.0	2.9950147496509434e+17
19227.0	2.994476419820202e+17
19228.0	2.9939567043106125e+17
19229.0	2.993414060638208e+17
19230.0	2.992862236333397e+17
19231.0	2.992317463702186e+17
19232.0	2.991778806016682e+17
19233.0	2.99116837470208e+17
19234.0	2.9906755810317645e+17
19235.0	2.99013037883392e+17
19236.0	2.989624275937962e+17
19237.0	2.9890578799220045e+17
19238.0	2.98841863164177e+17
19239.0	2.9880006730929485e+17
19240.0	2.9874421529313274e+17
19241.0	2.986891439068501e+17
19242.0	2.986357866976597e+17
19243.0	2.9856708137669965e+17
19244.0	2.9852965381952845e+17
19245.0	2.98474292641792e+17
19246.0	2.984196889553578e+17
19247.0	2.9836686082266445e+17
19248.0	2.9831403622017696e+17
19249.0	2.9825889552302074e+17
19250.0	2.9819913263295136e+17
19251.0	2.9813223191128736e+17
19252.0	2.980704264301226e+17
19253.0	2.980405480609109e+17
19254.0	2.97990261117201e+17
19255.0	2.979171595714559e+17
19256.0	2.9787617506973005e+17
19257.0	2.978285561926997e+17
19258.0	2.9777485431657805e+17
19259.0	2.977136877677226e+17
19260.0	2.9764482746722976e+17
19261.0	2.9761183517682336e+17
19262.0	2.9755300730197325e+17
19263.0	2.974961709525674e+17
19264.0	2.973751785291775e+17
19265.0	2.9736765401770656e+17
19266.0	2.9729062387712e+17
19267.0	2.9729080814687565e+17
19268.0	2.9723631543473485e+17
19269.0	2.9718291278725114e+17
19270.0	2.971293953206954e+17
19271.0	2.9702778100121606e+17
19272.0	2.970177701762389e+17
19273.0	2.9688156522195616e+17
19274.0	2.968448472711167e+17
19275.0	2.9686128474849274e+17
19276.0	2.9680519652311034e+17
19277.0	2.967524070828714e+17
19278.0	2.966985272634026e+17
19279.0	2.96643688730897e+17
19280.0	2.965811287293952e+17
19281.0	2.9653741600767994e+17
19282.0	2.9648612617093114e+17
19283.0	2.9642609197929805e+17
19284.0	2.9637675291333965e+17
19285.0	2.9630445401757005e+17
19286.0	2.962675599758677e+17
19287.0	2.962183263966549e+17
19288.0	2.95897500308821e+17
19289.0	2.95546673552861e+17
19290.0	2.960580120936448e+17
19291.0	2.959765951305045e+17
19292.0	2.959507732125013e+17
19293.0	2.958967503672661e+17
19294.0	2.9584294887642445e+17
19295.0	2.957907700918954e+17
19296.0	2.9572300342121805e+17
19297.0	2.956772532813824e+17
19298.0	2.956271456441685e+17
19299.0	2.955609745216853e+17
19300.0	2.955206470227285e+17
19301.0	2.954697067462656e+17
19302.0	2.9541457775820794e+17
19303.0	2.9535481416908794e+17
19304.0	2.953063623731883e+17
19305.0	2.952547828847957e+17
19306.0	2.9520285317201914e+17
19307.0	2.951440506028032e+17
19308.0	2.950935018646186e+17
19309.0	2.9502591502472525e+17
19310.0	2.949678308698794e+17
19311.0	2.94931797184785e+17
19312.0	2.948829252594347e+17
19313.0	2.9483121948753914e+17
19314.0	2.921302840748736e+17
19315.0	2.921761625953641e+17
19316.0	2.946504501581142e+17
19317.0	2.946166852769109e+17
19318.0	2.945638021289301e+17
19319.0	2.94512025473297e+17
19320.0	2.944521625490773e+17
19321.0	2.9439375693578234e+17
19322.0	2.943440169642666e+17
19323.0	2.94292614615313e+17
19324.0	2.942461121571499e+17
19325.0	2.941780572678826e+17
19326.0	2.941408349170346e+17
19327.0	2.940848040487594e+17
19328.0	2.940062975830699e+17
19329.0	2.939819486696789e+17
19330.0	2.9392400736583674e+17
19331.0	2.9387039678573216e+17
19332.0	2.9382229996776096e+17
19333.0	2.937682814216874e+17
19334.0	2.937146641306965e+17
19335.0	2.936076386347691e+17
19336.0	2.936086148939775e+17
19337.0	2.9355743194207565e+17
19338.0	2.9347950247280634e+17
19339.0	2.9345164638726816e+17
19340.0	2.933583482890922e+17
19341.0	2.9331193247825914e+17
19342.0	2.932362774402388e+17
19343.0	2.932402949543253e+17
19344.0	2.931669937597098e+17
19345.0	2.928518321143803e+17
19346.0	2.929458973857107e+17
19347.0	2.929945164294826e+17
19348.0	2.929765408309247e+17
19349.0	2.9292012419153914e+17
19350.0	2.928584755074389e+17
19351.0	2.928132109281962e+17
19352.0	2.927281999009109e+17
19353.0	2.9271214123909114e+17
19354.0	2.926603584318122e+17
19355.0	2.9259626848802125e+17
19356.0	2.9255477409873914e+17
19357.0	2.925024297790122e+17
19358.0	2.9244882639912954e+17
19359.0	2.9238202899715405e+17
19360.0	2.92318108258577e+17
19361.0	2.9228697680609274e+17
19362.0	2.922392763498496e+17
19363.0	2.9218625458012154e+17
19364.0	2.9213315504100685e+17
19365.0	2.9208076426936314e+17
19366.0	2.920286704544426e+17
19367.0	2.919762344891733e+17
19368.0	2.919237805233493e+17
19369.0	2.9186461755856205e+17
19370.0	2.918095896532309e+17
19371.0	2.917601125247658e+17
19372.0	2.9171346036490234e+17
19373.0	2.916587936590506e+17
19374.0	2.9160798284677114e+17
19375.0	2.9155568976745805e+17
19376.0	2.9150380346572794e+17
19377.0	2.914500644001109e+17
19378.0	2.9139806198606496e+17
19379.0	2.913460865903274e+17
19380.0	2.91293632729361e+17
19381.0	2.9124077285976736e+17
19382.0	2.9118147253152416e+17
19383.0	2.911228115550208e+17
19384.0	2.910813551940949e+17
19385.0	2.910314863525888e+17
19386.0	2.9097982615879674e+17
19387.0	2.9092752486563834e+17
19388.0	2.908744036909056e+17
19389.0	2.9081995480924154e+17
19390.0	2.9076761922764794e+17
19391.0	2.899051382046709e+17
19392.0	2.906407183930708e+17
19393.0	2.9061038826236576e+17
19394.0	2.905566592980308e+17
19395.0	2.904960613919402e+17
19396.0	2.904494413185024e+17
19397.0	2.9040104859238394e+17
19398.0	2.903377320782506e+17
19399.0	2.901805446288725e+17
19400.0	2.9022636247176525e+17
19401.0	2.9019046412288e+17
19402.0	2.901392967248554e+17
19403.0	2.9008472362188794e+17
19404.0	2.900344422356309e+17
19405.0	2.8998047709702816e+17
19406.0	2.89928929939729e+17
19407.0	2.8986752686708045e+17
19408.0	2.897093872058369e+17
19409.0	2.8977133746039456e+17
19410.0	2.897209368859989e+17
19411.0	2.8966626682470394e+17
19412.0	2.896121024916138e+17
19413.0	2.895502334317909e+17
19414.0	2.8950265121996794e+17
19415.0	2.89453660246289e+17
19416.0	2.893817580268202e+17
19417.0	2.893417926011562e+17
19418.0	2.892979851580757e+17
19419.0	2.892452141028693e+17
19420.0	2.891930267899221e+17
19421.0	2.891405985841152e+17
19422.0	2.890824862575274e+17
19423.0	2.8903379832231245e+17
19424.0	2.8898170845702816e+17
19425.0	2.889290825946453e+17
19426.0	2.8887602283151354e+17
19427.0	2.8882052006106445e+17
19428.0	2.887689609849514e+17
19429.0	2.8871489392476154e+17
19430.0	2.886426602154667e+17
19431.0	2.884668420871511e+17
19432.0	2.8855295478333434e+17
19433.0	2.8849710332641274e+17
19434.0	2.8844123393884154e+17
19435.0	2.8836350142709754e+17
19436.0	2.882565453119487e+17
19437.0	2.882695764552362e+17
19438.0	2.8637525278283168e+17
19439.0	2.880512487762603e+17
19440.0	2.8807496081954128e+17
19441.0	2.8800746268917754e+17
19442.0	2.8793165553773222e+17
19443.0	2.8784395708006397e+17
19444.0	2.8774135699428685e+17
19445.0	2.8760972543918074e+17
19446.0	2.8741828821210448e+17
19447.0	2.870985284561578e+17
19448.0	2.8639541046804486e+17
19449.0	2.796335835818678e+17
19450.0	2.315460767208773e+17
19451.0	2.0422338382834275e+17
19452.0	2.4672491134429814e+17
19453.0	2.8350504613096272e+17
19454.0	2.863243073683455e+17
19455.0	2.867772152698197e+17
19456.0	2.8694404898925222e+17
19457.0	2.870157705740287e+17
19458.0	2.772879437813187e+17
19459.0	2.8636008306879494e+17
19460.0	2.870127485430442e+17
19461.0	2.8698512656957437e+17
19462.0	2.8694864276575574e+17
19463.0	2.869109465983659e+17
19464.0	2.8686836710768637e+17
19465.0	2.8682741710411088e+17
19466.0	2.8677306105637542e+17
19467.0	2.867355156392618e+17
19468.0	2.866890745227946e+17
19469.0	2.8657323452224842e+17
19470.0	2.8659133832669862e+17
19471.0	2.8654509574062074e+17
19472.0	2.8648934141678928e+17
19473.0	2.8643771593086285e+17
19474.0	2.8637573586179408e+17
19475.0	2.8621117150549315e+17
19476.0	2.8628440922630822e+17
19477.0	2.8624262445137914e+17
19478.0	2.861964012290048e+17
19479.0	2.8612521106254496e+17
19480.0	2.8609235012375888e+17
19481.0	2.8603235892374182e+17
19482.0	2.8599184271605757e+17
19483.0	2.8594447920223568e+17
19484.0	2.858922270173866e+17
19485.0	2.85834357051665e+17
19486.0	2.8576371176024746e+17
19487.0	2.8573977885190822e+17
19488.0	2.8569103174205437e+17
19489.0	2.8561678882133328e+17
19490.0	2.8538111004071232e+17
19491.0	2.855342555441834e+17
19492.0	2.8548794501038077e+17
19493.0	2.8543712014718288e+17
19494.0	2.8538547351497382e+17
19495.0	2.853344438648832e+17
19496.0	2.8521567106717e+17
19497.0	2.8522903188275197e+17
19498.0	2.8505857994697382e+17
19499.0	2.8383447777716877e+17
19500.0	2.850793186481493e+17
19501.0	2.8503146779115517e+17
19502.0	2.8498099308243622e+17
19503.0	2.8493064682427728e+17
19504.0	2.8487993996083194e+17
19505.0	2.8482836969990822e+17
19506.0	2.8477839614061216e+17
19507.0	2.84723711643921e+17
19508.0	2.8467700418914986e+17
19509.0	2.8462578254479354e+17
19510.0	2.845440347559253e+17
19511.0	2.803549777603228e+17
19512.0	2.8425024609539392e+17
19513.0	2.8402090592174026e+17
19514.0	2.8408907800685187e+17
19515.0	2.8425365204500486e+17
19516.0	2.8426403822523734e+17
19517.0	2.8420813287150928e+17
19518.0	2.8416267269789008e+17
19519.0	2.8411048402179408e+17
19520.0	2.840441523972778e+17
19521.0	2.8401555371021648e+17
19522.0	2.8395879813611514e+17
19523.0	2.839082516698453e+17
19524.0	2.8384987349428906e+17
19525.0	2.8381093853921274e+17
19526.0	2.837621612653226e+17
19527.0	2.8370934152123725e+17
19528.0	2.8365791114035197e+17
19529.0	2.8360624675225594e+17
19530.0	2.835593960620031e+17
19531.0	2.835085471514624e+17
19532.0	2.8345802340433917e+17
19533.0	2.8340734443301546e+17
19534.0	2.8335622233347408e+17
19535.0	2.833041476026367e+17
19536.0	2.8325044366431568e+17
19537.0	2.8320435700148902e+17
19538.0	2.8311597906657283e+17
19539.0	2.8302789169206614e+17
19540.0	2.8304959672593062e+17
19541.0	2.8299819011276797e+17
19542.0	2.8294916352245754e+17
19543.0	2.8288140380733437e+17
19544.0	2.8284848121227946e+17
19545.0	2.827294854523562e+17
19546.0	2.8262624108653222e+17
19547.0	2.8269917793594022e+17
19548.0	2.8264802067415037e+17
19549.0	2.8258759672681808e+17
19550.0	2.8254733032488957e+17
19551.0	2.8249726879006714e+17
19552.0	2.8244653123829757e+17
19553.0	2.8239272209285117e+17
19554.0	2.8233982143365117e+17
19555.0	2.8229157959761914e+17
19556.0	2.8224371937334608e+17
19557.0	2.821939636032853e+17
19558.0	2.8214364778878285e+17
19559.0	2.8209362197544957e+17
19560.0	2.8203392203489274e+17
19561.0	2.8198993437655034e+17
19562.0	2.819352423650645e+17
19563.0	2.8189253351505917e+17
19564.0	2.8184225509976742e+17
19565.0	2.8179164208387414e+17
19566.0	2.8173775925848742e+17
19567.0	2.8169117903093754e+17
19568.0	2.8163874467348477e+17
19569.0	2.8158798597543248e+17
19570.0	2.8154040435780266e+17
19571.0	2.8148916320993274e+17
19572.0	2.8143651434878288e+17
19573.0	2.8138482891926176e+17
19574.0	2.8132948913247568e+17
19575.0	2.8128898403969702e+17
19576.0	2.8123770650624e+17
19577.0	2.8118184162754557e+17
19578.0	2.8113226684170234e+17
19579.0	2.8108466820218874e+17
19580.0	2.81035331408145e+17
19581.0	2.8098617884890448e+17
19582.0	2.8093833354936317e+17
19583.0	2.808882445768021e+17
19584.0	2.808366998661802e+17
19585.0	2.8077534562222077e+17
19586.0	2.8072163787407363e+17
19587.0	2.806851682609834e+17
19588.0	2.8057205309003098e+17
19589.0	2.8058527388576426e+17
19590.0	2.8051716873475408e+17
19591.0	2.804865180893183e+17
19592.0	2.804367880443221e+17
19593.0	2.8038367431447888e+17
19594.0	2.8030833842804045e+17
19595.0	2.8028144605375142e+17
19596.0	2.8022367755523405e+17
19597.0	2.8018560592773114e+17
19598.0	2.8004585720599882e+17
19599.0	2.8008690755829754e+17
19600.0	2.8003780197526182e+17
19601.0	2.799796089432747e+17
19602.0	2.799308658879146e+17
19603.0	2.798264746945193e+17
19604.0	2.798321518946986e+17
19605.0	2.797528262814378e+17
19606.0	2.7973759592475302e+17
19607.0	2.796885401141247e+17
19608.0	2.7963668366185808e+17
19609.0	2.79582351102225e+17
19610.0	2.795287715599701e+17
19611.0	2.7947424330110288e+17
19612.0	2.7943969723077968e+17
19613.0	2.793887670905514e+17
19614.0	2.793358790841685e+17
19615.0	2.792898757132287e+17
19616.0	2.792235005728085e+17
19617.0	2.7917340786032637e+17
19618.0	2.7905772955019933e+17
19619.0	2.789855879757822e+17
19620.0	2.7893953990055248e+17
19621.0	2.789732337232554e+17
19622.0	2.7894222173853008e+17
19623.0	2.788919026384895e+17
19624.0	2.7883973353581216e+17
19625.0	2.7879339220882765e+17
19626.0	2.7874300830679037e+17
19627.0	2.786941381290666e+17
19628.0	2.786324607838891e+17
19629.0	2.7853647749229222e+17
19630.0	2.7851380549659302e+17
19631.0	2.7803086435123203e+17
19632.0	2.7844570576322557e+17
19633.0	2.7839031274373117e+17
19634.0	2.7834682763291302e+17
19635.0	2.7828957283177808e+17
19636.0	2.782257030889471e+17
19637.0	2.7814347655522982e+17
19638.0	2.7814356033645216e+17
19639.0	2.7809765745404586e+17
19640.0	2.7802153576475312e+17
19641.0	2.777724022860462e+17
19642.0	2.7794858958301862e+17
19643.0	2.7789856768436902e+17
19644.0	2.7784380136379725e+17
19645.0	2.777632085114879e+17
19646.0	2.77729608536337e+17
19647.0	2.7770231099228154e+17
19648.0	2.7765402074699088e+17
19649.0	2.7760405152180902e+17
19650.0	2.7755549228182182e+17
19651.0	2.7750576104843946e+17
19652.0	2.7745609321895248e+17
19653.0	2.7740708718073168e+17
