# Flux units: erg / (cm m2 s)
# Wavelength units: Angstrom
wave	flux
19000.0	5.645907538913962e+17
19001.0	5.644814633314985e+17
19002.0	5.643804166062079e+17
19003.0	5.6427492496725325e+17
19004.0	5.641695173541888e+17
19005.0	5.6406460152326816e+17
19006.0	5.639596955489619e+17
19007.0	5.638439177289728e+17
19008.0	5.637468012762453e+17
19009.0	5.6364165084392096e+17
19010.0	5.635185476020905e+17
19011.0	5.6343186601847456e+17
19012.0	5.633054945749673e+17
19013.0	5.6322382651282765e+17
19014.0	5.631163705414996e+17
19015.0	5.63012159283746e+17
19016.0	5.629065439128234e+17
19017.0	5.628025924922025e+17
19018.0	5.626970377988777e+17
19019.0	5.625934123455828e+17
19020.0	5.6248725765707085e+17
19021.0	5.6238324604818765e+17
19022.0	5.6227880976602445e+17
19023.0	5.621723496622762e+17
19024.0	5.620683587452926e+17
19025.0	5.6196229744994976e+17
19026.0	5.6185613758846285e+17
19027.0	5.6173554596577274e+17
19028.0	5.616496163509589e+17
19029.0	5.615438132150271e+17
19030.0	5.614401844062889e+17
19031.0	5.61330503356689e+17
19032.0	5.612211814094164e+17
19033.0	5.611127253762047e+17
19034.0	5.610111244435455e+17
19035.0	5.6090287609828685e+17
19036.0	5.59535946063325e+17
19037.0	5.60696720883712e+17
19038.0	5.605919579351722e+17
19039.0	5.6048825237067085e+17
19040.0	5.60383694873122e+17
19041.0	5.6027879442131616e+17
19042.0	5.601705574006783e+17
19043.0	5.6006992933683194e+17
19044.0	5.599649343034709e+17
19045.0	5.5986004706372256e+17
19046.0	5.5975390460859725e+17
19047.0	5.596511278727168e+17
19048.0	5.595381784816298e+17
19049.0	5.594398326783999e+17
19050.0	5.593369299735892e+17
19051.0	5.59030754310007e+17
19052.0	5.591042867505834e+17
19053.0	5.59022846578961e+17
19054.0	5.589211294640809e+17
19055.0	5.5880608585700685e+17
19056.0	5.587110659271337e+17
19057.0	5.5860743089684474e+17
19058.0	5.585291412067668e+17
19059.0	5.584324116086783e+17
19060.0	5.583273011620521e+17
19061.0	5.582240923429547e+17
19062.0	5.581196188013908e+17
19063.0	5.580154738835456e+17
19064.0	5.579062084195668e+17
19065.0	5.5779985429189965e+17
19066.0	5.577003945514323e+17
19067.0	5.575981494435838e+17
19068.0	5.5749452706611194e+17
19069.0	5.5739041269678074e+17
19070.0	5.572850371701418e+17
19071.0	5.571780894086485e+17
19072.0	5.570746285817855e+17
19073.0	5.5697082508028576e+17
19074.0	5.5686677306627405e+17
19075.0	5.567627552358398e+17
19076.0	5.5665782472485536e+17
19077.0	5.565541961957375e+17
19078.0	5.564490778498388e+17
19079.0	5.5634673235831456e+17
19080.0	5.562422400122879e+17
19081.0	5.5613714305733965e+17
19082.0	5.560329951335764e+17
19083.0	5.559269622196905e+17
19084.0	5.558178299248639e+17
19085.0	5.557231408556715e+17
19086.0	5.556034367477077e+17
19087.0	5.55476875162419e+17
19088.0	5.5540794652972365e+17
19089.0	5.5528076264953165e+17
19090.0	5.552030883337556e+17
19091.0	5.550997449474048e+17
19092.0	5.5498587022295034e+17
19093.0	5.5489342797250554e+17
19094.0	5.547895017876137e+17
19095.0	5.54685764346402e+17
19096.0	5.545811249201151e+17
19097.0	5.544787384642218e+17
19098.0	5.543750993095337e+17
19099.0	5.542714423290538e+17
19100.0	5.541659009875967e+17
19101.0	5.5406373836772685e+17
19102.0	5.539568032590505e+17
19103.0	5.538575070265343e+17
19104.0	5.537541765027157e+17
19105.0	5.536503661505193e+17
19106.0	5.535399442470228e+17
19107.0	5.5344306099759776e+17
19108.0	5.533403352924158e+17
19109.0	5.531240012010834e+17
19110.0	5.5313085588220576e+17
19111.0	5.530298458570751e+17
19112.0	5.529269432920745e+17
19113.0	5.528236277978452e+17
19114.0	5.527202993012735e+17
19115.0	5.5264531954619706e+17
19116.0	5.527005099458558e+17
19117.0	5.525973368482474e+17
19118.0	5.524842565249706e+17
19119.0	5.5216539330150355e+17
19120.0	5.522765731157332e+17
19121.0	5.52177649127697e+17
19122.0	5.5208200305814176e+17
19123.0	5.519787371965097e+17
19124.0	5.5186910039681696e+17
19125.0	5.517716514755924e+17
19126.0	5.5166805538242554e+17
19127.0	5.514924474236926e+17
19128.0	5.513966841233407e+17
19129.0	5.513567153422335e+17
19130.0	5.512564085620734e+17
19131.0	5.5115185078490445e+17
19132.0	5.5105093534132896e+17
19133.0	5.509293921009664e+17
19134.0	5.508129991163903e+17
19135.0	5.507415919296511e+17
19136.0	5.5063932976496634e+17
19137.0	5.5052961537064954e+17
19138.0	5.5042888957952e+17
19139.0	5.503306041043625e+17
19140.0	5.5022784931867296e+17
19141.0	5.5012499491826336e+17
19142.0	5.500207789069652e+17
19143.0	5.499168495763455e+17
19144.0	5.498151449045674e+17
19145.0	5.497134600159232e+17
19146.0	5.49585025184563e+17
19147.0	5.495038121345023e+17
19148.0	5.494049154094419e+17
19149.0	5.493023069350571e+17
19150.0	5.491999486509055e+17
19151.0	5.490974616016213e+17
19152.0	5.489935115091968e+17
19153.0	5.488674280745641e+17
19154.0	5.4875732738484896e+17
19155.0	5.486597752138409e+17
19156.0	5.4855750801599136e+17
19157.0	5.484537157692073e+17
19158.0	5.482743818704211e+17
19159.0	5.482491240513535e+17
19160.0	5.4814568880974496e+17
19161.0	5.480394892421802e+17
19162.0	5.4776833629661875e+17
19163.0	5.478362974431913e+17
19164.0	5.477382194462719e+17
19165.0	5.476320474912085e+17
19166.0	5.4752432455243085e+17
19167.0	5.474144662235817e+17
19168.0	5.4732607098716154e+17
19169.0	5.472218902779221e+17
19170.0	5.4712411937396045e+17
19171.0	5.4701105540846925e+17
19172.0	5.4691875352739834e+17
19173.0	5.468168752114345e+17
19174.0	5.4671281543796045e+17
19175.0	5.4661299617573555e+17
19176.0	5.4651065991168e+17
19177.0	5.4640242855335245e+17
19178.0	5.463037110648831e+17
19179.0	5.461885170920105e+17
19180.0	5.460947478336853e+17
19181.0	5.459951402440019e+17
19182.0	5.4589624785305594e+17
19183.0	5.4579510437915296e+17
19184.0	5.456907463207594e+17
19185.0	5.455914337304575e+17
19186.0	5.4548982035469645e+17
19187.0	5.4538453940961274e+17
19188.0	5.452848660392617e+17
19189.0	5.4518101304497485e+17
19190.0	5.4507829656726176e+17
19191.0	5.4497661328643405e+17
19192.0	5.4487778842378234e+17
19193.0	5.44772716564753e+17
19194.0	5.4467229646848e+17
19195.0	5.445716580586836e+17
19196.0	5.444697052239188e+17
19197.0	5.4436796615884794e+17
19198.0	5.4426575271799456e+17
19199.0	5.431405439877117e+17
19200.0	5.433996133531652e+17
19201.0	5.4397413380587514e+17
19202.0	5.438730129812138e+17
19203.0	5.437719723376639e+17
19204.0	5.43672768799266e+17
19205.0	5.435720815258281e+17
19206.0	5.43470132465937e+17
19207.0	5.433650519386794e+17
19208.0	5.4325807251019085e+17
19209.0	5.4316482026973856e+17
19210.0	5.430634719739902e+17
19211.0	5.429623818376532e+17
19212.0	5.428607153340415e+17
19213.0	5.427465841978025e+17
19214.0	5.426397591197013e+17
19215.0	5.425211086908073e+17
19216.0	5.423971543547903e+17
19217.0	5.4229566233422496e+17
19218.0	5.4215951844201805e+17
19219.0	5.4208649442099194e+17
19220.0	5.419895241397589e+17
19221.0	5.4187539852602016e+17
19222.0	5.4179121940398074e+17
19223.0	5.416917870662998e+17
19224.0	5.415886273205588e+17
19225.0	5.414831210714452e+17
19226.0	5.413870599755092e+17
19227.0	5.412855496398164e+17
19228.0	5.4118516631360845e+17
19229.0	5.4108369547427834e+17
19230.0	5.409796662493182e+17
19231.0	5.408784908288e+17
19232.0	5.4077838607428256e+17
19233.0	5.4067419138402976e+17
19234.0	5.4057453451127456e+17
19235.0	5.40472992997922e+17
19236.0	5.403727773040639e+17
19237.0	5.4027063453723296e+17
19238.0	5.401646567784447e+17
19239.0	5.4006859596212896e+17
19240.0	5.3996219555730765e+17
19241.0	5.398635778932736e+17
19242.0	5.3976438763683834e+17
19243.0	5.3965756206940154e+17
19244.0	5.3956299127958176e+17
19245.0	5.3946153008715085e+17
19246.0	5.393596091990014e+17
19247.0	5.392587363276117e+17
19248.0	5.3915730232825165e+17
19249.0	5.390555879396692e+17
19250.0	5.389539048685567e+17
19251.0	5.388490723644757e+17
19252.0	5.387394554178217e+17
19253.0	5.386496486582953e+17
19254.0	5.3854851329338016e+17
19255.0	5.384399330388651e+17
19256.0	5.3834369368500896e+17
19257.0	5.382449882202111e+17
19258.0	5.381437170996564e+17
19259.0	5.380393094785705e+17
19260.0	5.379165875688788e+17
19261.0	5.3783896931696634e+17
19262.0	5.3773544319877114e+17
19263.0	5.3763230750037325e+17
19264.0	5.375114615630505e+17
19265.0	5.374233984456021e+17
19266.0	5.3732239156619936e+17
19267.0	5.3722925823426554e+17
19268.0	5.37127479812642e+17
19269.0	5.3702615304765434e+17
19270.0	5.369246218103466e+17
19271.0	5.3680920477040634e+17
19272.0	5.3672030363101856e+17
19273.0	5.36473912038741e+17
19274.0	5.364377402212351e+17
19275.0	5.3641402457784314e+17
19276.0	5.363116109987839e+17
19277.0	5.3621333293356365e+17
19278.0	5.361245326671872e+17
19279.0	5.360202050874025e+17
19280.0	5.359179042652159e+17
19281.0	5.3581941865185274e+17
19282.0	5.3551452609576986e+17
19283.0	5.352515255489877e+17
19284.0	5.351443937973587e+17
19285.0	5.350564272887124e+17
19286.0	5.349617808616105e+17
19287.0	5.348616517102249e+17
19288.0	5.344350983334571e+17
19289.0	5.3378241625674906e+17
19290.0	5.345558452852052e+17
19291.0	5.344432877819221e+17
19292.0	5.3435172304977914e+17
19293.0	5.342493465204052e+17
19294.0	5.341470752680617e+17
19295.0	5.340453437527379e+17
19296.0	5.3394254003350176e+17
19297.0	5.3383874079621114e+17
19298.0	5.3373675699350176e+17
19299.0	5.3363544406971725e+17
19300.0	5.335328894222335e+17
19301.0	5.334301993686356e+17
19302.0	5.3332739264348154e+17
19303.0	5.3322140747475616e+17
19304.0	5.331205010489343e+17
19305.0	5.330187823262378e+17
19306.0	5.329155924514131e+17
19307.0	5.3281044872997536e+17
19308.0	5.327087665676287e+17
19309.0	5.325708405855572e+17
19310.0	5.324540495615315e+17
19311.0	5.323963938897919e+17
19312.0	5.322972152375977e+17
19313.0	5.321931932827647e+17
19314.0	5.3089033508618086e+17
19315.0	5.308815413084177e+17
19316.0	5.318790904545279e+17
19317.0	5.3177787455897594e+17
19318.0	5.316737293615102e+17
19319.0	5.315695092957183e+17
19320.0	5.314603858788351e+17
19321.0	5.313562345996287e+17
19322.0	5.312461536930474e+17
19323.0	5.3113004312494086e+17
19324.0	5.3117553929966944e+17
19325.0	5.311105742842538e+17
19326.0	5.31039983309073e+17
19327.0	5.309344915303081e+17
19328.0	5.308294421108052e+17
19329.0	5.3072418115857056e+17
19330.0	5.306167683186687e+17
19331.0	5.3051068129826125e+17
19332.0	5.3040597727969274e+17
19333.0	5.302697492916901e+17
19334.0	5.2979945233012045e+17
19335.0	5.296923816755199e+17
19336.0	5.2961641723767456e+17
19337.0	5.295159789660842e+17
19338.0	5.293997129990142e+17
19339.0	5.2929006501451085e+17
19340.0	5.2916673402197325e+17
19341.0	5.2906088104372896e+17
19342.0	5.2893547904368634e+17
19343.0	5.288437171792554e+17
19344.0	5.2873386136698874e+17
19345.0	5.285353331447122e+17
19346.0	5.284853361322667e+17
19347.0	5.2840031793971194e+17
19348.0	5.2829240450962765e+17
19349.0	5.2817911300314445e+17
19350.0	5.280674042172756e+17
19351.0	5.279550797075796e+17
19352.0	5.278407312364885e+17
19353.0	5.2773066850522445e+17
19354.0	5.275122174088532e+17
19355.0	5.2720582091516576e+17
19356.0	5.2709443369260365e+17
19357.0	5.269785224937472e+17
19358.0	5.268605078514347e+17
19359.0	5.268530192012627e+17
19360.0	5.2683629616168954e+17
19361.0	5.2671570418947405e+17
19362.0	5.2659440764409165e+17
19363.0	5.264746816558421e+17
19364.0	5.2635409534593696e+17
19365.0	5.2623334343092896e+17
19366.0	5.2611101466733216e+17
19367.0	5.259879062525269e+17
19368.0	5.258303620426409e+17
19369.0	5.2569345296957434e+17
19370.0	5.255588992079189e+17
19371.0	5.254462334216873e+17
19372.0	5.253200860938238e+17
19373.0	5.251894245064703e+17
19374.0	5.2525648478644883e+17
19375.0	5.25211482071586e+17
19376.0	5.2507901120129696e+17
19377.0	5.249280097561257e+17
19378.0	5.247129937947306e+17
19379.0	5.2457572506009594e+17
19380.0	5.244366601846783e+17
19381.0	5.242956046925824e+17
19382.0	5.241852413695318e+17
19383.0	5.243755137335293e+17
19384.0	5.2425616026938016e+17
19385.0	5.2410553519308794e+17
19386.0	5.239093195702271e+17
19387.0	5.237558015426559e+17
19388.0	5.235726631305215e+17
19389.0	5.237081576046591e+17
19390.0	5.235979933712383e+17
19391.0	5.222092187019929e+17
19392.0	5.232539203534847e+17
19393.0	5.2326047073785146e+17
19394.0	5.2315939975550285e+17
19395.0	5.229162022655315e+17
19396.0	5.227313443984724e+17
19397.0	5.225217888616446e+17
19398.0	5.223376914219007e+17
19399.0	5.2213287558840314e+17
19400.0	5.218889845003605e+17
19401.0	5.216919872689493e+17
19402.0	5.2151278688884045e+17
19403.0	5.2114614606888966e+17
19404.0	5.209207937346217e+17
19405.0	5.2075040083367226e+17
19406.0	5.2039621304210765e+17
19407.0	5.200786294308862e+17
19408.0	5.196585674386089e+17
19409.0	5.194243716939774e+17
19410.0	5.1891457207828474e+17
19411.0	5.1853609024880634e+17
19412.0	5.1811212231092896e+17
19413.0	5.1774820499237536e+17
19414.0	5.1733287431482016e+17
19415.0	5.1683118997831686e+17
19416.0	5.1635862180113043e+17
19417.0	5.15905917428258e+17
19418.0	5.1556223902460576e+17
19419.0	5.1515748260686483e+17
19420.0	5.1464008060545696e+17
19421.0	5.1420028371380896e+17
19422.0	5.135457079787519e+17
19423.0	5.130225129444693e+17
19424.0	5.122619681188527e+17
19425.0	5.1143457922962797e+17
19426.0	5.1053664130826214e+17
19427.0	5.093030280648027e+17
19428.0	5.079856701592917e+17
19429.0	5.0635594670626035e+17
19430.0	5.039985351371426e+17
19431.0	5.022678951919621e+17
19432.0	5.021285802661195e+17
19433.0	5.0145099814447866e+17
19434.0	5.00289689389193e+17
19435.0	4.981449866346496e+17
19436.0	4.960900721846955e+17
19437.0	4.9439382371478163e+17
19438.0	4.907130944137897e+17
19439.0	4.9080910573731814e+17
19440.0	4.887287075351209e+17
19441.0	4.859645700429138e+17
19442.0	4.8246885561576256e+17
19443.0	4.7516570203368224e+17
19444.0	4.671956752968348e+17
19445.0	4.651628021940228e+17
19446.0	4.58646746667417e+17
19447.0	4.5048392518205344e+17
19448.0	4.352152531806917e+17
19449.0	4.182106893363897e+17
19450.0	3.7486438663236166e+17
19451.0	3.628914628886519e+17
19452.0	3.9823525215382285e+17
19453.0	4.2946127633667475e+17
19454.0	4.420531426863787e+17
19455.0	4.5487794914590694e+17
19456.0	4.61392202519893e+17
19457.0	4.655041193443343e+17
19458.0	4.6703795981953805e+17
19459.0	4.784129874154842e+17
19460.0	4.828394164322295e+17
19461.0	4.856997830721536e+17
19462.0	4.879781868863487e+17
19463.0	4.898004356038655e+17
19464.0	4.912877785142614e+17
19465.0	4.9285716410804896e+17
19466.0	4.945163041723734e+17
19467.0	4.963570151675223e+17
19468.0	4.98046725136931e+17
19469.0	4.9862606169920774e+17
19470.0	4.9885838377833824e+17
19471.0	4.994938883626322e+17
19472.0	5.01511456380246e+17
19473.0	5.031558155774635e+17
19474.0	5.045592476614662e+17
19475.0	5.0556567698800646e+17
19476.0	5.063300031184896e+17
19477.0	5.07025918473011e+17
19478.0	5.077584953300304e+17
19479.0	5.080213659931988e+17
19480.0	5.0854490698765664e+17
19481.0	5.08856198304017e+17
19482.0	5.0909166715972294e+17
19483.0	5.0942443883506336e+17
19484.0	5.095882984783871e+17
19485.0	5.0979059765957965e+17
19486.0	5.09991198986513e+17
19487.0	5.103692299982163e+17
19488.0	5.105947282942633e+17
19489.0	5.107755343937535e+17
19490.0	5.109083341673812e+17
19491.0	5.1120320003003725e+17
19492.0	5.1134382980027725e+17
19493.0	5.117283753350483e+17
19494.0	5.117359192102228e+17
19495.0	5.1188480525817165e+17
19496.0	5.11987393320277e+17
19497.0	5.1219115547470496e+17
19498.0	5.1198268675194874e+17
19499.0	5.1015157728761e+17
19500.0	5.1231184335667194e+17
19501.0	5.12311345352977e+17
19502.0	5.123136603291648e+17
19503.0	5.1238193765635405e+17
19504.0	5.1237337197882016e+17
19505.0	5.123560306289321e+17
19506.0	5.123475879843156e+17
19507.0	5.1235311384002554e+17
19508.0	5.123927565139968e+17
19509.0	5.1236590611770016e+17
19510.0	5.121416629671251e+17
19511.0	5.09707876477609e+17
19512.0	5.11809769369326e+17
19513.0	5.114103255269367e+17
19514.0	5.1141602817256006e+17
19515.0	5.116013119012865e+17
19516.0	5.1161996704699725e+17
19517.0	5.1157542444728314e+17
19518.0	5.115404300408149e+17
19519.0	5.115291747658409e+17
19520.0	5.1147810869521056e+17
19521.0	5.112039665390931e+17
19522.0	5.110112114966527e+17
19523.0	5.109571104276479e+17
19524.0	5.1089701220297376e+17
19525.0	5.108352282875221e+17
19526.0	5.1077749096666445e+17
19527.0	5.107385781015891e+17
19528.0	5.107449482007892e+17
19529.0	5.1068199008993274e+17
19530.0	5.106182879095466e+17
19531.0	5.104374839072086e+17
19532.0	5.10221593083904e+17
19533.0	5.1015505275781114e+17
19534.0	5.1008741583093754e+17
19535.0	5.1001835402909e+17
19536.0	5.0994792306660685e+17
19537.0	5.0987934200190285e+17
19538.0	5.09783966884386e+17
19539.0	5.096687137019222e+17
19540.0	5.0961842127066445e+17
19541.0	5.095463634774699e+17
19542.0	5.0947204516413434e+17
19543.0	5.0939738207901005e+17
19544.0	5.0932226845573126e+17
19545.0	5.0923001404020045e+17
19546.0	5.0913100721466016e+17
19547.0	5.0909312579884365e+17
19548.0	5.090198898256554e+17
19549.0	5.0893991234764794e+17
19550.0	5.088654074576894e+17
19551.0	5.0881393880378016e+17
19552.0	5.085606979130708e+17
19553.0	5.084802988376062e+17
19554.0	5.083995420579157e+17
19555.0	5.083204571277994e+17
19556.0	5.084361607086079e+17
19557.0	5.0836370627406496e+17
19558.0	5.08286820557346e+17
19559.0	5.0822926708681376e+17
19560.0	5.0814611277305165e+17
19561.0	5.080633544015872e+17
19562.0	5.0804174045402445e+17
19563.0	5.079613506759338e+17
19564.0	5.078777426083839e+17
19565.0	5.0779379627021645e+17
19566.0	5.0770841582960634e+17
19567.0	5.0762521789508256e+17
19568.0	5.075396293470889e+17
19569.0	5.0745515851120634e+17
19570.0	5.0737086949840205e+17
19571.0	5.0728549807554554e+17
19572.0	5.0719874826458445e+17
19573.0	5.071139710347946e+17
19574.0	5.0702498607923194e+17
19575.0	5.069428053333332e+17
19576.0	5.0685668257082016e+17
19577.0	5.0676808670685856e+17
19578.0	5.0668221742011725e+17
19579.0	5.065963036737536e+17
19580.0	5.0650972680792736e+17
19581.0	5.064232522831189e+17
19582.0	5.0633703340113914e+17
19583.0	5.0624993035987616e+17
19584.0	5.0616198062844576e+17
19585.0	5.060715833109162e+17
19586.0	5.0598253627965434e+17
19587.0	5.058954298829481e+17
19588.0	5.057970898818388e+17
19589.0	5.0572730400331085e+17
19590.0	5.056369890339498e+17
19591.0	5.0555325912186874e+17
19592.0	5.0546541152174074e+17
19593.0	5.053766257956181e+17
19594.0	5.0527806713146016e+17
19595.0	5.0534580542068077e+17
19596.0	5.053242625665706e+17
19597.0	5.0537260436684794e+17
19598.0	5.052726644484779e+17
19599.0	5.051986783939242e+17
19600.0	5.0511017774066336e+17
19601.0	5.0501837637986976e+17
19602.0	5.0492988712113485e+17
19603.0	5.048095242977278e+17
19604.0	5.047504208221524e+17
19605.0	5.046522954995028e+17
19606.0	5.04575149875746e+17
19607.0	5.044862396486996e+17
19608.0	5.0439614683764045e+17
19609.0	5.042875397395796e+17
19610.0	5.041846134068564e+17
19611.0	5.0409470164991994e+17
19612.0	5.040058550364841e+17
19613.0	5.039158296838143e+17
19614.0	5.0382515281592314e+17
19615.0	5.0373686733045754e+17
19616.0	5.036369599878485e+17
19617.0	5.0355774021085856e+17
19618.0	5.034457738248191e+17
19619.0	5.033481481835859e+17
19620.0	5.0326126904825165e+17
19621.0	5.031990381598036e+17
19622.0	5.0310959239004154e+17
19623.0	5.0301981932475725e+17
19624.0	5.0292961927932576e+17
19625.0	5.0284002034756256e+17
19626.0	5.027504246314325e+17
19627.0	5.026604075974655e+17
19628.0	5.025454883515051e+17
19629.0	5.0247656370339834e+17
19630.0	5.023368979240276e+17
19631.0	5.011396497156773e+17
19632.0	5.022104014203562e+17
19633.0	5.021181628033706e+17
19634.0	5.020308139059881e+17
19635.0	5.0193911467649696e+17
19636.0	5.018502948367019e+17
19637.0	5.0174557977313274e+17
19638.0	5.0167029292509856e+17
19639.0	5.0157993531364685e+17
19640.0	5.0148608720240634e+17
19641.0	5.013661189231958e+17
19642.0	5.0131032559233696e+17
19643.0	5.0121966494242125e+17
19644.0	5.0112789496900256e+17
19645.0	5.010291645480959e+17
19646.0	5.009503737085951e+17
19647.0	5.0086050011982496e+17
19648.0	5.0077040674952525e+17
19649.0	5.006801086971903e+17
19650.0	5.0059034702643194e+17
19651.0	5.005000210120703e+17
19652.0	5.0040989129113594e+17
19653.0	5.003199524110335e+17
19654.0	5.0023050992680954e+17
19655.0	5.0014025878077434e+17
19656.0	5.0005034842193894e+17
