# Flux units: erg / (cm m2 s)
# Wavelength units: Angstrom
wave	flux
19000.0	5.58175639114001e+17
19001.0	5.580603208499199e+17
19002.0	5.5797270093059405e+17
19003.0	5.578706058390185e+17
19004.0	5.577691815564628e+17
19005.0	5.5766562691700045e+17
19006.0	5.5756514460521805e+17
19007.0	5.5746457267514016e+17
19008.0	5.57356957110545e+17
19009.0	5.572427164330666e+17
19010.0	5.5710741196090003e+17
19011.0	5.570527460589567e+17
19012.0	5.569110535918931e+17
19013.0	5.5685698307140256e+17
19014.0	5.567501919671636e+17
19015.0	5.5664964030955514e+17
19016.0	5.565483380812458e+17
19017.0	5.564525582832979e+17
19018.0	5.563497259728896e+17
19019.0	5.5624990817867085e+17
19020.0	5.561480026696362e+17
19021.0	5.560489350266879e+17
19022.0	5.559472660763988e+17
19023.0	5.5584043722342394e+17
19024.0	5.557378783816362e+17
19025.0	5.5563978668332365e+17
19026.0	5.5553407211711136e+17
19027.0	5.55408244814643e+17
19028.0	5.553397457485823e+17
19029.0	5.552372647111338e+17
19030.0	5.551396480177492e+17
19031.0	5.550390367311189e+17
19032.0	5.5493611319459834e+17
19033.0	5.5482210348346016e+17
19034.0	5.547226149421055e+17
19035.0	5.5455427955698336e+17
19036.0	5.521634367984974e+17
19037.0	5.543735474170537e+17
19038.0	5.543196357208745e+17
19039.0	5.5422838150703776e+17
19040.0	5.541301982330879e+17
19041.0	5.540297520622249e+17
19042.0	5.537810380838227e+17
19043.0	5.538314499129343e+17
19044.0	5.537295548896596e+17
19045.0	5.536276009364138e+17
19046.0	5.535222998586709e+17
19047.0	5.534236335407102e+17
19048.0	5.532832032795305e+17
19049.0	5.5292849497483904e+17
19050.0	5.5310918356391245e+17
19051.0	5.526852936400893e+17
19052.0	5.5281090199988896e+17
19053.0	5.5281976798958925e+17
19054.0	5.5272447724748794e+17
19055.0	5.525540973488811e+17
19056.0	5.525087275625129e+17
19057.0	5.524247915702954e+17
19058.0	5.521764797557416e+17
19059.0	5.521685367925417e+17
19060.0	5.521225781258922e+17
19061.0	5.520246391701504e+17
19062.0	5.519242065608703e+17
19063.0	5.5182389286010874e+17
19064.0	5.5171096632797856e+17
19065.0	5.516033139933183e+17
19066.0	5.5146396152845645e+17
19067.0	5.514222362427391e+17
19068.0	5.513239869085011e+17
19069.0	5.512240145541802e+17
19070.0	5.51120521011746e+17
19071.0	5.510218091156819e+17
19072.0	5.508685958042964e+17
19073.0	5.5082354786085536e+17
19074.0	5.507240521192788e+17
19075.0	5.506240413171711e+17
19076.0	5.5052217215877114e+17
19077.0	5.504216116931243e+17
19078.0	5.5031876029863245e+17
19079.0	5.502240244629504e+17
19080.0	5.501228085673983e+17
19081.0	5.500183425056766e+17
19082.0	5.4992057719412045e+17
19083.0	5.4981292115449165e+17
19084.0	5.496987876414804e+17
19085.0	5.496213346451456e+17
19086.0	5.4939868295331834e+17
19087.0	5.4926094263910374e+17
19088.0	5.49223831647027e+17
19089.0	5.4918099731742714e+17
19090.0	5.491151960276991e+17
19091.0	5.49009885233152e+17
19092.0	5.4879745142510957e+17
19093.0	5.488258012850857e+17
19094.0	5.4872805449837216e+17
19095.0	5.486289147133951e+17
19096.0	5.4852796235994445e+17
19097.0	5.4842964319054496e+17
19098.0	5.482692044215636e+17
19099.0	5.481575372292096e+17
19100.0	5.4812564003662496e+17
19101.0	5.4802938264726176e+17
19102.0	5.4791845148535456e+17
19103.0	5.47832330260753e+17
19104.0	5.4773369330292045e+17
19105.0	5.474999016095747e+17
19106.0	5.475252514237098e+17
19107.0	5.4739691977222816e+17
19108.0	5.472764251777706e+17
19109.0	5.471250447073278e+17
19110.0	5.4710911669807776e+17
19111.0	5.469964397270355e+17
19112.0	5.4689268432022163e+17
19113.0	5.468394293122388e+17
19114.0	5.467137598554111e+17
19115.0	5.4662636740717216e+17
19116.0	5.4653931239069e+17
19117.0	5.464376695848958e+17
19118.0	5.463151359994538e+17
19119.0	5.452108369930907e+17
19120.0	5.4611693416393376e+17
19121.0	5.4602965594057376e+17
19122.0	5.4594793726716576e+17
19123.0	5.458497360276138e+17
19124.0	5.457374858270036e+17
19125.0	5.4565026674333e+17
19126.0	5.455442817144147e+17
19127.0	5.452528626608809e+17
19128.0	5.4533899094589434e+17
19129.0	5.452456095208788e+17
19130.0	5.4515617913023136e+17
19131.0	5.4505914747234976e+17
19132.0	5.449602174724777e+17
19133.0	5.448557321169577e+17
19134.0	5.4475997252157434e+17
19135.0	5.4466373540468045e+17
19136.0	5.4456519785185274e+17
19137.0	5.444503526353579e+17
19138.0	5.4436587732555085e+17
19139.0	5.442699231843668e+17
19140.0	5.441717332694356e+17
19141.0	5.440731811763541e+17
19142.0	5.439707994740052e+17
19143.0	5.4386978015150074e+17
19144.0	5.437721374534313e+17
19145.0	5.4367837217969485e+17
19146.0	5.435031931584512e+17
19147.0	5.434721683810986e+17
19148.0	5.433348467283285e+17
19149.0	5.4322774769227085e+17
19150.0	5.431858849731924e+17
19151.0	5.430871929301674e+17
19152.0	5.4298640429438285e+17
19153.0	5.4278816373145574e+17
19154.0	5.4276963637220685e+17
19155.0	5.426910955132245e+17
19156.0	5.42591876735522e+17
19157.0	5.42447090200303e+17
19158.0	5.422648745350485e+17
19159.0	5.422862763906388e+17
19160.0	5.421939829680811e+17
19161.0	5.420884137345024e+17
19162.0	5.418296028779862e+17
19163.0	5.4186371683013965e+17
19164.0	5.418022356735317e+17
19165.0	5.4159595309192506e+17
19166.0	5.415917518673236e+17
19167.0	5.414966195301034e+17
19168.0	5.414121025568767e+17
19169.0	5.413153212989439e+17
19170.0	5.4121914681698976e+17
19171.0	5.4111396968093005e+17
19172.0	5.4102077238586003e+17
19173.0	5.4092633525452794e+17
19174.0	5.4082325051692365e+17
19175.0	5.407313721906515e+17
19176.0	5.406335154432683e+17
19177.0	5.405162417946623e+17
19178.0	5.4042797266698234e+17
19179.0	5.4032617208545274e+17
19180.0	5.402393804013567e+17
19181.0	5.401278360322047e+17
19182.0	5.4004282832541e+17
19183.0	5.3994945382099616e+17
19184.0	5.398516708234579e+17
19185.0	5.3975253984651936e+17
19186.0	5.396560957407232e+17
19187.0	5.395502258454528e+17
19188.0	5.3945962943829325e+17
19189.0	5.393617326353065e+17
19190.0	5.3926270546739194e+17
19191.0	5.3916030335276365e+17
19192.0	5.3906657044507296e+17
19193.0	5.389533078792873e+17
19194.0	5.388443286765567e+17
19195.0	5.387643788809556e+17
19196.0	5.386551311728639e+17
19197.0	5.3853473563388576e+17
19198.0	5.383382780695891e+17
19199.0	5.370972743226706e+17
19200.0	5.37204786917103e+17
19201.0	5.3806025380549965e+17
19202.0	5.380514319258964e+17
19203.0	5.379715862888447e+17
19204.0	5.378852434651818e+17
19205.0	5.377946175580842e+17
19206.0	5.376998844486996e+17
19207.0	5.3758963996426234e+17
19208.0	5.3748279782932474e+17
19209.0	5.374113002553343e+17
19210.0	5.3731500364922874e+17
19211.0	5.3721982769124685e+17
19212.0	5.371212951016788e+17
19213.0	5.370048257807699e+17
19214.0	5.369022564532223e+17
19215.0	5.368244509955413e+17
19216.0	5.367334651472553e+17
19217.0	5.366327066405545e+17
19218.0	5.364543191165609e+17
19219.0	5.364202454297257e+17
19220.0	5.3634145242316794e+17
19221.0	5.3621803495806285e+17
19222.0	5.3614765530589856e+17
19223.0	5.3605367912857594e+17
19224.0	5.359532132444841e+17
19225.0	5.358478983255381e+17
19226.0	5.3576274325886285e+17
19227.0	5.3566682162353485e+17
19228.0	5.3557299273618765e+17
19229.0	5.354759961007444e+17
19230.0	5.3537838087536634e+17
19231.0	5.352808694590121e+17
19232.0	5.3518436083083936e+17
19233.0	5.3508024932761594e+17
19234.0	5.349898871723347e+17
19235.0	5.3489122833421645e+17
19236.0	5.347983415574528e+17
19237.0	5.3469957667334816e+17
19238.0	5.3459258801739085e+17
19239.0	5.3450840910506656e+17
19240.0	5.3441183833128954e+17
19241.0	5.3431288777932794e+17
19242.0	5.3421688330649594e+17
19243.0	5.3410315768954854e+17
19244.0	5.3402571231286605e+17
19245.0	5.3392834692819616e+17
19246.0	5.338300772515839e+17
19247.0	5.3373384418918394e+17
19248.0	5.3363805768034976e+17
19249.0	5.335375133627733e+17
19250.0	5.334217322572458e+17
19251.0	5.333164097186473e+17
19252.0	5.3321730859117216e+17
19253.0	5.3315293748920314e+17
19254.0	5.3305969538498554e+17
19255.0	5.3293988572037094e+17
19256.0	5.328645870583807e+17
19257.0	5.3277005143080954e+17
19258.0	5.326737170759679e+17
19259.0	5.325670709548372e+17
19260.0	5.3241822684992845e+17
19261.0	5.323818483930453e+17
19262.0	5.3227876127866874e+17
19263.0	5.3217782612186445e+17
19264.0	5.3203117493889696e+17
19265.0	5.319726010641066e+17
19266.0	5.3186537277358074e+17
19267.0	5.3180641253348685e+17
19268.0	5.3170973249809056e+17
19269.0	5.316137093606058e+17
19270.0	5.3151496621697696e+17
19271.0	5.3138289324632755e+17
19272.0	5.313207633707007e+17
19273.0	5.3119769885627725e+17
19274.0	5.310821071934803e+17
19275.0	5.3103705281877325e+17
19276.0	5.3093859237123405e+17
19277.0	5.308431535702015e+17
19278.0	5.3074423251817805e+17
19279.0	5.306475508050602e+17
19280.0	5.305459274328745e+17
19281.0	5.3045612801338016e+17
19282.0	5.303606365039274e+17
19283.0	5.3025458555453434e+17
19284.0	5.30159736332834e+17
19285.0	5.3005623090653856e+17
19286.0	5.299667926166186e+17
19287.0	5.2986215298061645e+17
19288.0	5.290397225975803e+17
19289.0	5.2812550022102816e+17
19290.0	5.2956988884473165e+17
19291.0	5.294617357101739e+17
19292.0	5.294002952383145e+17
19293.0	5.2930547076300794e+17
19294.0	5.2920827755451725e+17
19295.0	5.291153159094271e+17
19296.0	5.28953988996574e+17
19297.0	5.289084265518421e+17
19298.0	5.288239497740287e+17
19299.0	5.2865793118262605e+17
19300.0	5.2863341393783456e+17
19301.0	5.2853919288306336e+17
19302.0	5.2844172984101536e+17
19303.0	5.283373585705641e+17
19304.0	5.282479966868821e+17
19305.0	5.281524242972671e+17
19306.0	5.280560031902378e+17
19307.0	5.2795283925019296e+17
19308.0	5.2785667616276474e+17
19309.0	5.27720842928674e+17
19310.0	5.276082131435519e+17
19311.0	5.275561553996457e+17
19312.0	5.2746863502513485e+17
19313.0	5.2735222589248845e+17
19314.0	5.222720663628429e+17
19315.0	5.22635072398958e+17
19316.0	5.269719682646016e+17
19317.0	5.269888587967145e+17
19318.0	5.2689892208366925e+17
19319.0	5.26806844248337e+17
19320.0	5.266855291082068e+17
19321.0	5.2655705575915514e+17
19322.0	5.265071715035819e+17
19323.0	5.264079311252138e+17
19324.0	5.2631735764691616e+17
19325.0	5.261984234733567e+17
19326.0	5.261283715361451e+17
19327.0	5.260369825453395e+17
19328.0	5.2582557801949875e+17
19329.0	5.2584883019229856e+17
19330.0	5.2574907475339936e+17
19331.0	5.256502836548947e+17
19332.0	5.2555978874989216e+17
19333.0	5.2546139282472954e+17
19334.0	5.253646153416703e+17
19335.0	5.250307539861506e+17
19336.0	5.2517130867834874e+17
19337.0	5.250774376382464e+17
19338.0	5.2495575102259194e+17
19339.0	5.2488323339386874e+17
19340.0	5.247626847627947e+17
19341.0	5.2459260566568966e+17
19342.0	5.245251232290133e+17
19343.0	5.2449372376050336e+17
19344.0	5.243058614435841e+17
19345.0	5.2403314311386426e+17
19346.0	5.240763090031956e+17
19347.0	5.2398550239150074e+17
19348.0	5.240100464798378e+17
19349.0	5.2390913411208525e+17
19350.0	5.2377000296666445e+17
19351.0	5.237132215276885e+17
19352.0	5.234934170692264e+17
19353.0	5.235245232859817e+17
19354.0	5.234274591222442e+17
19355.0	5.233175413041834e+17
19356.0	5.232311182295039e+17
19357.0	5.2313260612212045e+17
19358.0	5.2303307375028896e+17
19359.0	5.229044554181289e+17
19360.0	5.227388349360809e+17
19361.0	5.2273410508936525e+17
19362.0	5.226395628208126e+17
19363.0	5.2253905751026336e+17
19364.0	5.2243938497877325e+17
19365.0	5.22339883225361e+17
19366.0	5.222401956642815e+17
19367.0	5.221403139768319e+17
19368.0	5.220402246014293e+17
19369.0	5.2193376030337696e+17
19370.0	5.218347168475817e+17
19371.0	5.2173156339329696e+17
19372.0	5.21636610642193e+17
19373.0	5.2153307641501005e+17
19374.0	5.214331515961342e+17
19375.0	5.2133095556164256e+17
19376.0	5.2122917175732896e+17
19377.0	5.2112498084194976e+17
19378.0	5.210214377368234e+17
19379.0	5.20915413700881e+17
19380.0	5.208107602236756e+17
19381.0	5.2070585403965434e+17
19382.0	5.205915143766015e+17
19383.0	5.2048401632242336e+17
19384.0	5.203862981268819e+17
19385.0	5.2028104682154656e+17
19386.0	5.201733294052693e+17
19387.0	5.2006166934323194e+17
19388.0	5.1994794931869e+17
19389.0	5.1983240344371194e+17
19390.0	5.1969318219066016e+17
19391.0	5.174654392074214e+17
19392.0	5.19343829173316e+17
19393.0	5.193711165461846e+17
19394.0	5.1926147890763085e+17
19395.0	5.191124116657493e+17
19396.0	5.1902118765090125e+17
19397.0	5.189069675255124e+17
19398.0	5.187460565478058e+17
19399.0	5.185368703893502e+17
19400.0	5.184887292865194e+17
19401.0	5.1839494388012365e+17
19402.0	5.1826914712616954e+17
19403.0	5.181349563815254e+17
19404.0	5.17998176702737e+17
19405.0	5.178604826656768e+17
19406.0	5.1772290509045754e+17
19407.0	5.1753574839528083e+17
19408.0	5.17341976653551e+17
19409.0	5.172759962670421e+17
19410.0	5.1713227913953274e+17
19411.0	5.169758526417577e+17
19412.0	5.168082440596138e+17
19413.0	5.1659715438619296e+17
19414.0	5.1646230310857376e+17
19415.0	5.162841208957611e+17
19416.0	5.1606015624697165e+17
19417.0	5.158707029606398e+17
19418.0	5.156891158817449e+17
19419.0	5.1545888655059616e+17
19420.0	5.15232226152721e+17
19421.0	5.1497089577779194e+17
19422.0	5.147077694717951e+17
19423.0	5.1441076556267514e+17
19424.0	5.1410534571267405e+17
19425.0	5.1377192713584634e+17
19426.0	5.133944778042026e+17
19427.0	5.129839728831146e+17
19428.0	5.1257495568165536e+17
19429.0	5.1215857475037843e+17
19430.0	5.116190394766678e+17
19431.0	5.108515606975831e+17
19432.0	5.106877913716051e+17
19433.0	5.100925342100138e+17
19434.0	5.0942696814018554e+17
19435.0	5.085653112280404e+17
19436.0	5.0756969726388883e+17
19437.0	5.066520478613504e+17
19438.0	5.0131581831304576e+17
19439.0	5.0368219143208966e+17
19440.0	5.025673912866134e+17
19441.0	5.010097615579817e+17
19442.0	4.991208884185771e+17
19443.0	4.9677704500346874e+17
19444.0	4.9393322650064205e+17
19445.0	4.902958100993366e+17
19446.0	4.856981259725481e+17
19447.0	4.796589287669752e+17
19448.0	4.711873797335725e+17
19449.0	4.578638496268285e+17
19450.0	4.2892476781253914e+17
19451.0	4.0684795846110336e+17
19452.0	4.4683989743916326e+17
19453.0	4.653090059845635e+17
19454.0	4.754782287822843e+17
19455.0	4.822587100102655e+17
19456.0	4.873299083395074e+17
19457.0	4.911580386252118e+17
19458.0	4.79306997441083e+17
19459.0	4.959791354303858e+17
19460.0	4.985053023742634e+17
19461.0	5.000586355277823e+17
19462.0	5.0140793550493037e+17
19463.0	5.0271691060456115e+17
19464.0	5.038127956972886e+17
19465.0	5.0476797132800006e+17
19466.0	5.0553149711537485e+17
19467.0	5.0617621364954445e+17
19468.0	5.067133087470934e+17
19469.0	5.07035535033412e+17
19470.0	5.0751194127837856e+17
19471.0	5.0785506973887136e+17
19472.0	5.0812212177360205e+17
19473.0	5.083594012404394e+17
19474.0	5.0849618707087334e+17
19475.0	5.0869512437759994e+17
19476.0	5.089940020920318e+17
19477.0	5.0917183848447994e+17
19478.0	5.093222694344021e+17
19479.0	5.0934533873554746e+17
19480.0	5.0951553205753165e+17
19481.0	5.0959044903785805e+17
19482.0	5.0965128385221965e+17
19483.0	5.09697155277346e+17
19484.0	5.0972712826306554e+17
19485.0	5.0973424900287136e+17
19486.0	5.096616850969942e+17
19487.0	5.097528784235177e+17
19488.0	5.097431064641535e+17
19489.0	5.0969622623901005e+17
19490.0	5.095452790401704e+17
19491.0	5.096807633780734e+17
19492.0	5.0965781690013005e+17
19493.0	5.096230752004777e+17
19494.0	5.0958276563217056e+17
19495.0	5.0953731762203296e+17
19496.0	5.094356936906068e+17
19497.0	5.094159758480725e+17
19498.0	5.089152197809493e+17
19499.0	5.05920454568617e+17
19500.0	5.0924277779660794e+17
19501.0	5.0922772961252685e+17
19502.0	5.0918761689688736e+17
19503.0	5.0913048600248314e+17
19504.0	5.0906886804165965e+17
19505.0	5.090077025064277e+17
19506.0	5.0894775772337485e+17
19507.0	5.0887699687888205e+17
19508.0	5.0880706944259405e+17
19509.0	5.0872762722768205e+17
19510.0	5.085659143689556e+17
19511.0	5.004362334076858e+17
19512.0	5.078183666428578e+17
19513.0	5.0741291152397523e+17
19514.0	5.07593605635549e+17
19515.0	5.082246014129493e+17
19516.0	5.0821274712145914e+17
19517.0	5.0814663531342496e+17
19518.0	5.0805532671344634e+17
19519.0	5.0797504326096205e+17
19520.0	5.078354782846974e+17
19521.0	5.0784714103630496e+17
19522.0	5.0775013755016525e+17
19523.0	5.076639161516032e+17
19524.0	5.075405880950784e+17
19525.0	5.075247747301375e+17
19526.0	5.0744698353309e+17
19527.0	5.073638792014506e+17
19528.0	5.072746241327102e+17
19529.0	5.0718760476781216e+17
19530.0	5.071169587074389e+17
19531.0	5.0703362487746554e+17
19532.0	5.069500053454847e+17
19533.0	5.0686610891953485e+17
19534.0	5.067820843575978e+17
19535.0	5.066968474320894e+17
19536.0	5.066096086351872e+17
19537.0	5.065275577729023e+17
19538.0	5.0634293017313286e+17
19539.0	5.0629727314684595e+17
19540.0	5.062691338409299e+17
19541.0	5.0616824146602656e+17
19542.0	5.060935144177664e+17
19543.0	5.059301281715541e+17
19544.0	5.059241842835455e+17
19545.0	5.057772178287274e+17
19546.0	5.056561637840213e+17
19547.0	5.0567146837988685e+17
19548.0	5.055872735292074e+17
19549.0	5.0548902398525434e+17
19550.0	5.054145836176724e+17
19551.0	5.0532813251106125e+17
19552.0	5.05241098396194e+17
19553.0	5.05151245778944e+17
19554.0	5.050620324435285e+17
19555.0	5.0496826178710176e+17
19556.0	5.0488559855643296e+17
19557.0	5.0480414328531616e+17
19558.0	5.047177722899113e+17
19559.0	5.046312403730432e+17
19560.0	5.045100876922879e+17
19561.0	5.044534582968319e+17
19562.0	5.043373760402772e+17
19563.0	5.0428185708680525e+17
19564.0	5.041942003275093e+17
19565.0	5.041060963855017e+17
19566.0	5.0401534304146765e+17
19567.0	5.039306190094336e+17
19568.0	5.0384032445235194e+17
19569.0	5.0375259541121696e+17
19570.0	5.036663245198677e+17
19571.0	5.0357837982160205e+17
19572.0	5.0348700264475296e+17
19573.0	5.033909475606527e+17
19574.0	5.0330017128775674e+17
19575.0	5.0322750371266554e+17
19576.0	5.031331457138687e+17
19577.0	5.030325681913855e+17
19578.0	5.029581325773481e+17
19579.0	5.028714296726869e+17
19580.0	5.027834922445481e+17
19581.0	5.026968862283092e+17
19582.0	5.0261056102072314e+17
19583.0	5.025223447412735e+17
19584.0	5.0243290589211296e+17
19585.0	5.0233125889201485e+17
19586.0	5.022379744952319e+17
19587.0	5.0216057917057696e+17
19588.0	5.020267662628181e+17
19589.0	5.019873213502804e+17
19590.0	5.0188763609606816e+17
19591.0	5.0181482081157114e+17
19592.0	5.0172755496140794e+17
19593.0	5.016289588281343e+17
19594.0	5.015123395608575e+17
19595.0	5.0146006790744736e+17
19596.0	5.0136065779957754e+17
19597.0	5.012841114719573e+17
19598.0	5.0113457041353376e+17
19599.0	5.0110779635357005e+17
19600.0	5.0102128512860154e+17
19601.0	5.009247758712832e+17
19602.0	5.00833277129523e+17
19603.0	5.006946943893502e+17
19604.0	5.0065525122443936e+17
19605.0	5.00544086929135e+17
19606.0	5.0049034181672954e+17
19607.0	5.004036370246315e+17
19608.0	5.0031349185467725e+17
19609.0	5.0022125876019194e+17
19610.0	5.000971228108118e+17
19611.0	4.9998913248515405e+17
19612.0	4.9996248145810765e+17
19613.0	4.9987288448368634e+17
19614.0	4.997809480663039e+17
19615.0	4.9969571393699834e+17
19616.0	4.995488977081685e+17
19617.0	4.994557870953813e+17
19618.0	4.993526141375827e+17
19619.0	4.992395090679124e+17
19620.0	4.991542974480383e+17
19621.0	4.9907826757905043e+17
19622.0	4.990784744281428e+17
19623.0	4.989857265527465e+17
19624.0	4.988873797009407e+17
19625.0	4.9881273500084896e+17
19626.0	4.987219455858004e+17
19627.0	4.986284913197055e+17
19628.0	4.9850771808365216e+17
19629.0	4.9820572365182266e+17
19630.0	4.980405453193215e+17
19631.0	4.9703214383104e+17
19632.0	4.981267721005739e+17
19633.0	4.9808251450381645e+17
19634.0	4.9801447478394874e+17
19635.0	4.979162290847742e+17
19636.0	4.9774662820823014e+17
19637.0	4.976243040583678e+17
19638.0	4.97661389255475e+17
19639.0	4.975806914756608e+17
19640.0	4.974762833652394e+17
19641.0	4.9725039367072454e+17
19642.0	4.9731017487592083e+17
19643.0	4.972221840403114e+17
19644.0	4.9713344011741856e+17
19645.0	4.97024581570833e+17
19646.0	4.9686350365982694e+17
19647.0	4.968785658249215e+17
19648.0	4.9679219021578234e+17
19649.0	4.9670411549409274e+17
19650.0	4.9661696351928314e+17
19651.0	4.9652863063818214e+17
19652.0	4.96440713622323e+17
19653.0	4.963527752155135e+17
19654.0	4.962651476066303e+17
19655.0	4.961769422323711e+17
