# Flux units: erg / (cm m2 s)
# Wavelength units: Angstrom
wave	flux
19000.0	6.94298351833361e+17
19001.0	6.941647515069098e+17
19002.0	6.940344699234986e+17
19003.0	6.939024711920297e+17
19004.0	6.937704379274579e+17
19005.0	6.936386340913151e+17
19006.0	6.935068931697321e+17
19007.0	6.933658801100116e+17
19008.0	6.932409734572713e+17
19009.0	6.931107188572159e+17
19010.0	6.929719007466836e+17
19011.0	6.928473700433919e+17
19012.0	6.927080097491625e+17
19013.0	6.925842197599572e+17
19014.0	6.924514600419328e+17
19015.0	6.923202713004713e+17
19016.0	6.921885507911679e+17
19017.0	6.920366915409235e+17
19018.0	6.919251991112361e+17
19019.0	6.917943574484308e+17
19020.0	6.916609968963583e+17
19021.0	6.915303655778985e+17
19022.0	6.913998728811859e+17
19023.0	6.912676490554025e+17
19024.0	6.911366940065791e+17
19025.0	6.910044163538943e+17
19026.0	6.908730940937555e+17
19027.0	6.907398147713705e+17
19028.0	6.906113911248211e+17
19029.0	6.90479701233937e+17
19030.0	6.903490051833855e+17
19031.0	6.9021772297885e+17
19032.0	6.900864390965929e+17
19033.0	6.899537337647104e+17
19034.0	6.898234984584531e+17
19035.0	6.896921547374591e+17
19036.0	6.891032573291173e+17
19037.0	6.894302732309844e+17
19038.0	6.892989867622397e+17
19039.0	6.891683495717545e+17
19040.0	6.890372881274196e+17
19041.0	6.889061008539647e+17
19042.0	6.887736898923177e+17
19043.0	6.886442861068287e+17
19044.0	6.885130212387497e+17
19045.0	6.883820990453076e+17
19046.0	6.882492734068052e+17
19047.0	6.881205663651155e+17
19048.0	6.879862425212244e+17
19049.0	6.878576302009002e+17
19050.0	6.877272807396691e+17
19051.0	6.87562335400755e+17
19052.0	6.874639615655936e+17
19053.0	6.873333796001108e+17
19054.0	6.872051571403434e+17
19055.0	6.8707021764253e+17
19056.0	6.869430999624361e+17
19057.0	6.868128961134591e+17
19058.0	6.866798586626047e+17
19059.0	6.865519565078527e+17
19060.0	6.864210665406463e+17
19061.0	6.862909246275583e+17
19062.0	6.861604131263828e+17
19063.0	6.860299905444521e+17
19064.0	6.858973637159593e+17
19065.0	6.857659646301523e+17
19066.0	6.856375976067071e+17
19067.0	6.855081598473555e+17
19068.0	6.853780623239849e+17
19069.0	6.852477676683263e+17
19070.0	6.851165601923071e+17
19071.0	6.84986874339874e+17
19072.0	6.848569697544873e+17
19073.0	6.84726721655603e+17
19074.0	6.845966426570752e+17
19075.0	6.844664957108223e+17
19076.0	6.843359861669887e+17
19077.0	6.842061473622697e+17
19078.0	6.840723592009044e+17
19079.0	6.839461525935444e+17
19080.0	6.838159138619391e+17
19081.0	6.836852164831914e+17
19082.0	6.835537000966825e+17
19083.0	6.834241502795091e+17
19084.0	6.832919928635391e+17
19085.0	6.83166367167283e+17
19086.0	6.830294385907028e+17
19087.0	6.828994044013226e+17
19088.0	6.827755083661311e+17
19089.0	6.826401546108927e+17
19090.0	6.825169056169983e+17
19091.0	6.823868118685012e+17
19092.0	6.822554208217769e+17
19093.0	6.821284128227327e+17
19094.0	6.819917248593919e+17
19095.0	6.818603693943465e+17
19096.0	6.817359852819795e+17
19097.0	6.816096480919551e+17
19098.0	6.814804779991039e+17
19099.0	6.813504352813055e+17
19100.0	6.812206779858943e+17
19101.0	6.8109182449309e+17
19102.0	6.809612939078313e+17
19103.0	6.808332138446848e+17
19104.0	6.807039154061311e+17
19105.0	6.805745785896959e+17
19106.0	6.80443838149427e+17
19107.0	6.803157253008042e+17
19108.0	6.801866999813459e+17
19109.0	6.800037556256765e+17
19110.0	6.799280572465151e+17
19111.0	6.797989381144575e+17
19112.0	6.796699541088937e+17
19113.0	6.795407694058836e+17
19114.0	6.794117308743679e+17
19115.0	6.792813948349097e+17
19116.0	6.791532228466004e+17
19117.0	6.790243269214207e+17
19118.0	6.788921527282346e+17
19119.0	6.787349316894717e+17
19120.0	6.786356618810707e+17
19121.0	6.785076547988137e+17
19122.0	6.783799341875197e+17
19123.0	6.782493792752979e+17
19124.0	6.781206580428799e+17
19125.0	6.779921449178452e+17
19126.0	6.778588655954602e+17
19127.0	6.777092585466538e+17
19128.0	6.77553691112243e+17
19129.0	6.774768845280596e+17
19130.0	6.773496090722301e+17
19131.0	6.772192696773289e+17
19132.0	6.77092541997602e+17
19133.0	6.769427945095168e+17
19134.0	6.768092173915476e+17
19135.0	6.767067636869802e+17
19136.0	6.765784288897706e+17
19137.0	6.764472618887849e+17
19138.0	6.763041245538986e+17
19139.0	6.761929476057769e+17
19140.0	6.760646670548991e+17
19141.0	6.759363242186068e+17
19142.0	6.758073702722217e+17
19143.0	6.756782045134847e+17
19144.0	6.755496156812628e+17
19145.0	6.754228070514687e+17
19146.0	6.752833518261588e+17
19147.0	6.751652223298218e+17
19148.0	6.750381068167849e+17
19149.0	6.749099236436649e+17
19150.0	6.747792828181162e+17
19151.0	6.746539215028223e+17
19152.0	6.745232123101183e+17
19153.0	6.743975494942719e+17
19154.0	6.742678078575958e+17
19155.0	6.741417361670143e+17
19156.0	6.740138449873577e+17
19157.0	6.738854564331519e+17
19158.0	6.737199861770921e+17
19159.0	6.736297244054868e+17
19160.0	6.734988037499561e+17
19161.0	6.733684824604671e+17
19162.0	6.731638156645718e+17
19163.0	6.731184521696595e+17
19164.0	6.729910044677459e+17
19165.0	6.728624956069204e+17
19166.0	6.72733224641058e+17
19167.0	6.726000529724755e+17
19168.0	6.724759173027155e+17
19169.0	6.723498373633364e+17
19170.0	6.722248789808468e+17
19171.0	6.72094919729698e+17
19172.0	6.719694756468054e+17
19173.0	6.718421106425855e+17
19174.0	6.717138239400617e+17
19175.0	6.715872106949289e+17
19176.0	6.714596059163306e+17
19177.0	6.713298096138922e+17
19178.0	6.712043874112851e+17
19179.0	6.710738713662804e+17
19180.0	6.709194045871444e+17
19181.0	6.708209771347965e+17
19182.0	6.706845906021033e+17
19183.0	6.705646377719123e+17
19184.0	6.704359792443391e+17
19185.0	6.703131842139476e+17
19186.0	6.701863420996266e+17
19187.0	6.700575859146751e+17
19188.0	6.699313468014591e+17
19189.0	6.698023966998528e+17
19190.0	6.696748335147689e+17
19191.0	6.695489937691988e+17
19192.0	6.694170464878591e+17
19193.0	6.692286289149951e+17
19194.0	6.691407251111936e+17
19195.0	6.690373833326591e+17
19196.0	6.689146587665748e+17
19197.0	6.687877826084861e+17
19198.0	6.686606661167785e+17
19199.0	6.680391572957865e+17
19200.0	6.680946889719809e+17
19201.0	6.682800423261524e+17
19202.0	6.68153517580834e+17
19203.0	6.680258571578025e+17
19204.0	6.678994038554623e+17
19205.0	6.677729604796413e+17
19206.0	6.676462692204543e+17
19207.0	6.675182945042432e+17
19208.0	6.67388891697425e+17
19209.0	6.672656111064404e+17
19210.0	6.671391510233088e+17
19211.0	6.670119911904595e+17
19212.0	6.668863554977791e+17
19213.0	6.667539218868905e+17
19214.0	6.666246578416298e+17
19215.0	6.665047799496703e+17
19216.0	6.663752994084179e+17
19217.0	6.662531395354623e+17
19218.0	6.661137345019901e+17
19219.0	6.659976229552127e+17
19220.0	6.658731945929385e+17
19221.0	6.657415252541439e+17
19222.0	6.656211604034899e+17
19223.0	6.654943112287571e+17
19224.0	6.653603140512425e+17
19225.0	6.652375569793023e+17
19226.0	6.651151406246569e+17
19227.0	6.649886964798803e+17
19228.0	6.648629678833663e+17
19229.0	6.647366557193555e+17
19230.0	6.646079244206079e+17
19231.0	6.644806319778473e+17
19232.0	6.643514541255338e+17
19233.0	6.642302655135743e+17
19234.0	6.641049578853716e+17
19235.0	6.639786210448724e+17
19236.0	6.638529466247849e+17
19237.0	6.637265673519104e+17
19238.0	6.6359844143104e+17
19239.0	6.634745750355967e+17
19240.0	6.633400779669501e+17
19241.0	6.632196244766719e+17
19242.0	6.630943483057491e+17
19243.0	6.629667010947753e+17
19244.0	6.628437452128255e+17
19245.0	6.627177847412052e+17
19246.0	6.625916866964138e+17
19247.0	6.624648156413951e+17
19248.0	6.623398831936852e+17
19249.0	6.622137996192426e+17
19250.0	6.620876134940672e+17
19251.0	6.619603948710569e+17
19252.0	6.618277219751252e+17
19253.0	6.617096926527488e+17
19254.0	6.615828447363072e+17
19255.0	6.614545453809664e+17
19256.0	6.613303337943039e+17
19257.0	6.612061901553663e+17
19258.0	6.610799218917375e+17
19259.0	6.609530965546324e+17
19260.0	6.608254928945151e+17
19261.0	6.607024568314538e+17
19262.0	6.60575764873216e+17
19263.0	6.604501332350292e+17
19264.0	6.603158799952553e+17
19265.0	6.601962174808063e+17
19266.0	6.600714073669631e+17
19267.0	6.599474447122431e+17
19268.0	6.59821050200064e+17
19269.0	6.596956472213504e+17
19270.0	6.595690627071997e+17
19271.0	6.594380888539135e+17
19272.0	6.593175374266367e+17
19273.0	6.589819591327739e+17
19274.0	6.589656045628073e+17
19275.0	6.589405054981459e+17
19276.0	6.588143211905023e+17
19277.0	6.586883777058132e+17
19278.0	6.585625501237247e+17
19279.0	6.584319995456169e+17
19280.0	6.583094863724543e+17
19281.0	6.581848656314365e+17
19282.0	6.580592420323327e+17
19283.0	6.579249427950249e+17
19284.0	6.577871333446995e+17
19285.0	6.576771392602111e+17
19286.0	6.575548797026304e+17
19287.0	6.574294976954367e+17
19288.0	6.571997404332031e+17
19289.0	6.568587735771812e+17
19290.0	6.570514784277844e+17
19291.0	6.569208624185341e+17
19292.0	6.567993202966527e+17
19293.0	6.566731300470783e+17
19294.0	6.565468246638591e+17
19295.0	6.564209321399635e+17
19296.0	6.562947293773823e+17
19297.0	6.561681283656361e+17
19298.0	6.560419380461568e+17
19299.0	6.559161710018559e+17
19300.0	6.557898459054077e+17
19301.0	6.556632880250879e+17
19302.0	6.555366868036266e+17
19303.0	6.55408682377762e+17
19304.0	6.552827772709546e+17
19305.0	6.551574031630335e+17
19306.0	6.550305971197267e+17
19307.0	6.549028404374185e+17
19308.0	6.54776947843618e+17
19309.0	6.546378830381055e+17
19310.0	6.545010786129235e+17
19311.0	6.543959085372756e+17
19312.0	6.54269147652642e+17
19313.0	6.541290033730902e+17
19314.0	6.539425996952916e+17
19315.0	6.538204150060374e+17
19316.0	6.537622077833215e+17
19317.0	6.536352565471914e+17
19318.0	6.535078451959123e+17
19319.0	6.533808130796201e+17
19320.0	6.532496968297129e+17
19321.0	6.531257413053098e+17
19322.0	6.529944601493503e+17
19323.0	6.52861803471394e+17
19324.0	6.527422225361578e+17
19325.0	6.526078765323604e+17
19326.0	6.524862859662676e+17
19327.0	6.523575371912532e+17
19328.0	6.522297370978985e+17
19329.0	6.521012513756499e+17
19330.0	6.519719259537408e+17
19331.0	6.518431229323946e+17
19332.0	6.517146542669823e+17
19333.0	6.515854520178003e+17
19334.0	6.514519882858495e+17
19335.0	6.51327084499217e+17
19336.0	6.511972448556372e+17
19337.0	6.510673148248063e+17
19338.0	6.509342008279039e+17
19339.0	6.508073625583615e+17
19340.0	6.506763039801344e+17
19341.0	6.505464174302548e+17
19342.0	6.504064685353642e+17
19343.0	6.502844270815914e+17
19344.0	6.501530330988544e+17
19345.0	6.499882899952978e+17
19346.0	6.498809035795114e+17
19347.0	6.497559944101887e+17
19348.0	6.496249126933844e+17
19349.0	6.494912007285418e+17
19350.0	6.493579652366336e+17
19351.0	6.492246083196244e+17
19352.0	6.490901567591763e+17
19353.0	6.489571804752553e+17
19354.0	6.488220088926208e+17
19355.0	6.486855465129299e+17
19356.0	6.485517227698857e+17
19357.0	6.484154917060608e+17
19358.0	6.482771142770687e+17
19359.0	6.481302240886783e+17
19360.0	6.480034873212927e+17
19361.0	6.478641441538047e+17
19362.0	6.47727545459234e+17
19363.0	6.475880195599018e+17
19364.0	6.474475833567914e+17
19365.0	6.47306954285602e+17
19366.0	6.471656497217535e+17
19367.0	6.470233385948499e+17
19368.0	6.468789340209151e+17
19369.0	6.467298379082409e+17
19370.0	6.465623812997119e+17
19371.0	6.464421578670079e+17
19372.0	6.46296184763187e+17
19373.0	6.461476304846847e+17
19374.0	6.459988732717737e+17
19375.0	6.458484995741011e+17
19376.0	6.456963325318484e+17
19377.0	6.455437313791316e+17
19378.0	6.45389356245538e+17
19379.0	6.452333423973716e+17
19380.0	6.450757983272959e+17
19381.0	6.449163284425386e+17
19382.0	6.447536677410131e+17
19383.0	6.445902610825215e+17
19384.0	6.444269230009001e+17
19385.0	6.44259429622306e+17
19386.0	6.440896992815786e+17
19387.0	6.439173753929727e+17
19388.0	6.437423612777811e+17
19389.0	6.435638580609023e+17
19390.0	6.433803046922921e+17
19391.0	6.42786748111257e+17
19392.0	6.430094055353001e+17
19393.0	6.428187335939411e+17
19394.0	6.426228311457791e+17
19395.0	6.424221313925119e+17
19396.0	6.422166576824319e+17
19397.0	6.420081881208148e+17
19398.0	6.417923897120084e+17
19399.0	6.415605501875539e+17
19400.0	6.413431832488617e+17
19401.0	6.411095147282431e+17
19402.0	6.408677962896724e+17
19403.0	6.406155457440425e+17
19404.0	6.403565601248596e+17
19405.0	6.400879204761599e+17
19406.0	6.398092179931136e+17
19407.0	6.395195180449791e+17
19408.0	6.392057406947327e+17
19409.0	6.388984352953684e+17
19410.0	6.385705160103252e+17
19411.0	6.382234274977108e+17
19412.0	6.37857765138978e+17
19413.0	6.374733192189267e+17
19414.0	6.370662167172436e+17
19415.0	6.366371760482985e+17
19416.0	6.361769687646207e+17
19417.0	6.356886713881939e+17
19418.0	6.351821868804777e+17
19419.0	6.346287197366953e+17
19420.0	6.340412854413994e+17
19421.0	6.334059321316692e+17
19422.0	6.327197753846442e+17
19423.0	6.319846256017407e+17
19424.0	6.311885210473811e+17
19425.0	6.30322761826304e+17
19426.0	6.293811452619433e+17
19427.0	6.28351681237265e+17
19428.0	6.272417956975956e+17
19429.0	6.260192524107773e+17
19430.0	6.246617149603839e+17
19431.0	6.231107567616001e+17
19432.0	6.215790063779837e+17
19433.0	6.197928632079702e+17
19434.0	6.178078866101588e+17
19435.0	6.155867358844243e+17
19436.0	6.131204303268522e+17
19437.0	6.104555422307668e+17
19438.0	6.06886549467955e+17
19439.0	6.040303314141184e+17
19440.0	6.003537054007296e+17
19441.0	5.961882835877885e+17
19442.0	5.913620173029376e+17
19443.0	5.861943586499241e+17
19444.0	5.80500744131925e+17
19445.0	5.736896522442071e+17
19446.0	5.662748579637929e+17
19447.0	5.576938395533305e+17
19448.0	5.4761744669955456e+17
19449.0	5.3326298819679597e+17
19450.0	4.9935847148311674e+17
19451.0	4.8659796936622035e+17
19452.0	5.188043541577732e+17
19453.0	5.414537895346181e+17
19454.0	5.52355601422745e+17
19455.0	5.6157358026042e+17
19456.0	5.690828548035929e+17
19457.0	5.761286267382441e+17
19458.0	5.819774946071894e+17
19459.0	5.871715945021441e+17
19460.0	5.920235674664957e+17
19461.0	5.962544996242772e+17
19462.0	5.999118166698666e+17
19463.0	6.031914242670588e+17
19464.0	6.061683678816938e+17
19465.0	6.08778906955503e+17
19466.0	6.110806882822825e+17
19467.0	6.131674473562112e+17
19468.0	6.150269043037526e+17
19469.0	6.166248733103443e+17
19470.0	6.181139207159805e+17
19471.0	6.194146138827434e+17
19472.0	6.205708053774333e+17
19473.0	6.216040406406484e+17
19474.0	6.225255272721066e+17
19475.0	6.233355024596991e+17
19476.0	6.240811091318102e+17
19477.0	6.247370445204137e+17
19478.0	6.253210661202601e+17
19479.0	6.25839855247906e+17
19480.0	6.263032143413247e+17
19481.0	6.267186568669865e+17
19482.0	6.270858659452244e+17
19483.0	6.274114679472127e+17
19484.0	6.276998521421823e+17
19485.0	6.279540766670847e+17
19486.0	6.281797637767168e+17
19487.0	6.283782007029759e+17
19488.0	6.285519709274111e+17
19489.0	6.287039324487679e+17
19490.0	6.288137376497663e+17
19491.0	6.289476526888276e+17
19492.0	6.290450032536233e+17
19493.0	6.291255501083988e+17
19494.0	6.29192286797824e+17
19495.0	6.292399559715497e+17
19496.0	6.292789879548585e+17
19497.0	6.293192792080384e+17
19498.0	6.293216134780244e+17
19499.0	6.286610086406817e+17
19500.0	6.293582181477033e+17
19501.0	6.293554325007018e+17
19502.0	6.293464139082409e+17
19503.0	6.2932984542877e+17
19504.0	6.293046226321407e+17
19505.0	6.292787674043732e+17
19506.0	6.29245298675985e+17
19507.0	6.292065436565503e+17
19508.0	6.291640199151615e+17
19509.0	6.291169315127295e+17
19510.0	6.290631666171901e+17
19511.0	6.286426588403027e+17
19512.0	6.288731656945659e+17
19513.0	6.287082765593253e+17
19514.0	6.287053527100072e+17
19515.0	6.287476958866089e+17
19516.0	6.286937512651433e+17
19517.0	6.28620604281105e+17
19518.0	6.285485642437972e+17
19519.0	6.284727904370687e+17
19520.0	6.283957005975551e+17
19521.0	6.283165391213908e+17
19522.0	6.282344120625833e+17
19523.0	6.28152251449344e+17
19524.0	6.280677084714324e+17
19525.0	6.279802307390122e+17
19526.0	6.278940733734911e+17
19527.0	6.27805517914658e+17
19528.0	6.277157163281066e+17
19529.0	6.276247126540287e+17
19530.0	6.275328271275348e+17
19531.0	6.274398036863658e+17
19532.0	6.273456887474857e+17
19533.0	6.272507715780608e+17
19534.0	6.271548987364691e+17
19535.0	6.270579899716948e+17
19536.0	6.269601312669695e+17
19537.0	6.268626318043818e+17
19538.0	6.26763198697745e+17
19539.0	6.266551958590803e+17
19540.0	6.265634748891135e+17
19541.0	6.264631615378772e+17
19542.0	6.263616877625343e+17
19543.0	6.262598440495786e+17
19544.0	6.261574477370707e+17
19545.0	6.260492188953257e+17
19546.0	6.259363498950655e+17
19547.0	6.258454107433642e+17
19548.0	6.257421937453737e+17
19549.0	6.256360912759466e+17
19550.0	6.255335128607402e+17
19551.0	6.254281901823316e+17
19552.0	6.253224336031744e+17
19553.0	6.252160652148736e+17
19554.0	6.251093802265257e+17
19555.0	6.25003045462562e+17
19556.0	6.248962676402857e+17
19557.0	6.247887049239208e+17
19558.0	6.246814609746601e+17
19559.0	6.24572688970547e+17
19560.0	6.244651847647231e+17
19561.0	6.243569199218687e+17
19562.0	6.242488094294015e+17
19563.0	6.241392267362303e+17
19564.0	6.240313075040255e+17
19565.0	6.239223183048704e+17
19566.0	6.238125791641599e+17
19567.0	6.237029488656383e+17
19568.0	6.235934491497812e+17
19569.0	6.234836646406825e+17
19570.0	6.233743656222719e+17
19571.0	6.232642623460691e+17
19572.0	6.231534091982164e+17
19573.0	6.230434773292372e+17
19574.0	6.229310595661823e+17
19575.0	6.228222582718463e+17
19576.0	6.227114525196287e+17
19577.0	6.22596343411507e+17
19578.0	6.224893911061843e+17
19579.0	6.223785880103593e+17
19580.0	6.222674702718292e+17
19581.0	6.221564741681151e+17
19582.0	6.220454170372778e+17
19583.0	6.21933990388258e+17
19584.0	6.218222885229908e+17
19585.0	6.217086440658259e+17
19586.0	6.215877503134378e+17
19587.0	6.214710915497983e+17
19588.0	6.213664494671188e+17
19589.0	6.212423330911572e+17
19590.0	6.211498942660607e+17
19591.0	6.210397519129257e+17
19592.0	6.20927642571025e+17
19593.0	6.208145240096765e+17
19594.0	6.206983698208084e+17
19595.0	6.205910372319231e+17
19596.0	6.203469280400726e+17
19597.0	6.203661466905257e+17
19598.0	6.202508074549247e+17
19599.0	6.201421324790442e+17
19600.0	6.200298239776084e+17
19601.0	6.199163009455444e+17
19602.0	6.198042523511466e+17
19603.0	6.196785624121343e+17
19604.0	6.195785481147732e+17
19605.0	6.194621939275092e+17
19606.0	6.193534828107092e+17
19607.0	6.192420224674474e+17
19608.0	6.191290599342079e+17
19609.0	6.190155211035988e+17
19610.0	6.189039573707434e+17
19611.0	6.187910573326333e+17
19612.0	6.186784775296339e+17
19613.0	6.185652973120169e+17
19614.0	6.18452188537378e+17
19615.0	6.183400973008895e+17
19616.0	6.18223892500753e+17
19617.0	6.181140884182356e+17
19618.0	6.179940533796863e+17
19619.0	6.178782139034282e+17
19620.0	6.177660593329492e+17
19621.0	6.176630263250944e+17
19622.0	6.175501439729663e+17
19623.0	6.174372576362495e+17
19624.0	6.173241882181631e+17
19625.0	6.172112994347689e+17
19626.0	6.170985249461588e+17
19627.0	6.169856185466879e+17
19628.0	6.168617378906112e+17
19629.0	6.167583208243199e+17
19630.0	6.166399854575615e+17
19631.0	6.160202508970662e+17
19632.0	6.164206857835859e+17
19633.0	6.163072523698176e+17
19634.0	6.161950648740522e+17
19635.0	6.160814892733782e+17
19636.0	6.159691860148223e+17
19637.0	6.158492700246015e+17
19638.0	6.157433047788201e+17
19639.0	6.156297839138131e+17
19640.0	6.155165200198314e+17
19641.0	6.153969087457962e+17
19642.0	6.152916046621353e+17
19643.0	6.15178202915362e+17
19644.0	6.150650644310697e+17
19645.0	6.149491348471807e+17
19646.0	6.148403442483199e+17
19647.0	6.147274818191359e+17
19648.0	6.146146231648255e+17
19649.0	6.145017152274431e+17
19650.0	6.143889342376618e+17
19651.0	6.142759775065427e+17
19652.0	6.141631260524543e+17
19653.0	6.140502575415295e+17
19654.0	6.139374922104831e+17
19655.0	6.138246420146857e+17
19656.0	6.13711639355938e+17
19657.0	6.135992641650687e+17
19658.0	6.134861730065066e+17
19659.0	6.133738008215551e+17
19660.0	6.132610933019988e+17
19661.0	6.131483729199104e+17
19662.0	6.130356636527274e+17
19663.0	6.12922204234274e+17
19664.0	6.128077457326079e+17
19665.0	6.126976218344106e+17
