# Flux units: erg / (cm m2 s)
# Wavelength units: Angstrom
wave	flux
19000.0	5.894365508184746e+17
19001.0	5.893211258093567e+17
19002.0	5.892245382583635e+17
19003.0	5.891183356848809e+17
19004.0	5.89012147511842e+17
19005.0	5.889038818301268e+17
19006.0	5.887977302873428e+17
19007.0	5.886921241438889e+17
19008.0	5.885832665759744e+17
19009.0	5.884690191177044e+17
19010.0	5.883626462554793e+17
19011.0	5.882610167316479e+17
19012.0	5.881461826999636e+17
19013.0	5.880553490350079e+17
19014.0	5.879470292467712e+17
19015.0	5.878424459542528e+17
19016.0	5.877399411490815e+17
19017.0	5.876345502433277e+17
19018.0	5.875279287287807e+17
19019.0	5.874223004254208e+17
19020.0	5.873158250124627e+17
19021.0	5.872111793646249e+17
19022.0	5.871046592124244e+17
19023.0	5.869942124227241e+17
19024.0	5.868864764116991e+17
19025.0	5.867823038813524e+17
19026.0	5.866737893375999e+17
19027.0	5.865682034666154e+17
19028.0	5.864641854963712e+17
19029.0	5.863575810386601e+17
19030.0	5.862528845698388e+17
19031.0	5.861445867317929e+17
19032.0	5.860324074149204e+17
19033.0	5.859068054863872e+17
19034.0	5.857717177898324e+17
19035.0	5.855296884135251e+17
19036.0	5.850967840216404e+17
19037.0	5.853430837586601e+17
19038.0	5.853536208289791e+17
19039.0	5.852814258820436e+17
19040.0	5.85188131349026e+17
19041.0	5.850878326079487e+17
19042.0	5.84877743555652e+17
19043.0	5.848829660233727e+17
19044.0	5.847772323730772e+17
19045.0	5.846701211036329e+17
19046.0	5.845640208012628e+17
19047.0	5.844559579840511e+17
19048.0	5.84329939980561e+17
19049.0	5.84018987284343e+17
19050.0	5.841094947023529e+17
19051.0	5.839646190381738e+17
19052.0	5.838766745496234e+17
19053.0	5.838059106293076e+17
19054.0	5.837153596604415e+17
19055.0	5.835677646891692e+17
19056.0	5.83503641190946e+17
19057.0	5.834115171483645e+17
19058.0	5.831993665956521e+17
19059.0	5.831634546152787e+17
19060.0	5.830990425489408e+17
19061.0	5.829938215124991e+17
19062.0	5.828894198333439e+17
19063.0	5.827840895352831e+17
19064.0	5.826763064082431e+17
19065.0	5.825647281351338e+17
19066.0	5.824271439189332e+17
19067.0	5.823641511351636e+17
19068.0	5.822608623446698e+17
19069.0	5.821561250512895e+17
19070.0	5.820496262201344e+17
19071.0	5.819450195094186e+17
19072.0	5.818021051716948e+17
19073.0	5.817368578097151e+17
19074.0	5.816320132120576e+17
19075.0	5.815270610305021e+17
19076.0	5.814218882285567e+17
19077.0	5.813164228040019e+17
19078.0	5.812101780777641e+17
19079.0	5.811072844606121e+17
19080.0	5.81001616031744e+17
19081.0	5.808936487048532e+17
19082.0	5.80792301457681e+17
19083.0	5.806806980187476e+17
19084.0	5.805651733250048e+17
19085.0	5.804758103228415e+17
19086.0	5.802848626758996e+17
19087.0	5.801734813952681e+17
19088.0	5.80099237880354e+17
19089.0	5.800430685301418e+17
19090.0	5.799511609835519e+17
19091.0	5.798414019198976e+17
19092.0	5.79656444927454e+17
19093.0	5.7964196542109e+17
19094.0	5.795381132656639e+17
19095.0	5.794340808949759e+17
19096.0	5.793298383896575e+17
19097.0	5.792257299622569e+17
19098.0	5.790765682087252e+17
19099.0	5.78962555142144e+17
19100.0	5.789088803542356e+17
19101.0	5.788056760789674e+17
19102.0	5.787003658436608e+17
19103.0	5.785983918975657e+17
19104.0	5.784945650477737e+17
19105.0	5.78291312221662e+17
19106.0	5.782828397275817e+17
19107.0	5.781531522673321e+17
19108.0	5.780331295320745e+17
19109.0	5.77963114364928e+17
19110.0	5.778617288097791e+17
19111.0	5.777317894815743e+17
19112.0	5.776238835313321e+17
19113.0	5.775549911094612e+17
19114.0	5.774304471941119e+17
19115.0	5.773400194678783e+17
19116.0	5.772383939286356e+17
19117.0	5.771276094974633e+17
19118.0	5.769690599828138e+17
19119.0	5.765829238281555e+17
19120.0	5.76784587292672e+17
19121.0	5.767114006724607e+17
19122.0	5.766158626062336e+17
19123.0	5.765144546115583e+17
19124.0	5.7640043196798285e+17
19125.0	5.7630269014452896e+17
19126.0	5.761885739679743e+17
19127.0	5.760649666407081e+17
19128.0	5.7597920032413005e+17
19129.0	5.758824273149951e+17
19130.0	5.757888714768383e+17
19131.0	5.756883612030292e+17
19132.0	5.755857277725354e+17
19133.0	5.7547974980403194e+17
19134.0	5.7537837613274445e+17
19135.0	5.7527546692676256e+17
19136.0	5.7517165217054714e+17
19137.0	5.7506665930424294e+17
19138.0	5.74964211331891e+17
19139.0	5.748619442738516e+17
19140.0	5.747589925655892e+17
19141.0	5.746556421887318e+17
19142.0	5.7454976593210016e+17
19143.0	5.744474740577619e+17
19144.0	5.743421442490367e+17
19145.0	5.7424130276502176e+17
19146.0	5.740894731545258e+17
19147.0	5.740329022696105e+17
19148.0	5.738964956042581e+17
19149.0	5.737867856139604e+17
19150.0	5.73724409602594e+17
19151.0	5.7362031389791565e+17
19152.0	5.7351484511791776e+17
19153.0	5.7333798508953574e+17
19154.0	5.7330128814516896e+17
19155.0	5.732035809247231e+17
19156.0	5.731002340431189e+17
19157.0	5.7297213042196486e+17
19158.0	5.728383477131947e+17
19159.0	5.727861303760211e+17
19160.0	5.726806220297556e+17
19161.0	5.725744922274473e+17
19162.0	5.7246466724331514e+17
19163.0	5.7236613689070925e+17
19164.0	5.7226791761565005e+17
19165.0	5.720885211518292e+17
19166.0	5.7206390813709645e+17
19167.0	5.7196379177833805e+17
19168.0	5.7186324843943245e+17
19169.0	5.717616097580372e+17
19170.0	5.7165948062269434e+17
19171.0	5.715566053206698e+17
19172.0	5.7145318273187834e+17
19173.0	5.71351296446737e+17
19174.0	5.71247812551202e+17
19175.0	5.711449591993684e+17
19176.0	5.7104218910446925e+17
19177.0	5.709277661844819e+17
19178.0	5.7083549569078605e+17
19179.0	5.707327539773438e+17
19180.0	5.7062910881082016e+17
19181.0	5.705233557269161e+17
19182.0	5.704207171933524e+17
19183.0	5.703206753533952e+17
19184.0	5.702177842528256e+17
19185.0	5.701134738696873e+17
19186.0	5.7001046686651725e+17
19187.0	5.6990103020503034e+17
19188.0	5.698014777704447e+17
19189.0	5.6969591573708794e+17
19190.0	5.695903688731306e+17
19191.0	5.6948105894952954e+17
19192.0	5.6937449524647245e+17
19193.0	5.6925335899340794e+17
19194.0	5.691332433543168e+17
19195.0	5.690331118960639e+17
19196.0	5.689089079989588e+17
19197.0	5.687779308601342e+17
19198.0	5.686344645520042e+17
19199.0	5.684693445203284e+17
19200.0	5.6837525153163936e+17
19201.0	5.683303323533311e+17
19202.0	5.6826906748299936e+17
19203.0	5.681921512876713e+17
19204.0	5.681131649936041e+17
19205.0	5.680253699620863e+17
19206.0	5.679339784546985e+17
19207.0	5.678298037572947e+17
19208.0	5.6773838890161485e+17
19209.0	5.6764436798504954e+17
19210.0	5.6754659169839776e+17
19211.0	5.674483513819135e+17
19212.0	5.673476255907839e+17
19213.0	5.6723911538114554e+17
19214.0	5.6714274376690336e+17
19215.0	5.670438305442474e+17
19216.0	5.669418135366315e+17
19217.0	5.6683658613882874e+17
19218.0	5.66728653414946e+17
19219.0	5.6662195528444576e+17
19220.0	5.665326424741205e+17
19221.0	5.6643278951765325e+17
19222.0	5.6633417807517005e+17
19223.0	5.6623349695337805e+17
19224.0	5.661307789377536e+17
19225.0	5.6603209563286176e+17
19226.0	5.6593088281313274e+17
19227.0	5.6583007110867616e+17
19228.0	5.6573103527253325e+17
19229.0	5.6562973129659725e+17
19230.0	5.655279309946878e+17
19231.0	5.65425683370257e+17
19232.0	5.653249451360255e+17
19233.0	5.6521937485387085e+17
19234.0	5.6512204407220896e+17
19235.0	5.650180010759509e+17
19236.0	5.649191873981098e+17
19237.0	5.648172711936e+17
19238.0	5.6471110965439136e+17
19239.0	5.64614640312866e+17
19240.0	5.6451322295091194e+17
19241.0	5.6441054785699834e+17
19242.0	5.643094169660074e+17
19243.0	5.6419658375714125e+17
19244.0	5.6410796964795725e+17
19245.0	5.640059924163242e+17
19246.0	5.6390483160596474e+17
19247.0	5.638029324582911e+17
19248.0	5.637018656003413e+17
19249.0	5.6359711845034656e+17
19250.0	5.634816222778708e+17
19251.0	5.633754193548628e+17
19252.0	5.632721472017749e+17
19253.0	5.631939223835989e+17
19254.0	5.630938732036094e+17
19255.0	5.629765703346857e+17
19256.0	5.6289009140585805e+17
19257.0	5.6278920630108154e+17
19258.0	5.6268673197451936e+17
19259.0	5.625748217921535e+17
19260.0	5.6246367091862176e+17
19261.0	5.623767035630932e+17
19262.0	5.622717234195113e+17
19263.0	5.621686797860864e+17
19264.0	5.620623381714259e+17
19265.0	5.6196417048630605e+17
19266.0	5.618629805954389e+17
19267.0	5.617732010988883e+17
19268.0	5.6167310165715616e+17
19269.0	5.615717980307455e+17
19270.0	5.614684050117972e+17
19271.0	5.6136360410480634e+17
19272.0	5.6126658593860256e+17
19273.0	5.611548493305172e+17
19274.0	5.6103675143127014e+17
19275.0	5.609664343441407e+17
19276.0	5.608638754324478e+17
19277.0	5.607629981570388e+17
19278.0	5.6065875082827085e+17
19279.0	5.60557595959842e+17
19280.0	5.6045654014689274e+17
19281.0	5.6035478199773856e+17
19282.0	5.602537628849492e+17
19283.0	5.6014993016313165e+17
19284.0	5.6004268838092794e+17
19285.0	5.5993407946533536e+17
19286.0	5.598148022676137e+17
19287.0	5.596640503136255e+17
19288.0	5.5932386828178765e+17
19289.0	5.591603998971221e+17
19290.0	5.593481433055232e+17
19291.0	5.592895258798763e+17
19292.0	5.592279905468415e+17
19293.0	5.591355448710484e+17
19294.0	5.590368570223273e+17
19295.0	5.58940337349154e+17
19296.0	5.5879059433499315e+17
19297.0	5.5873029674106874e+17
19298.0	5.5863753928867834e+17
19299.0	5.5848296366735366e+17
19300.0	5.5843696851025914e+17
19301.0	5.583367879087445e+17
19302.0	5.5823441319690234e+17
19303.0	5.581289758042794e+17
19304.0	5.580314606130517e+17
19305.0	5.579280178916009e+17
19306.0	5.5782533056430074e+17
19307.0	5.577191349813247e+17
19308.0	5.5761545164663456e+17
19309.0	5.5750811968689485e+17
19310.0	5.5739934020293965e+17
19311.0	5.5728715627233274e+17
19312.0	5.5715855038327456e+17
19313.0	5.5693814019741005e+17
19314.0	5.54764977412506e+17
19315.0	5.5475655364225754e+17
19316.0	5.565754961996458e+17
19317.0	5.5665538447878816e+17
19318.0	5.5658599013853856e+17
19319.0	5.564987714043903e+17
19320.0	5.56383754920482e+17
19321.0	5.562604641233579e+17
19322.0	5.562053095849983e+17
19323.0	5.5610487620676256e+17
19324.0	5.5600390092445005e+17
19325.0	5.5590392227867296e+17
19326.0	5.558043529270611e+17
19327.0	5.557030681051135e+17
19328.0	5.555149002331477e+17
19329.0	5.5550164777041914e+17
19330.0	5.5540020922722976e+17
19331.0	5.55295906603554e+17
19332.0	5.551979013079039e+17
19333.0	5.5509457532791456e+17
19334.0	5.5499277027246074e+17
19335.0	5.547141623010646e+17
19336.0	5.547880736271018e+17
19337.0	5.546875844646228e+17
19338.0	5.5456954528563174e+17
19339.0	5.544805587921577e+17
19340.0	5.543700959242922e+17
19341.0	5.5420204833832966e+17
19342.0	5.5414239310206285e+17
19343.0	5.540604865937406e+17
19344.0	5.538816014854826e+17
19345.0	5.537808906540373e+17
19346.0	5.5371096538480634e+17
19347.0	5.535574061831509e+17
19348.0	5.5354982155332256e+17
19349.0	5.53448583008529e+17
19350.0	5.533152310547796e+17
19351.0	5.53244344660787e+17
19352.0	5.5305134096602426e+17
19353.0	5.530426809865557e+17
19354.0	5.529395216602452e+17
19355.0	5.5282799434792954e+17
19356.0	5.5273167012932256e+17
19357.0	5.5262736750564685e+17
19358.0	5.525220009268564e+17
19359.0	5.523970381403476e+17
19360.0	5.522414563054932e+17
19361.0	5.522073612976126e+17
19362.0	5.521027540975615e+17
19363.0	5.519973101338623e+17
19364.0	5.518914594624853e+17
19365.0	5.5178526436884474e+17
19366.0	5.5167874526522016e+17
19367.0	5.5157186545145165e+17
19368.0	5.51464548311586e+17
19369.0	5.513550903989588e+17
19370.0	5.5124678347325434e+17
19371.0	5.5113521023330976e+17
19372.0	5.510302358918485e+17
19373.0	5.509202132860928e+17
19374.0	5.5081184624203085e+17
19375.0	5.507022582360747e+17
19376.0	5.505918474474836e+17
19377.0	5.5048027707364685e+17
19378.0	5.5036881952658765e+17
19379.0	5.502569091345066e+17
19380.0	5.5014373290147834e+17
19381.0	5.5003028928157005e+17
19382.0	5.499097217062228e+17
19383.0	5.497979200864255e+17
19384.0	5.496846305372843e+17
19385.0	5.495676621641044e+17
19386.0	5.494485158985726e+17
19387.0	5.4932575078754976e+17
19388.0	5.4919682473328634e+17
19389.0	5.490504858861567e+17
19390.0	5.48846114648883e+17
19391.0	5.483904273569108e+17
19392.0	5.484897416249343e+17
19393.0	5.4853290968132256e+17
19394.0	5.4844653099636045e+17
19395.0	5.483083719507967e+17
19396.0	5.4820465359366816e+17
19397.0	5.4808175713102496e+17
19398.0	5.479216195130708e+17
19399.0	5.477747010830335e+17
19400.0	5.4765135016755194e+17
19401.0	5.4754348804778643e+17
19402.0	5.4740550285612365e+17
19403.0	5.472624122178218e+17
19404.0	5.4711800184176634e+17
19405.0	5.4696671050028365e+17
19406.0	5.468136569219753e+17
19407.0	5.466246897554772e+17
19408.0	5.464838889275391e+17
19409.0	5.4632630892625914e+17
19410.0	5.4616714879085216e+17
19411.0	5.459951016564052e+17
19412.0	5.4581717865157965e+17
19413.0	5.456041290498047e+17
19414.0	5.454454030248617e+17
19415.0	5.45249267093777e+17
19416.0	5.450377382767274e+17
19417.0	5.4484124834638496e+17
19418.0	5.446247412400126e+17
19419.0	5.443984516186111e+17
19420.0	5.4416286700011514e+17
19421.0	5.4392122636588365e+17
19422.0	5.436594590842879e+17
19423.0	5.4338834458651296e+17
19424.0	5.431018433544191e+17
19425.0	5.4279882802899616e+17
19426.0	5.4248040849298765e+17
19427.0	5.421420776871252e+17
19428.0	5.417744581263358e+17
19429.0	5.4138032762825376e+17
19430.0	5.4095896882708474e+17
19431.0	5.4050227839740576e+17
19432.0	5.400616120964436e+17
19433.0	5.395621977172651e+17
19434.0	5.390097725784062e+17
19435.0	5.383850177156436e+17
19436.0	5.377111726489598e+17
19437.0	5.368782413365247e+17
19438.0	5.354459186069503e+17
19439.0	5.3500814504755194e+17
19440.0	5.3443140091467085e+17
19441.0	5.335054774086313e+17
19442.0	5.323503573488982e+17
19443.0	5.3101852007683405e+17
19444.0	5.295171767194964e+17
19445.0	5.2774253496019616e+17
19446.0	5.2561742645602976e+17
19447.0	5.2303085328575123e+17
19448.0	5.1971525142992224e+17
19449.0	5.151116680145579e+17
19450.0	5.070253765689336e+17
19451.0	5.000620820572844e+17
19452.0	5.1173069639297696e+17
19453.0	5.1730211328928435e+17
19454.0	5.209344150164819e+17
19455.0	5.236298567297706e+17
19456.0	5.2568662359408646e+17
19457.0	5.271379986000554e+17
19458.0	5.228949003042847e+17
19459.0	5.283868833043807e+17
19460.0	5.3105756841792845e+17
19461.0	5.321153318311252e+17
19462.0	5.3294061420107085e+17
19463.0	5.336638838975145e+17
19464.0	5.342923845533694e+17
19465.0	5.3484399040484685e+17
19466.0	5.3530001086436685e+17
19467.0	5.35721432719906e+17
19468.0	5.3609269678134605e+17
19469.0	5.363595969822719e+17
19470.0	5.3671355576483834e+17
19471.0	5.369750697803775e+17
19472.0	5.371941046539604e+17
19473.0	5.3738073321635834e+17
19474.0	5.374904229341865e+17
19475.0	5.3768227829841914e+17
19476.0	5.3782858128424954e+17
19477.0	5.379496951676928e+17
19478.0	5.380516686244521e+17
19479.0	5.380767298704724e+17
19480.0	5.3820652771082234e+17
19481.0	5.382589353295871e+17
19482.0	5.383062111475028e+17
19483.0	5.3834239596735136e+17
19484.0	5.38368243086131e+17
19485.0	5.383840969960106e+17
19486.0	5.383271453381974e+17
19487.0	5.383913609712979e+17
19488.0	5.3838411845686605e+17
19489.0	5.3835866993677645e+17
19490.0	5.383334261686271e+17
19491.0	5.383315549498026e+17
19492.0	5.3831615311598925e+17
19493.0	5.382856343115092e+17
19494.0	5.3824627824831136e+17
19495.0	5.381936337911807e+17
19496.0	5.381160724419924e+17
19497.0	5.380021318669651e+17
19498.0	5.3763793436890445e+17
19499.0	5.373064732737536e+17
19500.0	5.3778733002478925e+17
19501.0	5.378613103471274e+17
19502.0	5.378429745277609e+17
19503.0	5.3779961010804045e+17
19504.0	5.377439221940223e+17
19505.0	5.3768013095458125e+17
19506.0	5.3761560445364896e+17
19507.0	5.3753951656345594e+17
19508.0	5.374519111144788e+17
19509.0	5.3732540118903456e+17
19510.0	5.369715895566335e+17
19511.0	5.3429550259896256e+17
19512.0	5.364995164471294e+17
19513.0	5.367115634704383e+17
19514.0	5.3673874892171936e+17
19515.0	5.368890112606207e+17
19516.0	5.368631323350355e+17
19517.0	5.3681786167405216e+17
19518.0	5.3673358999770445e+17
19519.0	5.366594716827647e+17
19520.0	5.365375583649791e+17
19521.0	5.365285008353962e+17
19522.0	5.364359328257364e+17
19523.0	5.36351005020433e+17
19524.0	5.3623730659655686e+17
19525.0	5.362041627170132e+17
19526.0	5.3612399705456634e+17
19527.0	5.360403480226473e+17
19528.0	5.3595096663545165e+17
19529.0	5.358635244847103e+17
19530.0	5.357886909710335e+17
19531.0	5.3570364831170554e+17
19532.0	5.3561815483460256e+17
19533.0	5.3553195867176954e+17
19534.0	5.35446101618415e+17
19535.0	5.3535770176826016e+17
19536.0	5.3526841678015136e+17
19537.0	5.3518076169857696e+17
19538.0	5.350301843674453e+17
19539.0	5.350017339140777e+17
19540.0	5.3491969703280634e+17
19541.0	5.348193832621396e+17
19542.0	5.347397739042132e+17
19543.0	5.3458934372324685e+17
19544.0	5.3455801164322125e+17
19545.0	5.3445740944424954e+17
19546.0	5.3436839044491936e+17
19547.0	5.3429479096538445e+17
19548.0	5.342110913921023e+17
19549.0	5.341156909689513e+17
19550.0	5.340348549169151e+17
19551.0	5.3394558614678176e+17
19552.0	5.3385559868265805e+17
19553.0	5.337649040588799e+17
19554.0	5.336745658111317e+17
19555.0	5.33575595266321e+17
19556.0	5.334886652400979e+17
19557.0	5.334027749818367e+17
19558.0	5.333129670339242e+17
19559.0	5.332224499690153e+17
19560.0	5.331053250084862e+17
19561.0	5.3303838636332365e+17
19562.0	5.32924714782993e+17
19563.0	5.328583012646911e+17
19564.0	5.3276664579577165e+17
19565.0	5.3267544575836154e+17
19566.0	5.325829145886719e+17
19567.0	5.3249227903467514e+17
19568.0	5.323988395185492e+17
19569.0	5.32307948671249e+17
19570.0	5.322164555218943e+17
19571.0	5.3212496432988154e+17
19572.0	5.3203102044869965e+17
19573.0	5.3193267087059616e+17
19574.0	5.318392073071274e+17
19575.0	5.317581111383379e+17
19576.0	5.3166084110417914e+17
19577.0	5.315588470254249e+17
19578.0	5.3148105596818765e+17
19579.0	5.313872741269503e+17
19580.0	5.3129575748949325e+17
19581.0	5.312053366139562e+17
19582.0	5.3111369309880314e+17
19583.0	5.310214943277055e+17
19584.0	5.3092820133259936e+17
19585.0	5.3082684311033165e+17
19586.0	5.3073190035565216e+17
19587.0	5.306469155078143e+17
19588.0	5.3054923387262285e+17
19589.0	5.304601495819605e+17
19590.0	5.3036626036654074e+17
19591.0	5.30280367591697e+17
19592.0	5.3018973616209914e+17
19593.0	5.300893359188649e+17
19594.0	5.299791157613908e+17
19595.0	5.2991101976794445e+17
19596.0	5.298150962451796e+17
19597.0	5.2972351718249805e+17
19598.0	5.2961287354013005e+17
19599.0	5.2953706191476045e+17
19600.0	5.294477880415572e+17
19601.0	5.29351412093201e+17
19602.0	5.292571159603881e+17
19603.0	5.2916101585742496e+17
19604.0	5.2907021798386336e+17
19605.0	5.289690585716053e+17
19606.0	5.28892084355072e+17
19607.0	5.288015102476287e+17
19608.0	5.287085186132649e+17
19609.0	5.2861471013819725e+17
19610.0	5.284934602893994e+17
19611.0	5.2838584668214605e+17
19612.0	5.283391131877375e+17
19613.0	5.2824519908611405e+17
19614.0	5.281491860149589e+17
19615.0	5.2805676054173e+17
19616.0	5.2792901364613114e+17
19617.0	5.278167590415019e+17
19618.0	5.2775051427403085e+17
19619.0	5.2764637159314765e+17
19620.0	5.275546188862804e+17
19621.0	5.274258248127828e+17
19622.0	5.274036514149717e+17
19623.0	5.2730765721818445e+17
19624.0	5.2720538939118925e+17
19625.0	5.27121096184081e+17
19626.0	5.2702183063988896e+17
19627.0	5.269187673631402e+17
19628.0	5.268071402263891e+17
19629.0	5.265245749990739e+17
19630.0	5.2654226908992845e+17
19631.0	5.2641428885121683e+17
19632.0	5.2639281324578125e+17
19633.0	5.2633393074012154e+17
19634.0	5.262685440573438e+17
19635.0	5.261791030411262e+17
19636.0	5.2603090045501414e+17
19637.0	5.259190902368938e+17
19638.0	5.25922270847522e+17
19639.0	5.258342375096319e+17
19640.0	5.2572191698452474e+17
19641.0	5.256114799116288e+17
19642.0	5.255524270473216e+17
19643.0	5.254639098265598e+17
19644.0	5.2537512752578554e+17
19645.0	5.2528429358120954e+17
19646.0	5.2511862766086803e+17
19647.0	5.251047828226047e+17
19648.0	5.250146578552149e+17
19649.0	5.249229993803775e+17
19650.0	5.2483159815618554e+17
19651.0	5.247391745703935e+17
19652.0	5.246471771258879e+17
19653.0	5.2455533682797216e+17
19654.0	5.2446312952845645e+17
19655.0	5.2437113362186234e+17
19656.0	5.242796736774142e+17
19657.0	5.2418719766282234e+17
