# Flux units: erg / (cm m2 s)
# Wavelength units: Angstrom
wave	flux
19000.0	6.357506635508394e+17
19001.0	6.356261375311872e+17
19002.0	6.355142424483156e+17
19003.0	6.353954892589737e+17
19004.0	6.352768362435924e+17
19005.0	6.351594262801066e+17
19006.0	6.350411415945215e+17
19007.0	6.349118402199552e+17
19008.0	6.348006269911039e+17
19009.0	6.346808630444032e+17
19010.0	6.345379811426303e+17
19011.0	6.344461804109823e+17
19012.0	6.342957269516287e+17
19013.0	6.342122478589268e+17
19014.0	6.340904187767466e+17
19015.0	6.339733823160319e+17
19016.0	6.338541492284073e+17
19017.0	6.337386722099199e+17
19018.0	6.336185363682644e+17
19019.0	6.335020982250153e+17
19020.0	6.33382342107682e+17
19021.0	6.332654135803904e+17
19022.0	6.331481849506474e+17
19023.0	6.330266919021225e+17
19024.0	6.329095718349481e+17
19025.0	6.327901730024106e+17
19026.0	6.326696057066836e+17
19027.0	6.325261150715901e+17
19028.0	6.324376274206719e+17
19029.0	6.32319091216657e+17
19030.0	6.322018263061844e+17
19031.0	6.320835455352831e+17
19032.0	6.3196502177437e+17
19033.0	6.318412014463657e+17
19034.0	6.317277156037972e+17
19035.0	6.316070482739197e+17
19036.0	6.294044217617062e+17
19037.0	6.313725316650324e+17
19038.0	6.312540258697215e+17
19039.0	6.311374219815593e+17
19040.0	6.310192185955667e+17
19041.0	6.309009520852991e+17
19042.0	6.307759681874602e+17
19043.0	6.3066467219101e+17
19044.0	6.305455288614911e+17
19045.0	6.304271461690025e+17
19046.0	6.303067880292351e+17
19047.0	6.301909575008255e+17
19048.0	6.300601841352703e+17
19049.0	6.299492632494079e+17
19050.0	6.2983452505757e+17
19051.0	6.294107570481829e+17
19052.0	6.295488177373184e+17
19053.0	6.294801355199827e+17
19054.0	6.293647709088425e+17
19055.0	6.292302577620308e+17
19056.0	6.291271549190143e+17
19057.0	6.29009749709073e+17
19058.0	6.288880983255721e+17
19059.0	6.287739808208212e+17
19060.0	6.286548517519357e+17
19061.0	6.285383482474496e+17
19062.0	6.284199963131903e+17
19063.0	6.283021036552191e+17
19064.0	6.281762039311017e+17
19065.0	6.280551291245907e+17
19066.0	6.279441598644223e+17
19067.0	6.278301572136959e+17
19068.0	6.277122843388585e+17
19069.0	6.275943810553172e+17
19070.0	6.274748812099583e+17
19071.0	6.273575742865407e+17
19072.0	6.272399100084223e+17
19073.0	6.271223796684116e+17
19074.0	6.270048375843497e+17
19075.0	6.268869593268223e+17
19076.0	6.267677447640404e+17
19077.0	6.266503516476756e+17
19078.0	6.265316010448211e+17
19079.0	6.264154396557312e+17
19080.0	6.262966638171475e+17
19081.0	6.261772835793577e+17
19082.0	6.260592393672019e+17
19083.0	6.259375671519913e+17
19084.0	6.258119713751037e+17
19085.0	6.257087278131882e+17
19086.0	6.255652747870207e+17
19087.0	6.254124518954324e+17
19088.0	6.253486323444394e+17
19089.0	6.251950465089535e+17
19090.0	6.251178811020627e+17
19091.0	6.250004990306985e+17
19092.0	6.248668833251327e+17
19093.0	6.247671842297172e+17
19094.0	6.246492100624383e+17
19095.0	6.245314862252031e+17
19096.0	6.244130218835967e+17
19097.0	6.242966280601599e+17
19098.0	6.241788579457706e+17
19099.0	6.240612033844564e+17
19100.0	6.23940675515187e+17
19101.0	6.238253996834815e+17
19102.0	6.237026005286911e+17
19103.0	6.235916555255807e+17
19104.0	6.234741535670272e+17
19105.0	6.233556267302911e+17
19106.0	6.232282355116714e+17
19107.0	6.231203873030144e+17
19108.0	6.230036568167764e+17
19109.0	6.227149665075196e+17
19110.0	6.227653784764415e+17
19111.0	6.226510367162365e+17
19112.0	6.225342538711039e+17
19113.0	6.224173504397311e+17
19114.0	6.222998681944063e+17
19115.0	6.2217543745536e+17
19116.0	6.220638909890559e+17
19117.0	6.219465614163967e+17
19118.0	6.218155865844393e+17
19119.0	6.214293237618001e+17
19120.0	6.215782897811455e+17
19121.0	6.214663656177663e+17
19122.0	6.213616543989759e+17
19123.0	6.212443426521087e+17
19124.0	6.211170892163753e+17
19125.0	6.210084861029033e+17
19126.0	6.208918271994537e+17
19127.0	6.206637900911956e+17
19128.0	6.205890999528105e+17
19129.0	6.205361459560447e+17
19130.0	6.204228489969664e+17
19131.0	6.203046654640127e+17
19132.0	6.201896264007679e+17
19133.0	6.200521945077076e+17
19134.0	6.199243467390976e+17
19135.0	6.198376067148457e+17
19136.0	6.197215952721236e+17
19137.0	6.195941216354304e+17
19138.0	6.194837469178538e+17
19139.0	6.193703295123455e+17
19140.0	6.192534877372415e+17
19141.0	6.191364867883005e+17
19142.0	6.190173257728e+17
19143.0	6.188990146630996e+17
19144.0	6.187831958088361e+17
19145.0	6.186680894270121e+17
19146.0	6.185127777053354e+17
19147.0	6.184282333293225e+17
19148.0	6.183163805390163e+17
19149.0	6.181997212161364e+17
19150.0	6.180833464767827e+17
19151.0	6.179670393356287e+17
19152.0	6.178477989079721e+17
19153.0	6.177314208830803e+17
19154.0	6.176082120845993e+17
19155.0	6.174989654250836e+17
19156.0	6.173824391315455e+17
19157.0	6.172630988095487e+17
19158.0	6.170318729117693e+17
19159.0	6.170303606554623e+17
19160.0	6.169121846023508e+17
19161.0	6.167923675277994e+17
19162.0	6.164158978457601e+17
19163.0	6.165591237503658e+17
19164.0	6.164482103443455e+17
19165.0	6.163255860221268e+17
19166.0	6.162008338595839e+17
19167.0	6.16072837472802e+17
19168.0	6.159787862174377e+17
19169.0	6.158583648135849e+17
19170.0	6.157477164176724e+17
19171.0	6.156147411124224e+17
19172.0	6.15513115922705e+17
19173.0	6.153969333523795e+17
19174.0	6.15277667549184e+17
19175.0	6.151647076024319e+17
19176.0	6.150480231137279e+17
19177.0	6.149217001144319e+17
19178.0	6.14808475017762e+17
19179.0	6.14674828763682e+17
19180.0	6.145754145314131e+17
19181.0	6.14457138024721e+17
19182.0	6.143458205674153e+17
19183.0	6.142306688871082e+17
19184.0	6.141119085674495e+17
19185.0	6.139977539431082e+17
19186.0	6.138814147155284e+17
19187.0	6.137599515863721e+17
19188.0	6.136472175028905e+17
19189.0	6.135285660953257e+17
19190.0	6.134108911916372e+17
19191.0	6.132933999984637e+17
19192.0	6.131814402534057e+17
19193.0	6.130626159706111e+17
19194.0	6.129463223211347e+17
19195.0	6.128312034962089e+17
19196.0	6.12714015830835e+17
19197.0	6.125966681527635e+17
19198.0	6.124769255271082e+17
19199.0	6.108214925983738e+17
19200.0	6.111963913038511e+17
19201.0	6.121277640496468e+17
19202.0	6.120143820161023e+17
19203.0	6.118944851798697e+17
19204.0	6.117798553408851e+17
19205.0	6.116649560877738e+17
19206.0	6.115482395825492e+17
19207.0	6.114261378007039e+17
19208.0	6.113024606382762e+17
19209.0	6.111985652815188e+17
19210.0	6.110821702696959e+17
19211.0	6.109660595617791e+17
19212.0	6.108493782188031e+17
19213.0	6.107141798625277e+17
19214.0	6.105902857147734e+17
19215.0	6.104931176721065e+17
19216.0	6.103823441461247e+17
19217.0	6.102659220111359e+17
19218.0	6.100962719913299e+17
19219.0	6.100226832771753e+17
19220.0	6.099132968774314e+17
19221.0	6.097777910087679e+17
19222.0	6.096817495561556e+17
19223.0	6.095639097464148e+17
19224.0	6.094452395343872e+17
19225.0	6.093223590800041e+17
19226.0	6.092133419887274e+17
19227.0	6.090962981180756e+17
19228.0	6.089811236487165e+17
19229.0	6.08864174149905e+17
19230.0	6.087445842668201e+17
19231.0	6.086276523141801e+17
19232.0	6.085122308003155e+17
19233.0	6.083914991577769e+17
19234.0	6.082777413844991e+17
19235.0	6.081608144650239e+17
19236.0	6.080451116531711e+17
19237.0	6.079269860016127e+17
19238.0	6.078027428178601e+17
19239.0	6.07693792485922e+17
19240.0	6.075724878315519e+17
19241.0	6.074566883409919e+17
19242.0	6.073409795173033e+17
19243.0	6.072143315293524e+17
19244.0	6.071074993209344e+17
19245.0	6.069901957529599e+17
19246.0	6.068717842595839e+17
19247.0	6.067552836911104e+17
19248.0	6.066378666672127e+17
19249.0	6.065193800957951e+17
19250.0	6.064014570291199e+17
19251.0	6.062772569767935e+17
19252.0	6.061500137471999e+17
19253.0	6.060482062450687e+17
19254.0	6.059313653088255e+17
19255.0	6.058027769659391e+17
19256.0	6.056920924291071e+17
19257.0	6.055782198018045e+17
19258.0	6.054603948818432e+17
19259.0	6.053379488175444e+17
19260.0	6.051864608331091e+17
19261.0	6.051052542842195e+17
19262.0	6.049841857691647e+17
19263.0	6.048657508575914e+17
19264.0	6.047169626068308e+17
19265.0	6.046203429694121e+17
19266.0	6.045016043203242e+17
19267.0	6.043957855955625e+17
19268.0	6.042771313218899e+17
19269.0	6.041583973564415e+17
19270.0	6.040394677267113e+17
19271.0	6.038993233073492e+17
19272.0	6.037993909387263e+17
19273.0	6.035558277753512e+17
19274.0	6.034865378732713e+17
19275.0	6.034470940093098e+17
19276.0	6.033264769411753e+17
19277.0	6.032072897112745e+17
19278.0	6.030878669712042e+17
19279.0	6.029651586230953e+17
19280.0	6.028435677773823e+17
19281.0	6.027280422447786e+17
19282.0	6.026089813333331e+17
19283.0	6.024646291182931e+17
19284.0	6.023447267595604e+17
19285.0	6.022357591610707e+17
19286.0	6.021254484765354e+17
19287.0	6.020068927690067e+17
19288.0	6.013005145833464e+17
19289.0	6.004175373249172e+17
19290.0	6.016440097658196e+17
19291.0	6.015066470088703e+17
19292.0	6.014015557861376e+17
19293.0	6.012794735078057e+17
19294.0	6.011575231403348e+17
19295.0	6.010363157239124e+17
19296.0	6.009137046836563e+17
19297.0	6.007900054312275e+17
19298.0	6.00667635982882e+17
19299.0	6.005461736925865e+17
19300.0	6.004234843586559e+17
19301.0	6.00300224389666e+17
19302.0	6.001762599873194e+17
19303.0	6.000488017297407e+17
19304.0	5.999273025994751e+17
19305.0	5.998045703438335e+17
19306.0	5.996802299920383e+17
19307.0	5.995519786614783e+17
19308.0	5.99428742390306e+17
19309.0	5.992497306839721e+17
19310.0	5.991075378364415e+17
19311.0	5.990475896979455e+17
19312.0	5.989293744979967e+17
19313.0	5.988032934401363e+17
19314.0	5.968644652313267e+17
19315.0	5.968507248312339e+17
19316.0	5.984182406042963e+17
19317.0	5.982955254054911e+17
19318.0	5.981674775685801e+17
19319.0	5.980404358752938e+17
19320.0	5.97911444529698e+17
19321.0	5.977824540229631e+17
19322.0	5.976448982581247e+17
19323.0	5.974987975775574e+17
19324.0	5.973918066846378e+17
19325.0	5.97209538241058e+17
19326.0	5.971308456181759e+17
19327.0	5.96998897078545e+17
19328.0	5.968670269024938e+17
19329.0	5.967353445613567e+17
19330.0	5.965997092984148e+17
19331.0	5.964657024740009e+17
19332.0	5.963340288709972e+17
19333.0	5.961985504051199e+17
19334.0	5.960637285575337e+17
19335.0	5.959263794320724e+17
19336.0	5.957902617542655e+17
19337.0	5.956535409355433e+17
19338.0	5.955025420768595e+17
19339.0	5.953764708057087e+17
19340.0	5.952320352638292e+17
19341.0	5.95094984982528e+17
19342.0	5.949294381804201e+17
19343.0	5.948140851735209e+17
19344.0	5.946708630437887e+17
19345.0	5.944044944708946e+17
19346.0	5.943289146507261e+17
19347.0	5.942330717984084e+17
19348.0	5.940920917338794e+17
19349.0	5.939420046469801e+17
19350.0	5.937939617939455e+17
19351.0	5.936449940968788e+17
19352.0	5.934904682479615e+17
19353.0	5.933441884007082e+17
19354.0	5.931912834405716e+17
19355.0	5.93007535456256e+17
19356.0	5.928471256978772e+17
19357.0	5.926902286690986e+17
19358.0	5.925300992300371e+17
19359.0	5.923647790601556e+17
19360.0	5.922073825596756e+17
19361.0	5.920454560011604e+17
19362.0	5.918836940690771e+17
19363.0	5.917174905787734e+17
19364.0	5.915494739607551e+17
19365.0	5.91379885597218e+17
19366.0	5.912082533493417e+17
19367.0	5.910347213613737e+17
19368.0	5.908591760375807e+17
19369.0	5.906761677886803e+17
19370.0	5.904867325378559e+17
19371.0	5.903158858831188e+17
19372.0	5.901345295608489e+17
19373.0	5.899459642785791e+17
19374.0	5.89757737406737e+17
19375.0	5.895652101150035e+17
19376.0	5.893702504764756e+17
19377.0	5.891719859361108e+17
19378.0	5.889711446250835e+17
19379.0	5.887670094572201e+17
19380.0	5.885598047578793e+17
19381.0	5.883495698836137e+17
19382.0	5.881310152578388e+17
19383.0	5.879112008029523e+17
19384.0	5.876971249947988e+17
19385.0	5.874722381583702e+17
19386.0	5.872435252778324e+17
19387.0	5.870103305737555e+17
19388.0	5.867727756110506e+17
19389.0	5.865306697586003e+17
19390.0	5.862833692606463e+17
19391.0	5.842017361155384e+17
19392.0	5.857452079710204e+17
19393.0	5.855138613471913e+17
19394.0	5.852456040792063e+17
19395.0	5.84970398667025e+17
19396.0	5.846327937553748e+17
19397.0	5.843453752289961e+17
19398.0	5.840529307380393e+17
19399.0	5.837131560430249e+17
19400.0	5.834504607716692e+17
19401.0	5.831438155557545e+17
19402.0	5.8282697293824e+17
19403.0	5.825007709410644e+17
19404.0	5.821691751388499e+17
19405.0	5.818274565936468e+17
19406.0	5.813910799471955e+17
19407.0	5.810127703638015e+17
19408.0	5.805993185946284e+17
19409.0	5.802690921627648e+17
19410.0	5.798849181035177e+17
19411.0	5.79390601830946e+17
19412.0	5.789191708693844e+17
19413.0	5.784973571959466e+17
19414.0	5.780114736414719e+17
19415.0	5.773939364069375e+17
19416.0	5.769029959898452e+17
19417.0	5.7617788024040083e+17
19418.0	5.7564517797724166e+17
19419.0	5.747720365015041e+17
19420.0	5.739943892615169e+17
19421.0	5.730587709014016e+17
19422.0	5.719194161119233e+17
19423.0	5.705719839981567e+17
19424.0	5.6896173302087597e+17
19425.0	5.669576572403713e+17
19426.0	5.6554423089889274e+17
19427.0	5.644891472964267e+17
19428.0	5.6337849510789114e+17
19429.0	5.6217682694198605e+17
19430.0	5.6086352129338035e+17
19431.0	5.5926196133341914e+17
19432.0	5.581868116912809e+17
19433.0	5.566932167513428e+17
19434.0	5.550771621156181e+17
19435.0	5.533366733854036e+17
19436.0	5.513566622842878e+17
19437.0	5.49398004175121e+17
19438.0	5.4420241376433536e+17
19439.0	5.434987508312745e+17
19440.0	5.385097485571428e+17
19441.0	5.329081795084287e+17
19442.0	5.2890539770511366e+17
19443.0	5.243995209509545e+17
19444.0	5.1951864426878266e+17
19445.0	5.1361406478800224e+17
19446.0	5.04335473993318e+17
19447.0	4.926075489135271e+17
19448.0	4.800945096141484e+17
19449.0	4.5857360667388525e+17
19450.0	4.1495522764827194e+17
19451.0	4.012908748996581e+17
19452.0	4.3928517090126656e+17
19453.0	4.7090457592026515e+17
19454.0	4.8665145156566957e+17
19455.0	4.976714726419094e+17
19456.0	5.0897019431376186e+17
19457.0	5.157788232362663e+17
19458.0	5.172049195215583e+17
19459.0	5.251629178333878e+17
19460.0	5.293255610597374e+17
19461.0	5.336072476513613e+17
19462.0	5.393400669579957e+17
19463.0	5.431271171817467e+17
19464.0	5.45700042436335e+17
19465.0	5.477826432772779e+17
19466.0	5.495006751446356e+17
19467.0	5.5113621567788365e+17
19468.0	5.5253472518690125e+17
19469.0	5.53880741163827e+17
19470.0	5.551209504396628e+17
19471.0	5.562711172360874e+17
19472.0	5.5734051040570003e+17
19473.0	5.5838073407842976e+17
19474.0	5.593149024676522e+17
19475.0	5.601343774042793e+17
19476.0	5.611055073285459e+17
19477.0	5.626623588040706e+17
19478.0	5.6430487348619904e+17
19479.0	5.6555240727510976e+17
19480.0	5.665132368975187e+17
19481.0	5.6729886729611936e+17
19482.0	5.6805021268486816e+17
19483.0	5.6856385784818304e+17
19484.0	5.6903679840965965e+17
19485.0	5.694889169081684e+17
19486.0	5.698508658398549e+17
19487.0	5.701431931699199e+17
19488.0	5.705360460830036e+17
19489.0	5.707417158068905e+17
19490.0	5.70860362670626e+17
19491.0	5.7125143789786445e+17
19492.0	5.714606468453716e+17
19493.0	5.716238117022377e+17
19494.0	5.717769393100117e+17
19495.0	5.719198957305855e+17
19496.0	5.7208070974996474e+17
19497.0	5.7228515480698874e+17
19498.0	5.7218410815160326e+17
19499.0	5.6960253319359014e+17
19500.0	5.726172418321066e+17
19501.0	5.7271232397748896e+17
19502.0	5.727982786183167e+17
19503.0	5.728810143405396e+17
19504.0	5.7295469749643936e+17
19505.0	5.730237462959443e+17
19506.0	5.730855891413674e+17
19507.0	5.7319872161382394e+17
19508.0	5.7325584377009485e+17
19509.0	5.7330077021853005e+17
19510.0	5.733274271176019e+17
19511.0	5.698435897010842e+17
19512.0	5.7294127488477805e+17
19513.0	5.726197082925725e+17
19514.0	5.7284865367736224e+17
19515.0	5.734116502099286e+17
19516.0	5.7347486878706336e+17
19517.0	5.7347935557386234e+17
19518.0	5.7348665345310714e+17
19519.0	5.734847582568447e+17
19520.0	5.734795017453568e+17
19521.0	5.734742263595006e+17
19522.0	5.7346121814507514e+17
19523.0	5.734492099226281e+17
19524.0	5.734318009046356e+17
19525.0	5.7341092550410234e+17
19526.0	5.733889305739263e+17
19527.0	5.733629355360255e+17
19528.0	5.733340514615296e+17
19529.0	5.733032671576064e+17
19530.0	5.7326999234587296e+17
19531.0	5.732339578918228e+17
19532.0	5.731956160113321e+17
19533.0	5.7315505457506976e+17
19534.0	5.731121405536938e+17
19535.0	5.730668551427413e+17
19536.0	5.7301828580147194e+17
19537.0	5.7297223304260256e+17
19538.0	5.729145248721577e+17
19539.0	5.728352570004821e+17
19540.0	5.728137556000767e+17
19541.0	5.727597001091754e+17
19542.0	5.727024319911252e+17
19543.0	5.72643429528371e+17
19544.0	5.7258404580338336e+17
19545.0	5.724930461837994e+17
19546.0	5.724043270073002e+17
19547.0	5.7239623996975776e+17
19548.0	5.7233087188172794e+17
19549.0	5.722585095820627e+17
19550.0	5.721969200026964e+17
19551.0	5.7212834481001805e+17
19552.0	5.720584693830996e+17
19553.0	5.71986141127202e+17
19554.0	5.7191342790410234e+17
19555.0	5.7184210698021536e+17
19556.0	5.717693250404352e+17
19557.0	5.7169442183140685e+17
19558.0	5.716190406814377e+17
19559.0	5.7154420653861536e+17
19560.0	5.7149484349521914e+17
19561.0	5.7141681028683085e+17
19562.0	5.7133998266122234e+17
19563.0	5.712605335956138e+17
19564.0	5.711804507706708e+17
19565.0	5.710996659590484e+17
19566.0	5.710162641114452e+17
19567.0	5.709360723744084e+17
19568.0	5.708518661292031e+17
19569.0	5.7076964791418874e+17
19570.0	5.706863872049151e+17
19571.0	5.706017177687381e+17
19572.0	5.705152483469994e+17
19573.0	5.704302465122302e+17
19574.0	5.703400689762303e+17
19575.0	5.702593375021738e+17
19576.0	5.7017254588798285e+17
19577.0	5.7008347578804896e+17
19578.0	5.69994806174242e+17
19579.0	5.6990755486433274e+17
19580.0	5.6981904393502714e+17
19581.0	5.697308400287743e+17
19582.0	5.696425807577087e+17
19583.0	5.695528831898964e+17
19584.0	5.6946170097827834e+17
19585.0	5.693655025887913e+17
19586.0	5.6927219596219725e+17
19587.0	5.691807011351211e+17
19588.0	5.69069399965696e+17
19589.0	5.6900541578827085e+17
19590.0	5.6890900062317216e+17
19591.0	5.6882323542507514e+17
19592.0	5.687307833180158e+17
19593.0	5.686368162982571e+17
19594.0	5.6852911293289805e+17
19595.0	5.6844909358175565e+17
19596.0	5.6821095232525664e+17
19597.0	5.6825952928617805e+17
19598.0	5.6814753284096e+17
19599.0	5.680759667600041e+17
19600.0	5.6798209537037645e+17
19601.0	5.6788314125325645e+17
19602.0	5.6778945937626445e+17
19603.0	5.676472108143955e+17
19604.0	5.67596529361442e+17
19605.0	5.674882947175764e+17
19606.0	5.6741121054037325e+17
19607.0	5.673157620225364e+17
19608.0	5.6721865004373325e+17
19609.0	5.671203705804116e+17
19610.0	5.670272398349652e+17
19611.0	5.6693034819693216e+17
19612.0	5.668346787790847e+17
19613.0	5.667373070330539e+17
19614.0	5.6663864826484045e+17
19615.0	5.6654379981209594e+17
19616.0	5.664307690515115e+17
19617.0	5.663492443646634e+17
19618.0	5.6621669198506643e+17
19619.0	5.6611100265458323e+17
19620.0	5.6601523117533856e+17
19621.0	5.6595951152442003e+17
19622.0	5.6586236018906445e+17
19623.0	5.657645023231999e+17
19624.0	5.6566590521125536e+17
19625.0	5.655682879586303e+17
19626.0	5.6547020387997005e+17
19627.0	5.6537173686135443e+17
19628.0	5.652356000295594e+17
19629.0	5.651674409118377e+17
19630.0	5.649870558505642e+17
19631.0	5.6327902802739194e+17
19632.0	5.64877689303859e+17
19633.0	5.6477627208171514e+17
19634.0	5.646816786426538e+17
19635.0	5.645803618740906e+17
19636.0	5.644833444768426e+17
19637.0	5.643612784164864e+17
19638.0	5.642852133153449e+17
19639.0	5.64185702264559e+17
19640.0	5.6408089583506765e+17
19641.0	5.639356477166932e+17
19642.0	5.6388822565737805e+17
19643.0	5.6378848699569485e+17
19644.0	5.636859798137513e+17
19645.0	5.6357294996193274e+17
19646.0	5.6349021221246285e+17
19647.0	5.6339130129667405e+17
19648.0	5.63291686576674e+17
19649.0	5.631918092233386e+17
19650.0	5.6309223511818234e+17
19651.0	5.629920589206868e+17
19652.0	5.6289243322559136e+17
19653.0	5.6279185143889914e+17
19654.0	5.6269282049611085e+17
19655.0	5.625925813840553e+17
19656.0	5.6249244768884045e+17
19657.0	5.6239286407659514e+17
19658.0	5.6229281147125754e+17
19659.0	5.6219262387923616e+17
19660.0	5.620926090925397e+17
19661.0	5.619924579909632e+17
