# Flux units: erg / (cm m2 s)
# Wavelength units: Angstrom
wave	flux
19000.0	8.864467837605204e+17
19001.0	8.862977634948436e+17
19002.0	8.861542896369661e+17
19003.0	8.8600738819386e+17
19004.0	8.85860143796497e+17
19005.0	8.857126319423485e+17
19006.0	8.855646545204564e+17
19007.0	8.854150583768403e+17
19008.0	8.852659828861608e+17
19009.0	8.851161352241152e+17
19010.0	8.849573988532224e+17
19011.0	8.848186205186728e+17
19012.0	8.846646915192147e+17
19013.0	8.845192236892157e+17
19014.0	8.843667737411583e+17
19015.0	8.842175173361663e+17
19016.0	8.8406468081309e+17
19017.0	8.839133150926166e+17
19018.0	8.83762462335522e+17
19019.0	8.836103440171007e+17
19020.0	8.834574245866154e+17
19021.0	8.833046276298067e+17
19022.0	8.831518368246442e+17
19023.0	8.829983938052097e+17
19024.0	8.828444134954323e+17
19025.0	8.826905706190166e+17
19026.0	8.825354605035519e+17
19027.0	8.823787045431977e+17
19028.0	8.822387800451753e+17
19029.0	8.822858854345385e+17
19030.0	8.821303132465833e+17
19031.0	8.81974460739311e+17
19032.0	8.818183431520255e+17
19033.0	8.816592509643433e+17
19034.0	8.815051923608915e+17
19035.0	8.813458099273728e+17
19036.0	8.809934735714986e+17
19037.0	8.810329669981524e+17
19038.0	8.808764055136937e+17
19039.0	8.807187522519039e+17
19040.0	8.805607687585791e+17
19041.0	8.804025270359378e+17
19042.0	8.802416085084841e+17
19043.0	8.800853745991676e+17
19044.0	8.799263840534527e+17
19045.0	8.797672701951999e+17
19046.0	8.79606563340288e+17
19047.0	8.794477222516051e+17
19048.0	8.792831769094825e+17
19049.0	8.791263857169748e+17
19050.0	8.789667496678739e+17
19051.0	8.787752809485651e+17
19052.0	8.78640217788689e+17
19053.0	8.784862300689748e+17
19054.0	8.783253477523455e+17
19055.0	8.781564392155817e+17
19056.0	8.780027537653757e+17
19057.0	8.778411284976978e+17
19058.0	8.776793073560234e+17
19059.0	8.77517215821551e+17
19060.0	8.773544557150207e+17
19061.0	8.771926795922089e+17
19062.0	8.770299688386559e+17
19063.0	8.768672153032017e+17
19064.0	8.7670111876765e+17
19065.0	8.765354949301588e+17
19066.0	8.763758047745362e+17
19067.0	8.762143496557906e+17
19068.0	8.760506845582675e+17
19069.0	8.758868416222547e+17
19070.0	8.75722536054511e+17
19071.0	8.75558583227733e+17
19072.0	8.753941858047315e+17
19073.0	8.752294805198166e+17
19074.0	8.750648803721213e+17
19075.0	8.748999593601704e+17
19076.0	8.747343065819817e+17
19077.0	8.745692498143914e+17
19078.0	8.74403393193028e+17
19079.0	8.742385636169043e+17
19080.0	8.740726303795881e+17
19081.0	8.739055613247485e+17
19082.0	8.73739662201105e+17
19083.0	8.735709907823273e+17
19084.0	8.734001077070505e+17
19085.0	8.73241477591859e+17
19086.0	8.730618885395795e+17
19087.0	8.729038082976425e+17
19088.0	8.727371361637715e+17
19089.0	8.725659032835411e+17
19090.0	8.724056687072596e+17
19091.0	8.722377276566186e+17
19092.0	8.720686745561769e+17
19093.0	8.719032382040744e+17
19094.0	8.717335548395517e+17
19095.0	8.715651125695828e+17
19096.0	8.713985510255273e+17
19097.0	8.712305428660224e+17
19098.0	8.710620350251004e+17
19099.0	8.708932314857472e+17
19100.0	8.707243008589825e+17
19101.0	8.705551222090409e+17
19102.0	8.703836752794964e+17
19103.0	8.702164759216127e+17
19104.0	8.700468582678527e+17
19105.0	8.698769851809791e+17
19106.0	8.697063582378666e+17
19107.0	8.695364186013695e+17
19108.0	8.693660473709907e+17
19109.0	8.691781624048297e+17
19110.0	8.690230185951231e+17
19111.0	8.688549949166931e+17
19112.0	8.686843959356073e+17
19113.0	8.685134513438719e+17
19114.0	8.683422852928851e+17
19115.0	8.68170003976465e+17
19116.0	8.679994045759485e+17
19117.0	8.678270033024339e+17
19118.0	8.676529203926356e+17
19119.0	8.674284747969875e+17
19120.0	8.673099743843668e+17
19121.0	8.671381631096148e+17
19122.0	8.669670852788221e+17
19123.0	8.667943741860518e+17
19124.0	8.666202561839103e+17
19125.0	8.664484345632083e+17
19126.0	8.662748156832425e+17
19127.0	8.660563637480105e+17
19128.0	8.659206584401919e+17
19129.0	8.657521243149651e+17
19130.0	8.655591586485586e+17
19131.0	8.654803394276008e+17
19132.0	8.653056426115071e+17
19133.0	8.651249381539839e+17
19134.0	8.649533849687382e+17
19135.0	8.64781645136964e+17
19136.0	8.646064924000255e+17
19137.0	8.642774369479336e+17
19138.0	8.640488325600594e+17
19139.0	8.63873583493939e+17
19140.0	8.63697726812979e+17
19141.0	8.635216058908668e+17
19142.0	8.633452358270973e+17
19143.0	8.631673956597757e+17
19144.0	8.62991744919142e+17
19145.0	8.628151521378303e+17
19146.0	8.626210664524458e+17
19147.0	8.624584799901012e+17
19148.0	8.622831633956861e+17
19149.0	8.62105511412804e+17
19150.0	8.619275352102228e+17
19151.0	8.617496189861885e+17
19152.0	8.615712585853609e+17
19153.0	8.613927853577555e+17
19154.0	8.612106549766826e+17
19155.0	8.610349628522495e+17
19156.0	8.608555914843478e+17
19157.0	8.60674763015236e+17
19158.0	8.604877738125994e+17
19159.0	8.603160367770281e+17
19160.0	8.601372516330154e+17
19161.0	8.599558397362176e+17
19162.0	8.597492607571283e+17
19163.0	8.595932311104168e+17
19164.0	8.594163679363071e+17
19165.0	8.592354769720659e+17
19166.0	8.590517787601578e+17
19167.0	8.588707484052137e+17
19168.0	8.58690402980113e+17
19169.0	8.58509086433826e+17
19170.0	8.583279375198888e+17
19171.0	8.581449116549117e+17
19172.0	8.579631126238548e+17
19173.0	8.577805045115561e+17
19174.0	8.575961012371453e+17
19175.0	8.574142900426068e+17
19176.0	8.572307348564649e+17
19177.0	8.570424111661055e+17
19178.0	8.568619727672658e+17
19179.0	8.566771202828969e+17
19180.0	8.564933490900991e+17
19181.0	8.561972127727612e+17
19182.0	8.55859502653986e+17
19183.0	8.556744341629608e+17
19184.0	8.554874129438036e+17
19185.0	8.553018019894611e+17
19186.0	8.551153299445075e+17
19187.0	8.549261444644863e+17
19188.0	8.547410042508628e+17
19189.0	8.545531356424876e+17
19190.0	8.543649331675133e+17
19191.0	8.541769132845737e+17
19192.0	8.5398837540509e+17
19193.0	8.53798890311953e+17
19194.0	8.536095787231914e+17
19195.0	8.534196233087656e+17
19196.0	8.532283380203519e+17
19197.0	8.530356719670612e+17
19198.0	8.528352506456744e+17
19199.0	8.524865009789608e+17
19200.0	8.523297464167081e+17
19201.0	8.522632771840681e+17
19202.0	8.52080304726562e+17
19203.0	8.518905562311337e+17
19204.0	8.516983205134335e+17
19205.0	8.515064594868906e+17
19206.0	8.511731933730134e+17
19207.0	8.507883129929727e+17
19208.0	8.505905350617768e+17
19209.0	8.50400214463283e+17
19210.0	8.502045285111122e+17
19211.0	8.500083329510056e+17
19212.0	8.498116898586621e+17
19213.0	8.496116242142547e+17
19214.0	8.494131456944809e+17
19215.0	8.492185639627433e+17
19216.0	8.490207626832553e+17
19217.0	8.488214556486313e+17
19218.0	8.486003232735231e+17
19219.0	8.484157971060054e+17
19220.0	8.482205223354367e+17
19221.0	8.480110656443732e+17
19222.0	8.478169357789866e+17
19223.0	8.474116102640975e+17
19224.0	8.47007309697297e+17
19225.0	8.46800295768883e+17
19226.0	8.465991259040425e+17
19227.0	8.46393802699571e+17
19228.0	8.461878943896914e+17
19229.0	8.459814279577599e+17
19230.0	8.457743901218131e+17
19231.0	8.455670435850921e+17
19232.0	8.453585610910377e+17
19233.0	8.451482992334164e+17
19234.0	8.449408152633343e+17
19235.0	8.44731827355648e+17
19236.0	8.44382263854148e+17
19237.0	8.44067518947874e+17
19238.0	8.438531150752426e+17
19239.0	8.436432258116266e+17
19240.0	8.434279892298409e+17
19241.0	8.432153940809042e+17
19242.0	8.430018645808467e+17
19243.0	8.427816808174931e+17
19244.0	8.425714094527827e+17
19245.0	8.423552290127868e+17
19246.0	8.421380394232489e+17
19247.0	8.419209507766271e+17
19248.0	8.417030122242047e+17
19249.0	8.41484511215616e+17
19250.0	8.412653781254143e+17
19251.0	8.410368421046954e+17
19252.0	8.407999665493331e+17
19253.0	8.405877831412394e+17
19254.0	8.403661301131944e+17
19255.0	8.401384414816936e+17
19256.0	8.399204239365459e+17
19257.0	8.396978555715583e+17
19258.0	8.394736061295272e+17
19259.0	8.392464289234944e+17
19260.0	8.390200711446525e+17
19261.0	8.38796764721971e+17
19262.0	8.385692268057942e+17
19263.0	8.383406226975402e+17
19264.0	8.380995657007101e+17
19265.0	8.378756112580608e+17
19266.0	8.376438839312381e+17
19267.0	8.374127366766591e+17
19268.0	8.371774869733373e+17
19269.0	8.369412258835114e+17
19270.0	8.3670375347869e+17
19271.0	8.364575096657236e+17
19272.0	8.362249666865834e+17
19273.0	8.359253408481279e+17
19274.0	8.357055653303636e+17
19275.0	8.355019655654056e+17
19276.0	8.352588055445503e+17
19277.0	8.350142573488808e+17
19278.0	8.34768525660433e+17
19279.0	8.345214580861608e+17
19280.0	8.342716173778943e+17
19281.0	8.3402407542784e+17
19282.0	8.337734707970045e+17
19283.0	8.335203839770624e+17
19284.0	8.332652837513897e+17
19285.0	8.330112912414036e+17
19286.0	8.327582091750056e+17
19287.0	8.325024709956947e+17
19288.0	8.321931342249983e+17
19289.0	8.318660326195197e+17
19290.0	8.317243677649577e+17
19291.0	8.314555278382419e+17
19292.0	8.312004400556714e+17
19293.0	8.309360638470825e+17
19294.0	8.306705203636906e+17
19295.0	8.304034628763645e+17
19296.0	8.301351157803689e+17
19297.0	8.29865205047842e+17
19298.0	8.29593816941636e+17
19299.0	8.293207929170604e+17
19300.0	8.290460945263273e+17
19301.0	8.287605878336168e+17
19302.0	8.284526676191914e+17
19303.0	8.281710511434408e+17
19304.0	8.278899452542975e+17
19305.0	8.276069673074688e+17
19306.0	8.273212173451261e+17
19307.0	8.270318587434323e+17
19308.0	8.267434212108969e+17
19309.0	8.264472946802685e+17
19310.0	8.261506627360084e+17
19311.0	8.258617127993343e+17
19312.0	8.255663933926058e+17
19313.0	8.2526640013312e+17
19314.0	8.248973169000447e+17
19315.0	8.245979065090048e+17
19316.0	8.243547972392276e+17
19317.0	8.240473037253289e+17
19318.0	8.237368410636285e+17
19319.0	8.234239582885202e+17
19320.0	8.231084419099305e+17
19321.0	8.227905641381885e+17
19322.0	8.224673804320767e+17
19323.0	8.220974373666815e+17
19324.0	8.217475451715581e+17
19325.0	8.214148348029608e+17
19326.0	8.21084234309086e+17
19327.0	8.207490955782826e+17
19328.0	8.204123117016403e+17
19329.0	8.200724989782697e+17
19330.0	8.197289570992127e+17
19331.0	8.193831419073875e+17
19332.0	8.190358884887208e+17
19333.0	8.18684573725491e+17
19334.0	8.183293614751744e+17
19335.0	8.179566652686333e+17
19336.0	8.174923843371007e+17
19337.0	8.171258571128828e+17
19338.0	8.167516323621544e+17
19339.0	8.163846910203219e+17
19340.0	8.160078806209876e+17
19341.0	8.15628543992354e+17
19342.0	8.152374796703059e+17
19343.0	8.1485853898397e+17
19344.0	8.144672464917842e+17
19345.0	8.139527668716883e+17
19346.0	8.134872119902207e+17
19347.0	8.131006193554772e+17
19348.0	8.126933135698602e+17
19349.0	8.122773450085718e+17
19350.0	8.11854815577156e+17
19351.0	8.114250362912765e+17
19352.0	8.109891653380778e+17
19353.0	8.103442825696599e+17
19354.0	8.098855220412412e+17
19355.0	8.094331033004716e+17
19356.0	8.089784699671889e+17
19357.0	8.085153653981181e+17
19358.0	8.079681749603668e+17
19359.0	8.072761445799254e+17
19360.0	8.067915745416532e+17
19361.0	8.062978142240767e+17
19362.0	8.057975412708692e+17
19363.0	8.051218734295721e+17
19364.0	8.044114775900157e+17
19365.0	8.038837406138365e+17
19366.0	8.033472534806527e+17
19367.0	8.026743186478422e+17
19368.0	8.018137391824896e+17
19369.0	8.012454506965673e+17
19370.0	8.006655950192639e+17
19371.0	7.997607841016488e+17
19372.0	7.989782795081042e+17
19373.0	7.983604483227647e+17
19374.0	7.975064086162093e+17
19375.0	7.964960933369172e+17
19376.0	7.95847429543253e+17
19377.0	7.949268421705724e+17
19378.0	7.938566150335145e+17
19379.0	7.931770799041194e+17
19380.0	7.922525128359935e+17
19381.0	7.914182709433682e+17
19382.0	7.90707071754786e+17
19383.0	7.8998669361152e+17
19384.0	7.892581051181738e+17
19385.0	7.885161429467133e+17
19386.0	7.877324169718441e+17
19387.0	7.869565481866579e+17
19388.0	7.861793558189396e+17
19389.0	7.853774448798378e+17
19390.0	7.845534324752381e+17
19391.0	7.835977810007378e+17
19392.0	7.828522606613842e+17
19393.0	7.819748181366099e+17
19394.0	7.810071994739369e+17
19395.0	7.800906148653738e+17
19396.0	7.791532399307433e+17
19397.0	7.781929153025364e+17
19398.0	7.77207342641971e+17
19399.0	7.760987493673642e+17
19400.0	7.750375004176384e+17
19401.0	7.739510631344809e+17
19402.0	7.728340032378195e+17
19403.0	7.7159847732183e+17
19404.0	7.703637030251177e+17
19405.0	7.691603600037203e+17
19406.0	7.678865771418966e+17
19407.0	7.664719382271314e+17
19408.0	7.651748409070932e+17
19409.0	7.638055534635693e+17
19410.0	7.622820185331027e+17
19411.0	7.608474343047165e+17
19412.0	7.59176029466351e+17
19413.0	7.575353393763668e+17
19414.0	7.558350171886931e+17
19415.0	7.539687825954132e+17
19416.0	7.521860679193938e+17
19417.0	7.500799480780118e+17
19418.0	7.482277641235114e+17
19419.0	7.4601629455046e+17
19420.0	7.44026764476416e+17
19421.0	7.416996281625261e+17
19422.0	7.395685839492438e+17
19423.0	7.370919785791483e+17
19424.0	7.347920360352426e+17
19425.0	7.322299253041833e+17
19426.0	7.297007079828136e+17
19427.0	7.271037095903232e+17
19428.0	7.243506712051711e+17
19429.0	7.215270716243965e+17
19430.0	7.18585343106526e+17
19431.0	7.153588237238272e+17
19432.0	7.12036565996885e+17
19433.0	7.085081264914433e+17
19434.0	7.048294052134911e+17
19435.0	7.009628424503293e+17
19436.0	6.967956636434432e+17
19437.0	6.924796902943402e+17
19438.0	6.878539172631891e+17
19439.0	6.830246509324972e+17
19440.0	6.779169326585172e+17
19441.0	6.724735930990588e+17
19442.0	6.667235178665303e+17
19443.0	6.606261279784959e+17
19444.0	6.541685125982888e+17
19445.0	6.4733431463936e+17
19446.0	6.401138341445631e+17
19447.0	6.324786907054075e+17
19448.0	6.243803706949635e+17
19449.0	6.156798365706921e+17
19450.0	6.057830598923598e+17
19451.0	6.006085141222746e+17
19452.0	6.108521784759638e+17
19453.0	6.197991789909336e+17
19454.0	6.279356455671121e+17
19455.0	6.355588060195497e+17
19456.0	6.427446307979265e+17
19457.0	6.495274164464296e+17
19458.0	6.558951185317887e+17
19459.0	6.619480118875479e+17
19460.0	6.676089698342226e+17
19461.0	6.729511636129107e+17
19462.0	6.779585955190102e+17
19463.0	6.826850189137234e+17
19464.0	6.871528801042431e+17
19465.0	6.913172257286826e+17
19466.0	6.95283375948868e+17
19467.0	6.990405898513066e+17
19468.0	7.025043769567914e+17
19469.0	7.058519218629289e+17
19470.0	7.089958843405651e+17
19471.0	7.119965081567232e+17
19472.0	7.147911916464808e+17
19473.0	7.173713490695508e+17
19474.0	7.198943796527104e+17
19475.0	7.222666998054908e+17
19476.0	7.245303256885929e+17
19477.0	7.268396455777622e+17
19478.0	7.289340029130067e+17
19479.0	7.3108200357888e+17
19480.0	7.330153234082474e+17
19481.0	7.350399767237974e+17
19482.0	7.368374575868586e+17
19483.0	7.386991268200444e+17
19484.0	7.403940741469522e+17
19485.0	7.420793067667456e+17
19486.0	7.437368620133033e+17
19487.0	7.452141877373609e+17
19488.0	7.467756214201004e+17
19489.0	7.480526338960042e+17
19490.0	7.494941771737768e+17
19491.0	7.507094104877736e+17
19492.0	7.518660820904617e+17
19493.0	7.530626708843178e+17
19494.0	7.540658269061119e+17
19495.0	7.55112049202517e+17
19496.0	7.561663706999464e+17
19497.0	7.570915931979773e+17
19498.0	7.579656611255639e+17
19499.0	7.588082015884628e+17
19500.0	7.598114789654527e+17
19501.0	7.606115410553514e+17
19502.0	7.613763147879764e+17
19503.0	7.621839414449491e+17
19504.0	7.629025599378772e+17
19505.0	7.635719241596925e+17
19506.0	7.642169131838121e+17
19507.0	7.64839291134498e+17
19508.0	7.654779055155881e+17
19509.0	7.660951072757076e+17
19510.0	7.666542485438463e+17
19511.0	7.670592970948605e+17
19512.0	7.676984493255338e+17
19513.0	7.681792548361555e+17
19514.0	7.686791479252308e+17
19515.0	7.691738859350697e+17
19516.0	7.696668589817853e+17
19517.0	7.701168704716799e+17
19518.0	7.7054763625786e+17
19519.0	7.709659252479315e+17
19520.0	7.713728763352407e+17
19521.0	7.717721894551552e+17
19522.0	7.725100055571116e+17
19523.0	7.728867350063786e+17
19524.0	7.734265528363686e+17
19525.0	7.742398468369066e+17
19526.0	7.745841954204328e+17
19527.0	7.750714762373798e+17
19528.0	7.758006979308204e+17
19529.0	7.76125600183091e+17
19530.0	7.764233297767085e+17
19531.0	7.771834226660694e+17
19532.0	7.774545670832125e+17
19533.0	7.777152078446592e+17
19534.0	7.78106762480845e+17
19535.0	7.786138254529875e+17
19536.0	7.788427231625215e+17
19537.0	7.790645492755114e+17
19538.0	7.793233421664256e+17
19539.0	7.798053578735615e+17
19540.0	7.800093541400573e+17
19541.0	7.801961785065472e+17
19542.0	7.803746735445331e+17
19543.0	7.806388187867821e+17
19544.0	7.809780979946836e+17
19545.0	7.811227099070461e+17
19546.0	7.812623314365096e+17
19547.0	7.814230230521172e+17
19548.0	7.815586957841748e+17
19549.0	7.818131533026644e+17
19550.0	7.820205243061587e+17
19551.0	7.821404642039123e+17
19552.0	7.8225469355677e+17
19553.0	7.823616474699092e+17
19554.0	7.824612654055424e+17
19555.0	7.825570380032681e+17
19556.0	7.826513290330108e+17
19557.0	7.828854771722921e+17
19558.0	7.829666829522259e+17
19559.0	7.830437211318953e+17
19560.0	7.831161118829225e+17
19561.0	7.831861827644073e+17
19562.0	7.832516867478866e+17
19563.0	7.833135289641642e+17
19564.0	7.833718911664127e+17
19565.0	7.834267929280511e+17
19566.0	7.835002651104596e+17
19567.0	7.836302190488232e+17
19568.0	7.836762066561705e+17
19569.0	7.837177248131753e+17
19570.0	7.837552457984681e+17
19571.0	7.837895238877183e+17
19572.0	7.83820176420591e+17
19573.0	7.838491751393961e+17
19574.0	7.838728644285779e+17
19575.0	7.838989549567999e+17
19576.0	7.839203822578345e+17
19577.0	7.839389490435412e+17
19578.0	7.839544409849855e+17
19579.0	7.839911049341609e+17
19580.0	7.840399094360745e+17
19581.0	7.840464450005673e+17
19582.0	7.840505575156394e+17
19583.0	7.840518234963967e+17
19584.0	7.84050573873425e+17
19585.0	7.840441656759636e+17
19586.0	7.840373941119658e+17
19587.0	7.840323967385599e+17
19588.0	7.84012016755234e+17
19589.0	7.840099917452628e+17
19590.0	7.839944096262825e+17
19591.0	7.839795980009471e+17
19592.0	7.839609758504275e+17
19593.0	7.839404696185513e+17
19594.0	7.839115722620928e+17
19595.0	7.838931205401258e+17
19596.0	7.838457668479657e+17
19597.0	7.838387443247785e+17
19598.0	7.838034615599103e+17
19599.0	7.837773007071916e+17
19600.0	7.83743307411183e+17
19601.0	7.837057928571561e+17
19602.0	7.836960510268756e+17
19603.0	7.836529791598591e+17
19604.0	7.83621957947665e+17
19605.0	7.835736953498284e+17
19606.0	7.835379783346858e+17
19607.0	7.834929179481428e+17
19608.0	7.834463467732991e+17
19609.0	7.833979196189353e+17
19610.0	7.833491588775935e+17
19611.0	7.832983058776063e+17
19612.0	7.8324661485568e+17
19613.0	7.831937734759766e+17
19614.0	7.831383669997567e+17
19615.0	7.830840363625128e+17
19616.0	7.83025916870656e+17
19617.0	7.829690844708863e+17
19618.0	7.8289615978496e+17
19619.0	7.82832168407313e+17
19620.0	7.827714476081152e+17
19621.0	7.827243452945748e+17
19622.0	7.826603263743318e+17
19623.0	7.825950241368745e+17
19624.0	7.825285722406911e+17
19625.0	7.82460972643123e+17
19626.0	7.823922228275881e+17
19627.0	7.823221207684438e+17
19628.0	7.8224713332381e+17
19629.0	7.8217547363997e+17
19630.0	7.82080374088226e+17
19631.0	7.818493831413757e+17
19632.0	7.819544627598675e+17
19633.0	7.818816409741993e+17
19634.0	7.818055273589417e+17
19635.0	7.817267404341247e+17
19636.0	7.816495326647636e+17
19637.0	7.815573633936041e+17
19638.0	7.814883111687506e+17
19639.0	7.814046371807232e+17
19640.0	7.813185590176425e+17
19641.0	7.812224791172436e+17
19642.0	7.811493122801663e+17
19643.0	7.81062532829457e+17
19644.0	7.809734754522451e+17
19645.0	7.808806566232063e+17
19646.0	7.807986641316521e+17
19647.0	7.807094076648105e+17
19648.0	7.806194771733161e+17
19649.0	7.805288494486868e+17
19650.0	7.804377312701097e+17
19651.0	7.803459201925117e+17
19652.0	7.802534710214655e+17
19653.0	7.801603872522239e+17
19654.0	7.800669662609408e+17
19655.0	7.799728430033577e+17
19656.0	7.79878181057331e+17
19657.0	7.797831617566036e+17
19658.0	7.796961896475304e+17
19659.0	7.7960440737082e+17
19660.0	7.795074942020268e+17
19661.0	7.794099685250387e+17
19662.0	7.793118756383402e+17
19663.0	7.79212022821683e+17
19664.0	7.792654779678716e+17
19665.0	7.792177279139839e+17
19666.0	7.791163016740864e+17
