# Flux units: erg / (cm m2 s)
# Wavelength units: Angstrom
wave	flux
19000.0	7.747144176544425e+17
19001.0	7.745583615836157e+17
19002.0	7.744199881392127e+17
19003.0	7.742718302224383e+17
19004.0	7.741239220065619e+17
19005.0	7.739782176178175e+17
19006.0	7.738306622827178e+17
19007.0	7.735757672983212e+17
19008.0	7.735275885865641e+17
19009.0	7.733872303975081e+17
19010.0	7.732050393388372e+17
19011.0	7.730931058081791e+17
19012.0	7.728608469232296e+17
19013.0	7.728010548827475e+17
19014.0	7.726492976939007e+17
19015.0	7.725045328292521e+17
19016.0	7.723574074103122e+17
19017.0	7.721388222360233e+17
19018.0	7.720570024099839e+17
19019.0	7.719185710841853e+17
19020.0	7.717644719357951e+17
19021.0	7.716216420433919e+17
19022.0	7.714793413323434e+17
19023.0	7.713291616212308e+17
19024.0	7.711828155039743e+17
19025.0	7.710269662123346e+17
19026.0	7.708820861441364e+17
19027.0	7.707022515852627e+17
19028.0	7.705988382239404e+17
19029.0	7.704504195612671e+17
19030.0	7.703066414765395e+17
19031.0	7.701606366358185e+17
19032.0	7.700136044702378e+17
19033.0	7.698601441143464e+17
19034.0	7.697176812235433e+17
19035.0	7.695708552779094e+17
19036.0	7.643767863508955e+17
19037.0	7.692793788323156e+17
19038.0	7.691328993361917e+17
19039.0	7.689880669432489e+17
19040.0	7.688422083439276e+17
19041.0	7.686947521342121e+17
19042.0	7.685417925782186e+17
19043.0	7.684036341618004e+17
19044.0	7.68255460586291e+17
19045.0	7.681074669464232e+17
19046.0	7.679495993556992e+17
19047.0	7.678177059711658e+17
19048.0	7.676556630906195e+17
19049.0	7.675201640027475e+17
19050.0	7.673758895920467e+17
19051.0	7.667490550535498e+17
19052.0	7.670514699643562e+17
19053.0	7.669134879883263e+17
19054.0	7.667947452847444e+17
19055.0	7.666287352916649e+17
19056.0	7.664985421381632e+17
19057.0	7.663546248025428e+17
19058.0	7.661822545668776e+17
19059.0	7.660644445366953e+17
19060.0	7.659164598446761e+17
19061.0	7.657732686828884e+17
19062.0	7.656263644435795e+17
19063.0	7.654811156960596e+17
19064.0	7.653250046798505e+17
19065.0	7.65173974503697e+17
19066.0	7.650389300783785e+17
19067.0	7.648976372585812e+17
19068.0	7.647530932939433e+17
19069.0	7.646071429791743e+17
19070.0	7.644558966565545e+17
19071.0	7.643113062749523e+17
19072.0	7.641701644500991e+17
19073.0	7.640244135045802e+17
19074.0	7.638796950568957e+17
19075.0	7.637338365973842e+17
19076.0	7.635868912538963e+17
19077.0	7.634420015387987e+17
19078.0	7.632829556282708e+17
19079.0	7.631513860440063e+17
19080.0	7.630059110836906e+17
19081.0	7.628574065775956e+17
19082.0	7.627069879309654e+17
19083.0	7.625601499616595e+17
19084.0	7.62404858372642e+17
19085.0	7.62277794030114e+17
19086.0	7.620972008614568e+17
19087.0	7.618845619519488e+17
19088.0	7.6183546902173e+17
19089.0	7.616290541797373e+17
19090.0	7.615515412048554e+17
19091.0	7.614058937188348e+17
19092.0	7.612343377373866e+17
19093.0	7.61119226602018e+17
19094.0	7.609695563590313e+17
19095.0	7.608227216053587e+17
19096.0	7.606524293677055e+17
19097.0	7.605344876363775e+17
19098.0	7.60393779921988e+17
19099.0	7.602475361457491e+17
19100.0	7.600960183118506e+17
19101.0	7.599574948511744e+17
19102.0	7.598092334749012e+17
19103.0	7.596704659057322e+17
19104.0	7.595265772311891e+17
19105.0	7.593815443505151e+17
19106.0	7.592170854110547e+17
19107.0	7.590908554554025e+17
19108.0	7.589475119005696e+17
19109.0	7.581630386405366e+17
19110.0	7.586546063157928e+17
19111.0	7.585114281563475e+17
19112.0	7.583680636299945e+17
19113.0	7.58224751113011e+17
19114.0	7.580806446142804e+17
19115.0	7.579264522125311e+17
19116.0	7.577902890265257e+17
19117.0	7.576460731962708e+17
19118.0	7.574764514880168e+17
19119.0	7.572138181525499e+17
19120.0	7.571874377979219e+17
19121.0	7.570542500511741e+17
19122.0	7.569260859621373e+17
19123.0	7.567735248650237e+17
19124.0	7.566150236547752e+17
19125.0	7.564768979539284e+17
19126.0	7.562962780815357e+17
19127.0	7.560767570182143e+17
19128.0	7.554283055961417e+17
19129.0	7.559089901709994e+17
19130.0	7.557713552037204e+17
19131.0	7.556049257802409e+17
19132.0	7.554842859929599e+17
19133.0	7.5520113859625e+17
19134.0	7.548889354382002e+17
19135.0	7.550516432557394e+17
19136.0	7.549094246132394e+17
19137.0	7.547509324906492e+17
19138.0	7.544458796422486e+17
19139.0	7.544757861482493e+17
19140.0	7.543343332458492e+17
19141.0	7.541909601910781e+17
19142.0	7.540430364562772e+17
19143.0	7.538949260749481e+17
19144.0	7.537483210293245e+17
19145.0	7.536127493799935e+17
19146.0	7.534038766758569e+17
19147.0	7.533226668414291e+17
19148.0	7.531803532678484e+17
19149.0	7.530388731024723e+17
19150.0	7.528787647747412e+17
19151.0	7.52754609182037e+17
19152.0	7.525990081931944e+17
19153.0	7.524652603670527e+17
19154.0	7.523153469942442e+17
19155.0	7.521801082328403e+17
19156.0	7.520379509669887e+17
19157.0	7.518875128867497e+17
19158.0	7.512981425706317e+17
19159.0	7.516049293443071e+17
19160.0	7.514459442511871e+17
19161.0	7.51252477505263e+17
19162.0	7.502001271909044e+17
19163.0	7.510296590199464e+17
19164.0	7.50892688989662e+17
19165.0	7.507401719327402e+17
19166.0	7.505877921693693e+17
19167.0	7.50369990211447e+17
19168.0	7.503007387571539e+17
19169.0	7.501594509705216e+17
19170.0	7.500340797287081e+17
19171.0	7.498587887195475e+17
19172.0	7.497450101145597e+17
19173.0	7.496046166933501e+17
19174.0	7.494587736129536e+17
19175.0	7.493196355469311e+17
19176.0	7.491769327419391e+17
19177.0	7.490227392217087e+17
19178.0	7.488844723126271e+17
19179.0	7.486993891415382e+17
19180.0	7.482952735435439e+17
19181.0	7.484512959201276e+17
19182.0	7.482846198715732e+17
19183.0	7.481430173723305e+17
19184.0	7.480042728718335e+17
19185.0	7.478904101011455e+17
19186.0	7.477503295750143e+17
19187.0	7.475987737127593e+17
19188.0	7.474565505963348e+17
19189.0	7.472933953863679e+17
19190.0	7.471453413485226e+17
19191.0	7.470215891080532e+17
19192.0	7.468424791851007e+17
19193.0	7.462181083807743e+17
19194.0	7.463840930682194e+17
19195.0	7.464282772646569e+17
19196.0	7.463224012876458e+17
19197.0	7.461790693370536e+17
19198.0	7.460295633709738e+17
19199.0	7.40465651902053e+17
19200.0	7.422087917819244e+17
19201.0	7.456036448021161e+17
19202.0	7.454680963612672e+17
19203.0	7.453169571332093e+17
19204.0	7.45182164366131e+17
19205.0	7.450436122443773e+17
19206.0	7.449011204128768e+17
19207.0	7.447538646908927e+17
19208.0	7.446005465219071e+17
19209.0	7.444688713809917e+17
19210.0	7.443305889529855e+17
19211.0	7.441887457006931e+17
19212.0	7.44049790086895e+17
19213.0	7.438465706054995e+17
19214.0	7.436726297427968e+17
19215.0	7.436016105291775e+17
19216.0	7.434644202979325e+17
19217.0	7.433379863592957e+17
19218.0	7.431343168290815e+17
19219.0	7.430420752760832e+17
19220.0	7.42906968215825e+17
19221.0	7.427370944299007e+17
19222.0	7.426297073849684e+17
19223.0	7.424858996604925e+17
19224.0	7.423185802057042e+17
19225.0	7.421864522197672e+17
19226.0	7.420598467340969e+17
19227.0	7.419177410581846e+17
19228.0	7.417783025401853e+17
19229.0	7.416356889340586e+17
19230.0	7.414657638378153e+17
19231.0	7.413259311950505e+17
19232.0	7.411902107877377e+17
19233.0	7.4106223474333e+17
19234.0	7.409250450713258e+17
19235.0	7.407821985415168e+17
19236.0	7.406419190655658e+17
19237.0	7.40500317544994e+17
19238.0	7.403437076862292e+17
19239.0	7.402162345388713e+17
19240.0	7.400385798995965e+17
19241.0	7.399218924049747e+17
19242.0	7.397843123830783e+17
19243.0	7.396346590571177e+17
19244.0	7.395082802036736e+17
19245.0	7.393663332122623e+17
19246.0	7.392240917807101e+17
19247.0	7.390798022705151e+17
19248.0	7.389410794405887e+17
19249.0	7.387976216608768e+17
19250.0	7.386568750792703e+17
19251.0	7.385091413464402e+17
19252.0	7.383396991543978e+17
19253.0	7.382313959336617e+17
19254.0	7.380850816931156e+17
19255.0	7.37931689145139e+17
19256.0	7.3778677706042e+17
19257.0	7.376644297719807e+17
19258.0	7.375224040674644e+17
19259.0	7.3737536812701e+17
19260.0	7.371992416124927e+17
19261.0	7.370971202366122e+17
19262.0	7.36950959088162e+17
19263.0	7.368103391745364e+17
19264.0	7.36630779762005e+17
19265.0	7.365165311153492e+17
19266.0	7.363795096349353e+17
19267.0	7.3624659689472e+17
19268.0	7.361002559504383e+17
19269.0	7.359620355981311e+17
19270.0	7.358137854066687e+17
19271.0	7.356469947138049e+17
19272.0	7.355331340402687e+17
19273.0	7.344482122989555e+17
19274.0	7.347857798113955e+17
19275.0	7.351089822520659e+17
19276.0	7.349648725377023e+17
19277.0	7.348217304492714e+17
19278.0	7.346798519648255e+17
19279.0	7.345097210680659e+17
19280.0	7.343897846655657e+17
19281.0	7.342533652075859e+17
19282.0	7.34110567052083e+17
19283.0	7.338711322722303e+17
19284.0	7.335872331164325e+17
19285.0	7.33662305985058e+17
19286.0	7.335391531106303e+17
19287.0	7.333991896055807e+17
19288.0	7.320879709028346e+17
19289.0	7.296331829040398e+17
19290.0	7.329703277537962e+17
19291.0	7.328060349087744e+17
19292.0	7.326847150850045e+17
19293.0	7.325410677227519e+17
19294.0	7.323966603526143e+17
19295.0	7.322546771503785e+17
19296.0	7.321112017545897e+17
19297.0	7.319643797236393e+17
19298.0	7.318224474122922e+17
19299.0	7.316813118788948e+17
19300.0	7.315376819929088e+17
19301.0	7.313928434483199e+17
19302.0	7.312472016945151e+17
19303.0	7.310954169630719e+17
19304.0	7.309549339235667e+17
19305.0	7.308152897448617e+17
19306.0	7.306666768859133e+17
19307.0	7.305147303941459e+17
19308.0	7.303750351847423e+17
19309.0	7.300755898411689e+17
19310.0	7.298170624496977e+17
19311.0	7.299310911750141e+17
19312.0	7.297971534867113e+17
19313.0	7.296109677729111e+17
19314.0	7.285531851358191e+17
19315.0	7.284622294166207e+17
19316.0	7.292141227212799e+17
19317.0	7.29074768089361e+17
19318.0	7.289276212794708e+17
19319.0	7.287833296721236e+17
19320.0	7.286256056664063e+17
19321.0	7.284899986451114e+17
19322.0	7.283216324318547e+17
19323.0	7.280954122261846e+17
19324.0	7.280454492575059e+17
19325.0	7.278074887755092e+17
19326.0	7.277514011443199e+17
19327.0	7.276001690823338e+17
19328.0	7.274566117578068e+17
19329.0	7.273079204653736e+17
19330.0	7.271553288896511e+17
19331.0	7.270061148471296e+17
19332.0	7.268574818555219e+17
19333.0	7.267059631827624e+17
19334.0	7.265442940147027e+17
19335.0	7.264083785722536e+17
19336.0	7.262547682000893e+17
19337.0	7.261043495534591e+17
19338.0	7.259368785444863e+17
19339.0	7.257996342067199e+17
19340.0	7.256444402051753e+17
19341.0	7.254947228461738e+17
19342.0	7.252982238980777e+17
19343.0	7.251873642490538e+17
19344.0	7.250316490353321e+17
19345.0	7.24721588467575e+17
19346.0	7.246809399296e+17
19347.0	7.245572047459667e+17
19348.0	7.244078830496425e+17
19349.0	7.242454870086995e+17
19350.0	7.240851137407657e+17
19351.0	7.239297488912383e+17
19352.0	7.237675769659391e+17
19353.0	7.236132549601961e+17
19354.0	7.23449920234018e+17
19355.0	7.23280162071074e+17
19356.0	7.23125522276898e+17
19357.0	7.229611781215572e+17
19358.0	7.227851512916649e+17
19359.0	7.225780529179306e+17
19360.0	7.224577669900969e+17
19361.0	7.222872404306602e+17
19362.0	7.221260074702164e+17
19363.0	7.219556602871807e+17
19364.0	7.217811429872982e+17
19365.0	7.216082182646442e+17
19366.0	7.214348636258301e+17
19367.0	7.212573265668777e+17
19368.0	7.210809520291837e+17
19369.0	7.208801339266386e+17
19370.0	7.20598317802018e+17
19371.0	7.20532602425617e+17
19372.0	7.203521099202557e+17
19373.0	7.201612222518611e+17
19374.0	7.199741293101056e+17
19375.0	7.197808770329258e+17
19376.0	7.195838698749948e+17
19377.0	7.193916063350783e+17
19378.0	7.191928839864319e+17
19379.0	7.189901798451881e+17
19380.0	7.187860915836244e+17
19381.0	7.185773057015807e+17
19382.0	7.183588702639444e+17
19383.0	7.181433353273343e+17
19384.0	7.179324950751913e+17
19385.0	7.17709784383488e+17
19386.0	7.174827246179667e+17
19387.0	7.172491917830825e+17
19388.0	7.170120607946067e+17
19389.0	7.167700070913364e+17
19390.0	7.165055151199572e+17
19391.0	7.118311554110734e+17
19392.0	7.159972517380093e+17
19393.0	7.157418851740329e+17
19394.0	7.154656070686036e+17
19395.0	7.151783493937833e+17
19396.0	7.148808320319487e+17
19397.0	7.145991557174612e+17
19398.0	7.142886277644288e+17
19399.0	7.139228759272105e+17
19400.0	7.136403079036927e+17
19401.0	7.133042128715773e+17
19402.0	7.12951098192691e+17
19403.0	7.125841904052905e+17
19404.0	7.122054553796607e+17
19405.0	7.118051633091923e+17
19406.0	7.11390514974993e+17
19407.0	7.109618336180906e+17
19408.0	7.10459746488593e+17
19409.0	7.100245680149844e+17
19410.0	7.095405356864851e+17
19411.0	7.090193732818259e+17
19412.0	7.084707983043241e+17
19413.0	7.078947987303081e+17
19414.0	7.07280053014801e+17
19415.0	7.066371930193919e+17
19416.0	7.059126500720637e+17
19417.0	7.051236813570045e+17
19418.0	7.044625281843199e+17
19419.0	7.036110850315604e+17
19420.0	7.027719550970537e+17
19421.0	7.018422497269076e+17
19422.0	7.008419212951551e+17
19423.0	6.997748260448937e+17
19424.0	6.9863017545728e+17
19425.0	6.973997456905556e+17
19426.0	6.960565977787049e+17
19427.0	6.946057690109268e+17
19428.0	6.931022367162367e+17
19429.0	6.914360935623336e+17
19430.0	6.894979398675116e+17
19431.0	6.867070957038271e+17
19432.0	6.855432841374376e+17
19433.0	6.831753390631596e+17
19434.0	6.806554964306601e+17
19435.0	6.779100621089449e+17
19436.0	6.746391793631224e+17
19437.0	6.717959335226025e+17
19438.0	6.636291726071128e+17
19439.0	6.64019607014605e+17
19440.0	6.597999632667988e+17
19441.0	6.552167654271656e+17
19442.0	6.499786931481258e+17
19443.0	6.439347005947903e+17
19444.0	6.37526082934101e+17
19445.0	6.304537595871235e+17
19446.0	6.22164473964134e+17
19447.0	6.129835342561275e+17
19448.0	6.02040407005594e+17
19449.0	5.86852117652002e+17
19450.0	5.5104499138341216e+17
19451.0	5.3708764126467437e+17
19452.0	5.717610575779163e+17
19453.0	5.954078789424474e+17
19454.0	6.07250841617476e+17
19455.0	6.169764122591231e+17
19456.0	6.254501417014615e+17
19457.0	6.328792753285798e+17
19458.0	6.382597057107302e+17
19459.0	6.453151439781893e+17
19460.0	6.506586351250088e+17
19461.0	6.553047362000211e+17
19462.0	6.594103693279233e+17
19463.0	6.633323821880659e+17
19464.0	6.669424439678291e+17
19465.0	6.701149440005462e+17
19466.0	6.727165197068966e+17
19467.0	6.75471126761745e+17
19468.0	6.777750445271721e+17
19469.0	6.798349596360701e+17
19470.0	6.819417322509652e+17
19471.0	6.837052476402346e+17
19472.0	6.853162568777727e+17
19473.0	6.867646585416361e+17
19474.0	6.880846689949012e+17
19475.0	6.892360067011923e+17
19476.0	6.903956531838975e+17
19477.0	6.913947165436586e+17
19478.0	6.923111342189225e+17
19479.0	6.931346400914089e+17
19480.0	6.938999051168426e+17
19481.0	6.945875276333053e+17
19482.0	6.952133733646335e+17
19483.0	6.957850993623039e+17
19484.0	6.963037875470333e+17
19485.0	6.967733596629673e+17
19486.0	6.972036835792212e+17
19487.0	6.975933093249023e+17
19488.0	6.979484472661332e+17
19489.0	6.982687181679273e+17
19490.0	6.984613933787816e+17
19491.0	6.988152158464681e+17
19492.0	6.990551036111529e+17
19493.0	6.992650780890452e+17
19494.0	6.994553868036778e+17
19495.0	6.996030568529919e+17
19496.0	6.997329266256552e+17
19497.0	6.999024313827325e+17
19498.0	6.997991065212253e+17
19499.0	6.931465753329591e+17
19500.0	7.002093464322047e+17
19501.0	7.002718742773759e+17
19502.0	7.003429481567572e+17
19503.0	7.003973934383103e+17
19504.0	7.004287358642857e+17
19505.0	7.004753547143849e+17
19506.0	7.004977787218602e+17
19507.0	7.00511317725457e+17
19508.0	7.005205088436223e+17
19509.0	7.005206577414143e+17
19510.0	7.00498414089011e+17
19511.0	6.96307249455648e+17
19512.0	6.995769067656495e+17
19513.0	6.984598264567089e+17
19514.0	6.990506284984983e+17
19515.0	7.002598167019521e+17
19516.0	7.003476038341971e+17
19517.0	7.002929107391828e+17
19518.0	7.002558765028692e+17
19519.0	7.002028860855636e+17
19520.0	7.001467511985491e+17
19521.0	7.000897304046249e+17
19522.0	7.000232722169855e+17
19523.0	6.999621653321044e+17
19524.0	6.99893407617297e+17
19525.0	6.998152250916863e+17
19526.0	6.997470363342163e+17
19527.0	6.996706338712233e+17
19528.0	6.995923903184895e+17
19529.0	6.995116203267412e+17
19530.0	6.994298929151997e+17
19531.0	6.993459527985834e+17
19532.0	6.992590165508095e+17
19533.0	6.991709289665876e+17
19534.0	6.990811768728233e+17
19535.0	6.989883801337855e+17
19536.0	6.988943177635155e+17
19537.0	6.988027369532073e+17
19538.0	6.987045407468202e+17
19539.0	6.98567909826014e+17
19540.0	6.985101244803753e+17
19541.0	6.984129202967892e+17
19542.0	6.98311813173521e+17
19543.0	6.982100326547455e+17
19544.0	6.981076887710377e+17
19545.0	6.979792210143912e+17
19546.0	6.978296496171689e+17
19547.0	6.977871790735359e+17
19548.0	6.976877376481961e+17
19549.0	6.975723478013267e+17
19550.0	6.974735250358271e+17
19551.0	6.973664431964159e+17
19552.0	6.972571757051904e+17
19553.0	6.971460079845375e+17
19554.0	6.970337277946537e+17
19555.0	6.96924701336098e+17
19556.0	6.968133557070505e+17
19557.0	6.966993009071444e+17
19558.0	6.965883366801405e+17
19559.0	6.964711608287231e+17
19560.0	6.96359459103266e+17
19561.0	6.962449616644776e+17
19562.0	6.961317956375892e+17
19563.0	6.960144957046783e+17
19564.0	6.959010568383146e+17
19565.0	6.957849567559679e+17
19566.0	6.956675112108031e+17
19567.0	6.955509942845439e+17
19568.0	6.954330143850495e+17
19569.0	6.953151525552127e+17
19570.0	6.952008114241536e+17
19571.0	6.950825196082516e+17
19572.0	6.949613766443007e+17
19573.0	6.948447257799336e+17
19574.0	6.947161565910356e+17
19575.0	6.946061834081619e+17
19576.0	6.944846901499219e+17
19577.0	6.943530560432809e+17
19578.0	6.942450981535743e+17
19579.0	6.941260371023187e+17
19580.0	6.940053703316819e+17
19581.0	6.93886352761378e+17
19582.0	6.937668044019027e+17
19583.0	6.936456421441535e+17
19584.0	6.935219219202047e+17
19585.0	6.933885763977215e+17
19586.0	6.931930557710336e+17
19587.0	6.930169930798419e+17
19588.0	6.929853849447082e+17
19589.0	6.927373958119421e+17
19590.0	6.927776740627795e+17
19591.0	6.926698787023529e+17
19592.0	6.92546975179298e+17
19593.0	6.924171711873023e+17
19594.0	6.922705696369321e+17
19595.0	6.921789908538708e+17
19596.0	6.905304641961994e+17
19597.0	6.91928087518686e+17
19598.0	6.917945975024297e+17
19599.0	6.916890129596415e+17
19600.0	6.915661747279187e+17
19601.0	6.91437790368017e+17
19602.0	6.913159961684649e+17
19603.0	6.910730163628712e+17
19604.0	6.91063479004911e+17
19605.0	6.909240116860244e+17
19606.0	6.908206550177107e+17
19607.0	6.907004847128575e+17
19608.0	6.90574043783714e+17
19609.0	6.904453419149994e+17
19610.0	6.903281634770943e+17
19611.0	6.902034819885738e+17
19612.0	6.900800189453652e+17
19613.0	6.89954047987985e+17
19614.0	6.898277874139135e+17
19615.0	6.897065864287571e+17
19616.0	6.895420884822697e+17
19617.0	6.894550469574655e+17
19618.0	6.892969195296084e+17
19619.0	6.891587226654035e+17
19620.0	6.89036839756322e+17
19621.0	6.889580881335636e+17
19622.0	6.88834114433843e+17
19623.0	6.887092605594281e+17
19624.0	6.885839805437267e+17
19625.0	6.884581959532543e+17
19626.0	6.883334991555242e+17
19627.0	6.882094929499476e+17
19628.0	6.879521926720174e+17
19629.0	6.879518010638333e+17
19630.0	6.877451755279704e+17
19631.0	6.821454145038994e+17
19632.0	6.875804001282729e+17
19633.0	6.874536321133225e+17
19634.0	6.873342109810687e+17
19635.0	6.872058805179732e+17
19636.0	6.870827476363946e+17
19637.0	6.869246841716736e+17
19638.0	6.868330242288298e+17
19639.0	6.867026816882003e+17
19640.0	6.86578130223104e+17
19641.0	6.864220231215788e+17
19642.0	6.863318534149459e+17
19643.0	6.862033529427284e+17
19644.0	6.860777307417257e+17
19645.0	6.859379947077632e+17
19646.0	6.858320222617599e+17
19647.0	6.857067222532095e+17
19648.0	6.855810101542911e+17
19649.0	6.854554327624362e+17
19650.0	6.853307510642004e+17
19651.0	6.852048056221693e+17
19652.0	6.850793215535785e+17
19653.0	6.849524278493183e+17
19654.0	6.848285093746004e+17
19655.0	6.847024532728489e+17
19656.0	6.845752894554111e+17
19657.0	6.844524793255251e+17
19658.0	6.843243140481023e+17
19659.0	6.842022862957226e+17
19660.0	6.840772843623764e+17
19661.0	6.839516973935274e+17
19662.0	6.83826587247138e+17
19663.0	6.836965360009215e+17
19664.0	6.83546984526643e+17
19665.0	6.834505654468607e+17
