# Flux units: erg / (cm m2 s)
# Wavelength units: Angstrom
wave	flux
19000.0	5.7218723130026656e+17
19001.0	5.720669924185428e+17
19002.0	5.7197549143982074e+17
19003.0	5.7186834298088096e+17
19004.0	5.717621722142037e+17
19005.0	5.7165601067499514e+17
19006.0	5.715507821587113e+17
19007.0	5.714424055376553e+17
19008.0	5.7133165494053536e+17
19009.0	5.7122169559886496e+17
19010.0	5.710591963780435e+17
19011.0	5.7101643426037754e+17
19012.0	5.708316318280361e+17
19013.0	5.7081079501509965e+17
19014.0	5.706985183903743e+17
19015.0	5.70594052608273e+17
19016.0	5.7048649660279456e+17
19017.0	5.7038851486515194e+17
19018.0	5.702785774736724e+17
19019.0	5.7017632069167776e+17
19020.0	5.70069637800482e+17
19021.0	5.699664368107519e+17
19022.0	5.6986027701917005e+17
19023.0	5.697493591392255e+17
19024.0	5.6964356439190176e+17
19025.0	5.69537238016546e+17
19026.0	5.694267521499134e+17
19027.0	5.6926647884622496e+17
19028.0	5.6922729551844685e+17
19029.0	5.691189968415402e+17
19030.0	5.690174405083134e+17
19031.0	5.6891289426548045e+17
19032.0	5.6880619781270176e+17
19033.0	5.686885861031935e+17
19034.0	5.68590251135249e+17
19035.0	5.684576602379604e+17
19036.0	5.637704045821933e+17
19037.0	5.6825745681066656e+17
19038.0	5.6816866185707514e+17
19039.0	5.680686033098069e+17
19040.0	5.6796477471238816e+17
19041.0	5.67858752004642e+17
19042.0	5.676642080915453e+17
19043.0	5.676506883817471e+17
19044.0	5.675438801507669e+17
19045.0	5.6743729421789843e+17
19046.0	5.6732718975330976e+17
19047.0	5.672278110328147e+17
19048.0	5.670814064050174e+17
19049.0	5.6684862742637203e+17
19050.0	5.6690340279965005e+17
19051.0	5.661124494098422e+17
19052.0	5.6659014288670714e+17
19053.0	5.66597225877777e+17
19054.0	5.664950940161364e+17
19055.0	5.663341984874496e+17
19056.0	5.662740448280575e+17
19057.0	5.661802406871038e+17
19058.0	5.659907221793448e+17
19059.0	5.659394612133887e+17
19060.0	5.658630860133717e+17
19061.0	5.6576223110758394e+17
19062.0	5.656567806427135e+17
19063.0	5.655523072409599e+17
19064.0	5.6543097126912e+17
19065.0	5.6532032727722656e+17
19066.0	5.652011342452053e+17
19067.0	5.651322683173545e+17
19068.0	5.6502927767197e+17
19069.0	5.6492486473809914e+17
19070.0	5.648161885039273e+17
19071.0	5.647121147494399e+17
19072.0	5.6457955705705805e+17
19073.0	5.64505999380753e+17
19074.0	5.644021923140949e+17
19075.0	5.642976940261374e+17
19076.0	5.6419044448447136e+17
19077.0	5.640865317912575e+17
19078.0	5.639783100798292e+17
19079.0	5.638795121306281e+17
19080.0	5.637736312602623e+17
19081.0	5.636650010236243e+17
19082.0	5.635608816211285e+17
19083.0	5.6344970970617165e+17
19084.0	5.633293719786837e+17
19085.0	5.6325076463998285e+17
19086.0	5.630527761547263e+17
19087.0	5.628661468932777e+17
19088.0	5.628748353940137e+17
19089.0	5.6275405985109325e+17
19090.0	5.627237330059263e+17
19091.0	5.626160840267094e+17
19092.0	5.624279694923094e+17
19093.0	5.62419061629474e+17
19094.0	5.623160015683583e+17
19095.0	5.6221210621160096e+17
19096.0	5.6210579787175245e+17
19097.0	5.6200378058451616e+17
19098.0	5.618651647093418e+17
19099.0	5.6175417755347616e+17
19100.0	5.616832220233726e+17
19101.0	5.615849736678058e+17
19102.0	5.614673423848788e+17
19103.0	5.6137981131489254e+17
19104.0	5.612762652737536e+17
19105.0	5.610958766473216e+17
19106.0	5.6104639476531194e+17
19107.0	5.60940986732817e+17
19108.0	5.608282747393364e+17
19109.0	5.60460928157832e+17
19110.0	5.606338650439678e+17
19111.0	5.6052480943499936e+17
19112.0	5.6041940888234656e+17
19113.0	5.603414071312383e+17
19114.0	5.6022327029486925e+17
19115.0	5.601154046798506e+17
19116.0	5.600281495950676e+17
19117.0	5.599232861929471e+17
19118.0	5.5979260866723834e+17
19119.0	5.5865709760784896e+17
19120.0	5.595748634023251e+17
19121.0	5.594850811794772e+17
19122.0	5.594096975828309e+17
19123.0	5.593064210257236e+17
19124.0	5.591808720852308e+17
19125.0	5.5909775517067936e+17
19126.0	5.5899370008084474e+17
19127.0	5.5864679192330214e+17
19128.0	5.587601084557993e+17
19129.0	5.586749192754515e+17
19130.0	5.5858049416779085e+17
19131.0	5.5847892028839245e+17
19132.0	5.583754063336788e+17
19133.0	5.582614181533011e+17
19134.0	5.581562140338858e+17
19135.0	5.580643387834367e+17
19136.0	5.5796284459581434e+17
19137.0	5.578376290325843e+17
19138.0	5.5775402788563616e+17
19139.0	5.576533252330837e+17
19140.0	5.5755041924273485e+17
19141.0	5.5744729955259725e+17
19142.0	5.573395573200213e+17
19143.0	5.5723286163619834e+17
19144.0	5.571329217178281e+17
19145.0	5.570347750042283e+17
19146.0	5.568482826169003e+17
19147.0	5.568157727763113e+17
19148.0	5.5669681315730765e+17
19149.0	5.5658923429287245e+17
19150.0	5.565188148647253e+17
19151.0	5.564160760173908e+17
19152.0	5.56308855066897e+17
19153.0	5.561528851890174e+17
19154.0	5.5608441876862285e+17
19155.0	5.5600297964557645e+17
19156.0	5.559001831265621e+17
19157.0	5.557664908050432e+17
19158.0	5.5546844314337254e+17
19159.0	5.5558403921018874e+17
19160.0	5.5548307797879456e+17
19161.0	5.553791565474474e+17
19162.0	5.5482687618198214e+17
19163.0	5.5515367908311034e+17
19164.0	5.5507642601526605e+17
19165.0	5.549045974739624e+17
19166.0	5.548438682162515e+17
19167.0	5.547274269272747e+17
19168.0	5.5466559967068154e+17
19169.0	5.5455711672401914e+17
19170.0	5.544628228281684e+17
19171.0	5.5433308748294816e+17
19172.0	5.542538592474452e+17
19173.0	5.5415470988547405e+17
19174.0	5.5404618080146765e+17
19175.0	5.5395172989883725e+17
19176.0	5.5384906661888e+17
19177.0	5.537261083601577e+17
19178.0	5.5362938715067725e+17
19179.0	5.5350223745406285e+17
19180.0	5.5343668761285965e+17
19181.0	5.5331772673556474e+17
19182.0	5.5323171400362643e+17
19183.0	5.5313302818215245e+17
19184.0	5.5303022865722003e+17
19185.0	5.5292708191382176e+17
19186.0	5.5282599667083936e+17
19187.0	5.5271416576081914e+17
19188.0	5.5262047123101005e+17
19189.0	5.5251841808247456e+17
19190.0	5.5241364485789e+17
19191.0	5.523050272041642e+17
19192.0	5.522117995003903e+17
19193.0	5.521001297215487e+17
19194.0	5.51991805948723e+17
19195.0	5.519017273982975e+17
19196.0	5.517934647225002e+17
19197.0	5.516829081119402e+17
19198.0	5.5153912422509216e+17
19199.0	5.486894689288185e+17
19200.0	5.493759433943731e+17
19201.0	5.5123413841565005e+17
19202.0	5.5116991649109325e+17
19203.0	5.5106799189797536e+17
19204.0	5.509734872383487e+17
19205.0	5.5087710485872634e+17
19206.0	5.5077556229679776e+17
19207.0	5.5066161214477645e+17
19208.0	5.505414535839742e+17
19209.0	5.5047195788137805e+17
19210.0	5.503701607951017e+17
19211.0	5.5027021563385165e+17
19212.0	5.501675016028158e+17
19213.0	5.5003150828612256e+17
19214.0	5.4991738386077005e+17
19215.0	5.498508982703445e+17
19216.0	5.497611496019284e+17
19217.0	5.496579026146645e+17
19218.0	5.494465237439827e+17
19219.0	5.4943605769721165e+17
19220.0	5.4934990739210234e+17
19221.0	5.4920996492847776e+17
19222.0	5.491498375533909e+17
19223.0	5.490473379211947e+17
19224.0	5.489426263528788e+17
19225.0	5.488272648175614e+17
19226.0	5.4874258021198496e+17
19227.0	5.4864106714999456e+17
19228.0	5.4854279334898336e+17
19229.0	5.4844111880628896e+17
19230.0	5.483375915696126e+17
19231.0	5.4823570514466125e+17
19232.0	5.481351499218943e+17
19233.0	5.4802516604354554e+17
19234.0	5.479304282505215e+17
19235.0	5.4782763138198176e+17
19236.0	5.477305507905535e+17
19237.0	5.476269799331155e+17
19238.0	5.475110395139411e+17
19239.0	5.474264380254889e+17
19240.0	5.4732413028270074e+17
19241.0	5.472206958100479e+17
19242.0	5.471202578879828e+17
19243.0	5.469997340732073e+17
19244.0	5.4691974792697165e+17
19245.0	5.468175990084949e+17
19246.0	5.467146682717524e+17
19247.0	5.4661444335042554e+17
19248.0	5.465133947376979e+17
19249.0	5.464087639796394e+17
19250.0	5.462967806765738e+17
19251.0	5.461838390449491e+17
19252.0	5.460717941555199e+17
19253.0	5.4600420965744634e+17
19254.0	5.459060366595413e+17
19255.0	5.457803960036009e+17
19256.0	5.457004562044245e+17
19257.0	5.456027856142336e+17
19258.0	5.454968461634218e+17
19259.0	5.4538096977728845e+17
19260.0	5.4518549416946323e+17
19261.0	5.4518631492485114e+17
19262.0	5.450783431240362e+17
19263.0	5.4497594813972474e+17
19264.0	5.448077256512851e+17
19265.0	5.4475455788482534e+17
19266.0	5.44642129985536e+17
19267.0	5.445811938787326e+17
19268.0	5.4447907697677645e+17
19269.0	5.443782533185535e+17
19270.0	5.442767470373547e+17
19271.0	5.4412833361756154e+17
19272.0	5.4407008494114125e+17
19273.0	5.4391578921970323e+17
19274.0	5.438084904648702e+17
19275.0	5.437713656315903e+17
19276.0	5.436675004039166e+17
19277.0	5.435670438171989e+17
19278.0	5.4346436984176634e+17
19279.0	5.4336068797508256e+17
19280.0	5.432521463780692e+17
19281.0	5.4316097437259085e+17
19282.0	5.430606000641364e+17
19283.0	5.429227648188416e+17
19284.0	5.4284486443008e+17
19285.0	5.4273454668513274e+17
19286.0	5.426496998298963e+17
19287.0	5.4254830798329165e+17
19288.0	5.4122334454633715e+17
19289.0	5.392447328048415e+17
19290.0	5.422428385006932e+17
19291.0	5.42114955849455e+17
19292.0	5.420484442543444e+17
19293.0	5.419467337804458e+17
19294.0	5.418444090507264e+17
19295.0	5.4174531959739725e+17
19296.0	5.4160707820366496e+17
19297.0	5.415303569735679e+17
19298.0	5.414368489504767e+17
19299.0	5.4129785321117005e+17
19300.0	5.412358518909609e+17
19301.0	5.4113549995212794e+17
19302.0	5.4103284464134816e+17
19303.0	5.409210394563926e+17
19304.0	5.4082668376446285e+17
19305.0	5.4072654531570336e+17
19306.0	5.406237749411839e+17
19307.0	5.4051418288073376e+17
19308.0	5.4041497703546874e+17
19309.0	5.40215692370466e+17
19310.0	5.400794146799614e+17
19311.0	5.400972548724051e+17
19312.0	5.4001041173818016e+17
19313.0	5.399036796338175e+17
19314.0	5.3253166795325357e+17
19315.0	5.330526401462381e+17
19316.0	5.395367044579326e+17
19317.0	5.3949985959444474e+17
19318.0	5.3939956288061434e+17
19319.0	5.393005143217492e+17
19320.0	5.391825184139945e+17
19321.0	5.3906300794306554e+17
19322.0	5.389761337709909e+17
19323.0	5.388482697145002e+17
19324.0	5.387792481779711e+17
19325.0	5.3858826613773645e+17
19326.0	5.385768590289578e+17
19327.0	5.384761155518462e+17
19328.0	5.383096538322262e+17
19329.0	5.382737549940053e+17
19330.0	5.381652932285781e+17
19331.0	5.3806084792866125e+17
19332.0	5.3796247451293e+17
19333.0	5.3785640811451725e+17
19334.0	5.377539223235242e+17
19335.0	5.375178591349418e+17
19336.0	5.375446433311402e+17
19337.0	5.374398382298452e+17
19338.0	5.372972219673257e+17
19339.0	5.372196125933568e+17
19340.0	5.3709157587135136e+17
19341.0	5.369564795065685e+17
19342.0	5.3682771318538234e+17
19343.0	5.367931908478292e+17
19344.0	5.366382485744299e+17
19345.0	5.362700131500027e+17
19346.0	5.363588427066025e+17
19347.0	5.3629883389050874e+17
19348.0	5.362654266086741e+17
19349.0	5.3615353362295456e+17
19350.0	5.36024114598161e+17
19351.0	5.3594012156340896e+17
19352.0	5.357611773853694e+17
19353.0	5.357317959363241e+17
19354.0	5.3562472297485645e+17
19355.0	5.355035995843243e+17
19356.0	5.354081116400297e+17
19357.0	5.352998430223018e+17
19358.0	5.351889892453034e+17
19359.0	5.350593217079977e+17
19360.0	5.348965703396009e+17
19361.0	5.348340334067711e+17
19362.0	5.347296543069524e+17
19363.0	5.3461869077899936e+17
19364.0	5.3450714620013216e+17
19365.0	5.343952660070398e+17
19366.0	5.3428281643717965e+17
19367.0	5.341693140271103e+17
19368.0	5.340566004258132e+17
19369.0	5.339338817317545e+17
19370.0	5.338197851985236e+17
19371.0	5.337031867629566e+17
19372.0	5.3356509105138336e+17
19373.0	5.33445524586496e+17
19374.0	5.333304060411903e+17
19375.0	5.332118863347711e+17
19376.0	5.330938108750506e+17
19377.0	5.329723100670634e+17
19378.0	5.328518590933673e+17
19379.0	5.327063311450111e+17
19380.0	5.325646853046271e+17
19381.0	5.324402182848511e+17
19382.0	5.3230555791796896e+17
19383.0	5.321744805352788e+17
19384.0	5.320507001929726e+17
19385.0	5.318756045684736e+17
19386.0	5.317453373156009e+17
19387.0	5.316121764123988e+17
19388.0	5.314709824383658e+17
19389.0	5.31247035265843e+17
19390.0	5.310989712315732e+17
19391.0	5.267438325901931e+17
19392.0	5.3068025805755686e+17
19393.0	5.305924640047103e+17
19394.0	5.30442178597137e+17
19395.0	5.3021991396966394e+17
19396.0	5.300834817889621e+17
19397.0	5.299431717644971e+17
19398.0	5.297624902358357e+17
19399.0	5.2949855659622374e+17
19400.0	5.294275417866238e+17
19401.0	5.292624942465023e+17
19402.0	5.290931295092735e+17
19403.0	5.2891678048692896e+17
19404.0	5.2874093541021005e+17
19405.0	5.2855551872204794e+17
19406.0	5.283572659956394e+17
19407.0	5.280980006862847e+17
19408.0	5.278098053748055e+17
19409.0	5.2771252814042445e+17
19410.0	5.2748118599051936e+17
19411.0	5.272022166798336e+17
19412.0	5.2697427261521914e+17
19413.0	5.2666363148588365e+17
19414.0	5.263732534586026e+17
19415.0	5.260800747547307e+17
19416.0	5.2565818041084576e+17
19417.0	5.252531941452457e+17
19418.0	5.248914892521471e+17
19419.0	5.2435253747602765e+17
19420.0	5.237361097747111e+17
19421.0	5.229658097669462e+17
19422.0	5.220460947395926e+17
19423.0	5.21439112471074e+17
19424.0	5.209923779209898e+17
19425.0	5.205303815569407e+17
19426.0	5.200429947639123e+17
19427.0	5.194858687190356e+17
19428.0	5.189513781444607e+17
19429.0	5.1834867308735155e+17
19430.0	5.1761631538271597e+17
19431.0	5.162082612456117e+17
19432.0	5.1618055800750074e+17
19433.0	5.15198871998737e+17
19434.0	5.1393219107225594e+17
19435.0	5.121544281216341e+17
19436.0	5.094290822791157e+17
19437.0	5.06188565035963e+17
19438.0	4.96774637962309e+17
19439.0	5.0195420347542234e+17
19440.0	5.0025330918468256e+17
19441.0	4.982128421546665e+17
19442.0	4.9594966750877e+17
19443.0	4.932739419602939e+17
19444.0	4.8897019395877376e+17
19445.0	4.808993196561755e+17
19446.0	4.739521948155904e+17
19447.0	4.675823148378791e+17
19448.0	4.587157771517954e+17
19449.0	4.4200221929198803e+17
19450.0	4.0317343379401664e+17
19451.0	3.811547779781989e+17
19452.0	4.267824075767801e+17
19453.0	4.5178267764435654e+17
19454.0	4.633399323699877e+17
19455.0	4.7034188934676474e+17
19456.0	4.761688319808853e+17
19457.0	4.8454489565647994e+17
19458.0	4.713551895025304e+17
19459.0	4.928902211655041e+17
19460.0	4.9555256017332896e+17
19461.0	4.9751919780604576e+17
19462.0	4.993285903526571e+17
19463.0	5.009811833181524e+17
19464.0	5.025775589086554e+17
19465.0	5.0557293620974726e+17
19466.0	5.0844092718557805e+17
19467.0	5.1026992558680736e+17
19468.0	5.11459745193438e+17
19469.0	5.123262837861032e+17
19470.0	5.1309261738038605e+17
19471.0	5.136680073822207e+17
19472.0	5.141054844043262e+17
19473.0	5.145727584610985e+17
19474.0	5.1488937836107066e+17
19475.0	5.151632290829651e+17
19476.0	5.1560996768754336e+17
19477.0	5.1589365356298234e+17
19478.0	5.1615911581668685e+17
19479.0	5.1641999558355584e+17
19480.0	5.1706578578964474e+17
19481.0	5.17712312375706e+17
19482.0	5.181962715136002e+17
19483.0	5.185517622657024e+17
19484.0	5.188152710223189e+17
19485.0	5.1909398888447994e+17
19486.0	5.1916436266461875e+17
19487.0	5.194065574363134e+17
19488.0	5.194647925511509e+17
19489.0	5.196095781776042e+17
19490.0	5.194508168506022e+17
19491.0	5.196977887248382e+17
19492.0	5.197934995264851e+17
19493.0	5.198084931147093e+17
19494.0	5.1981633995844256e+17
19495.0	5.198265886703615e+17
19496.0	5.1980399045946e+17
19497.0	5.1984677152139936e+17
19498.0	5.1941777684998874e+17
19499.0	5.131113621443877e+17
19500.0	5.1979055687270394e+17
19501.0	5.197803691879081e+17
19502.0	5.1978116393861114e+17
19503.0	5.197579618178388e+17
19504.0	5.197233000196778e+17
19505.0	5.1968366636346016e+17
19506.0	5.1964527380179616e+17
19507.0	5.196113423018666e+17
19508.0	5.196069693904212e+17
19509.0	5.1955492849363616e+17
19510.0	5.194955081383934e+17
19511.0	5.067910484240967e+17
19512.0	5.184633048137703e+17
19513.0	5.175215373243701e+17
19514.0	5.180665697927149e+17
19515.0	5.192822305761965e+17
19516.0	5.1932448175773e+17
19517.0	5.192614967334228e+17
19518.0	5.192437212031657e+17
19519.0	5.191812201316351e+17
19520.0	5.190799146876926e+17
19521.0	5.190653645772117e+17
19522.0	5.1898421332322976e+17
19523.0	5.189197653955926e+17
19524.0	5.1885705321076045e+17
19525.0	5.188190597371219e+17
19526.0	5.1874863667391136e+17
19527.0	5.1867346426047136e+17
19528.0	5.185943022250666e+17
19529.0	5.185158143541247e+17
19530.0	5.1844758218560845e+17
19531.0	5.1837520101157536e+17
19532.0	5.183212771519146e+17
19533.0	5.1824287002132474e+17
19534.0	5.181634694698323e+17
19535.0	5.180816285324628e+17
19536.0	5.179986162657961e+17
19537.0	5.1792260240506874e+17
19538.0	5.177823288011435e+17
19539.0	5.1768018708288864e+17
19540.0	5.176748666781694e+17
19541.0	5.175847254228991e+17
19542.0	5.1750751674477216e+17
19543.0	5.1738009763403085e+17
19544.0	5.1734402200589645e+17
19545.0	5.172148243704487e+17
19546.0	5.170681891258367e+17
19547.0	5.171135159205888e+17
19548.0	5.1702911219357e+17
19549.0	5.1693080644594336e+17
19550.0	5.1685855389723296e+17
19551.0	5.1677325098134176e+17
19552.0	5.166871847021226e+17
19553.0	5.1659793662388896e+17
19554.0	5.1650894705459194e+17
19555.0	5.164202783495509e+17
19556.0	5.163370212054356e+17
19557.0	5.162530937416362e+17
19558.0	5.1616643683450874e+17
19559.0	5.1607954553569274e+17
19560.0	5.159717253589674e+17
19561.0	5.159034203493715e+17
19562.0	5.1580063047133856e+17
19563.0	5.1573142200866125e+17
19564.0	5.156432418701311e+17
19565.0	5.155549145814357e+17
19566.0	5.1546227023544314e+17
19567.0	5.1537774878829216e+17
19568.0	5.152860078254762e+17
19569.0	5.1519727669521056e+17
19570.0	5.1511076120603296e+17
19571.0	5.1502132557250554e+17
19572.0	5.1493231803760634e+17
19573.0	5.1484777806561274e+17
19574.0	5.1475267767500794e+17
19575.0	5.146777407018324e+17
19576.0	5.14584290070801e+17
19577.0	5.1448622493641376e+17
19578.0	5.1440308019964576e+17
19579.0	5.143159068338857e+17
19580.0	5.1423208975018656e+17
19581.0	5.141432780892842e+17
19582.0	5.1405575093398176e+17
19583.0	5.1396566951744845e+17
19584.0	5.138735235945813e+17
19585.0	5.1376990352397645e+17
19586.0	5.1367435734876154e+17
19587.0	5.1358699817533434e+17
19588.0	5.134487499309056e+17
19589.0	5.1342044690732365e+17
19590.0	5.1331496743185056e+17
19591.0	5.1324152132403194e+17
19592.0	5.131519604905301e+17
19593.0	5.1305430821546656e+17
19594.0	5.129324921356286e+17
19595.0	5.128765118087166e+17
19596.0	5.1273265913528314e+17
19597.0	5.126965608579071e+17
19598.0	5.125400753602559e+17
19599.0	5.125164094892715e+17
19600.0	5.1242692911650125e+17
19601.0	5.1232682261435725e+17
19602.0	5.1223750008722765e+17
19603.0	5.120523620406612e+17
19604.0	5.120512772538366e+17
19605.0	5.119311415519915e+17
19606.0	5.1188028967048525e+17
19607.0	5.117905664475136e+17
19608.0	5.116972063435434e+17
19609.0	5.1160128603641165e+17
19610.0	5.114933934380372e+17
19611.0	5.1139099894306125e+17
19612.0	5.1133538729547085e+17
19613.0	5.112428822702761e+17
19614.0	5.111478680027136e+17
19615.0	5.110609281897813e+17
19616.0	5.1090885901462195e+17
19617.0	5.108433735559851e+17
19618.0	5.1070381731785363e+17
19619.0	5.105871033292115e+17
19620.0	5.104966444253183e+17
19621.0	5.104656385223338e+17
19622.0	5.104234682908671e+17
19623.0	5.1032951343458976e+17
19624.0	5.102318854165844e+17
19625.0	5.10149198558003e+17
19626.0	5.100567596630015e+17
19627.0	5.0996328330690554e+17
19628.0	5.098004302266369e+17
19629.0	5.096402744333651e+17
19630.0	5.0944197375208115e+17
19631.0	5.0655007985718586e+17
19632.0	5.094819485450238e+17
19633.0	5.094005306731178e+17
19634.0	5.093259392406868e+17
19635.0	5.092248224006143e+17
19636.0	5.090907993582249e+17
19637.0	5.0895902334429856e+17
19638.0	5.089576867594239e+17
19639.0	5.0887114058192205e+17
19640.0	5.0876911231959046e+17
19641.0	5.085202813201071e+17
19642.0	5.085944566076758e+17
19643.0	5.085022351174313e+17
19644.0	5.0840853653312845e+17
19645.0	5.082875256897534e+17
19646.0	5.081769669121363e+17
19647.0	5.0814283031074125e+17
19648.0	5.080527087686995e+17
19649.0	5.079611441064617e+17
19650.0	5.078708184416255e+17
19651.0	5.0777909921928525e+17
19652.0	5.076877581134507e+17
19653.0	5.0759577870445216e+17
19654.0	5.0750556572658336e+17
19655.0	5.0741395863197e+17
19656.0	5.073234698786132e+17
