# Flux units: erg / (cm m2 s)
# Wavelength units: Angstrom
wave	flux
19000.0	7.124798109559465e+17
19001.0	7.123408006763859e+17
19002.0	7.122176901644287e+17
19003.0	7.120863705606825e+17
19004.0	7.119550853502291e+17
19005.0	7.118240284497236e+17
19006.0	7.116927182132564e+17
19007.0	7.115612624344403e+17
19008.0	7.114254991054164e+17
19009.0	7.112906664924499e+17
19010.0	7.111325082364586e+17
19011.0	7.110330744307711e+17
19012.0	7.108998970299732e+17
19013.0	7.107977411209896e+17
19014.0	7.106700220476072e+17
19015.0	7.105463060179625e+17
19016.0	7.104142595413331e+17
19017.0	7.102862148501504e+17
19018.0	7.101535107066538e+17
19019.0	7.100220956125865e+17
19020.0	7.098890439010985e+17
19021.0	7.097588791290538e+17
19022.0	7.096279340766548e+17
19023.0	7.094918718335657e+17
19024.0	7.093618674237437e+17
19025.0	7.092315195004244e+17
19026.0	7.090979503516329e+17
19027.0	7.089647440101373e+17
19028.0	7.088353884591444e+17
19029.0	7.087031336654164e+17
19030.0	7.085724701906259e+17
19031.0	7.084404253917183e+17
19032.0	7.083083372516692e+17
19033.0	7.081689292122793e+17
19034.0	7.080426096383316e+17
19035.0	7.079057531338751e+17
19036.0	7.075464508779177e+17
19037.0	7.076443785090387e+17
19038.0	7.075133573999274e+17
19039.0	7.073835207622655e+17
19040.0	7.072514707903828e+17
19041.0	7.071193412665343e+17
19042.0	7.069792694086314e+17
19043.0	7.068550029464916e+17
19044.0	7.067218042945535e+17
19045.0	7.065904867879594e+17
19046.0	7.064544936110761e+17
19047.0	7.06324024332561e+17
19048.0	7.061785880996521e+17
19049.0	7.060548414515881e+17
19050.0	7.059253669221716e+17
19051.0	7.057562268598271e+17
19052.0	7.056560670201172e+17
19053.0	7.055321998557183e+17
19054.0	7.054001412156074e+17
19055.0	7.052474182183594e+17
19056.0	7.051338230442666e+17
19057.0	7.0500261850426e+17
19058.0	7.048695779775828e+17
19059.0	7.047384581625172e+17
19060.0	7.046047294903636e+17
19061.0	7.044740117692416e+17
19062.0	7.043413070665044e+17
19063.0	7.042089907563177e+17
19064.0	7.040678022348799e+17
19065.0	7.039300856184832e+17
19066.0	7.038071778312191e+17
19067.0	7.036798608517801e+17
19068.0	7.035475174184276e+17
19069.0	7.034152132018173e+17
19070.0	7.032809798849876e+17
19071.0	7.031505003304276e+17
19072.0	7.030181329196372e+17
19073.0	7.028854222050644e+17
19074.0	7.027534185103359e+17
19075.0	7.026210285202089e+17
19076.0	7.024872115579561e+17
19077.0	7.023550993006591e+17
19078.0	7.022219854435667e+17
19079.0	7.020914182979583e+17
19080.0	7.019579240873983e+17
19081.0	7.018233332760575e+17
19082.0	7.016912799487316e+17
19083.0	7.015527305532755e+17
19084.0	7.014105373562196e+17
19085.0	7.01297063956753e+17
19086.0	7.011340156316329e+17
19087.0	7.010272630450857e+17
19088.0	7.008932043511124e+17
19089.0	7.007499360840361e+17
19090.0	7.006322197266431e+17
19091.0	7.005007484988073e+17
19092.0	7.003654904436052e+17
19093.0	7.002380497321983e+17
19094.0	7.001057383852713e+17
19095.0	6.999733791533737e+17
19096.0	6.998399646345897e+17
19097.0	6.997085094849193e+17
19098.0	6.995762184803667e+17
19099.0	6.994438163267583e+17
19100.0	6.99311223611938e+17
19101.0	6.991789686783999e+17
19102.0	6.990395773463209e+17
19103.0	6.989145709390506e+17
19104.0	6.987822208647167e+17
19105.0	6.986492812809555e+17
19106.0	6.985164278901417e+17
19107.0	6.983838281149097e+17
19108.0	6.982520309197481e+17
19109.0	6.981037444475561e+17
19110.0	6.979853960784553e+17
19111.0	6.978554957572776e+17
19112.0	6.977233634372265e+17
19113.0	6.975910691471359e+17
19114.0	6.974585798219091e+17
19115.0	6.973226299861674e+17
19116.0	6.971920366960637e+17
19117.0	6.970597981902164e+17
19118.0	6.969209546342399e+17
19119.0	6.964950767501307e+17
19120.0	6.966604856295423e+17
19121.0	6.965304512304468e+17
19122.0	6.963999309911379e+17
19123.0	6.962676053136723e+17
19124.0	6.961337731121151e+17
19125.0	6.9600244400128e+17
19126.0	6.958677319745535e+17
19127.0	6.956093409678674e+17
19128.0	6.956010522542079e+17
19129.0	6.954661958036138e+17
19130.0	6.953399114618196e+17
19131.0	6.952088075851091e+17
19132.0	6.95076285194786e+17
19133.0	6.949382367390377e+17
19134.0	6.948107139590825e+17
19135.0	6.946793204656809e+17
19136.0	6.945472168067071e+17
19137.0	6.944035259635028e+17
19138.0	6.942814596934313e+17
19139.0	6.941504018142548e+17
19140.0	6.940182567015764e+17
19141.0	6.938859394127187e+17
19142.0	6.937515739054079e+17
19143.0	6.93617355198737e+17
19144.0	6.934856736265555e+17
19145.0	6.933565204507306e+17
19146.0	6.931767646049622e+17
19147.0	6.930858134994943e+17
19148.0	6.929593454471849e+17
19149.0	6.928270299758591e+17
19150.0	6.926942457910611e+17
19151.0	6.92562308715861e+17
19152.0	6.9242231731869e+17
19153.0	6.922712802219348e+17
19154.0	6.921316492552873e+17
19155.0	6.920080132669439e+17
19156.0	6.918755459618131e+17
19157.0	6.917418063145642e+17
19158.0	6.916009475353257e+17
19159.0	6.914763651721897e+17
19160.0	6.913450109654356e+17
19161.0	6.912127832249684e+17
19162.0	6.910550161577299e+17
19163.0	6.909452164792319e+17
19164.0	6.90816306712849e+17
19165.0	6.906835558028628e+17
19166.0	6.90542962872593e+17
19167.0	6.90416712225041e+17
19168.0	6.902859252279978e+17
19169.0	6.901534191954602e+17
19170.0	6.900217564976468e+17
19171.0	6.898882027978751e+17
19172.0	6.897567638661802e+17
19173.0	6.89624383173427e+17
19174.0	6.894878004172116e+17
19175.0	6.893593434958504e+17
19176.0	6.892268910804991e+17
19177.0	6.890822376445267e+17
19178.0	6.889606179979263e+17
19179.0	6.888270958952447e+17
19180.0	6.886952756314111e+17
19181.0	6.885552041929385e+17
19182.0	6.884297471776083e+17
19183.0	6.882983933902845e+17
19184.0	6.881651299363497e+17
19185.0	6.880325710555817e+17
19186.0	6.879000748796586e+17
19187.0	6.877614708184403e+17
19188.0	6.876343481750868e+17
19189.0	6.875019283354963e+17
19190.0	6.873689147921748e+17
19191.0	6.872334187801257e+17
19192.0	6.871031532748799e+17
19193.0	6.869700053740202e+17
19194.0	6.868358409835859e+17
19195.0	6.867034598014975e+17
19196.0	6.8656891442845e+17
19197.0	6.864342591646378e+17
19198.0	6.862934015737855e+17
19199.0	6.860014495640233e+17
19200.0	6.8590529164957e+17
19201.0	6.858955257020415e+17
19202.0	6.857695956391252e+17
19203.0	6.856382740780372e+17
19204.0	6.855039378609492e+17
19205.0	6.853717955444735e+17
19206.0	6.852388598054911e+17
19207.0	6.850982377947133e+17
19208.0	6.849576309533353e+17
19209.0	6.848388704239615e+17
19210.0	6.847058836542804e+17
19211.0	6.845731598674601e+17
19212.0	6.844395436725587e+17
19213.0	6.842983804567551e+17
19214.0	6.841638970895018e+17
19215.0	6.840378111382867e+17
19216.0	6.839046751911935e+17
19217.0	6.837697307301204e+17
19218.0	6.83578328560435e+17
19219.0	6.834887794010793e+17
19220.0	6.833670992865961e+17
19221.0	6.832131203749204e+17
19222.0	6.830994617270271e+17
19223.0	6.829656335799636e+17
19224.0	6.828293046490452e+17
19225.0	6.82689122411042e+17
19226.0	6.825629488687785e+17
19227.0	6.824285600830803e+17
19228.0	6.822965654061055e+17
19229.0	6.821620085686271e+17
19230.0	6.820272661331965e+17
19231.0	6.818917813059583e+17
19232.0	6.817575456822612e+17
19233.0	6.816178034966527e+17
19234.0	6.814870322981545e+17
19235.0	6.81351924818466e+17
19236.0	6.812186914936148e+17
19237.0	6.810825265599827e+17
19238.0	6.809413710337364e+17
19239.0	6.808023720787965e+17
19240.0	6.806407830219434e+17
19241.0	6.805042750641491e+17
19242.0	6.803696412611924e+17
19243.0	6.802218446837076e+17
19244.0	6.800998365746516e+17
19245.0	6.799640373843284e+17
19246.0	6.798270889547091e+17
19247.0	6.796920337640106e+17
19248.0	6.795560756095657e+17
19249.0	6.794197133339305e+17
19250.0	6.792818557889193e+17
19251.0	6.791388990887252e+17
19252.0	6.789863846182911e+17
19253.0	6.788719064033962e+17
19254.0	6.787368516321279e+17
19255.0	6.785842443277651e+17
19256.0	6.784610163752959e+17
19257.0	6.783258061351594e+17
19258.0	6.781884094043475e+17
19259.0	6.780448074803882e+17
19260.0	6.779079871168511e+17
19261.0	6.777744125154644e+17
19262.0	6.776326636350121e+17
19263.0	6.774935343071231e+17
19264.0	6.77321676825122e+17
19265.0	6.772078275461119e+17
19266.0	6.770700120140457e+17
19267.0	6.769455486293331e+17
19268.0	6.768066754336084e+17
19269.0	6.766674933972991e+17
19270.0	6.765271902235305e+17
19271.0	6.76364278632721e+17
19272.0	6.762422643720191e+17
19273.0	6.760083609703763e+17
19274.0	6.758704182809939e+17
19275.0	6.757763742957567e+17
19276.0	6.756346561735338e+17
19277.0	6.754943644641961e+17
19278.0	6.753537676891476e+17
19279.0	6.752120141250559e+17
19280.0	6.750657637777407e+17
19281.0	6.749286238781439e+17
19282.0	6.747881237118975e+17
19283.0	6.746440381147817e+17
19284.0	6.74499633750562e+17
19285.0	6.743486581702655e+17
19286.0	6.742092964080298e+17
19287.0	6.740501912180052e+17
19288.0	6.73840604853043e+17
19289.0	6.736105246294012e+17
19290.0	6.736185683258025e+17
19291.0	6.73454103863842e+17
19292.0	6.733112080509609e+17
19293.0	6.731131586084863e+17
19294.0	6.729671810307411e+17
19295.0	6.728222918049792e+17
19296.0	6.726760449529172e+17
19297.0	6.725284563430057e+17
19298.0	6.723801821042004e+17
19299.0	6.722351462875135e+17
19300.0	6.720872277256874e+17
19301.0	6.719387557254484e+17
19302.0	6.717894629698217e+17
19303.0	6.716356684677119e+17
19304.0	6.714896673319593e+17
19305.0	6.713405626908671e+17
19306.0	6.711070908831059e+17
19307.0	6.709419857412095e+17
19308.0	6.70792103825681e+17
19309.0	6.706361693197652e+17
19310.0	6.704809056927743e+17
19311.0	6.703335380527786e+17
19312.0	6.701825255626068e+17
19313.0	6.700291634932393e+17
19314.0	6.696731814483284e+17
19315.0	6.695028711751681e+17
19316.0	6.694405022242131e+17
19317.0	6.692843057840127e+17
19318.0	6.691265226386089e+17
19319.0	6.689701260602025e+17
19320.0	6.688113805317459e+17
19321.0	6.686518198403071e+17
19322.0	6.684861270764201e+17
19323.0	6.682225932937898e+17
19324.0	6.680161177741993e+17
19325.0	6.678502487097343e+17
19326.0	6.67690634191394e+17
19327.0	6.675261452626601e+17
19328.0	6.673597511412393e+17
19329.0	6.671288869322751e+17
19330.0	6.66886548365858e+17
19331.0	6.667180448590506e+17
19332.0	6.665535429978794e+17
19333.0	6.663847570746025e+17
19334.0	6.662147711609514e+17
19335.0	6.660439422621012e+17
19336.0	6.658717961420797e+17
19337.0	6.656985150433961e+17
19338.0	6.655085232783359e+17
19339.0	6.653492803753299e+17
19340.0	6.651666994561024e+17
19341.0	6.649915630769492e+17
19342.0	6.647887539382953e+17
19343.0	6.646330875183103e+17
19344.0	6.644499839888041e+17
19345.0	6.641272854238546e+17
19346.0	6.640159430104403e+17
19347.0	6.638257051096404e+17
19348.0	6.636252224116052e+17
19349.0	6.634335556512425e+17
19350.0	6.632419887852201e+17
19351.0	6.630484310928041e+17
19352.0	6.628498693160959e+17
19353.0	6.626584881878355e+17
19354.0	6.624597475240617e+17
19355.0	6.622512149080745e+17
19356.0	6.620555989308756e+17
19357.0	6.618183544864765e+17
19358.0	6.615147662890323e+17
19359.0	6.613025532411903e+17
19360.0	6.610911819901609e+17
19361.0	6.608780710816426e+17
19362.0	6.60664518582818e+17
19363.0	6.604456619671551e+17
19364.0	6.602239500091391e+17
19365.0	6.598248513579689e+17
19366.0	6.5958424622749e+17
19367.0	6.593527280566271e+17
19368.0	6.591179798522537e+17
19369.0	6.588759408989523e+17
19370.0	6.586332363096063e+17
19371.0	6.58144294548275e+17
19372.0	6.578824888188927e+17
19373.0	6.576221443850239e+17
19374.0	6.573643723877033e+17
19375.0	6.57065883135727e+17
19376.0	6.565046133981183e+17
19377.0	6.562312729133055e+17
19378.0	6.55953474302771e+17
19379.0	6.55524273131793e+17
19380.0	6.549681603608576e+17
19381.0	6.546707661018452e+17
19382.0	6.542731848100525e+17
19383.0	6.535452669160105e+17
19384.0	6.532326358690472e+17
19385.0	6.526931317729965e+17
19386.0	6.519693665195348e+17
19387.0	6.516245685862397e+17
19388.0	6.50662076341726e+17
19389.0	6.502030843576319e+17
19390.0	6.495520161092946e+17
19391.0	6.488203773083644e+17
19392.0	6.4860517316253e+17
19393.0	6.482095189437098e+17
19394.0	6.47800512577536e+17
19395.0	6.473855678458537e+17
19396.0	6.469636664415572e+17
19397.0	6.465354834378752e+17
19398.0	6.460514057409876e+17
19399.0	6.455367467444905e+17
19400.0	6.4512535312029e+17
19401.0	6.446744395754153e+17
19402.0	6.442121949085693e+17
19403.0	6.437042057641984e+17
19404.0	6.431175605572947e+17
19405.0	6.426062953818793e+17
19406.0	6.4208555226781e+17
19407.0	6.414231367494312e+17
19408.0	6.407581968891904e+17
19409.0	6.402360658100223e+17
19410.0	6.394089276003671e+17
19411.0	6.387752550181545e+17
19412.0	6.379287289178793e+17
19413.0	6.371398088567465e+17
19414.0	6.361359453956778e+17
19415.0	6.352357756152495e+17
19416.0	6.339608509240659e+17
19417.0	6.327583989825536e+17
19418.0	6.314220127780864e+17
19419.0	6.299037080748026e+17
19420.0	6.280865736818687e+17
19421.0	6.261028663503537e+17
19422.0	6.244052225753093e+17
19423.0	6.231984784627027e+17
19424.0	6.220157968624298e+17
19425.0	6.208059034566655e+17
19426.0	6.195398940382547e+17
19427.0	6.182086655694164e+17
19428.0	6.167858692926122e+17
19429.0	6.153357389463551e+17
19430.0	6.138172840170836e+17
19431.0	6.12140182475025e+17
19432.0	6.104391065010173e+17
19433.0	6.0851812302848e+17
19434.0	6.064882993244842e+17
19435.0	6.04238691574306e+17
19436.0	6.018188258399571e+17
19437.0	5.990576813331795e+17
19438.0	5.956908761830735e+17
19439.0	5.92344048013585e+17
19440.0	5.883520600418981e+17
19441.0	5.839935700118184e+17
19442.0	5.79025095150797e+17
19443.0	5.7344902607230246e+17
19444.0	5.6723147280001645e+17
19445.0	5.599019352981506e+17
19446.0	5.5129169656982176e+17
19447.0	5.4064272012301594e+17
19448.0	5.2698598276246246e+17
19449.0	5.082657026561364e+17
19450.0	4.793976810897385e+17
19451.0	4.62674407893676e+17
19452.0	4.9568186560238957e+17
19453.0	5.184003889954822e+17
19454.0	5.339430062303908e+17
19455.0	5.45653411422754e+17
19456.0	5.5496547856547866e+17
19457.0	5.6262953208381395e+17
19458.0	5.6879797466999514e+17
19459.0	5.748197952935253e+17
19460.0	5.798216784150527e+17
19461.0	5.842225347603114e+17
19462.0	5.881561533994326e+17
19463.0	5.917384798546598e+17
19464.0	5.948201822934356e+17
19465.0	5.975283121258495e+17
19466.0	5.999413225499305e+17
19467.0	6.019894941668694e+17
19468.0	6.038470537510912e+17
19469.0	6.056387566108671e+17
19470.0	6.072023906953898e+17
19471.0	6.086814472688982e+17
19472.0	6.100120415589716e+17
19473.0	6.112557813901994e+17
19474.0	6.124621264846847e+17
19475.0	6.135546645228201e+17
19476.0	6.146627767107583e+17
19477.0	6.156610337854806e+17
19478.0	6.166212426508969e+17
19479.0	6.175523868770301e+17
19480.0	6.188033138578776e+17
19481.0	6.204611351631188e+17
19482.0	6.22033954703497e+17
19483.0	6.233868509467996e+17
19484.0	6.245922562375679e+17
19485.0	6.25781892273493e+17
19486.0	6.266170748086954e+17
19487.0	6.274047619541672e+17
19488.0	6.282384704012293e+17
19489.0	6.287247369655636e+17
19490.0	6.293652885558609e+17
19491.0	6.298484994998271e+17
19492.0	6.303774140967596e+17
19493.0	6.308041884434431e+17
19494.0	6.311224230106452e+17
19495.0	6.315824936299176e+17
19496.0	6.318688691027965e+17
19497.0	6.321640774303743e+17
19498.0	6.324323067363329e+17
19499.0	6.324885138352806e+17
19500.0	6.330127018710356e+17
19501.0	6.332312386011135e+17
19502.0	6.334411129050452e+17
19503.0	6.336453283938304e+17
19504.0	6.338987738966698e+17
19505.0	6.340990769386836e+17
19506.0	6.342799565083988e+17
19507.0	6.344524214654291e+17
19508.0	6.346210691164842e+17
19509.0	6.347810706292733e+17
19510.0	6.349205129221459e+17
19511.0	6.347137076603558e+17
19512.0	6.355555669682853e+17
19513.0	6.356476682218152e+17
19514.0	6.36263532628104e+17
19515.0	6.3661535671965e+17
19516.0	6.368354108790106e+17
19517.0	6.373971820456617e+17
19518.0	6.374786933107369e+17
19519.0	6.377139493055151e+17
19520.0	6.380866685108223e+17
19521.0	6.381430004602196e+17
19522.0	6.38241753390558e+17
19523.0	6.386223801871017e+17
19524.0	6.386567114042025e+17
19525.0	6.386853291403945e+17
19526.0	6.388205860771155e+17
19527.0	6.390398743565652e+17
19528.0	6.39054608736802e+17
19529.0	6.390657743934803e+17
19530.0	6.390732659097599e+17
19531.0	6.391808878357158e+17
19532.0	6.39319554531874e+17
19533.0	6.393132277039104e+17
19534.0	6.393032581229225e+17
19535.0	6.392893426805417e+17
19536.0	6.39271028461841e+17
19537.0	6.393145741453996e+17
19538.0	6.393966588417364e+17
19539.0	6.393414306933418e+17
19540.0	6.393485556973567e+17
19541.0	6.393197135659008e+17
19542.0	6.392858621072723e+17
19543.0	6.392501567662762e+17
19544.0	6.392117185566036e+17
19545.0	6.392406670835711e+17
19546.0	6.391853239413417e+17
19547.0	6.392044621310634e+17
19548.0	6.391588903190527e+17
19549.0	6.391030344930643e+17
19550.0	6.390607951254867e+17
19551.0	6.390091648510633e+17
19552.0	6.389555229884416e+17
19553.0	6.388986257866751e+17
19554.0	6.388408142266365e+17
19555.0	6.387840231407615e+17
19556.0	6.387905335394303e+17
19557.0	6.38738761847057e+17
19558.0	6.386757804578131e+17
19559.0	6.386114719907839e+17
19560.0	6.385434995195901e+17
19561.0	6.384763801698304e+17
19562.0	6.384102549400233e+17
19563.0	6.383402275394899e+17
19564.0	6.382689999388672e+17
19565.0	6.381966736403114e+17
19566.0	6.3812104369821e+17
19567.0	6.380488138686464e+17
19568.0	6.379714518887082e+17
19569.0	6.378966366202538e+17
19570.0	6.37820064567569e+17
19571.0	6.377419195809791e+17
19572.0	6.376607246363306e+17
19573.0	6.376468449154388e+17
19574.0	6.375798196578985e+17
19575.0	6.375191488408233e+17
19576.0	6.37466512003345e+17
19577.0	6.373824103361193e+17
19578.0	6.372968721896788e+17
19579.0	6.372230929842175e+17
19580.0	6.372643134854484e+17
19581.0	6.371793178023252e+17
19582.0	6.370937579853139e+17
19583.0	6.370063254814719e+17
19584.0	6.369180604082857e+17
19585.0	6.368205366187347e+17
19586.0	6.367289923687764e+17
19587.0	6.36671753331234e+17
19588.0	6.366340337456468e+17
19589.0	6.365735109875028e+17
19590.0	6.364772902982995e+17
19591.0	6.363916998628692e+17
19592.0	6.36298625810432e+17
19593.0	6.362035668036265e+17
19594.0	6.360920491382099e+17
19595.0	6.360145000923135e+17
19596.0	6.359142444127572e+17
19597.0	6.358248612080297e+17
19598.0	6.357833909359956e+17
19599.0	6.357157935753897e+17
19600.0	6.356197070340095e+17
19601.0	6.355171417609556e+17
19602.0	6.354195834383017e+17
19603.0	6.352961632468991e+17
19604.0	6.35223605912098e+17
19605.0	6.351064446708394e+17
19606.0	6.350302361944063e+17
19607.0	6.349311526830079e+17
19608.0	6.348299860006227e+17
19609.0	6.347271925574314e+17
19610.0	6.346306972811264e+17
19611.0	6.345295835168765e+17
19612.0	6.344556821872637e+17
19613.0	6.343880477070676e+17
19614.0	6.342838667182079e+17
19615.0	6.341850485664425e+17
19616.0	6.340809587337898e+17
19617.0	6.339792340691626e+17
19618.0	6.338502986476201e+17
19619.0	6.337369478616403e+17
19620.0	6.336393255059455e+17
19621.0	6.335835350411945e+17
19622.0	6.334803694234282e+17
19623.0	6.333764321236308e+17
19624.0	6.332713650880511e+17
19625.0	6.331769494175744e+17
19626.0	6.330824177046868e+17
19627.0	6.329770227444393e+17
19628.0	6.3286776168448e+17
19629.0	6.327577211830271e+17
19630.0	6.326323597279231e+17
19631.0	6.32376906481664e+17
19632.0	6.324451620683773e+17
19633.0	6.323548949839872e+17
19634.0	6.322806307771734e+17
19635.0	6.321712962469887e+17
19636.0	6.320680027728553e+17
19637.0	6.319310799983956e+17
19638.0	6.318537089307988e+17
19639.0	6.317461453755731e+17
19640.0	6.31632443875874e+17
19641.0	6.314735475621889e+17
19642.0	6.31424069734673e+17
19643.0	6.313163215601664e+17
19644.0	6.312039339961001e+17
19645.0	6.310817869157716e+17
19646.0	6.309934631922346e+17
19647.0	6.308855407443967e+17
19648.0	6.307772961740116e+17
19649.0	6.30668724867345e+17
19650.0	6.305604020032852e+17
19651.0	6.304512362938367e+17
19652.0	6.303428445732863e+17
19653.0	6.302340495704064e+17
19654.0	6.301252168187903e+17
19655.0	6.30015817416704e+17
19656.0	6.299065102893055e+17
19657.0	6.297977637306368e+17
19658.0	6.296884177360212e+17
19659.0	6.295788737003519e+17
19660.0	6.294694611561129e+17
19661.0	6.293598385471487e+17
19662.0	6.292500576032084e+17
19663.0	6.29137166373137e+17
19664.0	6.290298099466239e+17
19665.0	6.289205268665684e+17
