# Flux units: erg / (cm m2 s)
# Wavelength units: Angstrom
wave	flux
19000.0	7.143125682924202e+17
19001.0	7.141755676437161e+17
19002.0	7.140497313933994e+17
19003.0	7.139176607296169e+17
19004.0	7.137855236560212e+17
19005.0	7.136549741264896e+17
19006.0	7.135232858434217e+17
19007.0	7.133762271139156e+17
19008.0	7.132563481733802e+17
19009.0	7.131226674561024e+17
19010.0	7.129712093211306e+17
19011.0	7.128599868648106e+17
19012.0	7.126881428744874e+17
19013.0	7.12600312610816e+17
19014.0	7.124642616923475e+17
19015.0	7.123335127935658e+17
19016.0	7.122007734179158e+17
19017.0	7.120706904347987e+17
19018.0	7.119362986431827e+17
19019.0	7.11806532330018e+17
19020.0	7.116730727923711e+17
19021.0	7.115425916299945e+17
19022.0	7.114108014253395e+17
19023.0	7.112759991511722e+17
19024.0	7.111442134204415e+17
19025.0	7.110095450843817e+17
19026.0	7.108750013191508e+17
19027.0	7.107067487715327e+17
19028.0	7.106162822479871e+17
19029.0	7.104829017030655e+17
19030.0	7.103512978653183e+17
19031.0	7.102187319940436e+17
19032.0	7.100861057247913e+17
19033.0	7.099483095564287e+17
19034.0	7.098204214525952e+17
19035.0	7.096819913850879e+17
19036.0	7.0682962600919e+17
19037.0	7.094202275288404e+17
19038.0	7.092883559546879e+17
19039.0	7.091573488265897e+17
19040.0	7.090247011663871e+17
19041.0	7.088919074045951e+17
19042.0	7.08753765905203e+17
19043.0	7.086265695819092e+17
19044.0	7.084933706503508e+17
19045.0	7.083593810924883e+17
19046.0	7.082252005539839e+17
19047.0	7.080941201653759e+17
19048.0	7.079510444867581e+17
19049.0	7.078239099595434e+17
19050.0	7.076935908371113e+17
19051.0	7.071508684516004e+17
19052.0	7.073474138166611e+17
19053.0	7.072935326689961e+17
19054.0	7.071645608968191e+17
19055.0	7.070173181771775e+17
19056.0	7.068975566771539e+17
19057.0	7.067648897231529e+17
19058.0	7.06627531579938e+17
19059.0	7.064996550803455e+17
19060.0	7.063654367931049e+17
19061.0	7.06233723204403e+17
19062.0	7.061004022185983e+17
19063.0	7.059674473955327e+17
19064.0	7.05827992379938e+17
19065.0	7.056914431781545e+17
19066.0	7.055649846329343e+17
19067.0	7.054351597393236e+17
19068.0	7.053021749968896e+17
19069.0	7.051691046906538e+17
19070.0	7.050346287333375e+17
19071.0	7.049015958962175e+17
19072.0	7.047692677021693e+17
19073.0	7.046363418198015e+17
19074.0	7.045035012216148e+17
19075.0	7.043703506643625e+17
19076.0	7.042360486308522e+17
19077.0	7.041032582245033e+17
19078.0	7.03969367232785e+17
19079.0	7.03837683004211e+17
19080.0	7.03704027243042e+17
19081.0	7.035691303873194e+17
19082.0	7.034355854955859e+17
19083.0	7.032983231223123e+17
19084.0	7.031580309935444e+17
19085.0	7.030380669785427e+17
19086.0	7.028854840710484e+17
19087.0	7.027045816423766e+17
19088.0	7.026417225170943e+17
19089.0	7.024661569907369e+17
19090.0	7.02382497473058e+17
19091.0	7.022505713729536e+17
19092.0	7.020968588694867e+17
19093.0	7.019863166593704e+17
19094.0	7.018526869028863e+17
19095.0	7.017192802134698e+17
19096.0	7.01585804108322e+17
19097.0	7.01453503107345e+17
19098.0	7.013200867011241e+17
19099.0	7.011867040590506e+17
19100.0	7.010494055448575e+17
19101.0	7.009189479404884e+17
19102.0	7.007819933592233e+17
19103.0	7.006540231868415e+17
19104.0	7.005206543859711e+17
19105.0	7.003860964999167e+17
19106.0	7.002389838036991e+17
19107.0	7.001189227604649e+17
19108.0	6.999857721333076e+17
19109.0	6.996109699667282e+17
19110.0	6.997096645263359e+17
19111.0	6.995858158168746e+17
19112.0	6.994535406807721e+17
19113.0	6.993207848075264e+17
19114.0	6.991874595575124e+17
19115.0	6.990461082970794e+17
19116.0	6.98919432626722e+17
19117.0	6.987856553705472e+17
19118.0	6.986355285775699e+17
19119.0	6.983255743354193e+17
19120.0	6.983640751101267e+17
19121.0	6.982365618372605e+17
19122.0	6.981206814665385e+17
19123.0	6.97987249611298e+17
19124.0	6.978395168571391e+17
19125.0	6.977181780191913e+17
19126.0	6.975862246561108e+17
19127.0	6.973576329909587e+17
19128.0	6.972252845244415e+17
19129.0	6.971823810587305e+17
19130.0	6.970530194259967e+17
19131.0	6.969171382370303e+17
19132.0	6.967865626329087e+17
19133.0	6.966297899652436e+17
19134.0	6.964782062108672e+17
19135.0	6.963856470092457e+17
19136.0	6.962531110573395e+17
19137.0	6.961105926619135e+17
19138.0	6.959820626897578e+17
19139.0	6.958525132221098e+17
19140.0	6.957193775546367e+17
19141.0	6.955859405264212e+17
19142.0	6.954502396925267e+17
19143.0	6.953160775390548e+17
19144.0	6.951839949215059e+17
19145.0	6.95051219964177e+17
19146.0	6.948835224627882e+17
19147.0	6.947794999487145e+17
19148.0	6.946496027033599e+17
19149.0	6.945164057291434e+17
19150.0	6.94383780438562e+17
19151.0	6.942506567947604e+17
19152.0	6.941140858525012e+17
19153.0	6.939819046688084e+17
19154.0	6.938426885188266e+17
19155.0	6.93715245081122e+17
19156.0	6.935817249357823e+17
19157.0	6.934411027152893e+17
19158.0	6.931519308999336e+17
19159.0	6.931773631321427e+17
19160.0	6.930435672113152e+17
19161.0	6.92903989092898e+17
19162.0	6.924047695391405e+17
19163.0	6.926307167655252e+17
19164.0	6.925122585056596e+17
19165.0	6.923713946932563e+17
19166.0	6.922302844654931e+17
19167.0	6.920757988818943e+17
19168.0	6.9197466987834e+17
19169.0	6.918365474630313e+17
19170.0	6.917097203782996e+17
19171.0	6.915548644376575e+17
19172.0	6.914398543850153e+17
19173.0	6.913075835131219e+17
19174.0	6.911721727852543e+17
19175.0	6.910414361198591e+17
19176.0	6.909074176212991e+17
19177.0	6.907646665818111e+17
19178.0	6.906285396066303e+17
19179.0	6.904753921458175e+17
19180.0	6.903645647929343e+17
19181.0	6.902309524428116e+17
19182.0	6.901009176242858e+17
19183.0	6.899681948860415e+17
19184.0	6.89832003248674e+17
19185.0	6.897005048277674e+17
19186.0	6.895665676288e+17
19187.0	6.894283078500351e+17
19188.0	6.892967525264041e+17
19189.0	6.891593673299284e+17
19190.0	6.890233116579156e+17
19191.0	6.888887627197097e+17
19192.0	6.887596890259455e+17
19193.0	6.886218989393236e+17
19194.0	6.884883793532244e+17
19195.0	6.883550826943828e+17
19196.0	6.882190352711679e+17
19197.0	6.880808563026601e+17
19198.0	6.879306617017684e+17
19199.0	6.856177698035022e+17
19200.0	6.861163023302662e+17
19201.0	6.875292734499497e+17
19202.0	6.874084549853184e+17
19203.0	6.872714550356649e+17
19204.0	6.87141214416623e+17
19205.0	6.870092878271828e+17
19206.0	6.868738903113727e+17
19207.0	6.867341938436778e+17
19208.0	6.865941502973267e+17
19209.0	6.864701262659583e+17
19210.0	6.863350066227881e+17
19211.0	6.861997544396116e+17
19212.0	6.860643016987987e+17
19213.0	6.859060715803987e+17
19214.0	6.857598980587519e+17
19215.0	6.856488062550015e+17
19216.0	6.855225539297279e+17
19217.0	6.85387323347217e+17
19218.0	6.852054428068521e+17
19219.0	6.851069634849449e+17
19220.0	6.849778707770025e+17
19221.0	6.848260342459049e+17
19222.0	6.847080379886249e+17
19223.0	6.845724661994836e+17
19224.0	6.844346296259926e+17
19225.0	6.842923363947859e+17
19226.0	6.841632717886804e+17
19227.0	6.84026765648418e+17
19228.0	6.838916193015123e+17
19229.0	6.837551277714089e+17
19230.0	6.83614898557201e+17
19231.0	6.834786918902442e+17
19232.0	6.833441214212778e+17
19233.0	6.832038837485565e+17
19234.0	6.830701464081747e+17
19235.0	6.829331704359593e+17
19236.0	6.827972909946195e+17
19237.0	6.826591713755135e+17
19238.0	6.825142559353514e+17
19239.0	6.82385334215202e+17
19240.0	6.822444117524479e+17
19241.0	6.821077712546474e+17
19242.0	6.819713571793578e+17
19243.0	6.818250470632105e+17
19244.0	6.816966524272639e+17
19245.0	6.815585239302143e+17
19246.0	6.814194013831168e+17
19247.0	6.812818194038783e+17
19248.0	6.811434021289983e+17
19249.0	6.810035780845565e+17
19250.0	6.808647917109247e+17
19251.0	6.807195994466985e+17
19252.0	6.805723685410131e+17
19253.0	6.804474374214996e+17
19254.0	6.803088491588265e+17
19255.0	6.801597854121983e+17
19256.0	6.800253445472255e+17
19257.0	6.798900936922452e+17
19258.0	6.79750393729297e+17
19259.0	6.79606261785122e+17
19260.0	6.794228078215165e+17
19261.0	6.79329344327953e+17
19262.0	6.791859510007126e+17
19263.0	6.790442583239337e+17
19264.0	6.788776783249405e+17
19265.0	6.787548707815423e+17
19266.0	6.786146103896746e+17
19267.0	6.784822984136019e+17
19268.0	6.783403949031423e+17
19269.0	6.781982636419753e+17
19270.0	6.780557553128787e+17
19271.0	6.778951684849664e+17
19272.0	6.777684343739732e+17
19273.0	6.775212675345065e+17
19274.0	6.774156029504169e+17
19275.0	6.773405293128361e+17
19276.0	6.771956951722665e+17
19277.0	6.770360948446547e+17
19278.0	6.768771468711252e+17
19279.0	6.767282968941907e+17
19280.0	6.765833791471615e+17
19281.0	6.764411509975721e+17
19282.0	6.762958794610004e+17
19283.0	6.761178658592084e+17
19284.0	6.759709711968938e+17
19285.0	6.758472074919935e+17
19286.0	6.757093911210665e+17
19287.0	6.755638635921408e+17
19288.0	6.746259875779914e+17
19289.0	6.735541089337317e+17
19290.0	6.751204240872788e+17
19291.0	6.749580109195946e+17
19292.0	6.748239060882772e+17
19293.0	6.746742640170324e+17
19294.0	6.74525048087074e+17
19295.0	6.743750061588479e+17
19296.0	6.742241867464703e+17
19297.0	6.740722763956223e+17
19298.0	6.739215273776468e+17
19299.0	6.737703194329087e+17
19300.0	6.736184886340265e+17
19301.0	6.734655731182249e+17
19302.0	6.733117558969683e+17
19303.0	6.731548680257535e+17
19304.0	6.730025921413119e+17
19305.0	6.728490026008575e+17
19306.0	6.726940050325503e+17
19307.0	6.725334606370132e+17
19308.0	6.723779979203923e+17
19309.0	6.721467114149203e+17
19310.0	6.719635061735423e+17
19311.0	6.718972128919551e+17
19312.0	6.717501568188415e+17
19313.0	6.715907501981695e+17
19314.0	6.695909477842956e+17
19315.0	6.695260663054351e+17
19316.0	6.711005890827604e+17
19317.0	6.709474565117268e+17
19318.0	6.707839526851923e+17
19319.0	6.706214549323775e+17
19320.0	6.704567453832531e+17
19321.0	6.702914578590378e+17
19322.0	6.701151734988799e+17
19323.0	6.699249425186815e+17
19324.0	6.69787531457331e+17
19325.0	6.695519241895935e+17
19326.0	6.694507554100564e+17
19327.0	6.692820788882089e+17
19328.0	6.691115036049408e+17
19329.0	6.689405298627924e+17
19330.0	6.687655631432361e+17
19331.0	6.685912881343146e+17
19332.0	6.684185371956563e+17
19333.0	6.682415227469823e+17
19334.0	6.680653444328105e+17
19335.0	6.678858797416447e+17
19336.0	6.677065742243156e+17
19337.0	6.675269128901972e+17
19338.0	6.673337496720724e+17
19339.0	6.671623551014228e+17
19340.0	6.669744626554195e+17
19341.0	6.667901759826602e+17
19342.0	6.665809069867008e+17
19343.0	6.664164658730323e+17
19344.0	6.662261805765971e+17
19345.0	6.659337788675411e+17
19346.0	6.657939268610729e+17
19347.0	6.656433988829183e+17
19348.0	6.654520588588372e+17
19349.0	6.652520219454121e+17
19350.0	6.650528030610771e+17
19351.0	6.648525274218495e+17
19352.0	6.646462827287892e+17
19353.0	6.644183096535721e+17
19354.0	6.641820951904255e+17
19355.0	6.639697782636543e+17
19356.0	6.637645966169427e+17
19357.0	6.635529840536234e+17
19358.0	6.633373436302676e+17
19359.0	6.631174056531284e+17
19360.0	6.629023550887252e+17
19361.0	6.626829907525631e+17
19362.0	6.624625329613481e+17
19363.0	6.622375627281748e+17
19364.0	6.620102036291583e+17
19365.0	6.61780364997427e+17
19366.0	6.615478877290495e+17
19367.0	6.613128054483626e+17
19368.0	6.610749995264682e+17
19369.0	6.608301362686633e+17
19370.0	6.605783902978045e+17
19371.0	6.603413255094271e+17
19372.0	6.600314811580415e+17
19373.0	6.597415015197353e+17
19374.0	6.594839943228074e+17
19375.0	6.592222911441578e+17
19376.0	6.589578285329065e+17
19377.0	6.586898858377215e+17
19378.0	6.584190390064467e+17
19379.0	6.581447112523775e+17
19380.0	6.578669102650708e+17
19381.0	6.575855371987625e+17
19382.0	6.571531779265875e+17
19383.0	6.568588086695254e+17
19384.0	6.565706631304531e+17
19385.0	6.562721832457555e+17
19386.0	6.559694839611391e+17
19387.0	6.556619043941033e+17
19388.0	6.551933325497684e+17
19389.0	6.548251659119273e+17
19390.0	6.544934121242623e+17
19391.0	6.518983649219894e+17
19392.0	6.536625750977192e+17
19393.0	6.531973610733567e+17
19394.0	6.528344631803904e+17
19395.0	6.52458545398852e+17
19396.0	6.517463063024978e+17
19397.0	6.51359110037504e+17
19398.0	6.508297089013075e+17
19399.0	6.500922935650985e+17
19400.0	6.496644078676648e+17
19401.0	6.487479994198697e+17
19402.0	6.481571421530794e+17
19403.0	6.47196749926673e+17
19404.0	6.462949033334095e+17
19405.0	6.453118455775233e+17
19406.0	6.441110347273558e+17
19407.0	6.430911336458924e+17
19408.0	6.42393860734976e+17
19409.0	6.417736761256618e+17
19410.0	6.410970191276714e+17
19411.0	6.403955043773097e+17
19412.0	6.396691112525823e+17
19413.0	6.389178888967508e+17
19414.0	6.381385439423146e+17
19415.0	6.373202988455252e+17
19416.0	6.364317695169876e+17
19417.0	6.355416669050195e+17
19418.0	6.346764258202964e+17
19419.0	6.337517724893183e+17
19420.0	6.327731296578217e+17
19421.0	6.317499412206932e+17
19422.0	6.307543880739498e+17
19423.0	6.296613272158205e+17
19424.0	6.285126029803519e+17
19425.0	6.272531559699796e+17
19426.0	6.259419581688489e+17
19427.0	6.244693541126145e+17
19428.0	6.227920512439634e+17
19429.0	6.208566592187044e+17
19430.0	6.185623853465597e+17
19431.0	6.153294650365281e+17
19432.0	6.118265754135204e+17
19433.0	6.086935022578348e+17
19434.0	6.06332850868497e+17
19435.0	6.038245501217449e+17
19436.0	6.010975316606973e+17
19437.0	5.983885115173545e+17
19438.0	5.927412012766559e+17
19439.0	5.918819799269377e+17
19440.0	5.881151130435581e+17
19441.0	5.834338755149824e+17
19442.0	5.774581020579165e+17
19443.0	5.6968473057689626e+17
19444.0	5.630277515389607e+17
19445.0	5.556846723072002e+17
19446.0	5.464486453095083e+17
19447.0	5.342913736561994e+17
19448.0	5.189951524874928e+17
19449.0	4.984960000371371e+17
19450.0	4.6674370506697184e+17
19451.0	4.570160611109541e+17
19452.0	4.8326995320941306e+17
19453.0	5.09834897199378e+17
19454.0	5.266726541328381e+17
19455.0	5.402210391293949e+17
19456.0	5.5057107627540506e+17
19457.0	5.584436654156453e+17
19458.0	5.6246289343447366e+17
19459.0	5.7201418738947584e+17
19460.0	5.789124025909248e+17
19461.0	5.839284522538328e+17
19462.0	5.879069258984109e+17
19463.0	5.912633341378556e+17
19464.0	5.942119775251114e+17
19465.0	5.969244174243158e+17
19466.0	5.994069125059923e+17
19467.0	6.017171477321044e+17
19468.0	6.039109415294294e+17
19469.0	6.061361262668454e+17
19470.0	6.098295510269967e+17
19471.0	6.128590969460054e+17
19472.0	6.152166497233573e+17
19473.0	6.17026025562658e+17
19474.0	6.185461500346363e+17
19475.0	6.198090056160598e+17
19476.0	6.209949247296851e+17
19477.0	6.220925573092694e+17
19478.0	6.229847910470995e+17
19479.0	6.239290639340884e+17
19480.0	6.246938436785492e+17
19481.0	6.254468818883923e+17
19482.0	6.262411126374399e+17
19483.0	6.269338785589932e+17
19484.0	6.276016685187071e+17
19485.0	6.282438079326889e+17
19486.0	6.288647134729556e+17
19487.0	6.294799518094676e+17
19488.0	6.300269209976831e+17
19489.0	6.305404057987753e+17
19490.0	6.309768722732371e+17
19491.0	6.315061484191744e+17
19492.0	6.319518947912362e+17
19493.0	6.323720158532947e+17
19494.0	6.327695524757501e+17
19495.0	6.333947812948645e+17
19496.0	6.3414666746921e+17
19497.0	6.349833486991359e+17
19498.0	6.355468190482437e+17
19499.0	6.329896766799859e+17
19500.0	6.369739158148436e+17
19501.0	6.37393219267242e+17
19502.0	6.37870676325171e+17
19503.0	6.381137584018767e+17
19504.0	6.386112224996009e+17
19505.0	6.387635468981588e+17
19506.0	6.390410961573202e+17
19507.0	6.393534178743636e+17
19508.0	6.394732296361299e+17
19509.0	6.39586237607663e+17
19510.0	6.399269832840532e+17
19511.0	6.362778438030662e+17
19512.0	6.395131710843557e+17
19513.0	6.392068588961777e+17
19514.0	6.396092367241207e+17
19515.0	6.404676722010794e+17
19516.0	6.405819144164691e+17
19517.0	6.40633737768687e+17
19518.0	6.406861051920383e+17
19519.0	6.407295846754985e+17
19520.0	6.407820302527144e+17
19521.0	6.409451145789437e+17
19522.0	6.409754806408532e+17
19523.0	6.410056001475924e+17
19524.0	6.410302669892265e+17
19525.0	6.410512826892288e+17
19526.0	6.410704124204372e+17
19527.0	6.410856370449065e+17
19528.0	6.410971721498623e+17
19529.0	6.411060772863999e+17
19530.0	6.41110441529617e+17
19531.0	6.411996854834516e+17
19532.0	6.411989159684778e+17
19533.0	6.411928980510035e+17
19534.0	6.411837786554368e+17
19535.0	6.411716138456403e+17
19536.0	6.411556064941396e+17
19537.0	6.411407393641811e+17
19538.0	6.411142273783123e+17
19539.0	6.410710566655316e+17
19540.0	6.41072712786466e+17
19541.0	6.410472328090966e+17
19542.0	6.410178835862868e+17
19543.0	6.409864483263828e+17
19544.0	6.409534011954516e+17
19545.0	6.408917181530111e+17
19546.0	6.408340025027241e+17
19547.0	6.408403211517951e+17
19548.0	6.40798561472785e+17
19549.0	6.40749987308066e+17
19550.0	6.407106152366079e+17
19551.0	6.406712184886611e+17
19552.0	6.406704149998249e+17
19553.0	6.406191642400084e+17
19554.0	6.405669755639123e+17
19555.0	6.40514928026146e+17
19556.0	6.404610119259475e+17
19557.0	6.404045033963519e+17
19558.0	6.403468485634729e+17
19559.0	6.402874969948159e+17
19560.0	6.402256168200874e+17
19561.0	6.401643523691859e+17
19562.0	6.40102011380258e+17
19563.0	6.400374246211583e+17
19564.0	6.399716412271274e+17
19565.0	6.399046145015808e+17
19566.0	6.39835309150481e+17
19567.0	6.397669246588244e+17
19568.0	6.396949680182612e+17
19569.0	6.396244479967232e+17
19570.0	6.395522431232682e+17
19571.0	6.394782355379539e+17
19572.0	6.394021696678569e+17
19573.0	6.393267925024768e+17
19574.0	6.392464168452095e+17
19575.0	6.391739263396521e+17
19576.0	6.390957890426198e+17
19577.0	6.390159313818964e+17
19578.0	6.389344606617599e+17
19579.0	6.388545477061289e+17
19580.0	6.387729669554176e+17
19581.0	6.386910245857962e+17
19582.0	6.386087020025172e+17
19583.0	6.38524735042355e+17
19584.0	6.384385887218345e+17
19585.0	6.383485094024531e+17
19586.0	6.382592820161194e+17
19587.0	6.381684482113535e+17
19588.0	6.380687107380564e+17
19589.0	6.380041501234516e+17
19590.0	6.37911959671057e+17
19591.0	6.378278352846847e+17
19592.0	6.377380894124714e+17
19593.0	6.376464889588394e+17
19594.0	6.375422223362729e+17
19595.0	6.374622839351978e+17
19596.0	6.371670523991382e+17
19597.0	6.372717355859967e+17
19598.0	6.371694820895401e+17
19599.0	6.370933787503274e+17
19600.0	6.369992508091049e+17
19601.0	6.369007899421354e+17
19602.0	6.36806369378304e+17
19603.0	6.366578737501523e+17
19604.0	6.366099461373951e+17
19605.0	6.365051741711017e+17
19606.0	6.364244888343891e+17
19607.0	6.363275422509738e+17
19608.0	6.362294379697491e+17
19609.0	6.361291557961727e+17
19610.0	6.360335164375039e+17
19611.0	6.359344605386068e+17
19612.0	6.358362158181034e+17
19613.0	6.357368598866601e+17
19614.0	6.356348152665428e+17
19615.0	6.355362481438719e+17
19616.0	6.354159176865108e+17
19617.0	6.353354488457897e+17
19618.0	6.352043876810751e+17
19619.0	6.350965367461203e+17
19620.0	6.349962439469738e+17
19621.0	6.349298763563005e+17
19622.0	6.348283316972202e+17
19623.0	6.347259394392063e+17
19624.0	6.346232445621588e+17
19625.0	6.345201273886036e+17
19626.0	6.344168948716884e+17
19627.0	6.34312665997858e+17
19628.0	6.341557906396502e+17
19629.0	6.340966576641363e+17
19630.0	6.33823011414562e+17
19631.0	6.315469535444995e+17
19632.0	6.337866104482474e+17
19633.0	6.33683046441506e+17
19634.0	6.335829716762623e+17
19635.0	6.334758568416596e+17
19636.0	6.333724831165098e+17
19637.0	6.332455722855082e+17
19638.0	6.331614104300201e+17
19639.0	6.33055108731153e+17
19640.0	6.329440090281299e+17
19641.0	6.328057828737023e+17
19642.0	6.327373572778666e+17
19643.0	6.326301325524992e+17
19644.0	6.325205511176191e+17
19645.0	6.324023812161535e+17
19646.0	6.323095467283795e+17
19647.0	6.322029927421268e+17
19648.0	6.320957041235284e+17
19649.0	6.31988092543522e+17
19650.0	6.318806569145684e+17
19651.0	6.317729144722771e+17
19652.0	6.31665051373841e+17
19653.0	6.315559236228436e+17
19654.0	6.314489364348927e+17
19655.0	6.313404386683561e+17
19656.0	6.312319660676436e+17
19657.0	6.311238705348608e+17
19658.0	6.310152860860415e+17
19659.0	6.309065003106304e+17
19660.0	6.307977875161087e+17
19661.0	6.306888752824319e+17
19662.0	6.305798370099199e+17
19663.0	6.304670767120383e+17
19664.0	6.303527215300605e+17
19665.0	6.302522171282772e+17
