# Flux units: erg / (cm m2 s)
# Wavelength units: Angstrom
wave	flux
19000.0	7.277456499146751e+17
19001.0	7.276048124564819e+17
19002.0	7.274789696350889e+17
19003.0	7.273443267444735e+17
19004.0	7.272097902493696e+17
19005.0	7.270782795251711e+17
19006.0	7.269445743411197e+17
19007.0	7.267977225306111e+17
19008.0	7.26672721645841e+17
19009.0	7.265360480130387e+17
19010.0	7.263764348927999e+17
19011.0	7.262683125863764e+17
19012.0	7.260542253836968e+17
19013.0	7.260060180108628e+17
19014.0	7.258679131417257e+17
19015.0	7.257355263672319e+17
19016.0	7.256009047277565e+17
19017.0	7.254692859303251e+17
19018.0	7.253311902886569e+17
19019.0	7.252007597375487e+17
19020.0	7.250655022415871e+17
19021.0	7.249367828267007e+17
19022.0	7.248164411146237e+17
19023.0	7.246785016408745e+17
19024.0	7.245452459464019e+17
19025.0	7.244024869377364e+17
19026.0	7.242639827708585e+17
19027.0	7.240572783820799e+17
19028.0	7.240065345738068e+17
19029.0	7.238718667969876e+17
19030.0	7.237391816676692e+17
19031.0	7.236040251146239e+17
19032.0	7.234682025061034e+17
19033.0	7.233241649337683e+17
19034.0	7.231874922796372e+17
19035.0	7.22988076053299e+17
19036.0	7.176362971015835e+17
19037.0	7.227381211201535e+17
19038.0	7.226484199172778e+17
19039.0	7.225221355754838e+17
19040.0	7.223894540812288e+17
19041.0	7.222554975185578e+17
19042.0	7.2210593101469e+17
19043.0	7.219865643384832e+17
19044.0	7.21850480005393e+17
19045.0	7.217130094548308e+17
19046.0	7.215778566766591e+17
19047.0	7.214443426130602e+17
19048.0	7.212944321762644e+17
19049.0	7.211515499948713e+17
19050.0	7.210266865434624e+17
19051.0	7.200536995910985e+17
19052.0	7.205719640113152e+17
19053.0	7.206251677788842e+17
19054.0	7.204984677815636e+17
19055.0	7.203431914318506e+17
19056.0	7.202275537715197e+17
19057.0	7.200941779801428e+17
19058.0	7.199473865676116e+17
19059.0	7.198216221797033e+17
19060.0	7.196872703737855e+17
19061.0	7.195544199888893e+17
19062.0	7.194188051382271e+17
19063.0	7.192835652583423e+17
19064.0	7.191397874532351e+17
19065.0	7.189994439442432e+17
19066.0	7.188701507485696e+17
19067.0	7.187424866205696e+17
19068.0	7.186071427219453e+17
19069.0	7.184718227308543e+17
19070.0	7.183346568265727e+17
19071.0	7.181972367474687e+17
19072.0	7.18061812318208e+17
19073.0	7.179298809053183e+17
19074.0	7.177947922999978e+17
19075.0	7.176593190770004e+17
19076.0	7.1752245865786e+17
19077.0	7.173872769389908e+17
19078.0	7.172510340612096e+17
19079.0	7.171171878087336e+17
19080.0	7.169805151546025e+17
19081.0	7.168427658226345e+17
19082.0	7.1670725359261e+17
19083.0	7.165653430916436e+17
19084.0	7.164195214021972e+17
19085.0	7.162995952058365e+17
19086.0	7.161157757785428e+17
19087.0	7.158999588448938e+17
19088.0	7.15846577099025e+17
19089.0	7.156737618477055e+17
19090.0	7.1560625927837e+17
19091.0	7.154789273392467e+17
19092.0	7.153119757249193e+17
19093.0	7.152147791609853e+17
19094.0	7.150827152080896e+17
19095.0	7.149480335900672e+17
19096.0	7.148118407643135e+17
19097.0	7.146774148590249e+17
19098.0	7.145385312474451e+17
19099.0	7.144023751917565e+17
19100.0	7.142614579019775e+17
19101.0	7.141317536645117e+17
19102.0	7.139927959535615e+17
19103.0	7.138638717168297e+17
19104.0	7.137275875950591e+17
19105.0	7.135811553547604e+17
19106.0	7.134308853263017e+17
19107.0	7.133107529099945e+17
19108.0	7.131651631655593e+17
19109.0	7.126385611680421e+17
19110.0	7.12851621744913e+17
19111.0	7.12767488200977e+17
19112.0	7.126381867565056e+17
19113.0	7.12506952716561e+17
19114.0	7.1236966168221e+17
19115.0	7.12220005699857e+17
19116.0	7.120983102062591e+17
19117.0	7.119600052688211e+17
19118.0	7.118007029465088e+17
19119.0	7.114233073019557e+17
19120.0	7.115069046740306e+17
19121.0	7.113853808672765e+17
19122.0	7.112867378277033e+17
19123.0	7.111516349617492e+17
19124.0	7.109820563150164e+17
19125.0	7.108779113272659e+17
19126.0	7.107422885074259e+17
19127.0	7.104872456039081e+17
19128.0	7.103902699399849e+17
19129.0	7.103307879983785e+17
19130.0	7.102007574440617e+17
19131.0	7.100636400538964e+17
19132.0	7.099302404947968e+17
19133.0	7.09778921890338e+17
19134.0	7.09620573212945e+17
19135.0	7.095215181529087e+17
19136.0	7.093872245080063e+17
19137.0	7.092405432658602e+17
19138.0	7.091135723165011e+17
19139.0	7.089799444474538e+17
19140.0	7.088445089731923e+17
19141.0	7.087087559901183e+17
19142.0	7.085691712307199e+17
19143.0	7.084332813735251e+17
19144.0	7.082981750123177e+17
19145.0	7.081648064910675e+17
19146.0	7.079821363030698e+17
19147.0	7.078871857889279e+17
19148.0	7.077519172479658e+17
19149.0	7.076160313054548e+17
19150.0	7.074847767134208e+17
19151.0	7.07349098528768e+17
19152.0	7.072065318988458e+17
19153.0	7.070691863385428e+17
19154.0	7.06930045755938e+17
19155.0	7.06799230587153e+17
19156.0	7.066592642859007e+17
19157.0	7.064859717227859e+17
19158.0	7.061494037129896e+17
19159.0	7.062291795148799e+17
19160.0	7.061045169706323e+17
19161.0	7.059515873340072e+17
19162.0	7.052128304496643e+17
19163.0	7.05621339860719e+17
19164.0	7.055660365643775e+17
19165.0	7.054207402814121e+17
19166.0	7.052805537791999e+17
19167.0	7.051060438892543e+17
19168.0	7.050224858038271e+17
19169.0	7.048865435178323e+17
19170.0	7.047568107590995e+17
19171.0	7.045945746609492e+17
19172.0	7.044786629727572e+17
19173.0	7.043499848018602e+17
19174.0	7.042136339906559e+17
19175.0	7.04081304817937e+17
19176.0	7.039444086074025e+17
19177.0	7.037941736712872e+17
19178.0	7.036471820506452e+17
19179.0	7.03491125490483e+17
19180.0	7.033748485483177e+17
19181.0	7.032086649110525e+17
19182.0	7.030784884648617e+17
19183.0	7.0294475650717e+17
19184.0	7.028067726437033e+17
19185.0	7.026715698135039e+17
19186.0	7.025349444851027e+17
19187.0	7.023904804219562e+17
19188.0	7.022588174445225e+17
19189.0	7.021194264619689e+17
19190.0	7.019777183361706e+17
19191.0	7.018372269779625e+17
19192.0	7.01707437805841e+17
19193.0	7.015650682383017e+17
19194.0	7.014224656072703e+17
19195.0	7.012792514467156e+17
19196.0	7.011233532914345e+17
19197.0	7.009402726208852e+17
19198.0	7.006175407112191e+17
19199.0	6.967664473800695e+17
19200.0	6.974639706210313e+17
19201.0	7.002347607687168e+17
19202.0	7.002609915964073e+17
19203.0	7.001545331703807e+17
19204.0	7.000428301866323e+17
19205.0	6.99917275304209e+17
19206.0	6.997850740577619e+17
19207.0	6.996439227957247e+17
19208.0	6.995015137318227e+17
19209.0	6.99378978398754e+17
19210.0	6.992425561445716e+17
19211.0	6.99105728930338e+17
19212.0	6.98966118306065e+17
19213.0	6.987915408179199e+17
19214.0	6.986353267616425e+17
19215.0	6.985355743286612e+17
19216.0	6.984165016731647e+17
19217.0	6.982790055373481e+17
19218.0	6.980852053442557e+17
19219.0	6.979913732412755e+17
19220.0	6.978634141138943e+17
19221.0	6.977071546193236e+17
19222.0	6.97589309706513e+17
19223.0	6.974510033709737e+17
19224.0	6.973104732154536e+17
19225.0	6.971661384067753e+17
19226.0	6.970352218057385e+17
19227.0	6.968963737059327e+17
19228.0	6.96759813808674e+17
19229.0	6.966207788526249e+17
19230.0	6.964785530099028e+17
19231.0	6.963394536013823e+17
19232.0	6.962020549132287e+17
19233.0	6.960314202106538e+17
19234.0	6.958614849082708e+17
19235.0	6.957217690069674e+17
19236.0	6.955837608165375e+17
19237.0	6.95442754118178e+17
19238.0	6.952915078654633e+17
19239.0	6.951639215418025e+17
19240.0	6.950231047056042e+17
19241.0	6.948820603983188e+17
19242.0	6.947426755674111e+17
19243.0	6.945906304395946e+17
19244.0	6.944631189842601e+17
19245.0	6.943219443739305e+17
19246.0	6.941804040202922e+17
19247.0	6.940405644569258e+17
19248.0	6.938983391035391e+17
19249.0	6.937559740798291e+17
19250.0	6.936139690672127e+17
19251.0	6.934661512385876e+17
19252.0	6.933109770201769e+17
19253.0	6.931901558991529e+17
19254.0	6.930493212371625e+17
19255.0	6.928927992490665e+17
19256.0	6.92761330258193e+17
19257.0	6.926227847075155e+17
19258.0	6.924801021050879e+17
19259.0	6.923305174259027e+17
19260.0	6.920654009226579e+17
19261.0	6.919670245709139e+17
19262.0	6.918207506655913e+17
19263.0	6.916764950593536e+17
19264.0	6.915009583338835e+17
19265.0	6.913801823016276e+17
19266.0	6.912371249381375e+17
19267.0	6.911056375622313e+17
19268.0	6.909610559187625e+17
19269.0	6.908161315307519e+17
19270.0	6.906701854102867e+17
19271.0	6.90502655681058e+17
19272.0	6.903769080703657e+17
19273.0	6.90181135086387e+17
19274.0	6.90039173624627e+17
19275.0	6.899413689565183e+17
19276.0	6.897658402701311e+17
19277.0	6.896076180510036e+17
19278.0	6.894152733513044e+17
19279.0	6.892014605260116e+17
19280.0	6.890529902034943e+17
19281.0	6.889080742739967e+17
19282.0	6.887559338655743e+17
19283.0	6.885680193994751e+17
19284.0	6.884259525208745e+17
19285.0	6.883000066594131e+17
19286.0	6.881567311921152e+17
19287.0	6.879975845483859e+17
19288.0	6.863786057837213e+17
19289.0	6.842633849318003e+17
19290.0	6.875421344443049e+17
19291.0	6.872969668897452e+17
19292.0	6.871248978051071e+17
19293.0	6.869738445602815e+17
19294.0	6.868215953096703e+17
19295.0	6.866699419997523e+17
19296.0	6.865127884193792e+17
19297.0	6.863584955640489e+17
19298.0	6.862065360699391e+17
19299.0	6.860491686499668e+17
19300.0	6.858868406266537e+17
19301.0	6.856586955150676e+17
19302.0	6.855015173281108e+17
19303.0	6.85338307732002e+17
19304.0	6.851854050088276e+17
19305.0	6.850275627936425e+17
19306.0	6.848660662910975e+17
19307.0	6.847005623407955e+17
19308.0	6.845370555083434e+17
19309.0	6.842499402301439e+17
19310.0	6.840326169122131e+17
19311.0	6.840339033751551e+17
19312.0	6.838992522357417e+17
19313.0	6.837250115502079e+17
19314.0	6.794846215864307e+17
19315.0	6.7963954030183e+17
19316.0	6.831421377915561e+17
19317.0	6.830093164871679e+17
19318.0	6.828470650099028e+17
19319.0	6.826829941833727e+17
19320.0	6.825138009232724e+17
19321.0	6.823424020884138e+17
19322.0	6.821549527706281e+17
19323.0	6.819521774660266e+17
19324.0	6.818161385712297e+17
19325.0	6.815605454449321e+17
19326.0	6.814765996660052e+17
19327.0	6.81316259463168e+17
19328.0	6.811388084573524e+17
19329.0	6.809711085791914e+17
19330.0	6.807921373478911e+17
19331.0	6.806133677228031e+17
19332.0	6.803718324355071e+17
19333.0	6.801423308161023e+17
19334.0	6.799634693357567e+17
19335.0	6.797670270107647e+17
19336.0	6.795935717785597e+17
19337.0	6.794103145278121e+17
19338.0	6.792082795877715e+17
19339.0	6.790337819312127e+17
19340.0	6.788398116590932e+17
19341.0	6.786461126885375e+17
19342.0	6.784270446799529e+17
19343.0	6.782416506410323e+17
19344.0	6.778914699476991e+17
19345.0	6.775640139934374e+17
19346.0	6.774365094587049e+17
19347.0	6.772847331857748e+17
19348.0	6.770934706864127e+17
19349.0	6.768847650553855e+17
19350.0	6.766759712041641e+17
19351.0	6.763777654871382e+17
19352.0	6.760205319318185e+17
19353.0	6.758186096787455e+17
19354.0	6.756021145261395e+17
19355.0	6.753760195903487e+17
19356.0	6.751614041849855e+17
19357.0	6.748969050832893e+17
19358.0	6.744067601858559e+17
19359.0	6.741728971893417e+17
19360.0	6.739359366993235e+17
19361.0	6.737043136009556e+17
19362.0	6.734681113012905e+17
19363.0	6.72944228820582e+17
19364.0	6.7259521316509e+17
19365.0	6.723437913440255e+17
19366.0	6.720878314957481e+17
19367.0	6.717019758002179e+17
19368.0	6.710911414130004e+17
19369.0	6.70815660085521e+17
19370.0	6.705418994013524e+17
19371.0	6.698548278766248e+17
19372.0	6.694169519063039e+17
19373.0	6.69124764246562e+17
19374.0	6.684240020242435e+17
19375.0	6.678384627853993e+17
19376.0	6.675167900073983e+17
19377.0	6.668698010692261e+17
19378.0	6.664872046974292e+17
19379.0	6.661602153594879e+17
19380.0	6.658280172552191e+17
19381.0	6.654900844888063e+17
19382.0	6.651424942675283e+17
19383.0	6.647930068926464e+17
19384.0	6.644450143677098e+17
19385.0	6.640836604679508e+17
19386.0	6.63709114503441e+17
19387.0	6.632724943077375e+17
19388.0	6.628889897293142e+17
19389.0	6.624967942733823e+17
19390.0	6.620813676161706e+17
19391.0	6.575104974651333e+17
19392.0	6.611555303030779e+17
19393.0	6.608249694453759e+17
19394.0	6.603570192667988e+17
19395.0	6.599269549779626e+17
19396.0	6.594985212248063e+17
19397.0	6.590731336548351e+17
19398.0	6.585229201025704e+17
19399.0	6.579443910137171e+17
19400.0	6.575043046451882e+17
19401.0	6.56999930221909e+17
19402.0	6.562727497564159e+17
19403.0	6.557550234654036e+17
19404.0	6.551142191682903e+17
19405.0	6.543400569754963e+17
19406.0	6.53771700891375e+17
19407.0	6.527565557312172e+17
19408.0	6.520947139936257e+17
19409.0	6.509764789927936e+17
19410.0	6.501147929302354e+17
19411.0	6.489651955804842e+17
19412.0	6.476151060256083e+17
19413.0	6.463073472741381e+17
19414.0	6.44827986543684e+17
19415.0	6.430754207345321e+17
19416.0	6.415599890595837e+17
19417.0	6.405362654991699e+17
19418.0	6.395815308995242e+17
19419.0	6.385404836052991e+17
19420.0	6.374784303977811e+17
19421.0	6.363907598494378e+17
19422.0	6.352781081662804e+17
19423.0	6.341087209717759e+17
19424.0	6.328969479585791e+17
19425.0	6.316453122102612e+17
19426.0	6.303437508225705e+17
19427.0	6.289237951381503e+17
19428.0	6.274983121999188e+17
19429.0	6.25964591891524e+17
19430.0	6.241699024775853e+17
19431.0	6.217997643415561e+17
19432.0	6.205363329520978e+17
19433.0	6.184078271315968e+17
19434.0	6.161482823761917e+17
19435.0	6.134630923108347e+17
19436.0	6.1035262316817e+17
19437.0	6.07389678881997e+17
19438.0	5.988034148652379e+17
19439.0	5.996084384672434e+17
19440.0	5.955475775072941e+17
19441.0	5.909459292039846e+17
19442.0	5.857053707512492e+17
19443.0	5.801530917650431e+17
19444.0	5.7384114589095206e+17
19445.0	5.663739066624685e+17
19446.0	5.574230531899392e+17
19447.0	5.464693832766799e+17
19448.0	5.3257783207089555e+17
19449.0	5.1393236555530234e+17
19450.0	4.863717869791897e+17
19451.0	4.708816182575117e+17
19452.0	5.017490599968772e+17
19453.0	5.239642825687048e+17
19454.0	5.396156052581028e+17
19455.0	5.5164859590901754e+17
19456.0	5.6127218729178477e+17
19457.0	5.691544480077137e+17
19458.0	5.697938975446458e+17
19459.0	5.813628407469412e+17
19460.0	5.865987140922025e+17
19461.0	5.912900875059194e+17
19462.0	5.955051284944219e+17
19463.0	5.99372827913967e+17
19464.0	6.029398713739942e+17
19465.0	6.061251912269825e+17
19466.0	6.08921299731524e+17
19467.0	6.114349966600873e+17
19468.0	6.136580306283178e+17
19469.0	6.155718003873107e+17
19470.0	6.173321974513661e+17
19471.0	6.190264335641258e+17
19472.0	6.20479961436433e+17
19473.0	6.218709649588223e+17
19474.0	6.230826953299284e+17
19475.0	6.24235287692356e+17
19476.0	6.253852196776617e+17
19477.0	6.26424156328209e+17
19478.0	6.274123324631721e+17
19479.0	6.283639560776361e+17
19480.0	6.292559861820072e+17
19481.0	6.301136992600063e+17
19482.0	6.309475069023572e+17
19483.0	6.317579162004137e+17
19484.0	6.325366667520681e+17
19485.0	6.332847099652778e+17
19486.0	6.343214118906534e+17
19487.0	6.356270529380358e+17
19488.0	6.369472294158324e+17
19489.0	6.382258401312768e+17
19490.0	6.392437526233083e+17
19491.0	6.401123413917688e+17
19492.0	6.410227658260479e+17
19493.0	6.417047183425533e+17
19494.0	6.4231679997597e+17
19495.0	6.428967708568234e+17
19496.0	6.433831606637907e+17
19497.0	6.437701472834902e+17
19498.0	6.437554095478103e+17
19499.0	6.381203895964974e+17
19500.0	6.449441703023956e+17
19501.0	6.453510416979284e+17
19502.0	6.455881739446953e+17
19503.0	6.458180061451604e+17
19504.0	6.461819440857087e+17
19505.0	6.463840610243926e+17
19506.0	6.465678798225405e+17
19507.0	6.467441608272553e+17
19508.0	6.469162032780628e+17
19509.0	6.47175820489523e+17
19510.0	6.473014473042601e+17
19511.0	6.3980590617067e+17
19512.0	6.465328833189185e+17
19513.0	6.458826711280269e+17
19514.0	6.464988606627821e+17
19515.0	6.479728594649087e+17
19516.0	6.482239596527615e+17
19517.0	6.483413192146941e+17
19518.0	6.484519778167466e+17
19519.0	6.485496424650068e+17
19520.0	6.486414227144703e+17
19521.0	6.487375995731967e+17
19522.0	6.488181427929087e+17
19523.0	6.488977127942826e+17
19524.0	6.489681912223059e+17
19525.0	6.493020918644736e+17
19526.0	6.494729999657641e+17
19527.0	6.495428690313215e+17
19528.0	6.501853757265242e+17
19529.0	6.502800857672361e+17
19530.0	6.503170191305385e+17
19531.0	6.507582500547238e+17
19532.0	6.509075395947178e+17
19533.0	6.509263323835049e+17
19534.0	6.51028110525508e+17
19535.0	6.513946469771946e+17
19536.0	6.513984726018729e+17
19537.0	6.514025654037161e+17
19538.0	6.513871277086036e+17
19539.0	6.51595828865707e+17
19540.0	6.517379737583615e+17
19541.0	6.517245296858452e+17
19542.0	6.517079875605844e+17
19543.0	6.516839531500884e+17
19544.0	6.517148174254077e+17
19545.0	6.518870621814781e+17
19546.0	6.518309717540864e+17
19547.0	6.518583741906943e+17
19548.0	6.518246166145705e+17
19549.0	6.51780829618722e+17
19550.0	6.517493940791977e+17
19551.0	6.518732377554943e+17
19552.0	6.518742130709844e+17
19553.0	6.518265661969748e+17
19554.0	6.517776909511338e+17
19555.0	6.517287104282623e+17
19556.0	6.516791842264403e+17
19557.0	6.516268511264765e+17
19558.0	6.515727268489897e+17
19559.0	6.516328274504361e+17
19560.0	6.516040989846185e+17
19561.0	6.51550636708113e+17
19562.0	6.514920893972479e+17
19563.0	6.51431328752162e+17
19564.0	6.513671054994089e+17
19565.0	6.513015092412415e+17
19566.0	6.512324625388884e+17
19567.0	6.511663352818346e+17
19568.0	6.510950031032319e+17
19569.0	6.510258738429951e+17
19570.0	6.509547048927231e+17
19571.0	6.509594168437417e+17
19572.0	6.509054798419284e+17
19573.0	6.508304295526399e+17
19574.0	6.50748395327761e+17
19575.0	6.506781433921535e+17
19576.0	6.50599429448226e+17
19577.0	6.505187495641087e+17
19578.0	6.50436555186722e+17
19579.0	6.503556268599977e+17
19580.0	6.502735902583465e+17
19581.0	6.501915600180563e+17
19582.0	6.501088800800767e+17
19583.0	6.500244434277716e+17
19584.0	6.499368838365183e+17
19585.0	6.498444118764201e+17
19586.0	6.497514101058218e+17
19587.0	6.496590869037055e+17
19588.0	6.495589195142484e+17
19589.0	6.495006555985236e+17
19590.0	6.494057801624233e+17
19591.0	6.493749905457152e+17
19592.0	6.492955941186217e+17
19593.0	6.49202430377984e+17
19594.0	6.490928874607956e+17
19595.0	6.490186268890452e+17
19596.0	6.487509510214998e+17
19597.0	6.488317993768276e+17
19598.0	6.487173250766163e+17
19599.0	6.486459047477247e+17
19600.0	6.485517879913129e+17
19601.0	6.484512594722815e+17
19602.0	6.483725029561683e+17
19603.0	6.482490320136874e+17
19604.0	6.482225822433279e+17
19605.0	6.481208343702186e+17
19606.0	6.480452751021396e+17
19607.0	6.479475810937514e+17
19608.0	6.478477317024426e+17
19609.0	6.477462337399466e+17
19610.0	6.476479581214036e+17
19611.0	6.475468158358868e+17
19612.0	6.47459494830626e+17
19613.0	6.474659161003348e+17
19614.0	6.473625358041088e+17
19615.0	6.472624478268073e+17
19616.0	6.471186663866367e+17
19617.0	6.470558629756927e+17
19618.0	6.469177502072831e+17
19619.0	6.468041292382205e+17
19620.0	6.46705045377297e+17
19621.0	6.466427826820436e+17
19622.0	6.465452064636928e+17
19623.0	6.464410854533802e+17
19624.0	6.463355580929364e+17
19625.0	6.462623489632937e+17
19626.0	6.462340525107882e+17
19627.0	6.461191212411561e+17
19628.0	6.459140884922368e+17
19629.0	6.458478942661288e+17
19630.0	6.451601870247252e+17
19631.0	6.415524501476695e+17
19632.0	6.454999371830612e+17
19633.0	6.45465704112674e+17
19634.0	6.453881588416511e+17
19635.0	6.453106814484479e+17
19636.0	6.452041526280191e+17
19637.0	6.450707375499946e+17
19638.0	6.449975582698153e+17
19639.0	6.448897141156521e+17
19640.0	6.447777686312276e+17
19641.0	6.446237625963863e+17
19642.0	6.4456786196125e+17
19643.0	6.44458595029265e+17
19644.0	6.443478328279039e+17
19645.0	6.442741713425748e+17
19646.0	6.441981834865321e+17
19647.0	6.440956084966739e+17
19648.0	6.439868511027199e+17
19649.0	6.438775733354495e+17
19650.0	6.437684765523967e+17
19651.0	6.436585455222783e+17
19652.0	6.435492987229524e+17
19653.0	6.434375149988521e+17
19654.0	6.433291989155839e+17
19655.0	6.432195729511763e+17
19656.0	6.431093037203455e+17
19657.0	6.429995346602666e+17
19658.0	6.428888617975808e+17
19659.0	6.427785576142164e+17
19660.0	6.426680447642282e+17
19661.0	6.425572596340052e+17
19662.0	6.424461495151273e+17
19663.0	6.423284583235583e+17
19664.0	6.422075888282282e+17
19665.0	6.421128717970089e+17
