# Flux units: erg / (cm m2 s)
# Wavelength units: Angstrom
wave	flux
19000.0	7.556163965026303e+17
19001.0	7.554761393963005e+17
19002.0	7.553472199131135e+17
19003.0	7.552118491709439e+17
19004.0	7.550763127537661e+17
19005.0	7.549422760798889e+17
19006.0	7.548070155081044e+17
19007.0	7.546597532150441e+17
19008.0	7.545326866355539e+17
19009.0	7.543960616566783e+17
19010.0	7.542390579527676e+17
19011.0	7.541254462810793e+17
19012.0	7.539490928547156e+17
19013.0	7.538567696525994e+17
19014.0	7.537163444944896e+17
19015.0	7.535815539643731e+17
19016.0	7.53444552057378e+17
19017.0	7.53310050095377e+17
19018.0	7.531713307607037e+17
19019.0	7.530366839554047e+17
19020.0	7.528987165196288e+17
19021.0	7.527636116963327e+17
19022.0	7.526268993361236e+17
19023.0	7.524871023449428e+17
19024.0	7.523505148351828e+17
19025.0	7.522097605640191e+17
19026.0	7.520708259217407e+17
19027.0	7.518976254935039e+17
19028.0	7.51802087776802e+17
19029.0	7.516636167449257e+17
19030.0	7.515267743612927e+17
19031.0	7.513887881909587e+17
19032.0	7.512506276773887e+17
19033.0	7.511069671729833e+17
19034.0	7.509719512689321e+17
19035.0	7.508219684104872e+17
19036.0	7.480545666312865e+17
19037.0	7.505504481837055e+17
19038.0	7.504180934257321e+17
19039.0	7.502820963341651e+17
19040.0	7.501438306833748e+17
19041.0	7.500052820568745e+17
19042.0	7.498607255093247e+17
19043.0	7.497279570531668e+17
19044.0	7.495887639019517e+17
19045.0	7.494484156394153e+17
19046.0	7.493081835590995e+17
19047.0	7.491709477497514e+17
19048.0	7.490211395141632e+17
19049.0	7.488869336700244e+17
19050.0	7.487497579790333e+17
19051.0	7.481861272677027e+17
19052.0	7.483992947993257e+17
19053.0	7.483315997114368e+17
19054.0	7.481958952424787e+17
19055.0	7.48041725489971e+17
19056.0	7.479156414960982e+17
19057.0	7.477764381387432e+17
19058.0	7.476572223176701e+17
19059.0	7.4753333292346e+17
19060.0	7.473920820467028e+17
19061.0	7.472533248234836e+17
19062.0	7.471129039994879e+17
19063.0	7.469727927151274e+17
19064.0	7.468262315698858e+17
19065.0	7.466818669816489e+17
19066.0	7.465483291503274e+17
19067.0	7.464115417120765e+17
19068.0	7.462710973999785e+17
19069.0	7.461306145002835e+17
19070.0	7.459886498927955e+17
19071.0	7.45848012223283e+17
19072.0	7.457083233053353e+17
19073.0	7.455677292565844e+17
19074.0	7.454272533473961e+17
19075.0	7.45286411694899e+17
19076.0	7.451443654382931e+17
19077.0	7.450038858940416e+17
19078.0	7.448621518334634e+17
19079.0	7.447225638584319e+17
19080.0	7.44581120602931e+17
19081.0	7.444378767327232e+17
19082.0	7.442965320433663e+17
19083.0	7.441507734082902e+17
19084.0	7.440019881634474e+17
19085.0	7.438741404647424e+17
19086.0	7.437043439938217e+17
19087.0	7.435189627475284e+17
19088.0	7.434322122375164e+17
19089.0	7.432583149955753e+17
19090.0	7.431606303544662e+17
19091.0	7.430221408676522e+17
19092.0	7.428628202302121e+17
19093.0	7.427418225289897e+17
19094.0	7.426003412451328e+17
19095.0	7.424586405991764e+17
19096.0	7.423170527799977e+17
19097.0	7.421761788313599e+17
19098.0	7.420340257598121e+17
19099.0	7.418920404604244e+17
19100.0	7.417463889199103e+17
19101.0	7.416070302334975e+17
19102.0	7.414614606217215e+17
19103.0	7.413245593780223e+17
19104.0	7.411822541930493e+17
19105.0	7.410380401803263e+17
19106.0	7.408842112849236e+17
19107.0	7.407525951438845e+17
19108.0	7.406088327178922e+17
19109.0	7.402354023683409e+17
19110.0	7.403101608039764e+17
19111.0	7.401834437498196e+17
19112.0	7.400429512032256e+17
19113.0	7.399013011685375e+17
19114.0	7.397588017872893e+17
19115.0	7.396082293495126e+17
19116.0	7.394721188719274e+17
19117.0	7.393286075449343e+17
19118.0	7.39170963370803e+17
19119.0	7.388688075281746e+17
19120.0	7.388785011239593e+17
19121.0	7.387423713525757e+17
19122.0	7.386169163644925e+17
19123.0	7.384740101357568e+17
19124.0	7.383151252865023e+17
19125.0	7.381864117436415e+17
19126.0	7.380439589191679e+17
19127.0	7.378064995166889e+17
19128.0	7.376853092969129e+17
19129.0	7.376102446770858e+17
19130.0	7.374717111500797e+17
19131.0	7.373263390900224e+17
19132.0	7.371850778673152e+17
19133.0	7.370250046319274e+17
19134.0	7.368644017957545e+17
19135.0	7.367537573145257e+17
19136.0	7.366112243788458e+17
19137.0	7.364586245543251e+17
19138.0	7.363215289745407e+17
19139.0	7.361800000154281e+17
19140.0	7.360365198660948e+17
19141.0	7.358927196913663e+17
19142.0	7.357464599767721e+17
19143.0	7.356018853937151e+17
19144.0	7.354593530172756e+17
19145.0	7.353162497960617e+17
19146.0	7.351368745134762e+17
19147.0	7.350235473554089e+17
19148.0	7.348821962347859e+17
19149.0	7.347381600605523e+17
19150.0	7.345948683752787e+17
19151.0	7.344508365351594e+17
19152.0	7.343031907429034e+17
19153.0	7.341596121672361e+17
19154.0	7.34009562759168e+17
19155.0	7.338705288516947e+17
19156.0	7.337248180316841e+17
19157.0	7.335668281070931e+17
19158.0	7.332899686711293e+17
19159.0	7.332827119659689e+17
19160.0	7.331411241467905e+17
19161.0	7.329889908686847e+17
19162.0	7.324925299785728e+17
19163.0	7.326849966626131e+17
19164.0	7.325637710708736e+17
19165.0	7.324131429886633e+17
19166.0	7.322611528761343e+17
19167.0	7.320948291491155e+17
19168.0	7.319804975950505e+17
19169.0	7.31832562815249e+17
19170.0	7.316919876408659e+17
19171.0	7.31529243472691e+17
19172.0	7.313978336914089e+17
19173.0	7.312548139368445e+17
19174.0	7.311074694354262e+17
19175.0	7.309645344058025e+17
19176.0	7.308181923430399e+17
19177.0	7.306624835605844e+17
19178.0	7.305137266971987e+17
19179.0	7.303529570675369e+17
19180.0	7.302280176992255e+17
19181.0	7.300795421338281e+17
19182.0	7.299374638607016e+17
19183.0	7.297921610066602e+17
19184.0	7.296435551382185e+17
19185.0	7.294984657742505e+17
19186.0	7.293515636320938e+17
19187.0	7.291992115511296e+17
19188.0	7.290557966931284e+17
19189.0	7.289059628722858e+17
19190.0	7.287563170960723e+17
19191.0	7.286074437708457e+17
19192.0	7.284647000014845e+17
19193.0	7.283139781066751e+17
19194.0	7.281653525250047e+17
19195.0	7.280165381996544e+17
19196.0	7.278634888855551e+17
19197.0	7.277036948510035e+17
19198.0	7.27507657835588e+17
19199.0	7.25243977845964e+17
19200.0	7.256673492140037e+17
19201.0	7.270692521246719e+17
19202.0	7.269623012873555e+17
19203.0	7.268183283073024e+17
19204.0	7.266767473388202e+17
19205.0	7.265320177063251e+17
19206.0	7.263830842627412e+17
19207.0	7.262294695564628e+17
19208.0	7.260745466467667e+17
19209.0	7.259353722301097e+17
19210.0	7.257863156137981e+17
19211.0	7.25636080677683e+17
19212.0	7.254851573164714e+17
19213.0	7.253128019006803e+17
19214.0	7.251519591503187e+17
19215.0	7.250238540611583e+17
19216.0	7.248824148601514e+17
19217.0	7.247315948186281e+17
19218.0	7.245349555011583e+17
19219.0	7.244193149048148e+17
19220.0	7.242751031290538e+17
19221.0	7.241075027957076e+17
19222.0	7.239729976180735e+17
19223.0	7.238212260287827e+17
19224.0	7.236660541172393e+17
19225.0	7.235083584929791e+17
19226.0	7.233623571475113e+17
19227.0	7.232092067506857e+17
19228.0	7.230574874503849e+17
19229.0	7.229041264994986e+17
19230.0	7.22747667915298e+17
19231.0	7.225941294055423e+17
19232.0	7.224419663478783e+17
19233.0	7.222840417146195e+17
19234.0	7.2213295295802e+17
19235.0	7.219782643701075e+17
19236.0	7.218246465880063e+17
19237.0	7.21668594012433e+17
19238.0	7.215056392901972e+17
19239.0	7.213584401913172e+17
19240.0	7.212003124139348e+17
19241.0	7.210443753215318e+17
19242.0	7.208890698913108e+17
19243.0	7.207233680397651e+17
19244.0	7.20576480158242e+17
19245.0	7.204192091373565e+17
19246.0	7.202608043961002e+17
19247.0	7.201037514790228e+17
19248.0	7.199456873152511e+17
19249.0	7.197861018774185e+17
19250.0	7.196272658219007e+17
19251.0	7.194627263518035e+17
19252.0	7.192929985276585e+17
19253.0	7.191489192919037e+17
19254.0	7.18989849473843e+17
19255.0	7.188187139014655e+17
19256.0	7.186652283797504e+17
19257.0	7.185077711317672e+17
19258.0	7.183464136004948e+17
19259.0	7.181801457975296e+17
19260.0	7.179768667570173e+17
19261.0	7.178596686757888e+17
19262.0	7.176938949618345e+17
19263.0	7.175299231208787e+17
19264.0	7.173409549058047e+17
19265.0	7.17194926297361e+17
19266.0	7.170318806985385e+17
19267.0	7.168757133388457e+17
19268.0	7.167102164489556e+17
19269.0	7.165442313420799e+17
19270.0	7.163775264926377e+17
19271.0	7.161930326212608e+17
19272.0	7.160412339088041e+17
19273.0	7.158000239596883e+17
19274.0	7.15654646027605e+17
19275.0	7.155396911999658e+17
19276.0	7.153699935748096e+17
19277.0	7.152009474648745e+17
19278.0	7.150320378096298e+17
19279.0	7.148579293145769e+17
19280.0	7.146864548424361e+17
19281.0	7.145176684997289e+17
19282.0	7.143448686275241e+17
19283.0	7.141461619376127e+17
19284.0	7.139725093634047e+17
19285.0	7.138165408137216e+17
19286.0	7.136499926914386e+17
19287.0	7.134754219840851e+17
19288.0	7.125937100772685e+17
19289.0	7.114244735980856e+17
19290.0	7.129462469208745e+17
19291.0	7.127563268784127e+17
19292.0	7.125936837929641e+17
19293.0	7.124146068652032e+17
19294.0	7.122354947052884e+17
19295.0	7.120552142918995e+17
19296.0	7.118735773007871e+17
19297.0	7.116908216887978e+17
19298.0	7.11508631748608e+17
19299.0	7.113105343512573e+17
19300.0	7.111210927390719e+17
19301.0	7.10935737217843e+17
19302.0	7.10749304459537e+17
19303.0	7.105590091666772e+17
19304.0	7.103734895083519e+17
19305.0	7.101856088763049e+17
19306.0	7.099949616813395e+17
19307.0	7.098011132537514e+17
19308.0	7.096096367050751e+17
19309.0	7.093487289062739e+17
19310.0	7.091237739823104e+17
19311.0	7.090187975436969e+17
19312.0	7.088342849377619e+17
19313.0	7.08636532871441e+17
19314.0	7.068171155887444e+17
19315.0	7.067276815630356e+17
19316.0	7.080286203762003e+17
19317.0	7.07838230991121e+17
19318.0	7.076368370106365e+17
19319.0	7.074353014024874e+17
19320.0	7.072310884302847e+17
19321.0	7.070257870361939e+17
19322.0	7.068093185873236e+17
19323.0	7.065819469053952e+17
19324.0	7.063992420444841e+17
19325.0	7.061367896233299e+17
19326.0	7.059828589461504e+17
19327.0	7.057765971962538e+17
19328.0	7.0556593450298e+17
19329.0	7.053549485686783e+17
19330.0	7.051396706030931e+17
19331.0	7.049249356600659e+17
19332.0	7.047111743548074e+17
19333.0	7.044945886052351e+17
19334.0	7.042782122912425e+17
19335.0	7.040580179023187e+17
19336.0	7.038391518494719e+17
19337.0	7.036195579450708e+17
19338.0	7.033848848187391e+17
19339.0	7.031691829488298e+17
19340.0	7.029366136154793e+17
19341.0	7.027069077334697e+17
19342.0	7.024529763904169e+17
19343.0	7.022418649765204e+17
19344.0	7.019774389955241e+17
19345.0	7.016212236075004e+17
19346.0	7.014401176851795e+17
19347.0	7.012377953654099e+17
19348.0	7.009997145068884e+17
19349.0	7.00752632881698e+17
19350.0	7.005063325854378e+17
19351.0	7.002586001440767e+17
19352.0	7.000049439473663e+17
19353.0	6.997579804617385e+17
19354.0	6.995039357326675e+17
19355.0	6.992431118199465e+17
19356.0	6.989891065872383e+17
19357.0	6.987285167166803e+17
19358.0	6.984640024455849e+17
19359.0	6.981957365093716e+17
19360.0	6.979293406035968e+17
19361.0	6.975984831386966e+17
19362.0	6.973057510582954e+17
19363.0	6.970289707548672e+17
19364.0	6.96749378310417e+17
19365.0	6.964669552700074e+17
19366.0	6.961815655983785e+17
19367.0	6.958931589638826e+17
19368.0	6.956015690623657e+17
19369.0	6.953025292380842e+17
19370.0	6.9497676904093e+17
19371.0	6.94571933770274e+17
19372.0	6.942686019147091e+17
19373.0	6.939576123785215e+17
19374.0	6.936446178951167e+17
19375.0	6.933261397786623e+17
19376.0	6.930034839257087e+17
19377.0	6.925610746817194e+17
19378.0	6.921519665337683e+17
19379.0	6.918120024659284e+17
19380.0	6.914669991515476e+17
19381.0	6.911160575415636e+17
19382.0	6.905466960128681e+17
19383.0	6.901281371892393e+17
19384.0	6.897602948410025e+17
19385.0	6.89340903657745e+17
19386.0	6.886488222466048e+17
19387.0	6.88247419314722e+17
19388.0	6.877627263833432e+17
19389.0	6.86989506650658e+17
19390.0	6.86548637065762e+17
19391.0	6.836562216091619e+17
19392.0	6.850843830998354e+17
19393.0	6.842268424776366e+17
19394.0	6.835276429830826e+17
19395.0	6.824444281836886e+17
19396.0	6.81716307145523e+17
19397.0	6.803703268900861e+17
19398.0	6.795916877671085e+17
19399.0	6.786957052302676e+17
19400.0	6.781182363915604e+17
19401.0	6.77486322061585e+17
19402.0	6.768280425463807e+17
19403.0	6.761526337732608e+17
19404.0	6.754624681803775e+17
19405.0	6.747457671135231e+17
19406.0	6.740020085216596e+17
19407.0	6.73262597186082e+17
19408.0	6.7247237248669e+17
19409.0	6.71728088977681e+17
19410.0	6.709335405101055e+17
19411.0	6.701170424108371e+17
19412.0	6.692443969814527e+17
19413.0	6.683485474040489e+17
19414.0	6.67458948178466e+17
19415.0	6.665447658575188e+17
19416.0	6.654918218394282e+17
19417.0	6.644823836590077e+17
19418.0	6.634694390404439e+17
19419.0	6.623097810234026e+17
19420.0	6.611874625880061e+17
19421.0	6.598865923517098e+17
19422.0	6.58586727280367e+17
19423.0	6.571284058079232e+17
19424.0	6.55467595501841e+17
19425.0	6.536403133399041e+17
19426.0	6.515661468947796e+17
19427.0	6.491429745808721e+17
19428.0	6.464415154394447e+17
19429.0	6.433213752104269e+17
19430.0	6.406544882488662e+17
19431.0	6.382550811410436e+17
19432.0	6.36324871947332e+17
19433.0	6.339906121673386e+17
19434.0	6.31526342664738e+17
19435.0	6.287861074624511e+17
19436.0	6.257456535568383e+17
19437.0	6.22611975442705e+17
19438.0	6.167570372973912e+17
19439.0	6.146807090380804e+17
19440.0	6.100893557238441e+17
19441.0	6.04607076036335e+17
19442.0	5.983884992140627e+17
19443.0	5.915847870644219e+17
19444.0	5.844617457740454e+17
19445.0	5.763002264103597e+17
19446.0	5.665356214086315e+17
19447.0	5.5476214485920365e+17
19448.0	5.4029915888025664e+17
19449.0	5.22018805129762e+17
19450.0	4.97880999727376e+17
19451.0	4.870824399295835e+17
19452.0	5.1065588788756563e+17
19453.0	5.316796698241713e+17
19454.0	5.4756788302861574e+17
19455.0	5.6034041895321594e+17
19456.0	5.708027995531949e+17
19457.0	5.794384365398693e+17
19458.0	5.849165578545865e+17
19459.0	5.934203791911596e+17
19460.0	5.997997400435363e+17
19461.0	6.053829420952234e+17
19462.0	6.102406195227313e+17
19463.0	6.143293914786473e+17
19464.0	6.180186659749889e+17
19465.0	6.212779553150294e+17
19466.0	6.241040284166824e+17
19467.0	6.266676574857897e+17
19468.0	6.290250008275628e+17
19469.0	6.311396196570451e+17
19470.0	6.332148757823487e+17
19471.0	6.351408010537642e+17
19472.0	6.371648299073536e+17
19473.0	6.398549682028544e+17
19474.0	6.426870228713475e+17
19475.0	6.448682402578432e+17
19476.0	6.468396953982296e+17
19477.0	6.485301302831784e+17
19478.0	6.499887176744959e+17
19479.0	6.512551038812163e+17
19480.0	6.524782054998015e+17
19481.0	6.53443745115887e+17
19482.0	6.544417719233193e+17
19483.0	6.552892320251904e+17
19484.0	6.561695921777321e+17
19485.0	6.568989940864339e+17
19486.0	6.576859919679489e+17
19487.0	6.583936573156009e+17
19488.0	6.59039148188194e+17
19489.0	6.596557105266687e+17
19490.0	6.602584412389375e+17
19491.0	6.608879294436692e+17
19492.0	6.614385802521258e+17
19493.0	6.619666500463274e+17
19494.0	6.62475771023633e+17
19495.0	6.629658727197356e+17
19496.0	6.634268330207913e+17
19497.0	6.639189204402175e+17
19498.0	6.641493751453014e+17
19499.0	6.616919771709421e+17
19500.0	6.651875944300543e+17
19501.0	6.655808758611968e+17
19502.0	6.659380348278099e+17
19503.0	6.663373170496852e+17
19504.0	6.67062043288098e+17
19505.0	6.677760442717532e+17
19506.0	6.684571542923946e+17
19507.0	6.692536840093692e+17
19508.0	6.696616127190355e+17
19509.0	6.70407693836834e+17
19510.0	6.70679474250274e+17
19511.0	6.67958225823332e+17
19512.0	6.710540201448778e+17
19513.0	6.709503802911392e+17
19514.0	6.716140644466678e+17
19515.0	6.723866897765716e+17
19516.0	6.726955091798697e+17
19517.0	6.730219114550612e+17
19518.0	6.731420910572884e+17
19519.0	6.732498477602132e+17
19520.0	6.735109708666193e+17
19521.0	6.736903892107263e+17
19522.0	6.737754212444841e+17
19523.0	6.738581690602835e+17
19524.0	6.739337414705151e+17
19525.0	6.741402315303593e+17
19526.0	6.742465141451434e+17
19527.0	6.743055858139135e+17
19528.0	6.743596092183892e+17
19529.0	6.744102200672255e+17
19530.0	6.74456758456593e+17
19531.0	6.745088689788244e+17
19532.0	6.746608605593599e+17
19533.0	6.746954676218537e+17
19534.0	6.747264707286355e+17
19535.0	6.747537744592896e+17
19536.0	6.747769507850921e+17
19537.0	6.748006648206676e+17
19538.0	6.748135288908457e+17
19539.0	6.748073073399124e+17
19540.0	6.748461737181183e+17
19541.0	6.748705467487571e+17
19542.0	6.749400230177449e+17
19543.0	6.749432418664447e+17
19544.0	6.749452854711635e+17
19545.0	6.749209109725183e+17
19546.0	6.748955820599978e+17
19547.0	6.749356810742442e+17
19548.0	6.749279579624787e+17
19549.0	6.749125783584768e+17
19550.0	6.749060301411668e+17
19551.0	6.748921299380906e+17
19552.0	6.748763464925183e+17
19553.0	6.748575520260095e+17
19554.0	6.748372901822463e+17
19555.0	6.748170402922495e+17
19556.0	6.747946387243008e+17
19557.0	6.747693837713407e+17
19558.0	6.747427056910336e+17
19559.0	6.747239737196543e+17
19560.0	6.747239960193704e+17
19561.0	6.74691959366178e+17
19562.0	6.746599884936532e+17
19563.0	6.746247187311274e+17
19564.0	6.745866402529279e+17
19565.0	6.745447646713172e+17
19566.0	6.745003074256895e+17
19567.0	6.744567863487145e+17
19568.0	6.744096430708052e+17
19569.0	6.743641162776575e+17
19570.0	6.743167800617642e+17
19571.0	6.742677357854717e+17
19572.0	6.74216267690803e+17
19573.0	6.741659760984063e+17
19574.0	6.741097404781907e+17
19575.0	6.740620669004458e+17
19576.0	6.740080450338815e+17
19577.0	6.739525312533844e+17
19578.0	6.738949799499091e+17
19579.0	6.73838780260898e+17
19580.0	6.737810416118442e+17
19581.0	6.737226051005097e+17
19582.0	6.736636587715242e+17
19583.0	6.736028463966889e+17
19584.0	6.73539853193489e+17
19585.0	6.734719820147369e+17
19586.0	6.734050789512531e+17
19587.0	6.733384000034134e+17
19588.0	6.732599398847828e+17
19589.0	6.732167833627305e+17
19590.0	6.731458418835455e+17
19591.0	6.730828301555028e+17
19592.0	6.730139458426198e+17
19593.0	6.729420021344937e+17
19594.0	6.728562679742463e+17
19595.0	6.727957324234751e+17
19596.0	6.725628123065005e+17
19597.0	6.726450039575894e+17
19598.0	6.725560784912383e+17
19599.0	6.724958452099753e+17
19600.0	6.724182391215443e+17
19601.0	6.723359237384872e+17
19602.0	6.722572834045951e+17
19603.0	6.721252386755924e+17
19604.0	6.720915245804202e+17
19605.0	6.720011223695359e+17
19606.0	6.719354223023444e+17
19607.0	6.718525968220159e+17
19608.0	6.717682942476287e+17
19609.0	6.716813272416255e+17
19610.0	6.715987290226688e+17
19611.0	6.715124803611305e+17
19612.0	6.714268694435156e+17
19613.0	6.713397448015872e+17
19614.0	6.712538693631999e+17
19615.0	6.711805573332991e+17
19616.0	6.7107177365504e+17
19617.0	6.71001826365713e+17
19618.0	6.708824380888403e+17
19619.0	6.707840337750697e+17
19620.0	6.706946455371775e+17
19621.0	6.706373978314067e+17
19622.0	6.705458232426495e+17
19623.0	6.704528413250899e+17
19624.0	6.703592587831977e+17
19625.0	6.702649976728234e+17
19626.0	6.701700531705171e+17
19627.0	6.700729754451968e+17
19628.0	6.699249027426988e+17
19629.0	6.698667180294143e+17
19630.0	6.695835848234326e+17
19631.0	6.673709251166208e+17
19632.0	6.695741203065514e+17
19633.0	6.694894902269268e+17
19634.0	6.693989620471124e+17
19635.0	6.692996841996287e+17
19636.0	6.692035426429608e+17
19637.0	6.690825565459795e+17
19638.0	6.690062581716307e+17
19639.0	6.689064016500052e+17
19640.0	6.688025192955903e+17
19641.0	6.686704471638015e+17
19642.0	6.686063246442495e+17
19643.0	6.685046195530409e+17
19644.0	6.684002680657236e+17
19645.0	6.682875126611965e+17
19646.0	6.681991563618986e+17
19647.0	6.680976423911423e+17
19648.0	6.679949368186196e+17
19649.0	6.678917249936042e+17
19650.0	6.677885003759615e+17
19651.0	6.676848158528852e+17
19652.0	6.675808331147945e+17
19653.0	6.674754333310973e+17
19654.0	6.673720015148372e+17
19655.0	6.672669103620096e+17
19656.0	6.67161668563763e+17
19657.0	6.670566715031551e+17
19658.0	6.669510290789716e+17
19659.0	6.668450395062271e+17
19660.0	6.667389618530985e+17
19661.0	6.666325530596691e+17
19662.0	6.665258440938836e+17
19663.0	6.664372119491923e+17
19664.0	6.663358919649961e+17
19665.0	6.662370153725951e+17
