# Flux units: erg / (cm m2 s)
# Wavelength units: Angstrom
wave	flux
19000.0	8.13073515483409e+17
19001.0	8.129222565778772e+17
19002.0	8.127764792082431e+17
19003.0	8.126277410794153e+17
19004.0	8.124789115147603e+17
19005.0	8.123301087936511e+17
19006.0	8.121811236203177e+17
19007.0	8.120191251993938e+17
19008.0	8.1188112840349e+17
19009.0	8.117317889512786e+17
19010.0	8.115720030257151e+17
19011.0	8.11433382257186e+17
19012.0	8.112649383094953e+17
19013.0	8.111357761159167e+17
19014.0	8.109845358051328e+17
19015.0	8.10836335525888e+17
19016.0	8.106849243671209e+17
19017.0	8.105347784900604e+17
19018.0	8.103853095736659e+17
19019.0	8.102364688242006e+17
19020.0	8.100849874807464e+17
19021.0	8.099356997582847e+17
19022.0	8.097859719135233e+17
19023.0	8.096356196767058e+17
19024.0	8.094848278768296e+17
19025.0	8.093329798113962e+17
19026.0	8.091815141266772e+17
19027.0	8.09014308057907e+17
19028.0	8.088829701390335e+17
19029.0	8.087322910261248e+17
19030.0	8.085815364157439e+17
19031.0	8.084307008552957e+17
19032.0	8.082797939916799e+17
19033.0	8.081263000813565e+17
19034.0	8.07977677435699e+17
19035.0	8.078242373522772e+17
19036.0	8.06424971540343e+17
19037.0	8.075234776536404e+17
19038.0	8.073732365658792e+17
19039.0	8.072221427761152e+17
19040.0	8.070708936572928e+17
19041.0	8.069195716973908e+17
19042.0	8.067659177044649e+17
19043.0	8.06616864723217e+17
19044.0	8.064652411928575e+17
19045.0	8.063130967299411e+17
19046.0	8.061609150775297e+17
19047.0	8.060104066727935e+17
19048.0	8.05853561513574e+17
19049.0	8.057054546274986e+17
19050.0	8.0555420942336e+17
19051.0	8.052054842234193e+17
19052.0	8.052225477705727e+17
19053.0	8.050968706241878e+17
19054.0	8.049483726891688e+17
19055.0	8.04789302871108e+17
19056.0	8.046445883381076e+17
19057.0	8.044923538374656e+17
19058.0	8.043374616859987e+17
19059.0	8.041885363514024e+17
19060.0	8.04035820204851e+17
19061.0	8.038843802451967e+17
19062.0	8.037321173630975e+17
19063.0	8.035799966679039e+17
19064.0	8.034246390885034e+17
19065.0	8.032703971939668e+17
19066.0	8.031214950678527e+17
19067.0	8.029710239924221e+17
19068.0	8.028187207051945e+17
19069.0	8.02666391413282e+17
19070.0	8.025137211244543e+17
19071.0	8.023609339543551e+17
19072.0	8.022089659318272e+17
19073.0	8.02056561701683e+17
19074.0	8.019042202462889e+17
19075.0	8.017517005329746e+17
19076.0	8.015985681716563e+17
19077.0	8.014462973203795e+17
19078.0	8.012931062388051e+17
19079.0	8.011413640096425e+17
19080.0	8.009885327993513e+17
19081.0	8.008348123966121e+17
19082.0	8.006820234089811e+17
19083.0	8.005274947638611e+17
19084.0	8.003704918988115e+17
19085.0	8.002247342424063e+17
19086.0	8.000585250198867e+17
19087.0	7.998819357338284e+17
19088.0	7.997594038960128e+17
19089.0	7.995882876174336e+17
19090.0	7.994588648177663e+17
19091.0	7.99306303021602e+17
19092.0	7.991442991480831e+17
19093.0	7.99001652826385e+17
19094.0	7.98847501668625e+17
19095.0	7.986942029332476e+17
19096.0	7.985424267302227e+17
19097.0	7.983900134124202e+17
19098.0	7.982371559178239e+17
19099.0	7.980840807388498e+17
19100.0	7.979289713224362e+17
19101.0	7.977771563920042e+17
19102.0	7.976224528444073e+17
19103.0	7.974716411914922e+17
19104.0	7.973184125009919e+17
19105.0	7.971649120195924e+17
19106.0	7.97005000404719e+17
19107.0	7.968577652348244e+17
19108.0	7.967044231583059e+17
19109.0	7.964224076644348e+17
19110.0	7.963928957026301e+17
19111.0	7.962452377468927e+17
19112.0	7.96092201435136e+17
19113.0	7.959389208750761e+17
19114.0	7.957855551706451e+17
19115.0	7.956288667385855e+17
19116.0	7.954786631199402e+17
19117.0	7.953242685527382e+17
19118.0	7.951630149003948e+17
19119.0	7.949543849066496e+17
19120.0	7.948538245109075e+17
19121.0	7.9470344039738e+17
19122.0	7.945576834400255e+17
19123.0	7.94403962757666e+17
19124.0	7.942428964509012e+17
19125.0	7.940958059844948e+17
19126.0	7.939424701994324e+17
19127.0	7.937438286610428e+17
19128.0	7.935578062454781e+17
19129.0	7.934795338219516e+17
19130.0	7.933281549593257e+17
19131.0	7.9317201584128e+17
19132.0	7.930206179644755e+17
19133.0	7.928482186483028e+17
19134.0	7.926772315542871e+17
19135.0	7.925588016059731e+17
19136.0	7.924052582028628e+17
19137.0	7.922466893245098e+17
19138.0	7.920934597951488e+17
19139.0	7.919430380726954e+17
19140.0	7.917894277005311e+17
19141.0	7.916354511656276e+17
19142.0	7.914813735479978e+17
19143.0	7.913258807721981e+17
19144.0	7.911729700099412e+17
19145.0	7.91018468487987e+17
19146.0	7.908462507851773e+17
19147.0	7.907082422452224e+17
19148.0	7.905555325299369e+17
19149.0	7.904014477819903e+17
19150.0	7.902473617757522e+17
19151.0	7.900933491698345e+17
19152.0	7.899374730346496e+17
19153.0	7.897845425591636e+17
19154.0	7.896265113905833e+17
19155.0	7.894753202929661e+17
19156.0	7.893201152464212e+17
19157.0	7.891602803873108e+17
19158.0	7.889274287073961e+17
19159.0	7.888534983671808e+17
19160.0	7.886996283675986e+17
19161.0	7.885383780706985e+17
19162.0	7.881927130349567e+17
19163.0	7.882296068319912e+17
19164.0	7.880826248582484e+17
19165.0	7.879250111627263e+17
19166.0	7.877665683931135e+17
19167.0	7.875993463859881e+17
19168.0	7.87460749664802e+17
19169.0	7.873045291772585e+17
19170.0	7.871529341681663e+17
19171.0	7.869884643235155e+17
19172.0	7.868414342550866e+17
19173.0	7.866873917298004e+17
19174.0	7.865313820759382e+17
19175.0	7.863775586331306e+17
19176.0	7.8622208585018e+17
19177.0	7.860621427780264e+17
19178.0	7.859054925141332e+17
19179.0	7.857413243797501e+17
19180.0	7.855928735607466e+17
19181.0	7.85440839967266e+17
19182.0	7.852873879999828e+17
19183.0	7.85131882082031e+17
19184.0	7.849739170436436e+17
19185.0	7.848208650731519e+17
19186.0	7.84665101485124e+17
19187.0	7.845070848567978e+17
19188.0	7.843520524757672e+17
19189.0	7.84193041797393e+17
19190.0	7.84035767001634e+17
19191.0	7.838815913771008e+17
19192.0	7.8372646448442e+17
19193.0	7.835648589299711e+17
19194.0	7.83411166768879e+17
19195.0	7.832559793384105e+17
19196.0	7.830982606454784e+17
19197.0	7.829381602869245e+17
19198.0	7.827668774944767e+17
19199.0	7.814430768584019e+17
19200.0	7.81629547784875e+17
19201.0	7.822982290341885e+17
19202.0	7.821538205455699e+17
19203.0	7.819970624880639e+17
19204.0	7.818429594249897e+17
19205.0	7.816868045083987e+17
19206.0	7.815292726018047e+17
19207.0	7.81370508828126e+17
19208.0	7.812094304976893e+17
19209.0	7.810568598934867e+17
19210.0	7.808989335825066e+17
19211.0	7.807408181084157e+17
19212.0	7.805825108148221e+17
19213.0	7.804129644642301e+17
19214.0	7.802485878729382e+17
19215.0	7.800556842822313e+17
19216.0	7.798783524645545e+17
19217.0	7.797200809623551e+17
19218.0	7.795392453629267e+17
19219.0	7.793976340556457e+17
19220.0	7.792429552544425e+17
19221.0	7.790746973940393e+17
19222.0	7.789246902086313e+17
19223.0	7.78765274919731e+17
19224.0	7.78604484038929e+17
19225.0	7.784419760100692e+17
19226.0	7.782860945620991e+17
19227.0	7.781260955658922e+17
19228.0	7.779658931459412e+17
19229.0	7.778055018425002e+17
19230.0	7.776417982971901e+17
19231.0	7.774822471128404e+17
19232.0	7.773228553120426e+17
19233.0	7.77160379020083e+17
19234.0	7.770006067959122e+17
19235.0	7.768399311186602e+17
19236.0	7.766783645712383e+17
19237.0	7.765161978189139e+17
19238.0	7.76350402154769e+17
19239.0	7.761926633291777e+17
19240.0	7.760266902459731e+17
19241.0	7.758666600721066e+17
19242.0	7.757051897140564e+17
19243.0	7.755373670825983e+17
19244.0	7.753792358099625e+17
19245.0	7.752158946525184e+17
19246.0	7.750519105082708e+17
19247.0	7.748884907775315e+17
19248.0	7.747245633961981e+17
19249.0	7.74560291243076e+17
19250.0	7.74395667607279e+17
19251.0	7.742276960780287e+17
19252.0	7.740574734658216e+17
19253.0	7.739005793730557e+17
19254.0	7.737347568653654e+17
19255.0	7.735640354106024e+17
19256.0	7.73400329907951e+17
19257.0	7.732369560349353e+17
19258.0	7.730705022844927e+17
19259.0	7.729014252765183e+17
19260.0	7.727176363278335e+17
19261.0	7.725688366825472e+17
19262.0	7.724001719746561e+17
19263.0	7.722313624234664e+17
19264.0	7.720512362206547e+17
19265.0	7.718906651213821e+17
19266.0	7.717228550728361e+17
19267.0	7.71556898906658e+17
19268.0	7.713388921268905e+17
19269.0	7.711214352203775e+17
19270.0	7.709507552892242e+17
19271.0	7.707712474666323e+17
19272.0	7.706072856920061e+17
19273.0	7.703357979011752e+17
19274.0	7.702061175712425e+17
19275.0	7.700915392522921e+17
19276.0	7.699185351174825e+17
19277.0	7.697450061354323e+17
19278.0	7.695709963463336e+17
19279.0	7.693942854254591e+17
19280.0	7.692194229343572e+17
19281.0	7.690458082486954e+17
19282.0	7.688691438845951e+17
19283.0	7.686770106477225e+17
19284.0	7.684870872498173e+17
19285.0	7.683337021117778e+17
19286.0	7.681598778507263e+17
19287.0	7.679819891692883e+17
19288.0	7.674741849238181e+17
19289.0	7.668167193832091e+17
19290.0	7.674425200257704e+17
19291.0	7.672543010532009e+17
19292.0	7.670802268116308e+17
19293.0	7.668895523536896e+17
19294.0	7.665837429926569e+17
19295.0	7.663804276015101e+17
19296.0	7.661959896541864e+17
19297.0	7.66010745561634e+17
19298.0	7.658248679893674e+17
19299.0	7.656381704306687e+17
19300.0	7.654506348500306e+17
19301.0	7.652621587666259e+17
19302.0	7.650727416212138e+17
19303.0	7.648807919550463e+17
19304.0	7.646908213013161e+17
19305.0	7.645002844165459e+17
19306.0	7.643071512576e+17
19307.0	7.64110980863317e+17
19308.0	7.639174314896042e+17
19309.0	7.636633083969533e+17
19310.0	7.633111872088742e+17
19311.0	7.631628992686761e+17
19312.0	7.629702204926633e+17
19313.0	7.627693965180927e+17
19314.0	7.620463769419775e+17
19315.0	7.618721799471108e+17
19316.0	7.621595610742783e+17
19317.0	7.619594540460713e+17
19318.0	7.617539871167828e+17
19319.0	7.615470433730557e+17
19320.0	7.613314481782784e+17
19321.0	7.609290219061245e+17
19322.0	7.607128799139156e+17
19323.0	7.60495869141538e+17
19324.0	7.602975989388628e+17
19325.0	7.600526782889983e+17
19326.0	7.598649475334141e+17
19327.0	7.596476393848832e+17
19328.0	7.594279118219948e+17
19329.0	7.590805714414252e+17
19330.0	7.587374253648554e+17
19331.0	7.585112584268458e+17
19332.0	7.582844078172842e+17
19333.0	7.580545515694761e+17
19334.0	7.578223518242131e+17
19335.0	7.575886993118548e+17
19336.0	7.571036045661526e+17
19337.0	7.5682260465309e+17
19338.0	7.56576286740753e+17
19339.0	7.563387659616253e+17
19340.0	7.560921340357289e+17
19341.0	7.557325001501354e+17
19342.0	7.553636698335913e+17
19343.0	7.551210505983315e+17
19344.0	7.548649431804586e+17
19345.0	7.545581295632381e+17
19346.0	7.543249226257747e+17
19347.0	7.540781707427837e+17
19348.0	7.538124979350186e+17
19349.0	7.535411026984957e+17
19350.0	7.53267583885858e+17
19351.0	7.529918337034921e+17
19352.0	7.527111247353172e+17
19353.0	7.524303014024531e+17
19354.0	7.52143887062357e+17
19355.0	7.518516005568511e+17
19356.0	7.515597951380136e+17
19357.0	7.512619339830612e+17
19358.0	7.509308620494164e+17
19359.0	7.50569430904559e+17
19360.0	7.5026253493917e+17
19361.0	7.499469838876672e+17
19362.0	7.496281623975254e+17
19363.0	7.493034592348841e+17
19364.0	7.489738168598527e+17
19365.0	7.48639033106978e+17
19366.0	7.482990106684074e+17
19367.0	7.479535347957757e+17
19368.0	7.475558486463828e+17
19369.0	7.471244776221353e+17
19370.0	7.467523215021396e+17
19371.0	7.463905560712531e+17
19372.0	7.460148508710227e+17
19373.0	7.456312876422484e+17
19374.0	7.452409975887187e+17
19375.0	7.447384675407187e+17
19376.0	7.442755209570985e+17
19377.0	7.438622375892308e+17
19378.0	7.434411637211135e+17
19379.0	7.430118095978493e+17
19380.0	7.42431367976277e+17
19381.0	7.41910892318993e+17
19382.0	7.414503518677672e+17
19383.0	7.409814467160744e+17
19384.0	7.402794624133798e+17
19385.0	7.397313827831808e+17
19386.0	7.392279663389353e+17
19387.0	7.384757106464084e+17
19388.0	7.378451512863404e+17
19389.0	7.372857914949633e+17
19390.0	7.3633909192349e+17
19391.0	7.348344184984902e+17
19392.0	7.348017739508388e+17
19393.0	7.340837562220543e+17
19394.0	7.330127928448339e+17
19395.0	7.321898731962359e+17
19396.0	7.309468793219753e+17
19397.0	7.300468187332605e+17
19398.0	7.2916595141946e+17
19399.0	7.284028379321684e+17
19400.0	7.276462288317097e+17
19401.0	7.268498068384426e+17
19402.0	7.260008956471977e+17
19403.0	7.251546742631081e+17
19404.0	7.242960868125353e+17
19405.0	7.234169808267944e+17
19406.0	7.225163129028608e+17
19407.0	7.215931626706259e+17
19408.0	7.206253640723114e+17
19409.0	7.196088868012032e+17
19410.0	7.186110761402365e+17
19411.0	7.175730077106175e+17
19412.0	7.164768337701545e+17
19413.0	7.152722485357225e+17
19414.0	7.141211473881768e+17
19415.0	7.128747041183059e+17
19416.0	7.11539359359522e+17
19417.0	7.101904372192594e+17
19418.0	7.08728231961122e+17
19419.0	7.071842029622614e+17
19420.0	7.055444968559954e+17
19421.0	7.037288143213906e+17
19422.0	7.017106680490665e+17
19423.0	6.995088204890106e+17
19424.0	6.970847001225894e+17
19425.0	6.943550704276815e+17
19426.0	6.915104343851008e+17
19427.0	6.892129819295744e+17
19428.0	6.869909364189865e+17
19429.0	6.84607860253218e+17
19430.0	6.821137268867072e+17
19431.0	6.793630750605313e+17
19432.0	6.766873349718015e+17
19433.0	6.73664217382912e+17
19434.0	6.704005413601277e+17
19435.0	6.668603124350972e+17
19436.0	6.629651595482451e+17
19437.0	6.586383144932692e+17
19438.0	6.530539692840273e+17
19439.0	6.482393291904347e+17
19440.0	6.430665351714131e+17
19441.0	6.376236743218514e+17
19442.0	6.314945940204204e+17
19443.0	6.247180879440553e+17
19444.0	6.170486692817574e+17
19445.0	6.085115801239557e+17
19446.0	5.991043784769536e+17
19447.0	5.886691472572411e+17
19448.0	5.769269213484378e+17
19449.0	5.634996347863039e+17
19450.0	5.450056656923266e+17
19451.0	5.365020923090273e+17
19452.0	5.549027867929269e+17
19453.0	5.7032031044894765e+17
19454.0	5.825277289212581e+17
19455.0	5.933736003283626e+17
19456.0	6.02988646935211e+17
19457.0	6.11729109645175e+17
19458.0	6.192795726031535e+17
19459.0	6.265285292763821e+17
19460.0	6.327330590949372e+17
19461.0	6.382632886250153e+17
19462.0	6.431968098342231e+17
19463.0	6.48361999929617e+17
19464.0	6.533302747223379e+17
19465.0	6.576868113252348e+17
19466.0	6.615411848817321e+17
19467.0	6.649542458649257e+17
19468.0	6.680735711406761e+17
19469.0	6.709307157861716e+17
19470.0	6.73580001141282e+17
19471.0	6.760592034846038e+17
19472.0	6.783281553648297e+17
19473.0	6.804979958415359e+17
19474.0	6.825309229110612e+17
19475.0	6.84443382928725e+17
19476.0	6.868200102122831e+17
19477.0	6.893025713542484e+17
19478.0	6.916752695536296e+17
19479.0	6.936913876702545e+17
19480.0	6.954872685461504e+17
19481.0	6.971004291820202e+17
19482.0	6.985363717357567e+17
19483.0	6.999123120444758e+17
19484.0	7.01070071649621e+17
19485.0	7.022451636568061e+17
19486.0	7.032545487792812e+17
19487.0	7.043100206344872e+17
19488.0	7.052023515403603e+17
19489.0	7.0609079894016e+17
19490.0	7.069524564814505e+17
19491.0	7.077595525589674e+17
19492.0	7.084963684592297e+17
19493.0	7.092261254856701e+17
19494.0	7.099438078099455e+17
19495.0	7.105975211261951e+17
19496.0	7.112212920052394e+17
19497.0	7.118358738632704e+17
19498.0	7.12338207338223e+17
19499.0	7.115953572326049e+17
19500.0	7.135573430326611e+17
19501.0	7.140977361813504e+17
19502.0	7.145961474228224e+17
19503.0	7.150726430064639e+17
19504.0	7.155267435233279e+17
19505.0	7.16283841679633e+17
19506.0	7.169625074696188e+17
19507.0	7.176895973381459e+17
19508.0	7.184250509284692e+17
19509.0	7.189125996216319e+17
19510.0	7.195594957957805e+17
19511.0	7.18783056026009e+17
19512.0	7.202199590054564e+17
19513.0	7.205054542337358e+17
19514.0	7.20870021040264e+17
19515.0	7.216368786429267e+17
19516.0	7.219562346272084e+17
19517.0	7.221686130704381e+17
19518.0	7.225422564906326e+17
19519.0	7.228263821388457e+17
19520.0	7.230044321611775e+17
19521.0	7.231732793212927e+17
19522.0	7.23474611961856e+17
19523.0	7.236827231201961e+17
19524.0	7.238224875356157e+17
19525.0	7.239534690784595e+17
19526.0	7.240776572469247e+17
19527.0	7.242912525975551e+17
19528.0	7.244554851844096e+17
19529.0	7.245567488251219e+17
19530.0	7.246513625366527e+17
19531.0	7.247397527399081e+17
19532.0	7.248214826680319e+17
19533.0	7.248966384440659e+17
19534.0	7.250431691106986e+17
19535.0	7.251382339895296e+17
19536.0	7.251942087939411e+17
19537.0	7.252469166549674e+17
19538.0	7.252913220310356e+17
19539.0	7.253218216116224e+17
19540.0	7.253706758859433e+17
19541.0	7.254034353575251e+17
19542.0	7.254308493284692e+17
19543.0	7.25453865152239e+17
19544.0	7.254942371457705e+17
19545.0	7.255494538996393e+17
19546.0	7.255488696330921e+17
19547.0	7.255768505341268e+17
19548.0	7.255795358673577e+17
19549.0	7.255759779790847e+17
19550.0	7.255743971459071e+17
19551.0	7.255667080080041e+17
19552.0	7.255558622369108e+17
19553.0	7.255418237616125e+17
19554.0	7.255250413726377e+17
19555.0	7.255065053451603e+17
19556.0	7.254841529204735e+17
19557.0	7.254588649024169e+17
19558.0	7.254310091314516e+17
19559.0	7.254002345443325e+17
19560.0	7.253665889561257e+17
19561.0	7.254047783736662e+17
19562.0	7.254504098846035e+17
19563.0	7.254294267603625e+17
19564.0	7.254100622180351e+17
19565.0	7.253646145574228e+17
19566.0	7.253165086867455e+17
19567.0	7.25469735699524e+17
19568.0	7.254788830571177e+17
19569.0	7.254252332952234e+17
19570.0	7.253692259150506e+17
19571.0	7.25310972624896e+17
19572.0	7.252502063874047e+17
19573.0	7.251887619309565e+17
19574.0	7.252867554126505e+17
19575.0	7.25279918976751e+17
19576.0	7.252128288473087e+17
19577.0	7.251436807127039e+17
19578.0	7.250728769465002e+17
19579.0	7.250016986289491e+17
19580.0	7.249289099782824e+17
19581.0	7.248548807923028e+17
19582.0	7.247796973338623e+17
19583.0	7.248355972000424e+17
19584.0	7.248024564662271e+17
19585.0	7.24719647203874e+17
19586.0	7.246368457708884e+17
19587.0	7.245528927218345e+17
19588.0	7.244640503726079e+17
19589.0	7.243904991974739e+17
19590.0	7.243047776900435e+17
19591.0	7.242204889568598e+17
19592.0	7.241330659601064e+17
19593.0	7.240447288847017e+17
19594.0	7.239473514064553e+17
19595.0	7.239442343395325e+17
19596.0	7.237331319433898e+17
19597.0	7.238191980827987e+17
19598.0	7.237228147944105e+17
19599.0	7.236352278003711e+17
19600.0	7.235403792078164e+17
19601.0	7.234428195569664e+17
19602.0	7.233468232630271e+17
19603.0	7.232222977327101e+17
19604.0	7.231492424641194e+17
19605.0	7.230458423847593e+17
19606.0	7.229544807967402e+17
19607.0	7.22854463143936e+17
19608.0	7.227535379835561e+17
19609.0	7.226514795222356e+17
19610.0	7.225500425169577e+17
19611.0	7.224471714791423e+17
19612.0	7.223439783187795e+17
19613.0	7.222850237409962e+17
19614.0	7.222426067446442e+17
19615.0	7.221384143612585e+17
19616.0	7.220237054596436e+17
19617.0	7.219266340257791e+17
19618.0	7.218060187052713e+17
19619.0	7.216951351487144e+17
19620.0	7.215880124847444e+17
19621.0	7.214964972453888e+17
19622.0	7.213966262534143e+17
19623.0	7.212998959562751e+17
19624.0	7.211901989683197e+17
19625.0	7.2107997293882e+17
19626.0	7.209693518058835e+17
19627.0	7.208579186556927e+17
19628.0	7.207187926133417e+17
19629.0	7.206306072319316e+17
19630.0	7.20449627488256e+17
19631.0	7.191569119576063e+17
19632.0	7.20293033148416e+17
19633.0	7.201827703488511e+17
19634.0	7.200704941435561e+17
19635.0	7.19955580420096e+17
19636.0	7.198426396972372e+17
19637.0	7.197164424571561e+17
19638.0	7.196130008541864e+17
19639.0	7.194975505394345e+17
19640.0	7.193806063534077e+17
19641.0	7.192520664547328e+17
19642.0	7.191504464379904e+17
19643.0	7.190337828509012e+17
19644.0	7.189155937954472e+17
19645.0	7.188303572893693e+17
19646.0	7.187626293460991e+17
19647.0	7.186450793627647e+17
19648.0	7.185272575885311e+17
19649.0	7.184091136917504e+17
19650.0	7.182908765416105e+17
19651.0	7.181723264963923e+17
19652.0	7.180535422692008e+17
19653.0	7.179344761847807e+17
19654.0	7.178153056621908e+17
19655.0	7.17695737799202e+17
19656.0	7.1757601978013e+17
19657.0	7.174563529315668e+17
19658.0	7.173362982496938e+17
19659.0	7.172159893929983e+17
19660.0	7.170955861644628e+17
19661.0	7.169749459577514e+17
19662.0	7.168541139315369e+17
19663.0	7.167313546226344e+17
19664.0	7.166071934375251e+17
19665.0	7.164905724925267e+17
19666.0	7.163686902125908e+17
