# Flux units: erg / (cm m2 s)
# Wavelength units: Angstrom
wave	flux
19000.0	8.147882944582995e+17
19001.0	8.146123564078419e+17
19002.0	8.144905865352531e+17
19003.0	8.143406355535187e+17
19004.0	8.141919808913407e+17
19005.0	8.140416011119273e+17
19006.0	8.138927002441046e+17
19007.0	8.137367877582847e+17
19008.0	8.135763283673088e+17
19009.0	8.134272955187197e+17
19010.0	8.131734977642492e+17
19011.0	8.131366879931049e+17
19012.0	8.12964564522325e+17
19013.0	8.128424680532649e+17
19014.0	8.126751793567059e+17
19015.0	8.125329176526845e+17
19016.0	8.123809232060415e+17
19017.0	8.122251734592168e+17
19018.0	8.120888383067475e+17
19019.0	8.119390928459091e+17
19020.0	8.117797092939092e+17
19021.0	8.116366730417492e+17
19022.0	8.114893558033066e+17
19023.0	8.113273578018131e+17
19024.0	8.111833680445436e+17
19025.0	8.110376233904808e+17
19026.0	8.108799069345108e+17
19027.0	8.107280889282557e+17
19028.0	8.105843002179584e+17
19029.0	8.104290445601449e+17
19030.0	8.102852297053524e+17
19031.0	8.101357600899071e+17
19032.0	8.099840740644179e+17
19033.0	8.098078861732521e+17
19034.0	8.096763028875945e+17
19035.0	8.095193253281791e+17
19036.0	8.08602381407573e+17
19037.0	8.092230057197567e+17
19038.0	8.090687534792701e+17
19039.0	8.089226549657599e+17
19040.0	8.087726687518717e+17
19041.0	8.086187966551378e+17
19042.0	8.084440176306858e+17
19043.0	8.083178929520639e+17
19044.0	8.081624029724671e+17
19045.0	8.080141154516991e+17
19046.0	8.078450404010666e+17
19047.0	8.077069037950291e+17
19048.0	8.075018206445565e+17
19049.0	8.073864153486676e+17
19050.0	8.072398377058303e+17
19051.0	8.069613194226341e+17
19052.0	8.069312350781437e+17
19053.0	8.067952213491711e+17
19054.0	8.066444189237247e+17
19055.0	8.064229626085379e+17
19056.0	8.063329912924841e+17
19057.0	8.061861053683027e+17
19058.0	8.060306019669332e+17
19059.0	8.058826095853567e+17
19060.0	8.057248604138153e+17
19061.0	8.055793201621673e+17
19062.0	8.054248710690131e+17
19063.0	8.052736402653183e+17
19064.0	8.050854403069267e+17
19065.0	8.049169338641066e+17
19066.0	8.047982372978688e+17
19067.0	8.04659620164403e+17
19068.0	8.04510872109056e+17
19069.0	8.04358608388096e+17
19070.0	8.041974464511999e+17
19071.0	8.040513075325608e+17
19072.0	8.039004114343251e+17
19073.0	8.037449449428308e+17
19074.0	8.035948212955817e+17
19075.0	8.034419625426944e+17
19076.0	8.032832286883837e+17
19077.0	8.031333547420328e+17
19078.0	8.029701143876948e+17
19079.0	8.02829199474688e+17
19080.0	8.026725388648445e+17
19081.0	8.025115258257404e+17
19082.0	8.023573258742441e+17
19083.0	8.02182868972339e+17
19084.0	8.019942474863956e+17
19085.0	8.019080387406506e+17
19086.0	8.016475408651603e+17
19087.0	8.015810131918845e+17
19088.0	8.014281625479849e+17
19089.0	8.012337429960022e+17
19090.0	8.011361749565437e+17
19091.0	8.009843169645908e+17
19092.0	8.008175406721705e+17
19093.0	8.006851413147647e+17
19094.0	8.005313816253779e+17
19095.0	8.003777184049833e+17
19096.0	8.002215780286464e+17
19097.0	8.00072360211251e+17
19098.0	7.9991822904634e+17
19099.0	7.997642593621332e+17
19100.0	7.996106208881321e+17
19101.0	7.994590467107498e+17
19102.0	7.992821787830953e+17
19103.0	7.991502217849514e+17
19104.0	7.989988415242239e+17
19105.0	7.988441834149204e+17
19106.0	7.98687216201455e+17
19107.0	7.985324809169577e+17
19108.0	7.983838764466175e+17
19109.0	7.981505208909821e+17
19110.0	7.98073715495185e+17
19111.0	7.979234162464084e+17
19112.0	7.977699161844394e+17
19113.0	7.976162538029055e+17
19114.0	7.974609027945811e+17
19115.0	7.97294956974353e+17
19116.0	7.971481925451777e+17
19117.0	7.969941463848276e+17
19118.0	7.968224129843199e+17
19119.0	7.960798163544736e+17
19120.0	7.965277599126867e+17
19121.0	7.963805257214632e+17
19122.0	7.962318667251711e+17
19123.0	7.960766092498259e+17
19124.0	7.959189422866432e+17
19125.0	7.957682771547476e+17
19126.0	7.956138115639977e+17
19127.0	7.950178025035091e+17
19128.0	7.952568000970748e+17
19129.0	7.951283565275817e+17
19130.0	7.949942080055978e+17
19131.0	7.948436796080125e+17
19132.0	7.946894581257556e+17
19133.0	7.944497816141821e+17
19134.0	7.943583838153386e+17
19135.0	7.942268997948756e+17
19136.0	7.940744825623892e+17
19137.0	7.938776326908585e+17
19138.0	7.937605136023551e+17
19139.0	7.936112495078057e+17
19140.0	7.934574129228458e+17
19141.0	7.933030671493802e+17
19142.0	7.931418389424808e+17
19143.0	7.929784892566186e+17
19144.0	7.928286313884328e+17
19145.0	7.926836593251671e+17
19146.0	7.923704163991555e+17
19147.0	7.923519156038314e+17
19148.0	7.922201279157587e+17
19149.0	7.920646329029972e+17
19150.0	7.919095678063955e+17
19151.0	7.917555778497192e+17
19152.0	7.915994465610409e+17
19153.0	7.914421215734442e+17
19154.0	7.912588922847232e+17
19155.0	7.911380390073684e+17
19156.0	7.909822224313002e+17
19157.0	7.908236479605417e+17
19158.0	7.9061961422493e+17
19159.0	7.905118431215615e+17
19160.0	7.903574612770815e+17
19161.0	7.902014470094845e+17
19162.0	7.899266613772288e+17
19163.0	7.898921786059434e+17
19164.0	7.89742598820113e+17
19165.0	7.895835986274985e+17
19166.0	7.894042536837119e+17
19167.0	7.892652663330131e+17
19168.0	7.891010724735658e+17
19169.0	7.889534282192212e+17
19170.0	7.888103652633257e+17
19171.0	7.886478898102272e+17
19172.0	7.884986707345407e+17
19173.0	7.883442530986666e+17
19174.0	7.881731471660372e+17
19175.0	7.880332714617513e+17
19176.0	7.878757325646505e+17
19177.0	7.876807498574505e+17
19178.0	7.875622702765395e+17
19179.0	7.874002350855506e+17
19180.0	7.872462047237459e+17
19181.0	7.870721402688851e+17
19182.0	7.869315864854525e+17
19183.0	7.867846795897513e+17
19184.0	7.866109274707284e+17
19185.0	7.864683386109952e+17
19186.0	7.863160332266153e+17
19187.0	7.861365146386428e+17
19188.0	7.860022225316524e+17
19189.0	7.858452451120467e+17
19190.0	7.85687999956036e+17
19191.0	7.855239108143785e+17
19192.0	7.85376391270673e+17
19193.0	7.852145407688701e+17
19194.0	7.850566545833983e+17
19195.0	7.849048069373951e+17
19196.0	7.847422503944191e+17
19197.0	7.845861189659306e+17
19198.0	7.844220758218067e+17
19199.0	7.835241298613586e+17
19200.0	7.835893586984961e+17
19201.0	7.839517392939689e+17
19202.0	7.838021423114921e+17
19203.0	7.836448190016169e+17
19204.0	7.834827649362602e+17
19205.0	7.833283527529812e+17
19206.0	7.831420289067688e+17
19207.0	7.829226778525693e+17
19208.0	7.827400676431187e+17
19209.0	7.826283241144319e+17
19210.0	7.824707523619497e+17
19211.0	7.823160703451136e+17
19212.0	7.821572815454207e+17
19213.0	7.819730891046908e+17
19214.0	7.81807582707712e+17
19215.0	7.816789540296019e+17
19216.0	7.815199007091369e+17
19217.0	7.813616023633919e+17
19218.0	7.809889854291963e+17
19219.0	7.809983756369917e+17
19220.0	7.808787739399508e+17
19221.0	7.806393132952234e+17
19222.0	7.805651887587328e+17
19223.0	7.803993223506602e+17
19224.0	7.802288900232532e+17
19225.0	7.800450136932351e+17
19226.0	7.799178804243114e+17
19227.0	7.7975698552477e+17
19228.0	7.796047535407103e+17
19229.0	7.794445782439254e+17
19230.0	7.792781848914602e+17
19231.0	7.791165734649855e+17
19232.0	7.789552926894761e+17
19233.0	7.787795622570666e+17
19234.0	7.786305646406313e+17
19235.0	7.784651082956797e+17
19236.0	7.783142685409276e+17
19237.0	7.781469804036093e+17
19238.0	7.779651023798271e+17
19239.0	7.778278539875667e+17
19240.0	7.776280605534889e+17
19241.0	7.774835860744873e+17
19242.0	7.773329132530345e+17
19243.0	7.771241279302312e+17
19244.0	7.770122527003987e+17
19245.0	7.768468952012115e+17
19246.0	7.766796888528211e+17
19247.0	7.765177669080403e+17
19248.0	7.7635627529885e+17
19249.0	7.761909618398547e+17
19250.0	7.760208218554365e+17
19251.0	7.758276537439572e+17
19252.0	7.756107576158888e+17
19253.0	7.755241726410748e+17
19254.0	7.753586767298557e+17
19255.0	7.751436028870653e+17
19256.0	7.750216364414292e+17
19257.0	7.748639659829932e+17
19258.0	7.746972903538687e+17
19259.0	7.74509158203392e+17
19260.0	7.743459755906387e+17
19261.0	7.741905297910441e+17
19262.0	7.740095917107881e+17
19263.0	7.738432829434538e+17
19264.0	7.734988395686569e+17
19265.0	7.733813885708969e+17
19266.0	7.732250447708157e+17
19267.0	7.730897068840275e+17
19268.0	7.729171911060134e+17
19269.0	7.72747478241553e+17
19270.0	7.725767994288808e+17
19271.0	7.723201352870572e+17
19272.0	7.722221831891624e+17
19273.0	7.710720672836255e+17
19274.0	7.71337595108283e+17
19275.0	7.717145925735766e+17
19276.0	7.715365246555476e+17
19277.0	7.713635121321302e+17
19278.0	7.711899849676115e+17
19279.0	7.710073825875284e+17
19280.0	7.708174391967743e+17
19281.0	7.706617838217898e+17
19282.0	7.704895030646102e+17
19283.0	7.703022942202536e+17
19284.0	7.701093330277715e+17
19285.0	7.698823069564927e+17
19286.0	7.697440907984893e+17
19287.0	7.695755397562365e+17
19288.0	7.691912597209083e+17
19289.0	7.687132746001059e+17
19290.0	7.690349258473471e+17
19291.0	7.686747594249558e+17
19292.0	7.685519710355455e+17
19293.0	7.683669183430655e+17
19294.0	7.681821160505344e+17
19295.0	7.680011175723008e+17
19296.0	7.678142026088445e+17
19297.0	7.676236763496448e+17
19298.0	7.67434987475217e+17
19299.0	7.672565715697661e+17
19300.0	7.670679987377491e+17
19301.0	7.6687691771194e+17
19302.0	7.666850132044457e+17
19303.0	7.664757786716842e+17
19304.0	7.662937106459306e+17
19305.0	7.66108443344896e+17
19306.0	7.659172557837651e+17
19307.0	7.656567868489728e+17
19308.0	7.653690325685587e+17
19309.0	7.651548035984042e+17
19310.0	7.649416485098836e+17
19311.0	7.647744241259859e+17
19312.0	7.645814999831892e+17
19313.0	7.643771607624361e+17
19314.0	7.638588296527871e+17
19315.0	7.636707421017434e+17
19316.0	7.637753280506538e+17
19317.0	7.635695257168553e+17
19318.0	7.633615733828266e+17
19319.0	7.629934939865088e+17
19320.0	7.627572435222527e+17
19321.0	7.625478626082816e+17
19322.0	7.623130235273215e+17
19323.0	7.621197325227347e+17
19324.0	7.619147075332777e+17
19325.0	7.616816871025321e+17
19326.0	7.614804483112957e+17
19327.0	7.612344156116308e+17
19328.0	7.608097565922642e+17
19329.0	7.605867221002921e+17
19330.0	7.603514524041216e+17
19331.0	7.601230754873343e+17
19332.0	7.599051363756714e+17
19333.0	7.596703630054739e+17
19334.0	7.593651376313684e+17
19335.0	7.589290906572115e+17
19336.0	7.5869120902813e+17
19337.0	7.584226853519357e+17
19338.0	7.581089823107754e+17
19339.0	7.579181606327636e+17
19340.0	7.575418218130089e+17
19341.0	7.572554140439891e+17
19342.0	7.569071759425533e+17
19343.0	7.567513631413591e+17
19344.0	7.564913533430442e+17
19345.0	7.557637906366454e+17
19346.0	7.557889512876713e+17
19347.0	7.556906440720383e+17
19348.0	7.554387900978515e+17
19349.0	7.551586072352083e+17
19350.0	7.548867805446143e+17
19351.0	7.546064415140521e+17
19352.0	7.543167047259475e+17
19353.0	7.540530914612564e+17
19354.0	7.537654897136978e+17
19355.0	7.534486189943468e+17
19356.0	7.531066304058706e+17
19357.0	7.528012161482751e+17
19358.0	7.524881746886655e+17
19359.0	7.521403627285161e+17
19360.0	7.518664984450386e+17
19361.0	7.51551236660702e+17
19362.0	7.512405775657642e+17
19363.0	7.509141122362025e+17
19364.0	7.505824367422122e+17
19365.0	7.502450065233236e+17
19366.0	7.49854634541056e+17
19367.0	7.494428086938281e+17
19368.0	7.490890555020628e+17
19369.0	7.487010449129472e+17
19370.0	7.482563287318527e+17
19371.0	7.479762912717481e+17
19372.0	7.476110087771476e+17
19373.0	7.471539259703293e+17
19374.0	7.466731703719251e+17
19375.0	7.462741579836074e+17
19376.0	7.458666459780436e+17
19377.0	7.454480083014996e+17
19378.0	7.449726011397457e+17
19379.0	7.443856445057706e+17
19380.0	7.439429659175594e+17
19381.0	7.434894375037608e+17
19382.0	7.429414652477436e+17
19383.0	7.422561179314858e+17
19384.0	7.417981417379156e+17
19385.0	7.412931738206207e+17
19386.0	7.404705532258985e+17
19387.0	7.399456812389716e+17
19388.0	7.392953646099113e+17
19389.0	7.38470499782929e+17
19390.0	7.3790202604858e+17
19391.0	7.363125340099914e+17
19392.0	7.362527805571071e+17
19393.0	7.351392434563756e+17
19394.0	7.34359718636203e+17
19395.0	7.331947652404563e+17
19396.0	7.322962873024511e+17
19397.0	7.314553842958335e+17
19398.0	7.307194749244755e+17
19399.0	7.298308954041e+17
19400.0	7.29177410957039e+17
19401.0	7.283603506113193e+17
19402.0	7.275418801405951e+17
19403.0	7.266997598071466e+17
19404.0	7.258457013660329e+17
19405.0	7.249630751009449e+17
19406.0	7.240633335589545e+17
19407.0	7.231288458433876e+17
19408.0	7.219916520292353e+17
19409.0	7.211479454100138e+17
19410.0	7.201527223549952e+17
19411.0	7.19092468294178e+17
19412.0	7.179149034651647e+17
19413.0	7.167968765018111e+17
19414.0	7.155982081720317e+17
19415.0	7.142946084225024e+17
19416.0	7.13007592531558e+17
19417.0	7.115538165661693e+17
19418.0	7.101311649928532e+17
19419.0	7.085583999784276e+17
19420.0	7.067907428537683e+17
19421.0	7.049409342734335e+17
19422.0	7.02876360481177e+17
19423.0	7.00540783480012e+17
19424.0	6.97998936480153e+17
19425.0	6.952440255479805e+17
19426.0	6.927092514029567e+17
19427.0	6.905949212813994e+17
19428.0	6.88350888530193e+17
19429.0	6.859709506824873e+17
19430.0	6.834802987980116e+17
19431.0	6.807300904495788e+17
19432.0	6.779786726735871e+17
19433.0	6.749327387699882e+17
19434.0	6.716383540805632e+17
19435.0	6.680784315700562e+17
19436.0	6.640848545862996e+17
19437.0	6.596673400034642e+17
19438.0	6.542655097230673e+17
19439.0	6.492820941220521e+17
19440.0	6.442784152791721e+17
19441.0	6.387953260210854e+17
19442.0	6.326348419869357e+17
19443.0	6.258462470875818e+17
19444.0	6.181438280608421e+17
19445.0	6.096321540784132e+17
19446.0	6.002928498944682e+17
19447.0	5.898847963665745e+17
19448.0	5.78150932851371e+17
19449.0	5.645933764498773e+17
19450.0	5.45598830175842e+17
19451.0	5.3699950824216006e+17
19452.0	5.557702853918733e+17
19453.0	5.715131496049328e+17
19454.0	5.837505217691643e+17
19455.0	5.945730935379284e+17
19456.0	6.041378172349101e+17
19457.0	6.128347320243537e+17
19458.0	6.205126272352257e+17
19459.0	6.276670770817709e+17
19460.0	6.338764399269201e+17
19461.0	6.394507821405523e+17
19462.0	6.443764213437782e+17
19463.0	6.492846618749608e+17
19464.0	6.542986675836241e+17
19465.0	6.58768992927744e+17
19466.0	6.626751966871548e+17
19467.0	6.661553739442858e+17
19468.0	6.69323341262575e+17
19469.0	6.721425366144339e+17
19470.0	6.749069054225065e+17
19471.0	6.773735925219329e+17
19472.0	6.796843447659176e+17
19473.0	6.818298125615103e+17
19474.0	6.83900897731106e+17
19475.0	6.856926976890194e+17
19476.0	6.877561118960294e+17
19477.0	6.902198569009153e+17
19478.0	6.926552159049041e+17
19479.0	6.947531575525375e+17
19480.0	6.966423191202472e+17
19481.0	6.983495636571475e+17
19482.0	6.998574484510038e+17
19483.0	7.011970105824599e+17
19484.0	7.024915215548415e+17
19485.0	7.036137514205183e+17
19486.0	7.04711707590656e+17
19487.0	7.056992269675177e+17
19488.0	7.067028667323732e+17
19489.0	7.075491102064639e+17
19490.0	7.081764174430203e+17
19491.0	7.092626676602195e+17
19492.0	7.100183794592425e+17
19493.0	7.107253503699625e+17
19494.0	7.11423162458658e+17
19495.0	7.121175289266173e+17
19496.0	7.126819972404563e+17
19497.0	7.133523619435859e+17
19498.0	7.13895876633122e+17
19499.0	7.136354050419364e+17
19500.0	7.150539744389802e+17
19501.0	7.155879491840681e+17
19502.0	7.161176407059113e+17
19503.0	7.165967422106281e+17
19504.0	7.170512986483369e+17
19505.0	7.174892161422675e+17
19506.0	7.182152642854908e+17
19507.0	7.188434400225961e+17
19508.0	7.195801404396884e+17
19509.0	7.202195071391063e+17
19510.0	7.207209294714198e+17
19511.0	7.205884796425556e+17
19512.0	7.216596822349137e+17
19513.0	7.218259943576913e+17
19514.0	7.225080738917032e+17
19515.0	7.228402239012865e+17
19516.0	7.233089261884755e+17
19517.0	7.236891528484178e+17
19518.0	7.239065598427133e+17
19519.0	7.241484569586344e+17
19520.0	7.24526598070818e+17
19521.0	7.247117710000127e+17
19522.0	7.248636180867753e+17
19523.0	7.250483819315199e+17
19524.0	7.253638349761194e+17
19525.0	7.254896224326995e+17
19526.0	7.256213455284905e+17
19527.0	7.257380333027327e+17
19528.0	7.25848562999842e+17
19529.0	7.260743618177704e+17
19530.0	7.261974707918164e+17
19531.0	7.262883457007615e+17
19532.0	7.263708044591104e+17
19533.0	7.264481472850602e+17
19534.0	7.265174966064467e+17
19535.0	7.265770536260948e+17
19536.0	7.266955228610557e+17
19537.0	7.267989957814953e+17
19538.0	7.268280425949868e+17
19539.0	7.267616368361476e+17
19540.0	7.269197542675795e+17
19541.0	7.269593691892394e+17
19542.0	7.269863431776936e+17
19543.0	7.270098132445866e+17
19544.0	7.27030107803921e+17
19545.0	7.269424605517137e+17
19546.0	7.268460551733247e+17
19547.0	7.271064616129878e+17
19548.0	7.271391425112744e+17
19549.0	7.271110747881471e+17
19550.0	7.271348822168918e+17
19551.0	7.271282700364458e+17
19552.0	7.271173977014271e+17
19553.0	7.270984511913983e+17
19554.0	7.270775732043775e+17
19555.0	7.270648539774975e+17
19556.0	7.270459586379775e+17
19557.0	7.270206492289705e+17
19558.0	7.26992680211797e+17
19559.0	7.269600985787049e+17
19560.0	7.269227660574719e+17
19561.0	7.268875915056468e+17
19562.0	7.268727080179028e+17
19563.0	7.269665248116735e+17
19564.0	7.269234231650986e+17
19565.0	7.268782485536765e+17
19566.0	7.268237065235114e+17
19567.0	7.267950102140244e+17
19568.0	7.268379440884393e+17
19569.0	7.269650889616042e+17
19570.0	7.269142892292778e+17
19571.0	7.268561317090644e+17
19572.0	7.267870537591466e+17
19573.0	7.267302634422271e+17
19574.0	7.266460809647444e+17
19575.0	7.266198960646826e+17
19576.0	7.267487041191933e+17
19577.0	7.266724839686144e+17
19578.0	7.266000628787881e+17
19579.0	7.265313994659155e+17
19580.0	7.264592057073664e+17
19581.0	7.263885635616768e+17
19582.0	7.263172696211453e+17
19583.0	7.26240446189841e+17
19584.0	7.261614306754557e+17
19585.0	7.261926137877844e+17
19586.0	7.261333375068842e+17
19587.0	7.260832372446548e+17
19588.0	7.25888733806592e+17
19589.0	7.259148637612713e+17
19590.0	7.25817149760034e+17
19591.0	7.257481117958143e+17
19592.0	7.256624329304744e+17
19593.0	7.255683517557417e+17
19594.0	7.254200524909224e+17
19595.0	7.253850932467028e+17
19596.0	7.251859797093034e+17
19597.0	7.252312154177535e+17
19598.0	7.251837052780543e+17
19599.0	7.251558228033535e+17
19600.0	7.250626727641087e+17
19601.0	7.249493956580692e+17
19602.0	7.248586756587519e+17
19603.0	7.246650815457961e+17
19604.0	7.246606456498858e+17
19605.0	7.244944910931284e+17
19606.0	7.244741104107519e+17
19607.0	7.243755701316266e+17
19608.0	7.242710489148072e+17
19609.0	7.241590865832616e+17
19610.0	7.240716849774591e+17
19611.0	7.239667643230889e+17
19612.0	7.238660568470867e+17
19613.0	7.237586948281684e+17
19614.0	7.236456302335316e+17
19615.0	7.235521492637012e+17
19616.0	7.234618773558612e+17
19617.0	7.234419479805951e+17
19618.0	7.231999427914408e+17
19619.0	7.230578558500858e+17
19620.0	7.229557174173693e+17
19621.0	7.230099858391039e+17
19622.0	7.229025191023956e+17
19623.0	7.227938979534164e+17
19624.0	7.226812498531668e+17
19625.0	7.225738103794345e+17
19626.0	7.224599724949501e+17
19627.0	7.223517201651028e+17
19628.0	7.222206332054186e+17
19629.0	7.221037905215487e+17
19630.0	7.219738918081876e+17
19631.0	7.211113104015357e+17
19632.0	7.217868342383956e+17
19633.0	7.216639140080297e+17
19634.0	7.215630388996777e+17
19635.0	7.214371767844861e+17
19636.0	7.213314385204563e+17
19637.0	7.211128933318656e+17
19638.0	7.211221813384532e+17
19639.0	7.210050584750761e+17
19640.0	7.208727650937514e+17
19641.0	7.206362130590382e+17
19642.0	7.206580200843945e+17
19643.0	7.205388045429417e+17
19644.0	7.204111725712723e+17
19645.0	7.202424984961023e+17
19646.0	7.201933517389823e+17
19647.0	7.200757132558335e+17
19648.0	7.19956416344883e+17
19649.0	7.198374562365437e+17
19650.0	7.197259536007165e+17
19651.0	7.19675537227776e+17
19652.0	7.1955573140794e+17
19653.0	7.194386878169087e+17
19654.0	7.193167582811476e+17
19655.0	7.191956889971369e+17
19656.0	7.190783559991293e+17
19657.0	7.1895792760477e+17
19658.0	7.188392065717587e+17
19659.0	7.1871818118813e+17
19660.0	7.185986905003348e+17
19661.0	7.18477038208068e+17
19662.0	7.183567266949802e+17
19663.0	7.182228763880105e+17
19664.0	7.181089947429544e+17
19665.0	7.179925119303679e+17
