# Flux units: erg / (cm m2 s)
# Wavelength units: Angstrom
wave	flux
19000.0	4.982431526420479e+17
19001.0	4.981349851070462e+17
19002.0	4.980719538055849e+17
19003.0	4.9798904381003085e+17
19004.0	4.978489879603881e+17
19005.0	4.977739668914175e+17
19006.0	4.9770157187618125e+17
19007.0	4.976318644311381e+17
19008.0	4.975436092844714e+17
19009.0	4.9742640379330554e+17
19010.0	4.973529936865961e+17
19011.0	4.972417425691989e+17
19012.0	4.970535578501118e+17
19013.0	4.9711245461640525e+17
19014.0	4.9698538433194656e+17
19015.0	4.9689730136145914e+17
19016.0	4.968375586040489e+17
19017.0	4.967684037585578e+17
19018.0	4.9666411532561056e+17
19019.0	4.9658537181183994e+17
19020.0	4.9649328188293114e+17
19021.0	4.964087763042303e+17
19022.0	4.963316582929749e+17
19023.0	4.961874652517715e+17
19024.0	4.960794885576019e+17
19025.0	4.96021705588736e+17
19026.0	4.9592095749789e+17
19027.0	4.9583453211634336e+17
19028.0	4.9573762244280314e+17
19029.0	4.956440056474283e+17
19030.0	4.9554290558457165e+17
19031.0	4.954743220731904e+17
19032.0	4.9537308828194125e+17
19033.0	4.9517597983156896e+17
19034.0	4.9494548667869856e+17
19035.0	4.942617173994155e+17
19036.0	4.9273452223965856e+17
19037.0	4.941765343008083e+17
19038.0	4.9461670189902496e+17
19039.0	4.946795461345279e+17
19040.0	4.9464095727943674e+17
19041.0	4.945887352586239e+17
19042.0	4.923494332628962e+17
19043.0	4.9444909548393805e+17
19044.0	4.943867874902015e+17
19045.0	4.942652347427497e+17
19046.0	4.9418075307158176e+17
19047.0	4.940780826613077e+17
19048.0	4.936841746710525e+17
19049.0	4.8931500894890086e+17
19050.0	4.936610741922472e+17
19051.0	4.933371682269866e+17
19052.0	4.9332499495867725e+17
19053.0	4.9344798649221114e+17
19054.0	4.934201969912489e+17
19055.0	4.927144159346687e+17
19056.0	4.9313490798291546e+17
19057.0	4.932602072225108e+17
19058.0	4.9085806976259046e+17
19059.0	4.921533602463736e+17
19060.0	4.9300789585947296e+17
19061.0	4.929060856310443e+17
19062.0	4.9280181075967994e+17
19063.0	4.9275845354018125e+17
19064.0	4.926664414855168e+17
19065.0	4.925685569858219e+17
19066.0	4.91648333049584e+17
19067.0	4.9234695743515296e+17
19068.0	4.923325580399956e+17
19069.0	4.922387506135039e+17
19070.0	4.921176931434496e+17
19071.0	4.9203315946291194e+17
19072.0	4.9109982532075405e+17
19073.0	4.919071400613204e+17
19074.0	4.9176676013178874e+17
19075.0	4.917165701114538e+17
19076.0	4.9162172340633594e+17
19077.0	4.9153510991025485e+17
19078.0	4.914457302706858e+17
19079.0	4.9135097975493965e+17
19080.0	4.9127777363121485e+17
19081.0	4.9119218424436045e+17
19082.0	4.911192021663743e+17
19083.0	4.909984107550037e+17
19084.0	4.909102564813481e+17
19085.0	4.90829179326737e+17
19086.0	4.894943386533882e+17
19087.0	4.887296165107005e+17
19088.0	4.8937314703550944e+17
19089.0	4.904644036438698e+17
19090.0	4.9040055627066016e+17
19091.0	4.9017404686773005e+17
19092.0	4.884231947812915e+17
19093.0	4.901406342731092e+17
19094.0	4.9006624633432736e+17
19095.0	4.8995693326499834e+17
19096.0	4.8989709557650765e+17
19097.0	4.89809989669137e+17
19098.0	4.887999509342881e+17
19099.0	4.885008597297847e+17
19100.0	4.8954406960715085e+17
19101.0	4.8945459895118496e+17
19102.0	4.8937652128317434e+17
19103.0	4.8927283641057274e+17
19104.0	4.8921498933876045e+17
19105.0	4.8705418052676896e+17
19106.0	4.890120803756714e+17
19107.0	4.8842389089593926e+17
19108.0	4.8802912887548634e+17
19109.0	4.8872455908884474e+17
19110.0	4.8864421460923725e+17
19111.0	4.879536771213986e+17
19112.0	4.8777286025652774e+17
19113.0	4.884282647161514e+17
19114.0	4.879059354561187e+17
19115.0	4.881784100268714e+17
19116.0	4.8813455452405754e+17
19117.0	4.8804859848512845e+17
19118.0	4.8785844048581965e+17
19119.0	4.871665046170279e+17
19120.0	4.8772167415889914e+17
19121.0	4.876746217575764e+17
19122.0	4.876537165774847e+17
19123.0	4.87587421688081e+17
19124.0	4.8744421647537485e+17
19125.0	4.8740415968378874e+17
19126.0	4.872985679407787e+17
19127.0	4.871876325845675e+17
19128.0	4.87107679433523e+17
19129.0	4.870634214872404e+17
19130.0	4.869899929255936e+17
19131.0	4.8690408672897696e+17
19132.0	4.868007328568661e+17
19133.0	4.8673653952348154e+17
19134.0	4.866466485982549e+17
19135.0	4.865737970330283e+17
19136.0	4.8647338910023674e+17
19137.0	4.863641500603732e+17
19138.0	4.863075222727338e+17
19139.0	4.8623355026909856e+17
19140.0	4.861520201995604e+17
19141.0	4.86057659544371e+17
19142.0	4.859623707596117e+17
19143.0	4.858752067611307e+17
19144.0	4.857759843483647e+17
19145.0	4.8569940313811616e+17
19146.0	4.8556950253731834e+17
19147.0	4.8553291618276685e+17
19148.0	4.8470789330043e+17
19149.0	4.844598693549398e+17
19150.0	4.852872624384683e+17
19151.0	4.851835036762111e+17
19152.0	4.8510584802508794e+17
19153.0	4.83431554849175e+17
19154.0	4.848071810744321e+17
19155.0	4.8484903058145274e+17
19156.0	4.847500496207872e+17
19157.0	4.841554677421412e+17
19158.0	4.834379201948348e+17
19159.0	4.844444276752384e+17
19160.0	4.84362908930321e+17
19161.0	4.8428099934617594e+17
19162.0	4.841702358865236e+17
19163.0	4.841002706315946e+17
19164.0	4.840278996637012e+17
19165.0	4.8223832128880365e+17
19166.0	4.8385267597311994e+17
19167.0	4.838102797385727e+17
19168.0	4.8371391224872954e+17
19169.0	4.8363589777489914e+17
19170.0	4.8355588394625696e+17
19171.0	4.8346073266476365e+17
19172.0	4.83376878321664e+17
19173.0	4.8331241990826656e+17
19174.0	4.8321700983821645e+17
19175.0	4.831231227199487e+17
19176.0	4.8305195684549965e+17
19177.0	4.829466839394985e+17
19178.0	4.8285817762392736e+17
19179.0	4.8278440093504845e+17
19180.0	4.827061946417151e+17
19181.0	4.8261580403507194e+17
19182.0	4.8249053100987725e+17
19183.0	4.824340804315819e+17
19184.0	4.8235613991731194e+17
19185.0	4.8225119486607354e+17
19186.0	4.8216801573601274e+17
19187.0	4.820752394092543e+17
19188.0	4.819916043583487e+17
19189.0	4.818908867461119e+17
19190.0	4.817881297933653e+17
19191.0	4.8168585148061005e+17
19192.0	4.8156864249419085e+17
19193.0	4.81226791758507e+17
19194.0	4.809776650605913e+17
19195.0	4.8116053951119354e+17
19196.0	4.809698674999296e+17
19197.0	4.8073144117056826e+17
19198.0	4.804323893226155e+17
19199.0	4.800750752366591e+17
19200.0	4.800150935437311e+17
19201.0	4.8021156418027514e+17
19202.0	4.803463345078272e+17
19203.0	4.803672187163989e+17
19204.0	4.8041832414358176e+17
19205.0	4.803944437339477e+17
19206.0	4.803586789736447e+17
19207.0	4.8025754661464736e+17
19208.0	4.802449392358741e+17
19209.0	4.801871838795093e+17
19210.0	4.800963495155029e+17
19211.0	4.8004522171869856e+17
19212.0	4.799670775709695e+17
19213.0	4.7988260044363085e+17
19214.0	4.798051917671082e+17
19215.0	4.797359846326272e+17
19216.0	4.796602482251093e+17
19217.0	4.795902264169813e+17
19218.0	4.7947667633165645e+17
19219.0	4.793877109495124e+17
19220.0	4.7933764871563936e+17
19221.0	4.792535146124628e+17
19222.0	4.7914900395130874e+17
19223.0	4.79087073375027e+17
19224.0	4.789969909798229e+17
19225.0	4.789389404842666e+17
19226.0	4.7886553694863354e+17
19227.0	4.7877210155690656e+17
19228.0	4.786957837489493e+17
19229.0	4.785570144321534e+17
19230.0	4.785176381663913e+17
19231.0	4.7846178436765005e+17
19232.0	4.7837383987909965e+17
19233.0	4.7827072529203194e+17
19234.0	4.7818659580258976e+17
19235.0	4.781094979938985e+17
19236.0	4.780318707242325e+17
19237.0	4.7792106441277434e+17
19238.0	4.77850167882547e+17
19239.0	4.7777894706271565e+17
19240.0	4.7768283430693536e+17
19241.0	4.776182222422015e+17
19242.0	4.7749343212120736e+17
19243.0	4.774402649838932e+17
19244.0	4.773556122550271e+17
19245.0	4.7728640889541965e+17
19246.0	4.772079900207787e+17
19247.0	4.7712486569629e+17
19248.0	4.770291122525525e+17
19249.0	4.7687977657521466e+17
19250.0	4.765178414847318e+17
19251.0	4.764453024650575e+17
19252.0	4.766827732620628e+17
19253.0	4.766078879487317e+17
19254.0	4.7653282759311354e+17
19255.0	4.7642510199794336e+17
19256.0	4.763358322491391e+17
19257.0	4.762679489069055e+17
19258.0	4.761709317193727e+17
19259.0	4.760791614663338e+17
19260.0	4.7587119235508896e+17
19261.0	4.7591269499316896e+17
19262.0	4.758201168472745e+17
19263.0	4.757235234941611e+17
19264.0	4.7566463525628576e+17
19265.0	4.7557495215882234e+17
19266.0	4.7550601038397434e+17
19267.0	4.7544179915489274e+17
19268.0	4.753418379154773e+17
19269.0	4.7527022443888634e+17
19270.0	4.7518599407643296e+17
19271.0	4.7507929741393914e+17
19272.0	4.7502516167202125e+17
19273.0	4.7494121785043616e+17
19274.0	4.748359558496253e+17
19275.0	4.7478266043651405e+17
19276.0	4.7469888438708896e+17
19277.0	4.746192242081792e+17
19278.0	4.7448555705248416e+17
19279.0	4.7443846641309e+17
19280.0	4.743638509333162e+17
19281.0	4.7426285013565434e+17
19282.0	4.7417951574644045e+17
19283.0	4.74069722009873e+17
19284.0	4.739737715736576e+17
19285.0	4.7384904590513485e+17
19286.0	4.736699854050645e+17
19287.0	4.733374224662527e+17
19288.0	4.722224288934569e+17
19289.0	4.718596004162215e+17
19290.0	4.7304404565142176e+17
19291.0	4.7322719035501235e+17
19292.0	4.732629683972777e+17
19293.0	4.732194627693226e+17
19294.0	4.7315376382061216e+17
19295.0	4.730777626127017e+17
19296.0	4.719812996846964e+17
19297.0	4.7276619810734163e+17
19298.0	4.728363630111402e+17
19299.0	4.716251077148684e+17
19300.0	4.7268707060503904e+17
19301.0	4.7260169456844794e+17
19302.0	4.725178386175316e+17
19303.0	4.724064929884842e+17
19304.0	4.723296905986047e+17
19305.0	4.7223041121320934e+17
19306.0	4.7214792372387834e+17
19307.0	4.7203016395543885e+17
19308.0	4.719317202851157e+17
19309.0	4.7177580689053e+17
19310.0	4.716287142570666e+17
19311.0	4.71427247575313e+17
19312.0	4.710323158952617e+17
19313.0	4.6974338397634566e+17
19314.0	4.510197645049902e+17
19315.0	4.517321412444205e+17
19316.0	4.6824936065816115e+17
19317.0	4.7066714392057165e+17
19318.0	4.708916396381525e+17
19319.0	4.7090762049563296e+17
19320.0	4.7053680746168205e+17
19321.0	4.699572042814807e+17
19322.0	4.7081540648523085e+17
19323.0	4.7075787783099725e+17
19324.0	4.706703190086995e+17
19325.0	4.706064037576702e+17
19326.0	4.7052106924468896e+17
19327.0	4.7045977669195085e+17
19328.0	4.685221893679806e+17
19329.0	4.7031089553735674e+17
19330.0	4.7023754526938445e+17
19331.0	4.701562676969471e+17
19332.0	4.7006600061255674e+17
19333.0	4.700025087066111e+17
19334.0	4.6984138654569837e+17
19335.0	4.6604969001178944e+17
19336.0	4.6971477141312877e+17
19337.0	4.6966488680802976e+17
19338.0	4.695692178096127e+17
19339.0	4.6948121935435085e+17
19340.0	4.693857219728725e+17
19341.0	4.6794315227900915e+17
19342.0	4.688518460735502e+17
19343.0	4.6916455240826874e+17
19344.0	4.6769339175185306e+17
19345.0	4.683579549635943e+17
19346.0	4.6884220798238726e+17
19347.0	4.6707886588777805e+17
19348.0	4.687663121214123e+17
19349.0	4.686802928183978e+17
19350.0	4.679170944663554e+17
19351.0	4.685060577252694e+17
19352.0	4.66562222915581e+17
19353.0	4.6835825933025274e+17
19354.0	4.6829055760138234e+17
19355.0	4.682006861796693e+17
19356.0	4.6811534139064314e+17
19357.0	4.6804348422498976e+17
19358.0	4.679556135561898e+17
19359.0	4.6748001981781165e+17
19360.0	4.663155445727228e+17
19361.0	4.6771157105377254e+17
19362.0	4.676285822752084e+17
19363.0	4.675493025196714e+17
19364.0	4.674710399527594e+17
19365.0	4.67378106409506e+17
19366.0	4.6726925254655994e+17
19367.0	4.672079254607189e+17
19368.0	4.671385268562602e+17
19369.0	4.670596782751743e+17
19370.0	4.6698343114123936e+17
19371.0	4.66874017059089e+17
19372.0	4.668070084389546e+17
19373.0	4.667018670243839e+17
19374.0	4.6661715788212896e+17
19375.0	4.665589103940948e+17
19376.0	4.664846150096213e+17
19377.0	4.664032940960425e+17
19378.0	4.6632109468549114e+17
19379.0	4.6623741063113376e+17
19380.0	4.661002431190357e+17
19381.0	4.660334709178366e+17
19382.0	4.6596377766352205e+17
19383.0	4.6587358307068576e+17
19384.0	4.657492715896832e+17
19385.0	4.65713011551983e+17
19386.0	4.656072108627285e+17
19387.0	4.6548988883981645e+17
19388.0	4.653563710013439e+17
19389.0	4.651676364789076e+17
19390.0	4.6469065659296416e+17
19391.0	4.6312584677512486e+17
19392.0	4.640349047750655e+17
19393.0	4.647045810530987e+17
19394.0	4.6482130014481056e+17
19395.0	4.642685757423631e+17
19396.0	4.646353230976346e+17
19397.0	4.646826381322921e+17
19398.0	4.641252860843353e+17
19399.0	4.638684129263614e+17
19400.0	4.6402720717865005e+17
19401.0	4.643642834681855e+17
19402.0	4.642982567346176e+17
19403.0	4.6421729065915725e+17
19404.0	4.641115349188608e+17
19405.0	4.640194970692266e+17
19406.0	4.6395144315863034e+17
19407.0	4.6319774840039994e+17
19408.0	4.6376646966859085e+17
19409.0	4.636707406916266e+17
19410.0	4.635933425008639e+17
19411.0	4.635030292092244e+17
19412.0	4.634052610315605e+17
19413.0	4.6263670515520864e+17
19414.0	4.6323603281892685e+17
19415.0	4.6312254145385805e+17
19416.0	4.6300298002213536e+17
19417.0	4.629322532913152e+17
19418.0	4.628365376662185e+17
19419.0	4.6273372381074765e+17
19420.0	4.626281287122943e+17
19421.0	4.6252069811650554e+17
19422.0	4.623920113472853e+17
19423.0	4.623026243676842e+17
19424.0	4.621807000748031e+17
19425.0	4.6203136390813005e+17
19426.0	4.6191501279668915e+17
19427.0	4.617639560566102e+17
19428.0	4.615511562955433e+17
19429.0	4.613638625165311e+17
19430.0	4.610306714107902e+17
19431.0	4.6077170270863354e+17
19432.0	4.6075209182085114e+17
19433.0	4.605932473767253e+17
19434.0	4.603573702055251e+17
19435.0	4.5993660245169485e+17
19436.0	4.5941845554189664e+17
19437.0	4.584728659230719e+17
19438.0	4.55131221843422e+17
19439.0	4.5669858746040294e+17
19440.0	4.580480463317675e+17
19441.0	4.580515782153555e+17
19442.0	4.5766527470796794e+17
19443.0	4.5708424434592403e+17
19444.0	4.56322569085474e+17
19445.0	4.553325761178283e+17
19446.0	4.540931521555114e+17
19447.0	4.524258297031338e+17
19448.0	4.5015558527822515e+17
19449.0	4.4685332347617274e+17
19450.0	4.411588355642706e+17
19451.0	4.3671973842124806e+17
19452.0	4.4433388992812365e+17
19453.0	4.4827165198035635e+17
19454.0	4.5063339787332256e+17
19455.0	4.5208357666379085e+17
19456.0	4.525624441962496e+17
19457.0	4.49999285937767e+17
19458.0	4.0601034085282234e+17
19459.0	4.3793914625611776e+17
19460.0	4.538651880281427e+17
19461.0	4.5598758757116576e+17
19462.0	4.5677371562393594e+17
19463.0	4.5722097068714656e+17
19464.0	4.5749481952160416e+17
19465.0	4.576882991999658e+17
19466.0	4.578327745877332e+17
19467.0	4.5793322530242554e+17
19468.0	4.5800968543709856e+17
19469.0	4.567375106714261e+17
19470.0	4.58075848904977e+17
19471.0	4.580873930975914e+17
19472.0	4.580962098042197e+17
19473.0	4.580785559786835e+17
19474.0	4.566668214097215e+17
19475.0	4.579741332581033e+17
19476.0	4.57985479549474e+17
19477.0	4.5794695304970234e+17
19478.0	4.5792070789147296e+17
19479.0	4.565571267286336e+17
19480.0	4.578285365231615e+17
19481.0	4.577434947725994e+17
19482.0	4.576894230637225e+17
19483.0	4.576500404365994e+17
19484.0	4.5756796748431354e+17
19485.0	4.5752492700467194e+17
19486.0	4.5605795072573856e+17
19487.0	4.5736866604209485e+17
19488.0	4.573040944523946e+17
19489.0	4.5722226770575354e+17
19490.0	4.5712209849876474e+17
19491.0	4.570621955189417e+17
19492.0	4.569971094279509e+17
19493.0	4.568923522116266e+17
19494.0	4.567924002695849e+17
19495.0	4.566646298159785e+17
19496.0	4.5642041828311034e+17
19497.0	4.5602348088688634e+17
19498.0	4.545264767467518e+17
19499.0	4.532229166333951e+17
19500.0	4.5547307956961274e+17
19501.0	4.5599307260231674e+17
19502.0	4.560865479098368e+17
19503.0	4.560811559223295e+17
19504.0	4.560187092369407e+17
19505.0	4.5589939526915405e+17
19506.0	4.5583488484638714e+17
19507.0	4.5568949775674016e+17
19508.0	4.554320519364607e+17
19509.0	4.548857138511872e+17
19510.0	4.5223615334973376e+17
19511.0	4.2929812140632326e+17
19512.0	4.502660328368807e+17
19513.0	4.530080685140647e+17
19514.0	4.5360104467333094e+17
19515.0	4.547302992292521e+17
19516.0	4.5474309507208486e+17
19517.0	4.5497468321791994e+17
19518.0	4.545720505860088e+17
19519.0	4.5451687430717376e+17
19520.0	4.5353024978506906e+17
19521.0	4.5484717190239565e+17
19522.0	4.545585152873809e+17
19523.0	4.543817409626123e+17
19524.0	4.535935959389552e+17
19525.0	4.545398841191083e+17
19526.0	4.5447465765874336e+17
19527.0	4.5441674543540896e+17
19528.0	4.542249615141543e+17
19529.0	4.5409909765133677e+17
19530.0	4.541881190973439e+17
19531.0	4.5410823193668256e+17
19532.0	4.540269364685481e+17
19533.0	4.539356792487934e+17
19534.0	4.5388478549415245e+17
19535.0	4.5381197859826336e+17
19536.0	4.537242301934251e+17
19537.0	4.536323543837353e+17
19538.0	4.523011674385083e+17
19539.0	4.534980120150015e+17
19540.0	4.534204636681558e+17
19541.0	4.5303162722058234e+17
19542.0	4.531282996363263e+17
19543.0	4.518333856612361e+17
19544.0	4.5300498199565626e+17
19545.0	4.529881755593385e+17
19546.0	4.529300717961215e+17
19547.0	4.528810515671723e+17
19548.0	4.528055618546346e+17
19549.0	4.527073138485929e+17
19550.0	4.5262142498843296e+17
19551.0	4.5257853767079245e+17
19552.0	4.524807217479679e+17
19553.0	4.5242097968960845e+17
19554.0	4.523202514518015e+17
19555.0	4.520838624357038e+17
19556.0	4.520532866585939e+17
19557.0	4.520882844904106e+17
19558.0	4.520255657345024e+17
19559.0	4.5194635672289274e+17
19560.0	4.513818586294946e+17
19561.0	4.5179055671432525e+17
19562.0	4.512515853647866e+17
19563.0	4.5164575710685856e+17
19564.0	4.5152084954535245e+17
19565.0	4.5147029273313274e+17
19566.0	4.51373807383347e+17
19567.0	4.513323785650174e+17
19568.0	4.5125054538711034e+17
19569.0	4.5117849675147936e+17
19570.0	4.510905588340052e+17
19571.0	4.5100883603619834e+17
19572.0	4.5093941135714976e+17
19573.0	4.5070333775271226e+17
19574.0	4.507201646712148e+17
19575.0	4.5071408999082656e+17
19576.0	4.5055627713576966e+17
19577.0	4.5032872775516154e+17
19578.0	4.504784631496704e+17
19579.0	4.504093080944638e+17
19580.0	4.5030905535092045e+17
19581.0	4.5021493936346445e+17
19582.0	4.501638263166292e+17
19583.0	4.501031256500906e+17
19584.0	4.5000103573149005e+17
19585.0	4.49928364241715e+17
19586.0	4.498520336411306e+17
19587.0	4.4978506179106125e+17
19588.0	4.496909481803775e+17
19589.0	4.496278858410666e+17
19590.0	4.495396614526291e+17
19591.0	4.494676962836479e+17
19592.0	4.4939163125241165e+17
19593.0	4.4919119056732134e+17
19594.0	4.491074217880231e+17
19595.0	4.491614589637972e+17
19596.0	4.4905659549177165e+17
19597.0	4.490060501439828e+17
19598.0	4.488647339758934e+17
19599.0	4.4883796208298656e+17
19600.0	4.487487560876032e+17
19601.0	4.486829854162942e+17
19602.0	4.486015513963178e+17
19603.0	4.4851395783120205e+17
19604.0	4.484527255366314e+17
19605.0	4.4834946191196166e+17
19606.0	4.482846717990228e+17
19607.0	4.4823037814155936e+17
19608.0	4.481082990089555e+17
19609.0	4.480694201876479e+17
19610.0	4.473666903474188e+17
19611.0	4.469621664339292e+17
19612.0	4.4784063670299296e+17
19613.0	4.4773132118698656e+17
19614.0	4.4767298708657485e+17
19615.0	4.476002205958144e+17
19616.0	4.468939319585464e+17
19617.0	4.464907229593607e+17
19618.0	4.4726751428171085e+17
19619.0	4.47102356221679e+17
19620.0	4.468470909501425e+17
19621.0	4.457162833832612e+17
19622.0	4.4703871877338445e+17
19623.0	4.468951295022419e+17
19624.0	4.4668000406951264e+17
19625.0	4.467801115503274e+17
19626.0	4.4665423692212896e+17
19627.0	4.4655376887098016e+17
19628.0	4.463975178349229e+17
19629.0	4.430016966994584e+17
19630.0	4.4596302799612576e+17
19631.0	4.457292348347734e+17
19632.0	4.4593594761215994e+17
19633.0	4.4597410599185075e+17
19634.0	4.4600217776947194e+17
19635.0	4.4583016985176646e+17
19636.0	4.443787966633285e+17
19637.0	4.443412767965166e+17
19638.0	4.4569351047959814e+17
19639.0	4.45714871161105e+17
19640.0	4.4561460905028256e+17
19641.0	4.4552474203258874e+17
19642.0	4.4541850716296525e+17
19643.0	4.453510393364478e+17
19644.0	4.453689467775659e+17
19645.0	4.4530766030656845e+17
19646.0	4.435888694099943e+17
19647.0	4.45095159809092e+17
19648.0	4.450824823854421e+17
19649.0	4.449943675382443e+17
19650.0	4.4492214945273165e+17
19651.0	4.448482643410944e+17
19652.0	4.447827549050196e+17
19653.0	4.4468679328399354e+17
19654.0	4.446311171140266e+17
