# Flux units: erg / (cm m2 s)
# Wavelength units: Angstrom
wave	flux
19000.0	3.2018458273819296e+17
19001.0	3.2012652532203514e+17
19002.0	3.2007304242353485e+17
19003.0	3.2001729984375456e+17
19004.0	3.199607374173525e+17
19005.0	3.199041369975466e+17
19006.0	3.1984678611189754e+17
19007.0	3.1979425039209805e+17
19008.0	3.1973714480332794e+17
19009.0	3.1968029590596256e+17
19010.0	3.1961563071337805e+17
19011.0	3.195704958080341e+17
19012.0	3.1950964002215245e+17
19013.0	3.194604168587946e+17
19014.0	3.1940340469814605e+17
19015.0	3.1934581267496954e+17
19016.0	3.1929051664875514e+17
19017.0	3.1923778596372474e+17
19018.0	3.1918183342407674e+17
19019.0	3.1912615295494816e+17
19020.0	3.1907063501509965e+17
19021.0	3.1901524122664954e+17
19022.0	3.189598718700202e+17
19023.0	3.189021029520725e+17
19024.0	3.1884614932889594e+17
19025.0	3.187930341659989e+17
19026.0	3.187369218233685e+17
19027.0	3.1868056715482445e+17
19028.0	3.186264314129066e+17
19029.0	3.1857066045166925e+17
19030.0	3.185151923191808e+17
19031.0	3.1846015710877005e+17
19032.0	3.1840459575787514e+17
19033.0	3.183475197389482e+17
19034.0	3.182938672857088e+17
19035.0	3.18238486429696e+17
19036.0	3.180285329932287e+17
19037.0	3.1812774236869965e+17
19038.0	3.1807189031758496e+17
19039.0	3.18016785481728e+17
19040.0	3.179610677881514e+17
19041.0	3.1790580881162234e+17
19042.0	3.176846302991699e+17
19043.0	3.1779596453369165e+17
19044.0	3.1774082488511136e+17
19045.0	3.17684841971712e+17
19046.0	3.1762889324189005e+17
19047.0	3.175744173419178e+17
19048.0	3.174913987837952e+17
19049.0	3.171269788478119e+17
19050.0	3.1740461898356045e+17
19051.0	3.173343273418751e+17
19052.0	3.17296434286865e+17
19053.0	3.172435830155946e+17
19054.0	3.1718811995122336e+17
19055.0	3.1707828304827725e+17
19056.0	3.170592214046036e+17
19057.0	3.170229289309525e+17
19058.0	3.167919380540071e+17
19059.0	3.1683980631736314e+17
19060.0	3.1685723053970765e+17
19061.0	3.168020823976618e+17
19062.0	3.1674681569662285e+17
19063.0	3.1669235639910394e+17
19064.0	3.166352575212202e+17
19065.0	3.1657948484730874e+17
19066.0	3.164578315064662e+17
19067.0	3.1647128166072314e+17
19068.0	3.164173355013461e+17
19069.0	3.16362232238353e+17
19070.0	3.163062534493525e+17
19071.0	3.1625199624738125e+17
19072.0	3.1612609183962445e+17
19073.0	3.1614249446932474e+17
19074.0	3.1608691389453645e+17
19075.0	3.1603254589303456e+17
19076.0	3.159759094721194e+17
19077.0	3.1592206701690874e+17
19078.0	3.1586633964148045e+17
19079.0	3.1581247628465485e+17
19080.0	3.157578254822058e+17
19081.0	3.1570170226933754e+17
19082.0	3.156475909592405e+17
19083.0	3.1559218458787834e+17
19084.0	3.1553549727607456e+17
19085.0	3.154829094070954e+17
19086.0	3.153453009338368e+17
19087.0	3.152333965186387e+17
19088.0	3.152409478736553e+17
19089.0	3.15260307312913e+17
19090.0	3.152096816442026e+17
19091.0	3.151399135565141e+17
19092.0	3.1497601144586266e+17
19093.0	3.150455591578282e+17
19094.0	3.149909352338773e+17
19095.0	3.1493600128095565e+17
19096.0	3.1488120500606285e+17
19097.0	3.1482672089224525e+17
19098.0	3.147035258650623e+17
19099.0	3.146367088896683e+17
19100.0	3.1466138488886605e+17
19101.0	3.1460660717376845e+17
19102.0	3.1454996771198285e+17
19103.0	3.1449861810640205e+17
19104.0	3.1444461881917434e+17
19105.0	3.142426425993902e+17
19106.0	3.143336197095423e+17
19107.0	3.1424527082018125e+17
19108.0	3.141744419580586e+17
19109.0	3.1416526317813754e+17
19110.0	3.141168990082389e+17
19111.0	3.1402243754994336e+17
19112.0	3.139595501131092e+17
19113.0	3.139526250026325e+17
19114.0	3.1387470385206605e+17
19115.0	3.138375617871872e+17
19116.0	3.1378879744573434e+17
19117.0	3.1373517421281274e+17
19118.0	3.136790611012266e+17
19119.0	3.13069992865518e+17
19120.0	3.135711963250688e+17
19121.0	3.135169849458688e+17
19122.0	3.134637986196138e+17
19123.0	3.1340958437430605e+17
19124.0	3.133546671286954e+17
19125.0	3.133006176146773e+17
19126.0	3.1324630186721274e+17
19127.0	3.131511774991701e+17
19128.0	3.1313739194040314e+17
19129.0	3.13082186895633e+17
19130.0	3.130290909566293e+17
19131.0	3.129747838773931e+17
19132.0	3.1292007582269434e+17
19133.0	3.1286534868391245e+17
19134.0	3.1281179462205434e+17
19135.0	3.1275757303671456e+17
19136.0	3.1270321744336205e+17
19137.0	3.1264511909778765e+17
19138.0	3.125947242206549e+17
19139.0	3.1254101175391565e+17
19140.0	3.1248683281066656e+17
19141.0	3.1243249165271034e+17
19142.0	3.1237775986524154e+17
19143.0	3.1232280819138554e+17
19144.0	3.1226940012625914e+17
19145.0	3.1221573750183245e+17
19146.0	3.121501259344554e+17
19147.0	3.1210390411018234e+17
19148.0	3.119948869490006e+17
19149.0	3.11931731111663e+17
19150.0	3.119456791647573e+17
19151.0	3.118914177684821e+17
19152.0	3.1183732970181965e+17
19153.0	3.116645840409939e+17
19154.0	3.1171191033036794e+17
19155.0	3.116753073384106e+17
19156.0	3.116209383232853e+17
19157.0	3.1152478659543046e+17
19158.0	3.1142527883018246e+17
19159.0	3.114572571475968e+17
19160.0	3.1140484180432205e+17
19161.0	3.1135089494589434e+17
19162.0	3.1128727465929376e+17
19163.0	3.1124315820086605e+17
19164.0	3.1118782697745056e+17
19165.0	3.1100331276369894e+17
19166.0	3.110774570134186e+17
19167.0	3.1102551618573645e+17
19168.0	3.109736715124736e+17
19169.0	3.1091955153414816e+17
19170.0	3.1086607286490445e+17
19171.0	3.1081142765486074e+17
19172.0	3.107582875708074e+17
19173.0	3.1070470547701754e+17
19174.0	3.106494445081941e+17
19175.0	3.105967243438762e+17
19176.0	3.1054328027764045e+17
19177.0	3.1048657870520314e+17
19178.0	3.104336977242794e+17
19179.0	3.103792997684565e+17
19180.0	3.1032823240458234e+17
19181.0	3.1026960431841274e+17
19182.0	3.1021916382822394e+17
19183.0	3.101668214308864e+17
19184.0	3.101128881689941e+17
19185.0	3.100592205114026e+17
19186.0	3.1000606067916794e+17
19187.0	3.0995169610301434e+17
19188.0	3.0989856779796474e+17
19189.0	3.098451507150848e+17
19190.0	3.0979164908202656e+17
19191.0	3.0973723291593376e+17
19192.0	3.096842771016362e+17
19193.0	3.0961783880198816e+17
19194.0	3.095575432702635e+17
19195.0	3.095235420400298e+17
19196.0	3.094697237370197e+17
19197.0	3.094161578612053e+17
19198.0	3.0936262176494925e+17
19199.0	3.0924713391117645e+17
19200.0	3.09215178592529e+17
19201.0	3.092015702081536e+17
19202.0	3.091492035887103e+17
19203.0	3.0909535229050874e+17
19204.0	3.090417457299456e+17
19205.0	3.089888561506986e+17
19206.0	3.089350518986069e+17
19207.0	3.0887904018431994e+17
19208.0	3.088217818879317e+17
19209.0	3.0877497750978554e+17
19210.0	3.08720974762257e+17
19211.0	3.0866807707402234e+17
19212.0	3.0861487092968096e+17
19213.0	3.0855972177401165e+17
19214.0	3.0850533325537274e+17
19215.0	3.0845468609085434e+17
19216.0	3.084015314665472e+17
19217.0	3.0834840711113376e+17
19218.0	3.0827808282378234e+17
19219.0	3.0823922808477005e+17
19220.0	3.0818797858324474e+17
19221.0	3.0812856735061325e+17
19222.0	3.0808138377243296e+17
19223.0	3.080285660905471e+17
19224.0	3.0797462192346445e+17
19225.0	3.07918958825745e+17
19226.0	3.078689004366506e+17
19227.0	3.078158367588352e+17
19228.0	3.0776260509914445e+17
19229.0	3.0770867756946765e+17
19230.0	3.076559906799616e+17
19231.0	3.076030710065834e+17
19232.0	3.07549992718609e+17
19233.0	3.0749568196935674e+17
19234.0	3.0744298497856845e+17
19235.0	3.073902001870165e+17
19236.0	3.073374852655786e+17
19237.0	3.0728377797181434e+17
19238.0	3.072280752029695e+17
19239.0	3.071782772801535e+17
19240.0	3.0712489165455354e+17
19241.0	3.0707189529531725e+17
19242.0	3.0701826744866125e+17
19243.0	3.069637228320085e+17
19244.0	3.0691293669621754e+17
19245.0	3.0685984502142285e+17
19246.0	3.0680683440155296e+17
19247.0	3.0675423524290554e+17
19248.0	3.0670112483355296e+17
19249.0	3.066461503706453e+17
19250.0	3.0657478932125005e+17
19251.0	3.065206064633173e+17
19252.0	3.0648525571577165e+17
19253.0	3.064357867661994e+17
19254.0	3.0638360934481914e+17
19255.0	3.063276290528597e+17
19256.0	3.062768416937301e+17
19257.0	3.062249756644693e+17
19258.0	3.0617194183611725e+17
19259.0	3.061182720813738e+17
19260.0	3.060612389142528e+17
19261.0	3.0601364230198605e+17
19262.0	3.0595933088863565e+17
19263.0	3.0590575263962445e+17
19264.0	3.0584208656520525e+17
19265.0	3.057968996854442e+17
19266.0	3.057357755689642e+17
19267.0	3.056965970995882e+17
19268.0	3.056434866902357e+17
19269.0	3.055911049363455e+17
19270.0	3.055384664910506e+17
19271.0	3.054774341948758e+17
19272.0	3.054322906213034e+17
19273.0	3.0537492002242554e+17
19274.0	3.053204953279146e+17
19275.0	3.0527511225958394e+17
19276.0	3.0522202719081805e+17
19277.0	3.051696462408362e+17
19278.0	3.0511601752036685e+17
19279.0	3.0506425631375354e+17
19280.0	3.050104427992405e+17
19281.0	3.0495894670759245e+17
19282.0	3.0490676348409165e+17
19283.0	3.0485331386040314e+17
19284.0	3.048008014189909e+17
19285.0	3.047460604390058e+17
19286.0	3.046955572789248e+17
19287.0	3.046433804866901e+17
19288.0	3.04550808981777e+17
19289.0	3.044334255123113e+17
19290.0	3.0448644291297274e+17
19291.0	3.044294460265813e+17
19292.0	3.043813170173269e+17
19293.0	3.0432862457036794e+17
19294.0	3.042762035997354e+17
19295.0	3.0422379000408736e+17
19296.0	3.0410806485756595e+17
19297.0	3.041055262550699e+17
19298.0	3.040662168884565e+17
19299.0	3.039408667579733e+17
19300.0	3.0395904508122445e+17
19301.0	3.039092948686165e+17
19302.0	3.038569229014357e+17
19303.0	3.038030223201621e+17
19304.0	3.037516251092309e+17
19305.0	3.036995611787264e+17
19306.0	3.03647737581841e+17
19307.0	3.0359382067773434e+17
19308.0	3.035424358050474e+17
19309.0	3.0348774613538125e+17
19310.0	3.034351353724927e+17
19311.0	3.033851462243669e+17
19312.0	3.03333364535569e+17
19313.0	3.032813954312874e+17
19314.0	3.0226035584095565e+17
19315.0	3.022589268066317e+17
19316.0	3.03039862206191e+17
19317.0	3.030724683060565e+17
19318.0	3.030203573294421e+17
19319.0	3.0296803730172576e+17
19320.0	3.028880745736873e+17
19321.0	3.028071336290986e+17
19322.0	3.0281063510398285e+17
19323.0	3.027590042004138e+17
19324.0	3.027075791323135e+17
19325.0	3.0265357841203194e+17
19326.0	3.0260338898589005e+17
19327.0	3.025495287048874e+17
19328.0	3.023654415411883e+17
19329.0	3.024471444859562e+17
19330.0	3.0239438559423136e+17
19331.0	3.023423583289343e+17
19332.0	3.0229100788449274e+17
19333.0	3.022391626170367e+17
19334.0	3.021808923749034e+17
19335.0	3.0186514936408774e+17
19336.0	3.020789781277354e+17
19337.0	3.0203096344821754e+17
19338.0	3.0197479259504634e+17
19339.0	3.0192647851212794e+17
19340.0	3.0186040791313056e+17
19341.0	3.0172811313370464e+17
19342.0	3.0173247307776e+17
19343.0	3.0171921348471456e+17
19344.0	3.0157106133510835e+17
19345.0	3.015184695863978e+17
19346.0	3.0154219844184736e+17
19347.0	3.013912241198421e+17
19348.0	3.014598177325056e+17
19349.0	3.0140733472112634e+17
19350.0	3.0131658364900685e+17
19351.0	3.013020748524202e+17
19352.0	3.0112176770034323e+17
19353.0	3.0119963932317005e+17
19354.0	3.0114869957099514e+17
19355.0	3.0109526207583565e+17
19356.0	3.010448651365034e+17
19357.0	3.0099297062092794e+17
19358.0	3.009412043811498e+17
19359.0	3.008562961842175e+17
19360.0	3.0073983665001805e+17
19361.0	3.007850685136896e+17
19362.0	3.007341161786026e+17
19363.0	3.006823429133653e+17
19364.0	3.006307584966656e+17
19365.0	3.005789344803498e+17
19366.0	3.0052664877602125e+17
19367.0	3.0047546068609696e+17
19368.0	3.0042398748835834e+17
19369.0	3.0037149570389325e+17
19370.0	3.003204541000362e+17
19371.0	3.002679392119466e+17
19372.0	3.002172744313514e+17
19373.0	3.001651191698773e+17
19374.0	3.001138351002965e+17
19375.0	3.0006242824246605e+17
19376.0	3.0001100478218234e+17
19377.0	2.999593373881685e+17
19378.0	2.999079243786922e+17
19379.0	2.9985633115395405e+17
19380.0	2.998039978093226e+17
19381.0	2.9975167809617914e+17
19382.0	2.997003471202986e+17
19383.0	2.996477433828693e+17
19384.0	2.99596467666944e+17
19385.0	2.995469549218474e+17
19386.0	2.994953216065535e+17
19387.0	2.9944379744802125e+17
19388.0	2.9939204295229434e+17
19389.0	2.993408349743787e+17
19390.0	2.9928929050842445e+17
19391.0	2.9909287754356026e+17
19392.0	2.9918540581218976e+17
19393.0	2.9913487276769274e+17
19394.0	2.9908345339685536e+17
19395.0	2.989926472395435e+17
19396.0	2.989692119853738e+17
19397.0	2.989290197876736e+17
19398.0	2.98846172287249e+17
19399.0	2.9876099579467085e+17
19400.0	2.987494838632448e+17
19401.0	2.9872348347760634e+17
19402.0	2.9867243963678714e+17
19403.0	2.9862067088042656e+17
19404.0	2.9856915427164154e+17
19405.0	2.9851728030815565e+17
19406.0	2.9846662629294074e+17
19407.0	2.983652254635348e+17
19408.0	2.983442872183467e+17
19409.0	2.983121915303253e+17
19410.0	2.9826120606023674e+17
19411.0	2.98209660965137e+17
19412.0	2.9815736446047565e+17
19413.0	2.980553265162922e+17
19414.0	2.980547475275776e+17
19415.0	2.98003759890432e+17
19416.0	2.97949201432576e+17
19417.0	2.9790014328012794e+17
19418.0	2.978496374287018e+17
19419.0	2.9779806549005645e+17
19420.0	2.9774665136209914e+17
19421.0	2.976949337412949e+17
19422.0	2.976423628941994e+17
19423.0	2.9759157169029114e+17
19424.0	2.9754003169826125e+17
19425.0	2.9748775375339514e+17
19426.0	2.9743610338126496e+17
19427.0	2.973843780359509e+17
19428.0	2.973319281945258e+17
19429.0	2.9728009627893754e+17
19430.0	2.9722600206062925e+17
19431.0	2.971518756716544e+17
19432.0	2.9712181180934816e+17
19433.0	2.9706848036017485e+17
19434.0	2.9701508120794445e+17
19435.0	2.9695812444706125e+17
19436.0	2.9689417787856205e+17
19437.0	2.9685049553059834e+17
19438.0	2.964605616433835e+17
19439.0	2.967295493494101e+17
19440.0	2.96674301382929e+17
19441.0	2.966104641110016e+17
19442.0	2.96542681432064e+17
19443.0	2.9646744068642125e+17
19444.0	2.963809312090794e+17
19445.0	2.962737199753899e+17
19446.0	2.9612768857074336e+17
19447.0	2.9589495754697376e+17
19448.0	2.954254172727978e+17
19449.0	2.9354822921966906e+17
19450.0	2.6867512765317078e+17
19451.0	2.4321862468457846e+17
19452.0	2.7914405482769178e+17
19453.0	2.942708617314306e+17
19454.0	2.9527181937868794e+17
19455.0	2.955497027491157e+17
19456.0	2.956501260610218e+17
19457.0	2.9568164475262285e+17
19458.0	2.9185122346817485e+17
19459.0	2.955686586963295e+17
19460.0	2.9563398214997325e+17
19461.0	2.955997365316266e+17
19462.0	2.9556089825525754e+17
19463.0	2.955196447588352e+17
19464.0	2.95475534696721e+17
19465.0	2.954307200963925e+17
19466.0	2.953844190696789e+17
19467.0	2.95337720353041e+17
19468.0	2.952904624308224e+17
19469.0	2.9513872977865363e+17
19470.0	2.9519375908208634e+17
19471.0	2.9514535213028685e+17
19472.0	2.9509420762617165e+17
19473.0	2.9504457824447136e+17
19474.0	2.9489768148500454e+17
19475.0	2.9492511887414605e+17
19476.0	2.9489728428441594e+17
19477.0	2.9484774322776736e+17
19478.0	2.9479956937441274e+17
19479.0	2.946533996625918e+17
19480.0	2.946992930029568e+17
19481.0	2.94644502495232e+17
19482.0	2.9459891408076794e+17
19483.0	2.9454993803182074e+17
19484.0	2.9449935766159354e+17
19485.0	2.944484898417322e+17
19486.0	2.942970635834711e+17
19487.0	2.9434911674859514e+17
19488.0	2.9429985422868474e+17
19489.0	2.942478108852224e+17
19490.0	2.941615160164351e+17
19491.0	2.941484411125759e+17
19492.0	2.9409913088245754e+17
19493.0	2.9404888479825914e+17
19494.0	2.93998694043921e+17
19495.0	2.9394853044770125e+17
19496.0	2.9388555206437536e+17
19497.0	2.93848054042897e+17
19498.0	2.937883236936362e+17
19499.0	2.935099219421865e+17
19500.0	2.9369795273031674e+17
19501.0	2.936499236853077e+17
19502.0	2.9360040548761594e+17
19503.0	2.935503303562581e+17
19504.0	2.934999569050283e+17
19505.0	2.9344867961623885e+17
19506.0	2.9339976581775354e+17
19507.0	2.9334900579150496e+17
19508.0	2.932994204499968e+17
19509.0	2.9324927733596154e+17
19510.0	2.9318672558325754e+17
19511.0	2.917189791601993e+17
19512.0	2.9306545088320845e+17
19513.0	2.929722253464916e+17
19514.0	2.929445121818623e+17
19515.0	2.9293686816767994e+17
19516.0	2.9288910416773114e+17
19517.0	2.9284473356943354e+17
19518.0	2.9277445657285965e+17
19519.0	2.9272371381316256e+17
19520.0	2.926160631212713e+17
19521.0	2.926477027136853e+17
19522.0	2.9258821643796474e+17
19523.0	2.925270462540459e+17
19524.0	2.924358697047382e+17
19525.0	2.9244725322055674e+17
19526.0	2.923980614096213e+17
19527.0	2.9234780861453645e+17
19528.0	2.9229331244209485e+17
19529.0	2.922404214996992e+17
19530.0	2.921985824434858e+17
19531.0	2.9214848815813965e+17
19532.0	2.9209847643067725e+17
19533.0	2.9204807599609165e+17
19534.0	2.919988667438421e+17
19535.0	2.9194910615033165e+17
19536.0	2.9189837195400525e+17
19537.0	2.918489478485333e+17
19538.0	2.917173501973846e+17
19539.0	2.917358137682603e+17
19540.0	2.9169920518389754e+17
19541.0	2.916359961138517e+17
19542.0	2.915938189617834e+17
19543.0	2.914669714997248e+17
19544.0	2.914956168833706e+17
19545.0	2.9143979880611834e+17
19546.0	2.9137882425152845e+17
19547.0	2.9135140940677114e+17
19548.0	2.9130153273589754e+17
19549.0	2.9125015460904954e+17
19550.0	2.912014819830442e+17
19551.0	2.9115240006287354e+17
19552.0	2.911022586615125e+17
19553.0	2.9105245210542074e+17
19554.0	2.910017077029546e+17
19555.0	2.9094521962059085e+17
19556.0	2.908981879461205e+17
19557.0	2.908537366074709e+17
19558.0	2.908044250142037e+17
19559.0	2.907549513110869e+17
19560.0	2.9067679978837325e+17
19561.0	2.9065513977337165e+17
19562.0	2.9057826583565645e+17
19563.0	2.905566199764309e+17
19564.0	2.9050600091374925e+17
19565.0	2.90457092428049e+17
19566.0	2.904067378511872e+17
19567.0	2.903582584427861e+17
19568.0	2.903087593990826e+17
19569.0	2.9025901991690234e+17
19570.0	2.9020937858143565e+17
19571.0	2.901597316186112e+17
19572.0	2.901101516248405e+17
19573.0	2.9005276854790816e+17
19574.0	2.9000743923657376e+17
19575.0	2.899622954183338e+17
19576.0	2.899091370191531e+17
19577.0	2.89852744601873e+17
19578.0	2.8981295191162874e+17
19579.0	2.8976421937698125e+17
19580.0	2.8971449020579834e+17
19581.0	2.8966455540886176e+17
19582.0	2.896162281837909e+17
19583.0	2.8956702571233274e+17
19584.0	2.895171388003669e+17
19585.0	2.894662297365162e+17
19586.0	2.8941636778065914e+17
19587.0	2.893691525704362e+17
19588.0	2.8930899059234125e+17
19589.0	2.89270644412689e+17
19590.0	2.8921702198367565e+17
19591.0	2.8917197816463354e+17
19592.0	2.891224828258986e+17
19593.0	2.890669591538346e+17
19594.0	2.890142680001194e+17
19595.0	2.8897438513233914e+17
19596.0	2.889250633329322e+17
19597.0	2.8887638053573965e+17
19598.0	2.8880476097740794e+17
19599.0	2.887779226047829e+17
19600.0	2.887286654675626e+17
19601.0	2.8867832840192e+17
19602.0	2.8862946171944954e+17
19603.0	2.8857063849328634e+17
19604.0	2.8853146369392634e+17
19605.0	2.884771069471402e+17
19606.0	2.8843340457137485e+17
19607.0	2.8838467504264525e+17
19608.0	2.8833465712858445e+17
19609.0	2.882852921627989e+17
19610.0	2.8819353917631152e+17
19611.0	2.8812657966448643e+17
19612.0	2.8813912874243405e+17
19613.0	2.8808938122117117e+17
19614.0	2.880402789935786e+17
19615.0	2.8799199727670605e+17
19616.0	2.8789851969727152e+17
19617.0	2.878309020641963e+17
19618.0	2.878282472794794e+17
19619.0	2.8777002306983245e+17
19620.0	2.8770412849179296e+17
19621.0	2.876107746443263e+17
19622.0	2.8764880289573542e+17
19623.0	2.8759691184046074e+17
19624.0	2.8754243562591574e+17
19625.0	2.8750182319390717e+17
19626.0	2.874527138010453e+17
19627.0	2.8740403023489702e+17
19628.0	2.8735151688471888e+17
19629.0	2.870858487256404e+17
19630.0	2.872553403405653e+17
19631.0	2.87140235776273e+17
19632.0	2.8715900046322342e+17
19633.0	2.8710920600070822e+17
19634.0	2.8706135280189437e+17
19635.0	2.8699832593940464e+17
19636.0	2.868612885905407e+17
19637.0	2.8681154833940467e+17
19638.0	2.8685536200403616e+17
19639.0	2.8681677028283728e+17
19640.0	2.8676552036188154e+17
19641.0	2.8666028565899958e+17
19642.0	2.8666586530665808e+17
19643.0	2.8661698971129168e+17
19644.0	2.8657221978030074e+17
19645.0	2.8651821336275622e+17
19646.0	2.8636492748991126e+17
19647.0	2.8642334981051725e+17
19648.0	2.8637871703326714e+17
19649.0	2.86329579049233e+17
19650.0	2.8628106598154234e+17
19651.0	2.862325227148629e+17
19652.0	2.8618383229801808e+17
19653.0	2.86134837514513e+17
