# Flux units: erg / (cm m2 s)
# Wavelength units: Angstrom
wave	flux
19000.0	6.846951686056617e+17
19001.0	6.845596773471571e+17
19002.0	6.844418625634303e+17
19003.0	6.843140833716905e+17
19004.0	6.841866089660415e+17
19005.0	6.840608471646207e+17
19006.0	6.839346437029887e+17
19007.0	6.837996280785578e+17
19008.0	6.83686633808418e+17
19009.0	6.835573970960383e+17
19010.0	6.833968318687914e+17
19011.0	6.833051297032874e+17
19012.0	6.831118693870249e+17
19013.0	6.830556743117481e+17
19014.0	6.829238678891177e+17
19015.0	6.827986119207594e+17
19016.0	6.826707340929705e+17
19017.0	6.825476591626922e+17
19018.0	6.824167442393769e+17
19019.0	6.822930629525501e+17
19020.0	6.821647046672383e+17
19021.0	6.82039395221504e+17
19022.0	6.8191254492829e+17
19023.0	6.817815213725011e+17
19024.0	6.816559074202963e+17
19025.0	6.815235528021332e+17
19026.0	6.813928404637011e+17
19027.0	6.812102867375444e+17
19028.0	6.81148039701026e+17
19029.0	6.810196909927081e+17
19030.0	6.808952371150847e+17
19031.0	6.807678084273492e+17
19032.0	6.806397093500244e+17
19033.0	6.805034504639827e+17
19034.0	6.803789930911059e+17
19035.0	6.802163217640106e+17
19036.0	6.759298147287025e+17
19037.0	6.799735715266559e+17
19038.0	6.798697151769257e+17
19039.0	6.797482192622931e+17
19040.0	6.796221598750036e+17
19041.0	6.794946759622655e+17
19042.0	6.793500868389545e+17
19043.0	6.792415244801364e+17
19044.0	6.791130551156735e+17
19045.0	6.789843529673385e+17
19046.0	6.78855349108736e+17
19047.0	6.787305986239145e+17
19048.0	6.785844186010963e+17
19049.0	6.784496816881663e+17
19050.0	6.783411336598868e+17
19051.0	6.775579681139359e+17
19052.0	6.779657091284991e+17
19053.0	6.779631831089151e+17
19054.0	6.778407362756608e+17
19055.0	6.776887416193024e+17
19056.0	6.77583558681122e+17
19057.0	6.774592172108457e+17
19058.0	6.773191380828159e+17
19059.0	6.772017581785087e+17
19060.0	6.771054005452797e+17
19061.0	6.770015740450131e+17
19062.0	6.768739011788799e+17
19063.0	6.767467618282153e+17
19064.0	6.766092461189802e+17
19065.0	6.764766010452649e+17
19066.0	6.763561328749225e+17
19067.0	6.762374119118164e+17
19068.0	6.761107632248148e+17
19069.0	6.759836479214931e+17
19070.0	6.758542750340436e+17
19071.0	6.757268658498217e+17
19072.0	6.755975551778815e+17
19073.0	6.754743455405395e+17
19074.0	6.753475782246399e+17
19075.0	6.752203510033065e+17
19076.0	6.750913999230292e+17
19077.0	6.749646681888084e+17
19078.0	6.748357843572052e+17
19079.0	6.74711372702242e+17
19080.0	6.745829185770836e+17
19081.0	6.744529792488788e+17
19082.0	6.743260031265449e+17
19083.0	6.741924925581993e+17
19084.0	6.740539687479978e+17
19085.0	6.739063277092863e+17
19086.0	6.737215468077055e+17
19087.0	6.735304511717375e+17
19088.0	6.734814147248127e+17
19089.0	6.733148371724969e+17
19090.0	6.732506541151571e+17
19091.0	6.731282455898793e+17
19092.0	6.729697977171968e+17
19093.0	6.728794888295764e+17
19094.0	6.727543595291987e+17
19095.0	6.726277253824511e+17
19096.0	6.724995290671785e+17
19097.0	6.723737985832276e+17
19098.0	6.722425195244202e+17
19099.0	6.721147232059391e+17
19100.0	6.719855601734996e+17
19101.0	6.718632481172138e+17
19102.0	6.717299037831167e+17
19103.0	6.716116073534803e+17
19104.0	6.714846552085844e+17
19105.0	6.713462043792723e+17
19106.0	6.712097313740116e+17
19107.0	6.710963793996457e+17
19108.0	6.709648493117439e+17
19109.0	6.705288956608507e+17
19110.0	6.706890332089001e+17
19111.0	6.705886023472468e+17
19112.0	6.704648928886781e+17
19113.0	6.703422819183274e+17
19114.0	6.702132308038995e+17
19115.0	6.700746590388223e+17
19116.0	6.699595829258922e+17
19117.0	6.698312656049491e+17
19118.0	6.696820059843242e+17
19119.0	6.691979856095908e+17
19120.0	6.694145136175785e+17
19121.0	6.692997552930815e+17
19122.0	6.692008716402687e+17
19123.0	6.690743364091903e+17
19124.0	6.68922897637922e+17
19125.0	6.688189126628691e+17
19126.0	6.686918967645524e+17
19127.0	6.684177341262505e+17
19128.0	6.683844922398035e+17
19129.0	6.683058476417023e+17
19130.0	6.681855136191827e+17
19131.0	6.680583648313344e+17
19132.0	6.679331248712361e+17
19133.0	6.677932376326143e+17
19134.0	6.676539480124074e+17
19135.0	6.675516720764244e+17
19136.0	6.674263880062291e+17
19137.0	6.672861367020201e+17
19138.0	6.67170877997056e+17
19139.0	6.670462815830015e+17
19140.0	6.669198739985748e+17
19141.0	6.667932130781865e+17
19142.0	6.666629255528445e+17
19143.0	6.665351135756287e+17
19144.0	6.664097288421375e+17
19145.0	6.662860936227498e+17
19146.0	6.661052844474368e+17
19147.0	6.66025248039458e+17
19148.0	6.659007272626857e+17
19149.0	6.65773372744226e+17
19150.0	6.656521601548288e+17
19151.0	6.655260104501929e+17
19152.0	6.653943776018431e+17
19153.0	6.652634468799827e+17
19154.0	6.651337242574845e+17
19155.0	6.650160304794282e+17
19156.0	6.648878561842516e+17
19157.0	6.647379083482451e+17
19158.0	6.644366235926525e+17
19159.0	6.644953472740008e+17
19160.0	6.643742475812861e+17
19161.0	6.642402551573162e+17
19162.0	6.636348103808344e+17
19163.0	6.639546865986218e+17
19164.0	6.638724746750633e+17
19165.0	6.637327944952489e+17
19166.0	6.636018493729449e+17
19167.0	6.634495330833748e+17
19168.0	6.633654239363071e+17
19169.0	6.632360567810729e+17
19170.0	6.631160931855017e+17
19171.0	6.629654478367402e+17
19172.0	6.628585148951209e+17
19173.0	6.627368646301012e+17
19174.0	6.626081121501183e+17
19175.0	6.624863740843348e+17
19176.0	6.623594983456767e+17
19177.0	6.622180868270761e+17
19178.0	6.620879419080703e+17
19179.0	6.619416450738857e+17
19180.0	6.618478558926166e+17
19181.0	6.617153961372329e+17
19182.0	6.615970430844927e+17
19183.0	6.614728320570708e+17
19184.0	6.613449383608317e+17
19185.0	6.6121924345856e+17
19186.0	6.610927174549501e+17
19187.0	6.609581708935167e+17
19188.0	6.60837495804177e+17
19189.0	6.607094683096403e+17
19190.0	6.605795015087444e+17
19191.0	6.604486160853674e+17
19192.0	6.603292029222911e+17
19193.0	6.601988764598271e+17
19194.0	6.600686292697087e+17
19195.0	6.599409194237951e+17
19196.0	6.598040024514559e+17
19197.0	6.596565225439231e+17
19198.0	6.594395887370237e+17
19199.0	6.563758883908259e+17
19200.0	6.56994572977221e+17
19201.0	6.590733293890217e+17
19202.0	6.590256491003903e+17
19203.0	6.589096724004863e+17
19204.0	6.587960222810111e+17
19205.0	6.586758229655551e+17
19206.0	6.585512208192852e+17
19207.0	6.584171338836649e+17
19208.0	6.582819906125823e+17
19209.0	6.581731095565652e+17
19210.0	6.580468447881898e+17
19211.0	6.579206376215891e+17
19212.0	6.577925428084735e+17
19213.0	6.576334657202858e+17
19214.0	6.574923473136297e+17
19215.0	6.573979073161897e+17
19216.0	6.572847166827178e+17
19217.0	6.571576410854742e+17
19218.0	6.569611909311146e+17
19219.0	6.568890955988991e+17
19220.0	6.567733142836563e+17
19221.0	6.566228501288276e+17
19222.0	6.56521116656162e+17
19223.0	6.563932310689108e+17
19224.0	6.562635334025215e+17
19225.0	6.561278752107178e+17
19226.0	6.560107080974333e+17
19227.0	6.558830325050025e+17
19228.0	6.557579676570963e+17
19229.0	6.556302118136489e+17
19230.0	6.555002823420585e+17
19231.0	6.553721432091305e+17
19232.0	6.552457398190079e+17
19233.0	6.551120252676778e+17
19234.0	6.5498920793757e+17
19235.0	6.548604535701503e+17
19236.0	6.547351028105215e+17
19237.0	6.546056223391743e+17
19238.0	6.544663329985875e+17
19239.0	6.543506654887936e+17
19240.0	6.542212599556777e+17
19241.0	6.540919366309204e+17
19242.0	6.539645270971732e+17
19243.0	6.538227424253267e+17
19244.0	6.536846786603689e+17
19245.0	6.535110123847679e+17
19246.0	6.533814548780372e+17
19247.0	6.532541658606249e+17
19248.0	6.531245689274368e+17
19249.0	6.5299471152797e+17
19250.0	6.528641554972672e+17
19251.0	6.527277874894163e+17
19252.0	6.525833766939306e+17
19253.0	6.524783102175914e+17
19254.0	6.523510323150847e+17
19255.0	6.522045893793107e+17
19256.0	6.520886949576704e+17
19257.0	6.519628038318761e+17
19258.0	6.5183315146397e+17
19259.0	6.51696237777169e+17
19260.0	6.514911340047017e+17
19261.0	6.514420235283114e+17
19262.0	6.513081699358035e+17
19263.0	6.511773784648361e+17
19264.0	6.510071852826623e+17
19265.0	6.509055440846847e+17
19266.0	6.507747895934976e+17
19267.0	6.506615882645501e+17
19268.0	6.505308456572244e+17
19269.0	6.50399883198464e+17
19270.0	6.502681078835882e+17
19271.0	6.501091834680662e+17
19272.0	6.500027619519145e+17
19273.0	6.498162153881597e+17
19274.0	6.496891685918036e+17
19275.0	6.496110923218943e+17
19276.0	6.494776285899434e+17
19277.0	6.493459503033001e+17
19278.0	6.492139508727807e+17
19279.0	6.490770113910099e+17
19280.0	6.48942013452561e+17
19281.0	6.488143596006058e+17
19282.0	6.486799806016169e+17
19283.0	6.484167283266899e+17
19284.0	6.482945745354751e+17
19285.0	6.48165520904465e+17
19286.0	6.480226947170301e+17
19287.0	6.478855890709162e+17
19288.0	6.466216639419724e+17
19289.0	6.448495849024124e+17
19290.0	6.474803558307156e+17
19291.0	6.473314899853312e+17
19292.0	6.472212217331711e+17
19293.0	6.470860342121811e+17
19294.0	6.469503077231274e+17
19295.0	6.468156161086804e+17
19296.0	6.466745952195924e+17
19297.0	6.465387574416723e+17
19298.0	6.464037783775914e+17
19299.0	6.462634857594879e+17
19300.0	6.461311505749332e+17
19301.0	6.459933376293546e+17
19302.0	6.458544698163199e+17
19303.0	6.456877037999443e+17
19304.0	6.45445312455202e+17
19305.0	6.453068672182953e+17
19306.0	6.451655094566911e+17
19307.0	6.450196905634473e+17
19308.0	6.448787677511679e+17
19309.0	6.446380045653331e+17
19310.0	6.444551929593853e+17
19311.0	6.444416489226237e+17
19312.0	6.443184039133183e+17
19313.0	6.441728956082857e+17
19314.0	6.402090022731763e+17
19315.0	6.403795549771151e+17
19316.0	6.437212256905898e+17
19317.0	6.434948379923795e+17
19318.0	6.432905158983679e+17
19319.0	6.431476837690025e+17
19320.0	6.429997489192959e+17
19321.0	6.428504840557907e+17
19322.0	6.426908202543785e+17
19323.0	6.425164914884608e+17
19324.0	6.423998880896339e+17
19325.0	6.421731577167871e+17
19326.0	6.421043978349225e+17
19327.0	6.418040448439635e+17
19328.0	6.415905254801408e+17
19329.0	6.414481076082004e+17
19330.0	6.412927289174698e+17
19331.0	6.411387330188628e+17
19332.0	6.40987630211345e+17
19333.0	6.408315298906111e+17
19334.0	6.406557838693719e+17
19335.0	6.402402280975018e+17
19336.0	6.400553955360767e+17
19337.0	6.398930514345983e+17
19338.0	6.397156908160339e+17
19339.0	6.395720664525482e+17
19340.0	6.393991060783104e+17
19341.0	6.390796734780755e+17
19342.0	6.388868950174378e+17
19343.0	6.387597915280723e+17
19344.0	6.38587297210914e+17
19345.0	6.382585472439633e+17
19346.0	6.381879082440019e+17
19347.0	6.380760785223679e+17
19348.0	6.379197096962729e+17
19349.0	6.377429178253311e+17
19350.0	6.375676601608874e+17
19351.0	6.373960311985491e+17
19352.0	6.372083744025257e+17
19353.0	6.37046367453184e+17
19354.0	6.368493076567378e+17
19355.0	6.365966362127018e+17
19356.0	6.364224705353044e+17
19357.0	6.362387823198205e+17
19358.0	6.360513993419433e+17
19359.0	6.35860007658018e+17
19360.0	6.356672880574463e+17
19361.0	6.354821550440447e+17
19362.0	6.352928324801876e+17
19363.0	6.350991293852329e+17
19364.0	6.349038482533034e+17
19365.0	6.346177432431274e+17
19366.0	6.343784288397994e+17
19367.0	6.341751763632128e+17
19368.0	6.339706909010602e+17
19369.0	6.337563364513108e+17
19370.0	6.335440739106815e+17
19371.0	6.33333758296064e+17
19372.0	6.330203968110591e+17
19373.0	6.327157029950804e+17
19374.0	6.324941666385919e+17
19375.0	6.322664979999401e+17
19376.0	6.320373140990634e+17
19377.0	6.317043394893139e+17
19378.0	6.313141807874045e+17
19379.0	6.310713467338751e+17
19380.0	6.308242356087466e+17
19381.0	6.304298419180886e+17
19382.0	6.299777218117631e+17
19383.0	6.297088281280511e+17
19384.0	6.293039232319482e+17
19385.0	6.287528798366377e+17
19386.0	6.284651639341055e+17
19387.0	6.278121950369108e+17
19388.0	6.273548139451731e+17
19389.0	6.268162304988502e+17
19390.0	6.260883763582292e+17
19391.0	6.222510961983443e+17
19392.0	6.246052896178172e+17
19393.0	6.242049382678527e+17
19394.0	6.235334980053674e+17
19395.0	6.231407813372586e+17
19396.0	6.22736528445713e+17
19397.0	6.223280328059561e+17
19398.0	6.218964533247999e+17
19399.0	6.214092076701011e+17
19400.0	6.210132395076265e+17
19401.0	6.205659763354282e+17
19402.0	6.201016096303785e+17
19403.0	6.196240325454506e+17
19404.0	6.191241614065663e+17
19405.0	6.186271472178516e+17
19406.0	6.181233462957398e+17
19407.0	6.17603932426513e+17
19408.0	6.170199050944512e+17
19409.0	6.165326693662719e+17
19410.0	6.159809881571327e+17
19411.0	6.154153820684287e+17
19412.0	6.148133529234089e+17
19413.0	6.141946122032468e+17
19414.0	6.135864683921405e+17
19415.0	6.129596825075712e+17
19416.0	6.122614259624618e+17
19417.0	6.115191661352275e+17
19418.0	6.108911528574975e+17
19419.0	6.101386429202432e+17
19420.0	6.093476953325567e+17
19421.0	6.085954501257898e+17
19422.0	6.07635759047202e+17
19423.0	6.066928198090751e+17
19424.0	6.0564630901446e+17
19425.0	6.043866063612586e+17
19426.0	6.029680303931392e+17
19427.0	6.013400144412678e+17
19428.0	5.992889001705478e+17
19429.0	5.969352165687299e+17
19430.0	5.940323313603936e+17
19431.0	5.913326458503176e+17
19432.0	5.902414629218985e+17
19433.0	5.885137648615423e+17
19434.0	5.866979162324992e+17
19435.0	5.846852626808831e+17
19436.0	5.824505853946536e+17
19437.0	5.80459034644753e+17
19438.0	5.7320959562656474e+17
19439.0	5.74967939229287e+17
19440.0	5.717341681745923e+17
19441.0	5.678977567948797e+17
19442.0	5.6309652742908544e+17
19443.0	5.573283767735631e+17
19444.0	5.506346122215418e+17
19445.0	5.43691402903552e+17
19446.0	5.3579049480137376e+17
19447.0	5.256266844034384e+17
19448.0	5.1191933053173824e+17
19449.0	4.92095265640721e+17
19450.0	4.5865739132163546e+17
19451.0	4.4019208645072205e+17
19452.0	4.777335528095749e+17
19453.0	5.0302242685364986e+17
19454.0	5.189851037739683e+17
19455.0	5.304807655647915e+17
19456.0	5.391391925119661e+17
19457.0	5.461137732665342e+17
19458.0	5.4593526243001504e+17
19459.0	5.586933428256783e+17
19460.0	5.6390500490062496e+17
19461.0	5.679767695829668e+17
19462.0	5.713416185096874e+17
19463.0	5.742172685642406e+17
19464.0	5.766466530618028e+17
19465.0	5.787619376671404e+17
19466.0	5.806827890191016e+17
19467.0	5.824511142264831e+17
19468.0	5.841056628561238e+17
19469.0	5.856273360049491e+17
19470.0	5.871172266054996e+17
19471.0	5.886976344806743e+17
19472.0	5.910819255265952e+17
19473.0	5.936240377462785e+17
19474.0	5.954803019896142e+17
19475.0	5.969714865329498e+17
19476.0	5.983168212150952e+17
19477.0	5.993798555402237e+17
19478.0	6.002713474454866e+17
19479.0	6.01132525228305e+17
19480.0	6.017802248912892e+17
19481.0	6.024219373950292e+17
19482.0	6.029254136780118e+17
19483.0	6.035266159859028e+17
19484.0	6.039779298770941e+17
19485.0	6.044347139096573e+17
19486.0	6.049175162585088e+17
19487.0	6.053294834537812e+17
19488.0	6.057162895086931e+17
19489.0	6.060765030470995e+17
19490.0	6.063780489680211e+17
19491.0	6.068193348375892e+17
19492.0	6.071498529133908e+17
19493.0	6.07464427880448e+17
19494.0	6.077659673701033e+17
19495.0	6.080546343310676e+17
19496.0	6.082989554750803e+17
19497.0	6.085832383397887e+17
19498.0	6.084649862998701e+17
19499.0	6.03765151926405e+17
19500.0	6.093285577020756e+17
19501.0	6.095693365466452e+17
19502.0	6.097849293646506e+17
19503.0	6.099946204474025e+17
19504.0	6.101895622601386e+17
19505.0	6.103758426953044e+17
19506.0	6.105529682930345e+17
19507.0	6.107116288868351e+17
19508.0	6.1096291495226e+17
19509.0	6.113874452064937e+17
19510.0	6.116767548746408e+17
19511.0	6.052425289607799e+17
19512.0	6.116370292932581e+17
19513.0	6.115066662704443e+17
19514.0	6.120034485840539e+17
19515.0	6.13528467459277e+17
19516.0	6.137550229296467e+17
19517.0	6.138493535256573e+17
19518.0	6.1424085762048e+17
19519.0	6.142714347257855e+17
19520.0	6.143040419441321e+17
19521.0	6.146362103387476e+17
19522.0	6.146460148039679e+17
19523.0	6.14657324884514e+17
19524.0	6.146603024908288e+17
19525.0	6.148954272737961e+17
19526.0	6.148981139352233e+17
19527.0	6.148905767709353e+17
19528.0	6.148791185615529e+17
19529.0	6.148660291174399e+17
19530.0	6.149702563135487e+17
19531.0	6.150016926220287e+17
19532.0	6.149780008162644e+17
19533.0	6.14951804801297e+17
19534.0	6.149227233148928e+17
19535.0	6.148899481845759e+17
19536.0	6.148534058702164e+17
19537.0	6.148577494215338e+17
19538.0	6.148848015638528e+17
19539.0	6.148128124174337e+17
19540.0	6.148131014049791e+17
19541.0	6.147692429661523e+17
19542.0	6.147235836329983e+17
19543.0	6.146697416321705e+17
19544.0	6.14626249216273e+17
19545.0	6.145371553486163e+17
19546.0	6.144508135735295e+17
19547.0	6.144715929944063e+17
19548.0	6.144370208145407e+17
19549.0	6.144255433113599e+17
19550.0	6.143750341743956e+17
19551.0	6.143148803052884e+17
19552.0	6.142531084834132e+17
19553.0	6.141882987271508e+17
19554.0	6.141228388537684e+17
19555.0	6.140584606913875e+17
19556.0	6.139931750913364e+17
19557.0	6.139252698688169e+17
19558.0	6.138561187282944e+17
19559.0	6.137858709170857e+17
19560.0	6.137095085796009e+17
19561.0	6.136394513296041e+17
19562.0	6.136883502033576e+17
19563.0	6.136405115098452e+17
19564.0	6.135650157854719e+17
19565.0	6.134885762028884e+17
19566.0	6.134086330482687e+17
19567.0	6.133329253018282e+17
19568.0	6.13365550415872e+17
19569.0	6.134515459511635e+17
19570.0	6.133750019304105e+17
19571.0	6.132927365993812e+17
19572.0	6.13207395934754e+17
19573.0	6.131241738130772e+17
19574.0	6.130337363001343e+17
19575.0	6.129575712347476e+17
19576.0	6.12949413872708e+17
19577.0	6.129747030092457e+17
19578.0	6.128875985698815e+17
19579.0	6.128006520460628e+17
19580.0	6.127125724310185e+17
19581.0	6.126247344777897e+17
19582.0	6.125367547570857e+17
19583.0	6.124468064397993e+17
19584.0	6.123544774355625e+17
19585.0	6.12255154639121e+17
19586.0	6.121585875703126e+17
19587.0	6.121782553608192e+17
19588.0	6.121000658447018e+17
19589.0	6.120438080645802e+17
19590.0	6.119432293537108e+17
19591.0	6.118583536975872e+17
19592.0	6.117650089028266e+17
19593.0	6.116679887093759e+17
19594.0	6.115525030925652e+17
19595.0	6.114776811831295e+17
19596.0	6.112664023465983e+17
19597.0	6.112858758709247e+17
19598.0	6.111608778522624e+17
19599.0	6.110944696467455e+17
19600.0	6.109982141448191e+17
19601.0	6.108947319270057e+17
19602.0	6.108794235562666e+17
19603.0	6.107365588511401e+17
19604.0	6.107067272833706e+17
19605.0	6.105943334278484e+17
19606.0	6.105212399910912e+17
19607.0	6.104228552507392e+17
19608.0	6.103217896510803e+17
19609.0	6.102189293087401e+17
19610.0	6.101202295062525e+17
19611.0	6.100263976828927e+17
19612.0	6.099357052960765e+17
19613.0	6.098339510616063e+17
19614.0	6.0973022983837e+17
19615.0	6.096314966911657e+17
19616.0	6.094947713286144e+17
19617.0	6.094239744830121e+17
19618.0	6.092785418851667e+17
19619.0	6.091628415199912e+17
19620.0	6.090649938602665e+17
19621.0	6.090140292917929e+17
19622.0	6.089181525355178e+17
19623.0	6.088148316585983e+17
19624.0	6.087107149124948e+17
19625.0	6.086251000102911e+17
19626.0	6.085857047303508e+17
19627.0	6.084772414270122e+17
19628.0	6.082982329363116e+17
19629.0	6.082264936306003e+17
19630.0	6.077962390601727e+17
19631.0	6.048259719386452e+17
19632.0	6.079133900952916e+17
19633.0	6.078409894876499e+17
19634.0	6.077516537484627e+17
19635.0	6.076529027055615e+17
19636.0	6.075583700839082e+17
19637.0	6.074231991304192e+17
19638.0	6.073568912386729e+17
19639.0	6.072520618104148e+17
19640.0	6.071410868180308e+17
19641.0	6.069712137311574e+17
19642.0	6.069371614352724e+17
19643.0	6.06830889795584e+17
19644.0	6.067222103457791e+17
19645.0	6.065994782998527e+17
19646.0	6.065093617210708e+17
19647.0	6.064113510427306e+17
19648.0	6.063058545803263e+17
19649.0	6.061998136972628e+17
19650.0	6.060941219201023e+17
19651.0	6.059875430476458e+17
19652.0	6.058818403652947e+17
19653.0	6.057741171468969e+17
19654.0	6.056688668901373e+17
19655.0	6.055623016491689e+17
19656.0	6.054564023937705e+17
19657.0	6.05350556406033e+17
19658.0	6.052437650920788e+17
19659.0	6.051373502169087e+17
19660.0	6.050308592151209e+17
19661.0	6.049241437481641e+17
19662.0	6.048172468076544e+17
19663.0	6.04704439673378e+17
19664.0	6.045903641116671e+17
19665.0	6.044966337205588e+17
