# Flux units: erg / (cm m2 s)
# Wavelength units: Angstrom
wave	flux
19000.0	5.837993691228841e+17
19001.0	5.836820076735146e+17
19002.0	5.835867934075561e+17
19003.0	5.834803688155818e+17
19004.0	5.83374039294498e+17
19005.0	5.832666962897578e+17
19006.0	5.831607271292927e+17
19007.0	5.830548050149376e+17
19008.0	5.82942778860066e+17
19009.0	5.828240795675305e+17
19010.0	5.826938748796927e+17
19011.0	5.826254100671145e+17
19012.0	5.825093457761619e+17
19013.0	5.82416788881408e+17
19014.0	5.823053853709652e+17
19015.0	5.822002005453482e+17
19016.0	5.82094690591266e+17
19017.0	5.819924981219328e+17
19018.0	5.818857122605737e+17
19019.0	5.817800030770515e+17
19020.0	5.816731646470825e+17
19021.0	5.815689841475583e+17
19022.0	5.814624376411476e+17
19023.0	5.813528831896234e+17
19024.0	5.812477294018559e+17
19025.0	5.811438978684244e+17
19026.0	5.810359468294141e+17
19027.0	5.809271024036521e+17
19028.0	5.808266163869011e+17
19029.0	5.807194164079273e+17
19030.0	5.806160879812607e+17
19031.0	5.805106196206932e+17
19032.0	5.804037689573375e+17
19033.0	5.80287982539025e+17
19034.0	5.801875526560426e+17
19035.0	5.800588928002729e+17
19036.0	5.795015983540905e+17
19037.0	5.798557562961919e+17
19038.0	5.797645078844756e+17
19039.0	5.796632556382889e+17
19040.0	5.795589300158463e+17
19041.0	5.794528087419561e+17
19042.0	5.793167392986452e+17
19043.0	5.792427476516863e+17
19044.0	5.791360029644116e+17
19045.0	5.790312962894505e+17
19046.0	5.789202518114303e+17
19047.0	5.788146697153193e+17
19048.0	5.786931914167636e+17
19049.0	5.785564318706345e+17
19050.0	5.784948668279465e+17
19051.0	5.783267658345129e+17
19052.0	5.782639898263551e+17
19053.0	5.781858829380265e+17
19054.0	5.780822734230868e+17
19055.0	5.77943729200606e+17
19056.0	5.778670225806676e+17
19057.0	5.777663306235901e+17
19058.0	5.776379675148287e+17
19059.0	5.775471217562963e+17
19060.0	5.774497444178601e+17
19061.0	5.773461592298836e+17
19062.0	5.772405272914601e+17
19063.0	5.771350461382655e+17
19064.0	5.770196174940841e+17
19065.0	5.769071104622591e+17
19066.0	5.768058330502484e+17
19067.0	5.767140190366377e+17
19068.0	5.766103865229312e+17
19069.0	5.765054107833684e+17
19070.0	5.7639750049901216e+17
19071.0	5.762947909419007e+17
19072.0	5.761820710491477e+17
19073.0	5.7608522869418656e+17
19074.0	5.7598063959954765e+17
19075.0	5.7587565120716794e+17
19076.0	5.7576930511858336e+17
19077.0	5.756636465463294e+17
19078.0	5.7555681713411405e+17
19079.0	5.754558786917716e+17
19080.0	5.753499669233662e+17
19081.0	5.752413164841641e+17
19082.0	5.751386460738901e+17
19083.0	5.7502621817460045e+17
19084.0	5.749088460297556e+17
19085.0	5.7482533820607136e+17
19086.0	5.7467091155244365e+17
19087.0	5.745917586046974e+17
19088.0	5.7449023764343443e+17
19089.0	5.7438549776356685e+17
19090.0	5.742992493117439e+17
19091.0	5.7419501903981216e+17
19092.0	5.740708777077418e+17
19093.0	5.739901119802026e+17
19094.0	5.7388605730979834e+17
19095.0	5.7378164996833274e+17
19096.0	5.736760201969662e+17
19097.0	5.735722954784767e+17
19098.0	5.7345893001243296e+17
19099.0	5.7335211185493325e+17
19100.0	5.7325716546519034e+17
19101.0	5.731536712237055e+17
19102.0	5.730396815753214e+17
19103.0	5.729458589794303e+17
19104.0	5.728420088512511e+17
19105.0	5.7271675267317754e+17
19106.0	5.726318465384447e+17
19107.0	5.7252137199643296e+17
19108.0	5.724139932702037e+17
19109.0	5.7230016650062496e+17
19110.0	5.722091279439188e+17
19111.0	5.72105281450803e+17
19112.0	5.720007013040126e+17
19113.0	5.7190350110501536e+17
19114.0	5.7179527995282765e+17
19115.0	5.716894580823381e+17
19116.0	5.715882602921983e+17
19117.0	5.7148252258740896e+17
19118.0	5.713580862559573e+17
19119.0	5.705182728596128e+17
19120.0	5.7116072817459194e+17
19121.0	5.710660924429653e+17
19122.0	5.7096683360965965e+17
19123.0	5.708633188160853e+17
19124.0	5.7075613470556154e+17
19125.0	5.7065373601628154e+17
19126.0	5.7054012343582714e+17
19127.0	5.702884742135807e+17
19128.0	5.703291488261462e+17
19129.0	5.702297846459049e+17
19130.0	5.70134995542562e+17
19131.0	5.7003305529070925e+17
19132.0	5.6992925989819725e+17
19133.0	5.69821203931682e+17
19134.0	5.6972168861668685e+17
19135.0	5.6961832251118925e+17
19136.0	5.695142419759103e+17
19137.0	5.6939854832162125e+17
19138.0	5.6930527133477536e+17
19139.0	5.692043210085717e+17
19140.0	5.6910122858141005e+17
19141.0	5.6899774566454605e+17
19142.0	5.688914072655189e+17
19143.0	5.6878589304722765e+17
19144.0	5.68682281574946e+17
19145.0	5.685836022546432e+17
19146.0	5.684122736044715e+17
19147.0	5.683694571705685e+17
19148.0	5.6826587610699085e+17
19149.0	5.6816071693653325e+17
19150.0	5.680664258368852e+17
19151.0	5.6796271726646605e+17
19152.0	5.6785919310561274e+17
19153.0	5.6773814598150816e+17
19154.0	5.6764180044185594e+17
19155.0	5.675484462099113e+17
19156.0	5.6744548974810445e+17
19157.0	5.6733432894805325e+17
19158.0	5.6721782977768096e+17
19159.0	5.6713230763950074e+17
19160.0	5.6703100939578016e+17
19161.0	5.669260123351722e+17
19162.0	5.667946941295273e+17
19163.0	5.667133597242708e+17
19164.0	5.666194828121429e+17
19165.0	5.6649929209501e+17
19166.0	5.664024262519466e+17
19167.0	5.663084978896894e+17
19168.0	5.6620833658197325e+17
19169.0	5.6610576907195725e+17
19170.0	5.660033436789417e+17
19171.0	5.658994773327871e+17
19172.0	5.6579721698563405e+17
19173.0	5.656948884111358e+17
19174.0	5.655871196146345e+17
19175.0	5.6548880037533e+17
19176.0	5.653862689363283e+17
19177.0	5.652674120078676e+17
19178.0	5.651794533984938e+17
19179.0	5.6507598096738976e+17
19180.0	5.649740201634474e+17
19181.0	5.6485999751987174e+17
19182.0	5.647672534193492e+17
19183.0	5.646676317088426e+17
19184.0	5.645648019849215e+17
19185.0	5.644613299033428e+17
19186.0	5.643595498039977e+17
19187.0	5.642503514488832e+17
19188.0	5.641539780171092e+17
19189.0	5.640517776485034e+17
19190.0	5.639488236333738e+17
19191.0	5.6384280001686176e+17
19192.0	5.63743306092817e+17
19193.0	5.6363747653277005e+17
19194.0	5.6353176049855136e+17
19195.0	5.6343224259706874e+17
19196.0	5.633248159858687e+17
19197.0	5.6321517499187194e+17
19198.0	5.6308193726300154e+17
19199.0	5.6276938136398496e+17
19200.0	5.6270023903150074e+17
19201.0	5.627795631068499e+17
19202.0	5.627049461590698e+17
19203.0	5.626093222494207e+17
19204.0	5.625093905798484e+17
19205.0	5.624091882378581e+17
19206.0	5.6230837429643936e+17
19207.0	5.6219245687603194e+17
19208.0	5.620852174706003e+17
19209.0	5.6200257486192634e+17
19210.0	5.619008376842922e+17
19211.0	5.6180031874225485e+17
19212.0	5.6169749558941005e+17
19213.0	5.6158474284127565e+17
19214.0	5.614831501574143e+17
19215.0	5.61389938811426e+17
19216.0	5.612886154717866e+17
19217.0	5.611811558653951e+17
19218.0	5.610190569209855e+17
19219.0	5.609598748721151e+17
19220.0	5.60876544397585e+17
19221.0	5.6075492824623776e+17
19222.0	5.6067164572658336e+17
19223.0	5.6057326923502925e+17
19224.0	5.604679457177599e+17
19225.0	5.6036093420284576e+17
19226.0	5.6026783449524896e+17
19227.0	5.601666576067241e+17
19228.0	5.6006766867688096e+17
19229.0	5.599657298231294e+17
19230.0	5.598632888412841e+17
19231.0	5.5976078033114445e+17
19232.0	5.5965954528160403e+17
19233.0	5.595515583812947e+17
19234.0	5.5945525681192954e+17
19235.0	5.593514783364437e+17
19236.0	5.592532575234729e+17
19237.0	5.591503424454655e+17
19238.0	5.590405414387711e+17
19239.0	5.589485313414484e+17
19240.0	5.5884688294324896e+17
19241.0	5.587431382319103e+17
19242.0	5.5864206137753594e+17
19243.0	5.585250105163774e+17
19244.0	5.5844071038866765e+17
19245.0	5.583383977525247e+17
19246.0	5.5823625246911136e+17
19247.0	5.5813476107769165e+17
19248.0	5.580344465380692e+17
19249.0	5.579322340758868e+17
19250.0	5.5782583891394554e+17
19251.0	5.577168041366868e+17
19252.0	5.575964720016041e+17
19253.0	5.575242367893503e+17
19254.0	5.5742546694198605e+17
19255.0	5.5730297977350816e+17
19256.0	5.572207279341567e+17
19257.0	5.57121175429666e+17
19258.0	5.570196476177066e+17
19259.0	5.569097891490474e+17
19260.0	5.568029937805994e+17
19261.0	5.5671336444013216e+17
19262.0	5.566064321276586e+17
19263.0	5.5649959313844896e+17
19264.0	5.563591437232809e+17
19265.0	5.56286694321903e+17
19266.0	5.5617960689008634e+17
19267.0	5.561065946131113e+17
19268.0	5.560048954638335e+17
19269.0	5.559037033360041e+17
19270.0	5.557991607981396e+17
19271.0	5.5567096637030394e+17
19272.0	5.5559591601111034e+17
19273.0	5.5547211693424634e+17
19274.0	5.553527234144936e+17
19275.0	5.55296630120994e+17
19276.0	5.551935039995902e+17
19277.0	5.550929113776126e+17
19278.0	5.549914383712255e+17
19279.0	5.548880483581951e+17
19280.0	5.5478258957462176e+17
19281.0	5.546864482276692e+17
19282.0	5.5458709844787194e+17
19283.0	5.5448392304339616e+17
19284.0	5.543796362881706e+17
19285.0	5.5427139954715296e+17
19286.0	5.5417529741694285e+17
19287.0	5.5407468312439456e+17
19288.0	5.5381208627937254e+17
19289.0	5.5356761693661824e+17
19290.0	5.537700486578175e+17
19291.0	5.536479620453718e+17
19292.0	5.535749394224468e+17
19293.0	5.534739681946281e+17
19294.0	5.533721511854079e+17
19295.0	5.532722992775167e+17
19296.0	5.5316027074587296e+17
19297.0	5.5306600718882125e+17
19298.0	5.5296520590021965e+17
19299.0	5.528557929365503e+17
19300.0	5.527649989077673e+17
19301.0	5.526642249520468e+17
19302.0	5.525614302505641e+17
19303.0	5.524539595292671e+17
19304.0	5.523579235991551e+17
19305.0	5.5225674300566176e+17
19306.0	5.5215602022045e+17
19307.0	5.5204992467162445e+17
19308.0	5.5194949800427514e+17
19309.0	5.5184206454237856e+17
19310.0	5.5173583246895776e+17
19311.0	5.516414133032276e+17
19312.0	5.5154265261342714e+17
19313.0	5.514359488206164e+17
19314.0	5.5035109425807296e+17
19315.0	5.5033704865245997e+17
19316.0	5.511165490058581e+17
19317.0	5.51034591257122e+17
19318.0	5.5093470369764685e+17
19319.0	5.5083576810536954e+17
19320.0	5.5073013057454074e+17
19321.0	5.5062284719882234e+17
19322.0	5.5052433816726176e+17
19323.0	5.504248638166357e+17
19324.0	5.5032437863874554e+17
19325.0	5.5021980939714554e+17
19326.0	5.5012147771473914e+17
19327.0	5.500197404671999e+17
19328.0	5.4990062321227085e+17
19329.0	5.498172861666645e+17
19330.0	5.497123507623251e+17
19331.0	5.496072867326634e+17
19332.0	5.4951059250653856e+17
19333.0	5.494069938268841e+17
19334.0	5.4930539799729485e+17
19335.0	5.4916600198157645e+17
19336.0	5.49099931836962e+17
19337.0	5.4899704339278496e+17
19338.0	5.4887217749469856e+17
19339.0	5.487907457116842e+17
19340.0	5.486700396543999e+17
19341.0	5.4856073909807776e+17
19342.0	5.484461874828628e+17
19343.0	5.4837390291763194e+17
19344.0	5.482518788702207e+17
19345.0	5.47983248798515e+17
19346.0	5.4795091567793485e+17
19347.0	5.479347398552234e+17
19348.0	5.478559355240447e+17
19349.0	5.4774931813389645e+17
19350.0	5.476397376077824e+17
19351.0	5.475404939438762e+17
19352.0	5.4741475807723514e+17
19353.0	5.473358112096255e+17
19354.0	5.4723129838141434e+17
19355.0	5.4711550182686726e+17
19356.0	5.4702046735674003e+17
19357.0	5.469149561443668e+17
19358.0	5.468087274263892e+17
19359.0	5.4669522075211085e+17
19360.0	5.465774184813908e+17
19361.0	5.464867407746388e+17
19362.0	5.463828258444628e+17
19363.0	5.4627575973369165e+17
19364.0	5.461651312607231e+17
19365.0	5.460568485920767e+17
19366.0	5.459485829103615e+17
19367.0	5.4583991814062074e+17
19368.0	5.457297790031189e+17
19369.0	5.4561627729210016e+17
19370.0	5.4550758861482656e+17
19371.0	5.453941627508052e+17
19372.0	5.452894646042623e+17
19373.0	5.451727793466026e+17
19374.0	5.450606183448575e+17
19375.0	5.449485737350485e+17
19376.0	5.4483590641090554e+17
19377.0	5.447212068066644e+17
19378.0	5.4460714347834016e+17
19379.0	5.4449252125900794e+17
19380.0	5.443716031097513e+17
19381.0	5.4425240672228685e+17
19382.0	5.441268328256852e+17
19383.0	5.4400826593334605e+17
19384.0	5.43895891930863e+17
19385.0	5.4377380755537914e+17
19386.0	5.436461518159871e+17
19387.0	5.435234424193024e+17
19388.0	5.433990854301013e+17
19389.0	5.4326885040346445e+17
19390.0	5.431272142099796e+17
19391.0	5.425836721176571e+17
19392.0	5.4283316246173e+17
19393.0	5.4274574806330016e+17
19394.0	5.4261542188045645e+17
19395.0	5.4247625347563514e+17
19396.0	5.423445335255721e+17
19397.0	5.4220747164002976e+17
19398.0	5.420559438796117e+17
19399.0	5.418469470240767e+17
19400.0	5.417486290430634e+17
19401.0	5.416202890728789e+17
19402.0	5.414702104444926e+17
19403.0	5.4131195893514234e+17
19404.0	5.4115353371170125e+17
19405.0	5.409790440942251e+17
19406.0	5.408089706594302e+17
19407.0	5.4062659358337696e+17
19408.0	5.4038561956386125e+17
19409.0	5.402512256750932e+17
19410.0	5.4006961049436154e+17
19411.0	5.3987560554932896e+17
19412.0	5.396629539170985e+17
19413.0	5.394404667817983e+17
19414.0	5.392276017993045e+17
19415.0	5.3897673551380474e+17
19416.0	5.387198901780479e+17
19417.0	5.384588283084798e+17
19418.0	5.3819023682437114e+17
19419.0	5.3788762631918925e+17
19420.0	5.37581822480657e+17
19421.0	5.3723128191604045e+17
19422.0	5.368792354564778e+17
19423.0	5.36522484036403e+17
19424.0	5.361710640660479e+17
19425.0	5.357851184726015e+17
19426.0	5.35373002309632e+17
19427.0	5.3493017286628685e+17
19428.0	5.344237984590505e+17
19429.0	5.3390773059584e+17
19430.0	5.332758141687126e+17
19431.0	5.326046078085802e+17
19432.0	5.319643111620606e+17
19433.0	5.3120224114769914e+17
19434.0	5.303785201074175e+17
19435.0	5.294096967008255e+17
19436.0	5.283168937923926e+17
19437.0	5.271715416375294e+17
19438.0	5.2503196327389875e+17
19439.0	5.242439594584746e+17
19440.0	5.227442190942207e+17
19441.0	5.208438413284691e+17
19442.0	5.186814212046849e+17
19443.0	5.160359700026708e+17
19444.0	5.129427240004265e+17
19445.0	5.0912171941778797e+17
19446.0	5.0435800446621005e+17
19447.0	4.9806561061983546e+17
19448.0	4.8941245318649216e+17
19449.0	4.76111385604915e+17
19450.0	4.495166463978149e+17
19451.0	4.2869982071794694e+17
19452.0	4.657672616585908e+17
19453.0	4.834531845253808e+17
19454.0	4.937435140063226e+17
19455.0	5.008029554573311e+17
19456.0	5.060441724157954e+17
19457.0	5.100802563637246e+17
19458.0	5.102629631819823e+17
19459.0	5.158272487129094e+17
19460.0	5.181492810481662e+17
19461.0	5.200139514456745e+17
19462.0	5.2156326680548704e+17
19463.0	5.229031029648043e+17
19464.0	5.241037211566078e+17
19465.0	5.251882405942613e+17
19466.0	5.261046451273726e+17
19467.0	5.269057478240939e+17
19468.0	5.275873013224789e+17
19469.0	5.2817239645443405e+17
19470.0	5.287242190815232e+17
19471.0	5.292060643601065e+17
19472.0	5.296193297623722e+17
19473.0	5.299797342814207e+17
19474.0	5.3027945896564045e+17
19475.0	5.304902576941738e+17
19476.0	5.30790907851571e+17
19477.0	5.3101017236329805e+17
19478.0	5.311820270490966e+17
19479.0	5.313262826553343e+17
19480.0	5.3149653959092896e+17
19481.0	5.3165410987540474e+17
19482.0	5.317773855031296e+17
19483.0	5.319033362579455e+17
19484.0	5.3198030830742176e+17
19485.0	5.3206386988810234e+17
19486.0	5.321086679209301e+17
19487.0	5.321768340990635e+17
19488.0	5.322134723231743e+17
19489.0	5.321977184474452e+17
19490.0	5.321309432403283e+17
19491.0	5.3225556181428896e+17
19492.0	5.322612313948159e+17
19493.0	5.3226103754806605e+17
19494.0	5.3225224027504634e+17
19495.0	5.3223170377427616e+17
19496.0	5.3216640726903443e+17
19497.0	5.321720338579455e+17
19498.0	5.3202740978210125e+17
19499.0	5.314402557362174e+17
19500.0	5.3206553705403725e+17
19501.0	5.3203615294859936e+17
19502.0	5.3199201691675296e+17
19503.0	5.319446903477588e+17
19504.0	5.318973967040511e+17
19505.0	5.318425460430164e+17
19506.0	5.3178685218706765e+17
19507.0	5.317253288777044e+17
19508.0	5.3166584455932576e+17
19509.0	5.31598736953617e+17
19510.0	5.3149776789285536e+17
19511.0	5.2989643155920083e+17
19512.0	5.312391828297044e+17
19513.0	5.3110644002870586e+17
19514.0	5.3110104517509094e+17
19515.0	5.311623563225771e+17
19516.0	5.3112864551294285e+17
19517.0	5.310634623238143e+17
19518.0	5.309954732851199e+17
19519.0	5.3091999930122234e+17
19520.0	5.30832699826722e+17
19521.0	5.30772473745681e+17
19522.0	5.3068972152586234e+17
19523.0	5.306196805637462e+17
19524.0	5.305337751360853e+17
19525.0	5.3046332110493e+17
19526.0	5.3038401394660685e+17
19527.0	5.3030212162901325e+17
19528.0	5.302189718590805e+17
19529.0	5.3013586689829536e+17
19530.0	5.3006053496149325e+17
19531.0	5.299779246489599e+17
19532.0	5.2989426527109114e+17
19533.0	5.2981017073418234e+17
19534.0	5.297253960908798e+17
19535.0	5.2963833450332154e+17
19536.0	5.295508100743167e+17
19537.0	5.2946846414274554e+17
19538.0	5.2935177175476915e+17
19539.0	5.292503446760106e+17
19540.0	5.2920961924246176e+17
19541.0	5.291238627125929e+17
19542.0	5.290380982834517e+17
19543.0	5.289381053071359e+17
19544.0	5.2886101623657805e+17
19545.0	5.28720637076002e+17
19546.0	5.2860991667787085e+17
19547.0	5.2860075624802976e+17
19548.0	5.285153110753279e+17
19549.0	5.284164172862803e+17
19550.0	5.2833865761641805e+17
19551.0	5.282499137634304e+17
19552.0	5.2816057410955936e+17
19553.0	5.280688026681343e+17
19554.0	5.2797838752481274e+17
19555.0	5.278891010686975e+17
19556.0	5.278016510186837e+17
19557.0	5.277125609958058e+17
19558.0	5.276238809661438e+17
19559.0	5.2753436682922656e+17
19560.0	5.274365172121598e+17
19561.0	5.273509189473621e+17
19562.0	5.2725781231916365e+17
19563.0	5.271730630514004e+17
19564.0	5.2708240946189645e+17
19565.0	5.269916139651072e+17
19566.0	5.268980686127102e+17
19567.0	5.268095394381824e+17
19568.0	5.2671631718700365e+17
19569.0	5.266256124269908e+17
19570.0	5.2653659839092045e+17
19571.0	5.264451194322943e+17
19572.0	5.263502725873664e+17
19573.0	5.2626001284300794e+17
19574.0	5.26160739119923e+17
19575.0	5.2608026853157536e+17
19576.0	5.2598731863053645e+17
19577.0	5.2589212890125645e+17
19578.0	5.258020093165566e+17
19579.0	5.257106975009449e+17
19580.0	5.2561924881121274e+17
19581.0	5.255292470165503e+17
19582.0	5.2543892058275834e+17
19583.0	5.253471515181055e+17
19584.0	5.252551680546133e+17
19585.0	5.251506994064041e+17
19586.0	5.2505574539700896e+17
19587.0	5.2497542160930125e+17
19588.0	5.2484520175206394e+17
19589.0	5.2478969615045965e+17
19590.0	5.246908779986943e+17
19591.0	5.2461040887835296e+17
19592.0	5.245193287281322e+17
19593.0	5.2442411516122445e+17
19594.0	5.243066401161215e+17
19595.0	5.242407972328788e+17
19596.0	5.2414720888886605e+17
19597.0	5.240568608544085e+17
19598.0	5.239175369807188e+17
19599.0	5.2387261948013216e+17
19600.0	5.2378227305349114e+17
19601.0	5.2368318276130125e+17
19602.0	5.2358708286805325e+17
19603.0	5.234684559971668e+17
19604.0	5.2340530362013005e+17
19605.0	5.232914377037141e+17
19606.0	5.232281118922068e+17
19607.0	5.2313741698880845e+17
19608.0	5.2304361536443725e+17
19609.0	5.2294819075413325e+17
19610.0	5.2285418899155616e+17
19611.0	5.227590052741119e+17
19612.0	5.2267749163226445e+17
19613.0	5.225840715497471e+17
19614.0	5.2248855040054605e+17
19615.0	5.223998475119274e+17
19616.0	5.2229731376605856e+17
19617.0	5.222017033480873e+17
19618.0	5.2205883633609376e+17
19619.0	5.2194953410205e+17
19620.0	5.218723714913621e+17
19621.0	5.218288677508436e+17
19622.0	5.2175366667632634e+17
19623.0	5.216612433002494e+17
19624.0	5.2156666321305594e+17
19625.0	5.214774551205204e+17
19626.0	5.213841883398142e+17
19627.0	5.212904994024107e+17
19628.0	5.2119094326285645e+17
19629.0	5.210544089508521e+17
19630.0	5.2092993766686694e+17
19631.0	5.206825208468821e+17
19632.0	5.208090109192874e+17
19633.0	5.2072976387932154e+17
19634.0	5.2064569457814176e+17
19635.0	5.20549634810402e+17
19636.0	5.204476531048447e+17
19637.0	5.2032090843818675e+17
19638.0	5.202775521973588e+17
19639.0	5.201860356997119e+17
19640.0	5.200763951251456e+17
19641.0	5.198861159803565e+17
19642.0	5.1990804617844045e+17
19643.0	5.198163394691071e+17
19644.0	5.1971760485389645e+17
19645.0	5.1961088281586336e+17
19646.0	5.195262254033577e+17
19647.0	5.1945118504058874e+17
19648.0	5.1935919423706445e+17
19649.0	5.192670546755583e+17
19650.0	5.1917579298187936e+17
19651.0	5.190831419250004e+17
19652.0	5.1899104954941434e+17
19653.0	5.188997819138047e+17
19654.0	5.1880709492572154e+17
19655.0	5.187148126180691e+17
19656.0	5.1862351198726816e+17
