# Flux units: erg / (cm m2 s)
# Wavelength units: Angstrom
wave	flux
19000.0	7.694266472770217e+17
19001.0	7.69282187338274e+17
19002.0	7.691462967820287e+17
19003.0	7.690058700860076e+17
19004.0	7.688653937573889e+17
19005.0	7.687249982390271e+17
19006.0	7.68584386294579e+17
19007.0	7.684347449922899e+17
19008.0	7.683002637221887e+17
19009.0	7.681583258184361e+17
19010.0	7.680023041409024e+17
19011.0	7.678777952479912e+17
19012.0	7.677175626290515e+17
19013.0	7.675978901880832e+17
19014.0	7.674533918015487e+17
19015.0	7.67313289884467e+17
19016.0	7.671715084282536e+17
19017.0	7.670311169643859e+17
19018.0	7.668890427457533e+17
19019.0	7.667491664822272e+17
19020.0	7.666060362776575e+17
19021.0	7.664656013328383e+17
19022.0	7.663243283660799e+17
19023.0	7.661814250733567e+17
19024.0	7.660394025844735e+17
19025.0	7.658971828234921e+17
19026.0	7.657534189993983e+17
19027.0	7.655946701854036e+17
19028.0	7.654723855319039e+17
19029.0	7.653302305030143e+17
19030.0	7.65188026400768e+17
19031.0	7.650457291849728e+17
19032.0	7.649033714313897e+17
19033.0	7.64756998890018e+17
19034.0	7.646182631975593e+17
19035.0	7.644720415113215e+17
19036.0	7.630605325260114e+17
19037.0	7.641893023602004e+17
19038.0	7.640469796989609e+17
19039.0	7.639056515071999e+17
19040.0	7.637630002921471e+17
19041.0	7.636202421223421e+17
19042.0	7.634739632537597e+17
19043.0	7.633347421405181e+17
19044.0	7.63191661428736e+17
19045.0	7.630482070044671e+17
19046.0	7.629038533214208e+17
19047.0	7.627622643837609e+17
19048.0	7.62611505439266e+17
19049.0	7.624739407964842e+17
19050.0	7.623316242868905e+17
19051.0	7.619929241725606e+17
19052.0	7.620099649306624e+17
19053.0	7.619018153612627e+17
19054.0	7.617609460263593e+17
19055.0	7.616066008121343e+17
19056.0	7.614735390343168e+17
19057.0	7.613309519921151e+17
19058.0	7.611856366949715e+17
19059.0	7.610443208065021e+17
19060.0	7.608999497869993e+17
19061.0	7.607575042326527e+17
19062.0	7.606138111524863e+17
19063.0	7.604703659556863e+17
19064.0	7.603219117812396e+17
19065.0	7.601754280908115e+17
19066.0	7.600369945280511e+17
19067.0	7.598960187976361e+17
19068.0	7.597524367267156e+17
19069.0	7.596087950966784e+17
19070.0	7.594646488918697e+17
19071.0	7.593207131013117e+17
19072.0	7.59177356124706e+17
19073.0	7.590335672745983e+17
19074.0	7.588899931728552e+17
19075.0	7.587461489579348e+17
19076.0	7.586014012899327e+17
19077.0	7.584578647971156e+17
19078.0	7.583133338348202e+17
19079.0	7.581705489612799e+17
19080.0	7.580262488255144e+17
19081.0	7.5788083803805e+17
19082.0	7.577366682053289e+17
19083.0	7.575899612381183e+17
19084.0	7.57439532245538e+17
19085.0	7.573060940988415e+17
19086.0	7.57143011729954e+17
19087.0	7.569806235183785e+17
19088.0	7.56865797595682e+17
19089.0	7.567017994704211e+17
19090.0	7.565829773546836e+17
19091.0	7.564394587575636e+17
19092.0	7.562859869372412e+17
19093.0	7.561526729419432e+17
19094.0	7.560075999357609e+17
19095.0	7.558631269946706e+17
19096.0	7.557194765565951e+17
19097.0	7.555758698790913e+17
19098.0	7.554317414301693e+17
19099.0	7.552873739059199e+17
19100.0	7.551409977294847e+17
19101.0	7.54998531203618e+17
19102.0	7.548504824785577e+17
19103.0	7.547097983920808e+17
19104.0	7.545652946927616e+17
19105.0	7.54420539335202e+17
19106.0	7.542693275456851e+17
19107.0	7.541306392488617e+17
19108.0	7.539862588620797e+17
19109.0	7.537218745445032e+17
19110.0	7.536914493429076e+17
19111.0	7.535532473057279e+17
19112.0	7.534089435348991e+17
19113.0	7.532643992906409e+17
19114.0	7.531197686437203e+17
19115.0	7.529714105188352e+17
19116.0	7.528293276319743e+17
19117.0	7.52684353191936e+17
19118.0	7.525310674589012e+17
19119.0	7.522758570628435e+17
19120.0	7.522403690566995e+17
19121.0	7.520984475107327e+17
19122.0	7.519618950933161e+17
19123.0	7.518169792337238e+17
19124.0	7.516649566852436e+17
19125.0	7.5152622630557e+17
19126.0	7.513818420041044e+17
19127.0	7.511653647471958e+17
19128.0	7.510389000503293e+17
19129.0	7.509439115078313e+17
19130.0	7.508022446959272e+17
19131.0	7.506565335962964e+17
19132.0	7.505124175904765e+17
19133.0	7.503514246840319e+17
19134.0	7.501987879496362e+17
19135.0	7.500770162595156e+17
19136.0	7.499322856483497e+17
19137.0	7.497802424079699e+17
19138.0	7.496394982031356e+17
19139.0	7.49496567088196e+17
19140.0	7.49351596982272e+17
19141.0	7.492063827678547e+17
19142.0	7.490600509112319e+17
19143.0	7.489136724978344e+17
19144.0	7.487700350621012e+17
19145.0	7.486247080209066e+17
19146.0	7.484532718567424e+17
19147.0	7.483303038113108e+17
19148.0	7.481880938370387e+17
19149.0	7.48042803146479e+17
19150.0	7.478974302475603e+17
19151.0	7.477522562984617e+17
19152.0	7.476051031971155e+17
19153.0	7.474602171170815e+17
19154.0	7.473099476478633e+17
19155.0	7.471695282219688e+17
19156.0	7.470231839222441e+17
19157.0	7.468726376289619e+17
19158.0	7.466514807870803e+17
19159.0	7.465773661771092e+17
19160.0	7.46432480796126e+17
19161.0	7.462824804614143e+17
19162.0	7.459565823415638e+17
19163.0	7.459875972623017e+17
19164.0	7.458506203813203e+17
19165.0	7.45701797527552e+17
19166.0	7.45550556377907e+17
19167.0	7.453951434336938e+17
19168.0	7.452641920898387e+17
19169.0	7.451167255341736e+17
19170.0	7.44974158345011e+17
19171.0	7.448353861621076e+17
19172.0	7.446972257883475e+17
19173.0	7.445518879817724e+17
19174.0	7.444038461074089e+17
19175.0	7.442597252082345e+17
19176.0	7.441130990512809e+17
19177.0	7.439597074819752e+17
19178.0	7.438141363322879e+17
19179.0	7.436592651523412e+17
19180.0	7.435222638045866e+17
19181.0	7.43374850236962e+17
19182.0	7.432313123460436e+17
19183.0	7.430851353990484e+17
19184.0	7.429362724197715e+17
19185.0	7.42791369143091e+17
19186.0	7.426444903492266e+17
19187.0	7.424944540833108e+17
19188.0	7.423494230201683e+17
19189.0	7.422002479846739e+17
19190.0	7.420519571084628e+17
19191.0	7.419057015881727e+17
19192.0	7.417598298466985e+17
19193.0	7.416099503079423e+17
19194.0	7.414634041223849e+17
19195.0	7.413160228509011e+17
19196.0	7.411669181399039e+17
19197.0	7.410160609088851e+17
19198.0	7.408549519600297e+17
19199.0	7.396146815871654e+17
19200.0	7.39775682043358e+17
19201.0	7.404131336235689e+17
19202.0	7.40276779736542e+17
19203.0	7.401288206297769e+17
19204.0	7.399832451459752e+17
19205.0	7.398364192003412e+17
19206.0	7.39687696171008e+17
19207.0	7.395369208687274e+17
19208.0	7.393832556909906e+17
19209.0	7.392426658365439e+17
19210.0	7.390938329164457e+17
19211.0	7.389448192218454e+17
19212.0	7.387956179020457e+17
19213.0	7.386348608552957e+17
19214.0	7.384797357801471e+17
19215.0	7.383431156946258e+17
19216.0	7.381982357662377e+17
19217.0	7.38048953496371e+17
19218.0	7.378648390696957e+17
19219.0	7.377423960113152e+17
19220.0	7.375983135599274e+17
19221.0	7.374357280762536e+17
19222.0	7.372991154006697e+17
19223.0	7.371491433076051e+17
19224.0	7.369972594507773e+17
19225.0	7.368421984086697e+17
19226.0	7.36697697645363e+17
19227.0	7.365459273143636e+17
19228.0	7.363960175766186e+17
19229.0	7.36244955803375e+17
19230.0	7.36091515719953e+17
19231.0	7.359410191990783e+17
19232.0	7.357902517261651e+17
19233.0	7.356360942769492e+17
19234.0	7.354864649983316e+17
19235.0	7.353345110966271e+17
19236.0	7.351833826339498e+17
19237.0	7.350197622756692e+17
19238.0	7.348183751458815e+17
19239.0	7.346713207504896e+17
19240.0	7.345152217579517e+17
19241.0	7.343634431781545e+17
19242.0	7.342116508969641e+17
19243.0	7.340515379554986e+17
19244.0	7.339057368181417e+17
19245.0	7.337521109270528e+17
19246.0	7.3359763191453e+17
19247.0	7.334442228689577e+17
19248.0	7.332900919836671e+17
19249.0	7.331356150682963e+17
19250.0	7.329807707318953e+17
19251.0	7.328205358759935e+17
19252.0	7.326586765661523e+17
19253.0	7.325154215111336e+17
19254.0	7.32359825555456e+17
19255.0	7.321965200495956e+17
19256.0	7.320453476865364e+17
19257.0	7.318922030219263e+17
19258.0	7.3173587488058e+17
19259.0	7.315759762680489e+17
19260.0	7.314013686508202e+17
19261.0	7.312648650271402e+17
19262.0	7.31105207726899e+17
19263.0	7.309469490872319e+17
19264.0	7.307698399870975e+17
19265.0	7.306252721149267e+17
19266.0	7.304682052168361e+17
19267.0	7.303154660016125e+17
19268.0	7.30156177240883e+17
19269.0	7.299965743267839e+17
19270.0	7.298365171695616e+17
19271.0	7.296628364935168e+17
19272.0	7.295141356939944e+17
19273.0	7.292567592195411e+17
19274.0	7.29132452492083e+17
19275.0	7.290318272244394e+17
19276.0	7.288690880894292e+17
19277.0	7.28707619688721e+17
19278.0	7.285448643357356e+17
19279.0	7.283801225603753e+17
19280.0	7.28214923326259e+17
19281.0	7.280538911331667e+17
19282.0	7.278889628510889e+17
19283.0	7.277092911710207e+17
19284.0	7.275390137532415e+17
19285.0	7.273861548605437e+17
19286.0	7.272262872858623e+17
19287.0	7.270610072414889e+17
19288.0	7.265358877906257e+17
19289.0	7.25924124784502e+17
19290.0	7.265590747419986e+17
19291.0	7.263797714616319e+17
19292.0	7.262225328766975e+17
19293.0	7.260529066945193e+17
19294.0	7.258833803367764e+17
19295.0	7.257129789074089e+17
19296.0	7.255419813276329e+17
19297.0	7.253703109814953e+17
19298.0	7.251975006235305e+17
19299.0	7.250255379344042e+17
19300.0	7.248520795564713e+17
19301.0	7.246778453721087e+17
19302.0	7.245027288459945e+17
19303.0	7.243248105248084e+17
19304.0	7.241502663813802e+17
19305.0	7.239001580765183e+17
19306.0	7.237115512706387e+17
19307.0	7.235300196963667e+17
19308.0	7.233515473076223e+17
19309.0	7.231368751393449e+17
19310.0	7.229416458070697e+17
19311.0	7.22805878563362e+17
19312.0	7.226306068479999e+17
19313.0	7.224467103853225e+17
19314.0	7.21584093187277e+17
19315.0	7.214341142435163e+17
19316.0	7.21888789659648e+17
19317.0	7.217066652904105e+17
19318.0	7.21519397446178e+17
19319.0	7.213310002156884e+17
19320.0	7.211412601088681e+17
19321.0	7.209503363694591e+17
19322.0	7.207512758201002e+17
19323.0	7.205483806982143e+17
19324.0	7.203688986006867e+17
19325.0	7.201438076414634e+17
19326.0	7.199774117724157e+17
19327.0	7.197811566531923e+17
19328.0	7.195834764492799e+17
19329.0	7.193456132751357e+17
19330.0	7.190557562503168e+17
19331.0	7.188530885995177e+17
19332.0	7.186511405514751e+17
19333.0	7.184463651231059e+17
19334.0	7.1823986275997e+17
19335.0	7.180324327565994e+17
19336.0	7.178232591810557e+17
19337.0	7.176125611158185e+17
19338.0	7.173919702253568e+17
19339.0	7.171873470502227e+17
19340.0	7.169701529867603e+17
19341.0	7.167546128771753e+17
19342.0	7.16520754983731e+17
19343.0	7.162399264778922e+17
19344.0	7.159213929966249e+17
19345.0	7.156219570203304e+17
19346.0	7.154358343609e+17
19347.0	7.152387117197993e+17
19348.0	7.150099485076136e+17
19349.0	7.147747305411923e+17
19350.0	7.145382568001535e+17
19351.0	7.142999711197866e+17
19352.0	7.140032942964735e+17
19353.0	7.135875575403859e+17
19354.0	7.133402162178729e+17
19355.0	7.130869047230464e+17
19356.0	7.128376538737321e+17
19357.0	7.1258216609437e+17
19358.0	7.123226837996884e+17
19359.0	7.119247981412351e+17
19360.0	7.115035799890602e+17
19361.0	7.112336398964051e+17
19362.0	7.109617065306793e+17
19363.0	7.106846636638207e+17
19364.0	7.103193711028905e+17
19365.0	7.097582525000361e+17
19366.0	7.094663369108138e+17
19367.0	7.091701614466387e+17
19368.0	7.088543774714538e+17
19369.0	7.081258895015935e+17
19370.0	7.078043238181545e+17
19371.0	7.074929716843859e+17
19372.0	7.068844472401916e+17
19373.0	7.063208096781652e+17
19374.0	7.059798976277161e+17
19375.0	7.052710037684227e+17
19376.0	7.046515569371817e+17
19377.0	7.042864229209428e+17
19378.0	7.035761706663933e+17
19379.0	7.031846377706835e+17
19380.0	7.027943919670612e+17
19381.0	7.023970408027476e+17
19382.0	7.019889349536425e+17
19383.0	7.015745184945491e+17
19384.0	7.011574296346624e+17
19385.0	7.007272883104425e+17
19386.0	7.002883056031059e+17
19387.0	6.998398639013887e+17
19388.0	6.993818527552852e+17
19389.0	6.989139046738602e+17
19390.0	6.984333690667007e+17
19391.0	6.969383119224818e+17
19392.0	6.973616570761213e+17
19393.0	6.968688989175807e+17
19394.0	6.963454828434772e+17
19395.0	6.958111040471039e+17
19396.0	6.952682374474409e+17
19397.0	6.947179068041898e+17
19398.0	6.941411163242496e+17
19399.0	6.93457605763618e+17
19400.0	6.928902813384703e+17
19401.0	6.922915408074068e+17
19402.0	6.916753995770537e+17
19403.0	6.909610196380329e+17
19404.0	6.902277843451903e+17
19405.0	6.895490412402004e+17
19406.0	6.88797274533615e+17
19407.0	6.879276428514643e+17
19408.0	6.87161844310562e+17
19409.0	6.862270082580479e+17
19410.0	6.853568847238484e+17
19411.0	6.843039209925292e+17
19412.0	6.833238704827052e+17
19413.0	6.820176410443775e+17
19414.0	6.807668009555286e+17
19415.0	6.793380599518545e+17
19416.0	6.776372543007406e+17
19417.0	6.757047303405569e+17
19418.0	6.735257150335657e+17
19419.0	6.715244265078785e+17
19420.0	6.701624870655315e+17
19421.0	6.687933301347668e+17
19422.0	6.673861493915647e+17
19423.0	6.659146762594985e+17
19424.0	6.643562537375062e+17
19425.0	6.626952056842922e+17
19426.0	6.61016428098355e+17
19427.0	6.592705905120598e+17
19428.0	6.573653837742079e+17
19429.0	6.554396517903017e+17
19430.0	6.53279372509184e+17
19431.0	6.508619374439082e+17
19432.0	6.485146380621139e+17
19433.0	6.457148335368878e+17
19434.0	6.426003144441855e+17
19435.0	6.389512556336461e+17
19436.0	6.34569830729865e+17
19437.0	6.297296436898474e+17
19438.0	6.248436703690752e+17
19439.0	6.215710910272854e+17
19440.0	6.171290017376938e+17
19441.0	6.121015740465148e+17
19442.0	6.062577436065795e+17
19443.0	5.994902878595753e+17
19444.0	5.91618436008072e+17
19445.0	5.825274260925101e+17
19446.0	5.7273807315927034e+17
19447.0	5.611170320176464e+17
19448.0	5.4707082368122944e+17
19449.0	5.2984462351619386e+17
19450.0	5.0771919253449043e+17
19451.0	4.9961206672261146e+17
19452.0	5.190586664834379e+17
19453.0	5.388645041875633e+17
19454.0	5.5405673080422336e+17
19455.0	5.665838324165289e+17
19456.0	5.76941369886857e+17
19457.0	5.860830445480618e+17
19458.0	5.937314582058332e+17
19459.0	6.013688613961734e+17
19460.0	6.074714808123387e+17
19461.0	6.126292008523092e+17
19462.0	6.170930143996588e+17
19463.0	6.211356567011324e+17
19464.0	6.248596168332627e+17
19465.0	6.291054528211625e+17
19466.0	6.335912031376713e+17
19467.0	6.373089794676052e+17
19468.0	6.403952234288465e+17
19469.0	6.430463600099328e+17
19470.0	6.454475816435712e+17
19471.0	6.475935645696e+17
19472.0	6.495271717087914e+17
19473.0	6.513148074218836e+17
19474.0	6.529690047086592e+17
19475.0	6.545159249810771e+17
19476.0	6.55988655984913e+17
19477.0	6.574076256583679e+17
19478.0	6.587576297892521e+17
19479.0	6.600197871588692e+17
19480.0	6.611916453576704e+17
19481.0	6.62321431192098e+17
19482.0	6.634124426433876e+17
19483.0	6.64748185651336e+17
19484.0	6.666703132600991e+17
19485.0	6.685354862051327e+17
19486.0	6.700099641365842e+17
19487.0	6.712858008791721e+17
19488.0	6.724332775888206e+17
19489.0	6.733355412357115e+17
19490.0	6.741153124013395e+17
19491.0	6.750167916434775e+17
19492.0	6.756135261787476e+17
19493.0	6.76342239662353e+17
19494.0	6.768822365192191e+17
19495.0	6.773987461125462e+17
19496.0	6.779784152831316e+17
19497.0	6.784127627253076e+17
19498.0	6.786984300598614e+17
19499.0	6.778300025623886e+17
19500.0	6.797092455099049e+17
19501.0	6.800528551968768e+17
19502.0	6.803819560872617e+17
19503.0	6.807279389114368e+17
19504.0	6.810958726255956e+17
19505.0	6.813889412988927e+17
19506.0	6.816700769675946e+17
19507.0	6.819405723161939e+17
19508.0	6.822021282747732e+17
19509.0	6.824530497852755e+17
19510.0	6.826869858325843e+17
19511.0	6.815379257731748e+17
19512.0	6.82942369593207e+17
19513.0	6.829681224100516e+17
19514.0	6.83272167786632e+17
19515.0	6.837510794990932e+17
19516.0	6.83957604721186e+17
19517.0	6.841228424729939e+17
19518.0	6.842825993879551e+17
19519.0	6.844310146951849e+17
19520.0	6.845716447450452e+17
19521.0	6.847051711119359e+17
19522.0	6.848306123287209e+17
19523.0	6.849488601044308e+17
19524.0	6.852186048823297e+17
19525.0	6.854874669689513e+17
19526.0	6.855813370303828e+17
19527.0	6.861522617761798e+17
19528.0	6.863320529939113e+17
19529.0	6.864018336295593e+17
19530.0	6.868601307572908e+17
19531.0	6.870035056994985e+17
19532.0	6.870517462772393e+17
19533.0	6.872070582785363e+17
19534.0	6.875382978445311e+17
19535.0	6.875681351445161e+17
19536.0	6.875919501230079e+17
19537.0	6.876148660524371e+17
19538.0	6.879472629667155e+17
19539.0	6.879567398567936e+17
19540.0	6.879824512199337e+17
19541.0	6.879871150063615e+17
19542.0	6.8798705041408e+17
19543.0	6.881332338622463e+17
19544.0	6.882450420531197e+17
19545.0	6.882147411427327e+17
19546.0	6.881849359990783e+17
19547.0	6.882014735106047e+17
19548.0	6.881814311687508e+17
19549.0	6.88154945327377e+17
19550.0	6.882402926329857e+17
19551.0	6.883160259646804e+17
19552.0	6.882847896545961e+17
19553.0	6.882503617587881e+17
19554.0	6.882141935064403e+17
19555.0	6.881775045312511e+17
19556.0	6.881365601550335e+17
19557.0	6.880933103097171e+17
19558.0	6.880484324453033e+17
19559.0	6.880015097178793e+17
19560.0	6.880711604000086e+17
19561.0	6.880601913163775e+17
19562.0	6.880075908295338e+17
19563.0	6.879533463852372e+17
19564.0	6.878976098172927e+17
19565.0	6.87840342258483e+17
19566.0	6.877808065598804e+17
19567.0	6.877213704759978e+17
19568.0	6.876586244571135e+17
19569.0	6.875966598370644e+17
19570.0	6.875327670954666e+17
19571.0	6.874670465460906e+17
19572.0	6.873992036089856e+17
19573.0	6.873316110718292e+17
19574.0	6.872595718733823e+17
19575.0	6.872580914937856e+17
19576.0	6.872343840292863e+17
19577.0	6.871610276096681e+17
19578.0	6.870860242965844e+17
19579.0	6.870116799086591e+17
19580.0	6.869357886614185e+17
19581.0	6.868592299606015e+17
19582.0	6.867815878710612e+17
19583.0	6.86702132863522e+17
19584.0	6.86621410197504e+17
19585.0	6.865356310882985e+17
19586.0	6.864511868862464e+17
19587.0	6.863684564768084e+17
19588.0	6.86271707025681e+17
19589.0	6.86204468208162e+17
19590.0	6.861168972223828e+17
19591.0	6.86033549271586e+17
19592.0	6.859461595496447e+17
19593.0	6.858571595644927e+17
19594.0	6.857584487170047e+17
19595.0	6.856777049396566e+17
19596.0	6.854664618246144e+17
19597.0	6.854938265823913e+17
19598.0	6.853952879110825e+17
19599.0	6.8531408877213e+17
19600.0	6.852210411438079e+17
19601.0	6.851244166130346e+17
19602.0	6.85030685872401e+17
19603.0	6.849050811476649e+17
19604.0	6.848731836055552e+17
19605.0	6.848083825874262e+17
19606.0	6.847240304503465e+17
19607.0	6.846268717050537e+17
19608.0	6.845287559593983e+17
19609.0	6.844286231729492e+17
19610.0	6.843315880897193e+17
19611.0	6.842319307276287e+17
19612.0	6.841322343585108e+17
19613.0	6.840318190856874e+17
19614.0	6.839290762537642e+17
19615.0	6.838292316859049e+17
19616.0	6.837185585435987e+17
19617.0	6.83625848766464e+17
19618.0	6.835007165999785e+17
19619.0	6.833927125729279e+17
19620.0	6.832904622221993e+17
19621.0	6.832134234133843e+17
19622.0	6.831093468626943e+17
19623.0	6.830048506019839e+17
19624.0	6.828999510589439e+17
19625.0	6.827945999990783e+17
19626.0	6.826889173095764e+17
19627.0	6.825824043575978e+17
19628.0	6.824498084271444e+17
19629.0	6.823639304721748e+17
19630.0	6.821720624551252e+17
19631.0	6.80978668183006e+17
19632.0	6.820433426907135e+17
19633.0	6.819376302216531e+17
19634.0	6.818318963616425e+17
19635.0	6.817218910224383e+17
19636.0	6.81615094325794e+17
19637.0	6.814887542696617e+17
19638.0	6.813965071242579e+17
19639.0	6.812864773881855e+17
19640.0	6.811732990580052e+17
19641.0	6.810420165738495e+17
19642.0	6.809569970530986e+17
19643.0	6.808461866172415e+17
19644.0	6.807328118538239e+17
19645.0	6.806133161328637e+17
19646.0	6.805131674080596e+17
19647.0	6.804016495329279e+17
19648.0	6.802899026487978e+17
19649.0	6.80177683206417e+17
19650.0	6.800655586951167e+17
19651.0	6.799531756049747e+17
19652.0	6.798405860851711e+17
19653.0	6.797277223976959e+17
19654.0	6.796148278820861e+17
19655.0	6.795014619966122e+17
19656.0	6.793880245982548e+17
19657.0	6.792747824447487e+17
19658.0	6.791611052021076e+17
19659.0	6.790472218094249e+17
19660.0	6.789333067497472e+17
19661.0	6.78819153453602e+17
19662.0	6.787048235073535e+17
19663.0	6.785879084018346e+17
19664.0	6.784713615562068e+17
19665.0	6.783609362972671e+17
19666.0	6.782454212504233e+17
