# Flux units: erg / (cm m2 s)
# Wavelength units: Angstrom
wave	flux
19000.0	6.044115187793919e+17
19001.0	6.042987622563839e+17
19002.0	6.041859946184703e+17
19003.0	6.040732137684991e+17
19004.0	6.03960443474193e+17
19005.0	6.03847704846882e+17
19006.0	6.037349456674815e+17
19007.0	6.036221892143786e+17
19008.0	6.035089641876137e+17
19009.0	6.033956898777769e+17
19010.0	6.032804738848084e+17
19011.0	6.031709321560063e+17
19012.0	6.03057859662097e+17
19013.0	6.029457429102591e+17
19014.0	6.028330191727274e+17
19015.0	6.027203002586452e+17
19016.0	6.026071224877055e+17
19017.0	6.024947830882304e+17
19018.0	6.023821693812735e+17
19019.0	6.022695114244095e+17
19020.0	6.021567646182057e+17
19021.0	6.020440993912148e+17
19022.0	6.019314805112831e+17
19023.0	6.018188123482793e+17
19024.0	6.017060703655252e+17
19025.0	6.015934931490134e+17
19026.0	6.014806298110634e+17
19027.0	6.013676511297535e+17
19028.0	6.012556378374143e+17
19029.0	6.011430260877993e+17
19030.0	6.010304292279635e+17
19031.0	6.009178409664512e+17
19032.0	6.008052587866794e+17
19033.0	6.006926914966868e+17
19034.0	6.005801282611882e+17
19035.0	6.004712332940628e+17
19036.0	6.003168261439487e+17
19037.0	6.002468968901289e+17
19038.0	6.001343948914687e+17
19039.0	6.000218790516052e+17
19040.0	5.999093729984512e+17
19041.0	5.997968779902975e+17
19042.0	5.996843955650559e+17
19043.0	5.995719267713023e+17
19044.0	5.994594502180863e+17
19045.0	5.993470214799359e+17
19046.0	5.992341800921769e+17
19047.0	5.99121939468561e+17
19048.0	5.990082220305065e+17
19049.0	5.988973636397738e+17
19050.0	5.987849805496319e+17
19051.0	5.986669905139027e+17
19052.0	5.985587750939306e+17
19053.0	5.98447915934242e+17
19054.0	5.983355860418559e+17
19055.0	5.982218965658281e+17
19056.0	5.981109787557888e+17
19057.0	5.979986925540692e+17
19058.0	5.978864207527935e+17
19059.0	5.977741409124351e+17
19060.0	5.976617440509951e+17
19061.0	5.975496907729578e+17
19062.0	5.974374337216511e+17
19063.0	5.973252509095254e+17
19064.0	5.972123464673962e+17
19065.0	5.971003567330644e+17
19066.0	5.969887654576127e+17
19067.0	5.968766204641279e+17
19068.0	5.967644904303274e+17
19069.0	5.966523891275092e+17
19070.0	5.965402163817129e+17
19071.0	5.964282162315263e+17
19072.0	5.963161512793428e+17
19073.0	5.962040622099114e+17
19074.0	5.960920708677631e+17
19075.0	5.959800549889364e+17
19076.0	5.958678970630143e+17
19077.0	5.957559271817215e+17
19078.0	5.956438874652671e+17
19079.0	5.955321397422761e+17
19080.0	5.954202018775039e+17
19081.0	5.953082803705172e+17
19082.0	5.95196049883136e+17
19083.0	5.950843352951465e+17
19084.0	5.949708412736851e+17
19085.0	5.948607572912809e+17
19086.0	5.947465481409876e+17
19087.0	5.946358441705471e+17
19088.0	5.945250559645012e+17
19089.0	5.944116967899136e+17
19090.0	5.943016657955497e+17
19091.0	5.941898729138857e+17
19092.0	5.940779103027199e+17
19093.0	5.93966463590946e+17
19094.0	5.938545454394025e+17
19095.0	5.937428026796713e+17
19096.0	5.936312528579241e+17
19097.0	5.935196850705748e+17
19098.0	5.934080747110399e+17
19099.0	5.932964448479913e+17
19100.0	5.931848323213993e+17
19101.0	5.930731729584127e+17
19102.0	5.929608674628948e+17
19103.0	5.928500947757737e+17
19104.0	5.927385482395647e+17
19105.0	5.926270186902868e+17
19106.0	5.925152897717588e+17
19107.0	5.924038905954304e+17
19108.0	5.922925241346729e+17
19109.0	5.921778789165737e+17
19110.0	5.920694442044074e+17
19111.0	5.919581907102377e+17
19112.0	5.918467764344148e+17
19113.0	5.917353862758399e+17
19114.0	5.916240036670122e+17
19115.0	5.915123915598505e+17
19116.0	5.914012806720169e+17
19117.0	5.912899147705001e+17
19118.0	5.911781306269696e+17
19119.0	5.910277509174612e+17
19120.0	5.909557296147114e+17
19121.0	5.908445275706708e+17
19122.0	5.907335539064831e+17
19123.0	5.906223153719978e+17
19124.0	5.905111040305834e+17
19125.0	5.903999007981568e+17
19126.0	5.902886749164884e+17
19127.0	5.901636026586452e+17
19128.0	5.900663445782527e+17
19129.0	5.899552276785833e+17
19130.0	5.898441555880617e+17
19131.0	5.897330310687401e+17
19132.0	5.896219233266345e+17
19133.0	5.895101357577556e+17
19134.0	5.893998413611007e+17
19135.0	5.892887945063082e+17
19136.0	5.89177781555473e+17
19137.0	5.890655234555903e+17
19138.0	5.889556133270867e+17
19139.0	5.888447935239508e+17
19140.0	5.887338521559039e+17
19141.0	5.886229076421289e+17
19142.0	5.885119656449364e+17
19143.0	5.884006757302271e+17
19144.0	5.882900659219113e+17
19145.0	5.881793170724182e+17
19146.0	5.880640464835924e+17
19147.0	5.87956662444578e+17
19148.0	5.878467395933524e+17
19149.0	5.87735922516514e+17
19150.0	5.876250528011604e+17
19151.0	5.875143317738836e+17
19152.0	5.87403538464768e+17
19153.0	5.872927904541354e+17
19154.0	5.871810337133907e+17
19155.0	5.870713009340415e+17
19156.0	5.869605596342954e+17
19157.0	5.868498063108778e+17
19158.0	5.86736916758528e+17
19159.0	5.866283469198676e+17
19160.0	5.865177754195283e+17
19161.0	5.8640715232925e+17
19162.0	5.862915654899028e+17
19163.0	5.861856635082068e+17
19164.0	5.860753076649983e+17
19165.0	5.859645957253802e+17
19166.0	5.858530844213248e+17
19167.0	5.857430788025001e+17
19168.0	5.85632781050402e+17
19169.0	5.855222164706644e+17
19170.0	5.854118969081855e+17
19171.0	5.853010734000809e+17
19172.0	5.85190864986658e+17
19173.0	5.850803732479999e+17
19174.0	5.849694385908393e+17
19175.0	5.848594241639764e+17
19176.0	5.847489745780735e+17
19177.0	5.846373270989482e+17
19178.0	5.845279096613545e+17
19179.0	5.844172198816428e+17
19180.0	5.843071175142058e+17
19181.0	5.841959271443113e+17
19182.0	5.840861536103082e+17
19183.0	5.839760092998314e+17
19184.0	5.83865464922658e+17
19185.0	5.837552191799295e+17
19186.0	5.836448954231466e+17
19187.0	5.835345178394623e+17
19188.0	5.834241899582804e+17
19189.0	5.833139050687144e+17
19190.0	5.832035615987028e+17
19191.0	5.83093209600273e+17
19192.0	5.829829561679872e+17
19193.0	5.828726322713939e+17
19194.0	5.82762356609297e+17
19195.0	5.8265207570432e+17
19196.0	5.825417086763008e+17
19197.0	5.824314405639508e+17
19198.0	5.823211663698602e+17
19199.0	5.82181723447842e+17
19200.0	5.820795880909482e+17
19201.0	5.819904412352511e+17
19202.0	5.818802727376212e+17
19203.0	5.817700542578687e+17
19204.0	5.816596325640874e+17
19205.0	5.81549590454818e+17
19206.0	5.814392987844605e+17
19207.0	5.813287869131434e+17
19208.0	5.81217380606498e+17
19209.0	5.811087599468543e+17
19210.0	5.809985525820074e+17
19211.0	5.808883454268756e+17
19212.0	5.807781445632e+17
19213.0	5.806676907829929e+17
19214.0	5.805568228851712e+17
19215.0	5.804474213160275e+17
19216.0	5.803373209758376e+17
19217.0	5.802271417128276e+17
19218.0	5.80110466032162e+17
19219.0	5.80005605286434e+17
19220.0	5.798965477201236e+17
19221.0	5.797061879747926e+17
19222.0	5.79443958620706e+17
19223.0	5.793338755470676e+17
19224.0	5.792236355365546e+17
19225.0	5.791123314311167e+17
19226.0	5.790032230438228e+17
19227.0	5.788930005794815e+17
19228.0	5.787827573533354e+17
19229.0	5.786724921070931e+17
19230.0	5.785622121807872e+17
19231.0	5.784519788112554e+17
19232.0	5.783415887145641e+17
19233.0	5.782312330810708e+17
19234.0	5.7812093239296e+17
19235.0	5.780107947234644e+17
19236.0	5.779004677510484e+17
19237.0	5.777900101260628e+17
19238.0	5.776794619041108e+17
19239.0	5.775694382497791e+17
19240.0	5.774587086940842e+17
19241.0	5.773485323670868e+17
19242.0	5.772381830949546e+17
19243.0	5.771266627731455e+17
19244.0	5.770173778056532e+17
19245.0	5.769069275206996e+17
19246.0	5.767963107218771e+17
19247.0	5.766859202057556e+17
19248.0	5.765754012041215e+17
19249.0	5.764648306125482e+17
19250.0	5.7635421493220685e+17
19251.0	5.76242566963746e+17
19252.0	5.7613107837883725e+17
19253.0	5.760222936520021e+17
19254.0	5.759116504989694e+17
19255.0	5.7579971508087456e+17
19256.0	5.756898241762643e+17
19257.0	5.755794725273599e+17
19258.0	5.7546865656900256e+17
19259.0	5.753578166332074e+17
19260.0	5.7524618040879776e+17
19261.0	5.751360218376873e+17
19262.0	5.7502506348270925e+17
19263.0	5.7491369981815456e+17
19264.0	5.7479894925312e+17
19265.0	5.746903435531605e+17
19266.0	5.7457920183719245e+17
19267.0	5.744696633939284e+17
19268.0	5.743584469494442e+17
19269.0	5.7424717849559034e+17
19270.0	5.741358162990421e+17
19271.0	5.740218582477482e+17
19272.0	5.7391277838172154e+17
19273.0	5.7378998188332365e+17
19274.0	5.736821674388137e+17
19275.0	5.735784309063679e+17
19276.0	5.734667728016724e+17
19277.0	5.7335504549096096e+17
19278.0	5.732432451993599e+17
19279.0	5.7313135116506445e+17
19280.0	5.7301886014149965e+17
19281.0	5.7290739693213005e+17
19282.0	5.727953437939027e+17
19283.0	5.726827289684649e+17
19284.0	5.7257084639860045e+17
19285.0	5.7245724332523514e+17
19286.0	5.7234617445034656e+17
19287.0	5.7223367217206605e+17
19288.0	5.721076214530046e+17
19289.0	5.719823921184767e+17
19290.0	5.7189558477564576e+17
19291.0	5.7178073620370765e+17
19292.0	5.7166967697571834e+17
19293.0	5.715565268172798e+17
19294.0	5.714433722548222e+17
19295.0	5.713300314652671e+17
19296.0	5.7121657008947194e+17
19297.0	5.711029791096831e+17
19298.0	5.709892820140031e+17
19299.0	5.708754397954048e+17
19300.0	5.7076144846929914e+17
19301.0	5.7064729601201485e+17
19302.0	5.705330477148842e+17
19303.0	5.704183808262143e+17
19304.0	5.703037925807445e+17
19305.0	5.701893584060415e+17
19306.0	5.698222241262248e+17
19307.0	5.6968319350429005e+17
19308.0	5.695677518577662e+17
19309.0	5.6945084807686816e+17
19310.0	5.6933461601375565e+17
19311.0	5.692196119729492e+17
19312.0	5.691033473340756e+17
19313.0	5.6898663124828154e+17
19314.0	5.688268301533183e+17
19315.0	5.687117990592511e+17
19316.0	5.686353255727103e+17
19317.0	5.685178403913728e+17
19318.0	5.683999915638783e+17
19319.0	5.682818920568149e+17
19320.0	5.681634854567935e+17
19321.0	5.680448372648618e+17
19322.0	5.679251616082602e+17
19323.0	5.6780615801896954e+17
19324.0	5.6768699651413325e+17
19325.0	5.675660937439913e+17
19326.0	5.674468487725055e+17
19327.0	5.673261555078483e+17
19328.0	5.6720531306577914e+17
19329.0	5.670840098095102e+17
19330.0	5.669620245594112e+17
19331.0	5.6684011368830285e+17
19332.0	5.667176933490688e+17
19333.0	5.66594756481297e+17
19334.0	5.662068456467113e+17
19335.0	5.660180731658238e+17
19336.0	5.6589273366091085e+17
19337.0	5.6576685987157325e+17
19338.0	5.65638899695616e+17
19339.0	5.655135825603243e+17
19340.0	5.6538534451172685e+17
19341.0	5.6525754945153696e+17
19342.0	5.6512639768985594e+17
19343.0	5.649997666189311e+17
19344.0	5.648696953798655e+17
19345.0	5.647246158725119e+17
19346.0	5.645997365526526e+17
19347.0	5.6447468386822816e+17
19348.0	5.643421831484756e+17
19349.0	5.639200700716377e+17
19350.0	5.6368510285469005e+17
19351.0	5.6354767040238925e+17
19352.0	5.634091238031358e+17
19353.0	5.632697995799209e+17
19354.0	5.631293496055126e+17
19355.0	5.62987784994816e+17
19356.0	5.6284506743985485e+17
19357.0	5.627012000164522e+17
19358.0	5.6254475855899315e+17
19359.0	5.6195867489949005e+17
19360.0	5.618083074932735e+17
19361.0	5.6165611724253856e+17
19362.0	5.615026840098132e+17
19363.0	5.6134733838417914e+17
19364.0	5.611903038521343e+17
19365.0	5.610069983668903e+17
19366.0	5.6061171401577805e+17
19367.0	5.6044698496314016e+17
19368.0	5.6028016826559136e+17
19369.0	5.6011073222519456e+17
19370.0	5.599388278368938e+17
19371.0	5.597663163929941e+17
19372.0	5.595902397906943e+17
19373.0	5.594115957850111e+17
19374.0	5.592302672150526e+17
19375.0	5.5904611315220474e+17
19376.0	5.5885907816174925e+17
19377.0	5.5866893561146016e+17
19378.0	5.5847565907722214e+17
19379.0	5.5826878286178976e+17
19380.0	5.580620866519039e+17
19381.0	5.5785847765947725e+17
19382.0	5.576510378693972e+17
19383.0	5.5743909500463776e+17
19384.0	5.572239074263038e+17
19385.0	5.5700390995995296e+17
19386.0	5.567793418207231e+17
19387.0	5.5654995505534285e+17
19388.0	5.563155551879167e+17
19389.0	5.560759156561236e+17
19390.0	5.5583078389295776e+17
19391.0	5.555444186961236e+17
19392.0	5.553214180382036e+17
19393.0	5.550600359335252e+17
19394.0	5.547904908744021e+17
19395.0	5.545150061215743e+17
19396.0	5.54232615866641e+17
19397.0	5.5394292822179834e+17
19398.0	5.5364544644164256e+17
19399.0	5.533347310032211e+17
19400.0	5.53025453232401e+17
19401.0	5.527034427430228e+17
19402.0	5.523718480592894e+17
19403.0	5.52030802350353e+17
19404.0	5.516800797529428e+17
19405.0	5.5131921742561274e+17
19406.0	5.5094856671122765e+17
19407.0	5.5056880450054816e+17
19408.0	5.5017240432476154e+17
19409.0	5.497758757333674e+17
19410.0	5.493623871941289e+17
19411.0	5.4893676537227936e+17
19412.0	5.4849892309620045e+17
19413.0	5.4804860842803194e+17
19414.0	5.475781837499051e+17
19415.0	5.470567963208362e+17
19416.0	5.4657005454185805e+17
19417.0	5.460721808703487e+17
19418.0	5.455603540077226e+17
19419.0	5.450338667943252e+17
19420.0	5.444930044428287e+17
19421.0	5.438791760216064e+17
19422.0	5.432683507220479e+17
19423.0	5.426727507460094e+17
19424.0	5.419988875040083e+17
19425.0	5.412821479893674e+17
19426.0	5.405587626000383e+17
19427.0	5.397582913557845e+17
19428.0	5.388212293162325e+17
19429.0	5.37784360457557e+17
19430.0	5.3650762228913517e+17
19431.0	5.348333643453785e+17
19432.0	5.326801990931791e+17
19433.0	5.296183567537479e+17
19434.0	5.2714128875192314e+17
19435.0	5.2545160842226323e+17
19436.0	5.2361885241398605e+17
19437.0	5.216436613371221e+17
19438.0	5.19434316948002e+17
19439.0	5.172175382948522e+17
19440.0	5.147418256823635e+17
19441.0	5.120540327018492e+17
19442.0	5.08787116509321e+17
19443.0	5.037783606012574e+17
19444.0	4.9564829991567296e+17
19445.0	4.894735697182721e+17
19446.0	4.8302790006538234e+17
19447.0	4.7452717538344915e+17
19448.0	4.597707693184353e+17
19449.0	4.4052965745841466e+17
19450.0	3.941705622836555e+17
19451.0	3.787734085446294e+17
19452.0	4.205370295713806e+17
19453.0	4.516634166646109e+17
19454.0	4.675136625399111e+17
19455.0	4.787000748015615e+17
19456.0	4.8562335809972915e+17
19457.0	4.9147610688825984e+17
19458.0	4.986051299551921e+17
19459.0	5.052611944950442e+17
19460.0	5.0897785136523904e+17
19461.0	5.116692390739967e+17
19462.0	5.140132956296535e+17
19463.0	5.162072992819881e+17
19464.0	5.1821018192281594e+17
19465.0	5.200898174571862e+17
19466.0	5.217838629388286e+17
19467.0	5.2334406797011616e+17
19468.0	5.24960055986312e+17
19469.0	5.279447581545806e+17
19470.0	5.3023962076719904e+17
19471.0	5.3193887732203514e+17
19472.0	5.331282966522535e+17
19473.0	5.3410056987388576e+17
19474.0	5.348612196969129e+17
19475.0	5.3546992666323616e+17
19476.0	5.3610550157202765e+17
19477.0	5.3655283569786886e+17
19478.0	5.371063928094719e+17
19479.0	5.3750834610394445e+17
19480.0	5.3788918611094176e+17
19481.0	5.383287912529918e+17
19482.0	5.386868991808851e+17
19483.0	5.3901622327814816e+17
19484.0	5.393306833212757e+17
19485.0	5.396304479212885e+17
19486.0	5.3991658732475725e+17
19487.0	5.402039191688532e+17
19488.0	5.4050649528074234e+17
19489.0	5.407550019906218e+17
19490.0	5.4098371557021005e+17
19491.0	5.4121811068409165e+17
19492.0	5.414303581951317e+17
19493.0	5.4163061405122554e+17
19494.0	5.418192166628011e+17
19495.0	5.4199647871522125e+17
19496.0	5.421604684518741e+17
19497.0	5.42320982298897e+17
19498.0	5.4246105436651514e+17
19499.0	5.425505233447593e+17
19500.0	5.42734001565423e+17
19501.0	5.428526333296639e+17
19502.0	5.4296226069217274e+17
19503.0	5.4306337851091616e+17
19504.0	5.4315632666432845e+17
19505.0	5.432413344410281e+17
19506.0	5.433187654172671e+17
19507.0	5.433889373115732e+17
19508.0	5.434529583289685e+17
19509.0	5.4351064175301965e+17
19510.0	5.4356055606777165e+17
19511.0	5.435297523302398e+17
19512.0	5.436359953088511e+17
19513.0	5.4366238398218214e+17
19514.0	5.4369605941985274e+17
19515.0	5.437289342347945e+17
19516.0	5.4375084031563085e+17
19517.0	5.437644917964799e+17
19518.0	5.4377442880170656e+17
19519.0	5.437796608464213e+17
19520.0	5.4378070725536403e+17
19521.0	5.437781796978687e+17
19522.0	5.437716595823956e+17
19523.0	5.437617082466302e+17
19524.0	5.437486052409343e+17
19525.0	5.4373218475048954e+17
19526.0	5.437129112245589e+17
19527.0	5.436905972476586e+17
19528.0	5.4367675576483834e+17
19529.0	5.43653606072866e+17
19530.0	5.436231380194644e+17
19531.0	5.43590194487842e+17
19532.0	5.4355488942325754e+17
19533.0	5.435173096478036e+17
19534.0	5.4347756393376403e+17
19535.0	5.4343572561155405e+17
19536.0	5.4339184326519456e+17
19537.0	5.433461594652671e+17
19538.0	5.434842388190547e+17
19539.0	5.4348473381683194e+17
19540.0	5.4343572071819936e+17
19541.0	5.433813271663956e+17
19542.0	5.4332542086894925e+17
19543.0	5.43268092912162e+17
19544.0	5.432094074688852e+17
19545.0	5.4314532332721485e+17
19546.0	5.4348791407793504e+17
19547.0	5.434398204406441e+17
19548.0	5.4337366459241805e+17
19549.0	5.4330649728778234e+17
19550.0	5.4323832530752845e+17
19551.0	5.4316920380675405e+17
19552.0	5.4309912810181965e+17
19553.0	5.430279671906303e+17
19554.0	5.4295608457953274e+17
19555.0	5.428837294800894e+17
19556.0	5.4281029315898016e+17
19557.0	5.42908576816606e+17
19558.0	5.430156645280426e+17
19559.0	5.429384629802324e+17
19560.0	5.4286066325476685e+17
19561.0	5.427822119441747e+17
19562.0	5.427031781146624e+17
19563.0	5.4262356197594445e+17
19564.0	5.4254341064403616e+17
19565.0	5.424627232101715e+17
19566.0	5.4238136098269856e+17
19567.0	5.422997934440447e+17
19568.0	5.422176403106474e+17
19569.0	5.4213493269026125e+17
19570.0	5.420519276937215e+17
19571.0	5.4196841910108154e+17
19572.0	5.4188448702354765e+17
19573.0	5.418001153829545e+17
19574.0	5.4171547146212685e+17
19575.0	5.4163038923653114e+17
19576.0	5.4154494651050656e+17
19577.0	5.4168957792638266e+17
19578.0	5.4166945764037965e+17
19579.0	5.4158256948729165e+17
19580.0	5.414950035346772e+17
19581.0	5.41407102177553e+17
19582.0	5.4131913140469754e+17
19583.0	5.412307693731838e+17
19584.0	5.4114215589314554e+17
19585.0	5.4105326747648e+17
19586.0	5.4096310804589216e+17
19587.0	5.4087464003829754e+17
19588.0	5.4078160695022925e+17
19589.0	5.406954530100564e+17
19590.0	5.4060493958021114e+17
19591.0	5.405152843049641e+17
19592.0	5.404248710490794e+17
19593.0	5.403343012757504e+17
19594.0	5.402418566485331e+17
19595.0	5.4015226330917536e+17
19596.0	5.4005927076604576e+17
19597.0	5.399699899722411e+17
19598.0	5.3987606888011085e+17
19599.0	5.397870642113194e+17
19600.0	5.396953061916671e+17
19601.0	5.396030788993024e+17
19602.0	5.395107961722196e+17
19603.0	5.3941571521522336e+17
19604.0	5.393264923727189e+17
19605.0	5.3923223643531936e+17
19606.0	5.391417205587967e+17
19607.0	5.390490480410624e+17
19608.0	5.3895619027490125e+17
19609.0	5.3886309490141856e+17
19610.0	5.387702286767444e+17
19611.0	5.386770257193642e+17
19612.0	5.385838231814143e+17
19613.0	5.384904656639315e+17
19614.0	5.3839700825210874e+17
19615.0	5.383034338192042e+17
19616.0	5.38209499095586e+17
19617.0	5.3811608509480954e+17
19618.0	5.3801764233325216e+17
19619.0	5.3792288300946765e+17
19620.0	5.378292269973503e+17
19621.0	5.377403499752105e+17
19622.0	5.3764622601857683e+17
19623.0	5.3755202383817376e+17
19624.0	5.374577572752041e+17
19625.0	5.3736341773134496e+17
19626.0	5.372690175098879e+17
19627.0	5.3717453738693965e+17
19628.0	5.3707931004873376e+17
19629.0	5.369938449530879e+17
19630.0	5.3712854558528845e+17
19631.0	5.3700535209601696e+17
19632.0	5.3694187186421754e+17
19633.0	5.3684684060972365e+17
19634.0	5.367517724453545e+17
19635.0	5.366566401081343e+17
19636.0	5.3656145618097485e+17
19637.0	5.36463500448017e+17
19638.0	5.363708880486399e+17
19639.0	5.3627892807325e+17
19640.0	5.361848945038676e+17
19641.0	5.360838916789588e+17
19642.0	5.359950705808725e+17
19643.0	5.3589959347186336e+17
19644.0	5.358038301715113e+17
19645.0	5.357064623401642e+17
19646.0	5.356130631592618e+17
19647.0	5.355174861559125e+17
19648.0	5.3542188105072634e+17
19649.0	5.3532623043734176e+17
19650.0	5.352305957623124e+17
19651.0	5.3513491536936954e+17
19652.0	5.350392112087039e+17
19653.0	5.349434705575936e+17
19654.0	5.3484774060195834e+17
19655.0	5.347519327021738e+17
19656.0	5.3465613074432e+17
19657.0	5.345603766015315e+17
19658.0	5.3446455325272723e+17
19659.0	5.343687044584788e+17
