# Flux units: erg / (cm m2 s)
# Wavelength units: Angstrom
wave	flux
19000.0	7.134801738508969e+17
19001.0	7.133419425933993e+17
19002.0	7.132187735009961e+17
19003.0	7.13087398252817e+17
19004.0	7.129561651915433e+17
19005.0	7.128261967129258e+17
19006.0	7.126952119544489e+17
19007.0	7.125706003010899e+17
19008.0	7.124424743802195e+17
19009.0	7.12305616757282e+17
19010.0	7.12154638590498e+17
19011.0	7.120475677960872e+17
19012.0	7.118862650703871e+17
19013.0	7.117894880766633e+17
19014.0	7.116542934952617e+17
19015.0	7.115246785964713e+17
19016.0	7.113935555657727e+17
19017.0	7.112649981908308e+17
19018.0	7.111322880354986e+17
19019.0	7.110019663964841e+17
19020.0	7.108696348469929e+17
19021.0	7.107398165244585e+17
19022.0	7.106086021977428e+17
19023.0	7.104737589592061e+17
19024.0	7.103438796794536e+17
19025.0	7.102105784068777e+17
19026.0	7.100750066177364e+17
19027.0	7.099197006282751e+17
19028.0	7.098176026006868e+17
19029.0	7.096868850193748e+17
19030.0	7.095565369562451e+17
19031.0	7.094245424889855e+17
19032.0	7.092920146460671e+17
19033.0	7.091513834078207e+17
19034.0	7.090186596909055e+17
19035.0	7.088293311851177e+17
19036.0	7.067352937354577e+17
19037.0	7.085836411600893e+17
19038.0	7.084925663226536e+17
19039.0	7.083689348781395e+17
19040.0	7.082393505977684e+17
19041.0	7.081079756292093e+17
19042.0	7.079641523858088e+17
19043.0	7.078461241120084e+17
19044.0	7.077135558639615e+17
19045.0	7.075812807977642e+17
19046.0	7.074476905376425e+17
19047.0	7.07316271948322e+17
19048.0	7.07173816467456e+17
19049.0	7.070463942109865e+17
19050.0	7.069222749689172e+17
19051.0	7.064975155658747e+17
19052.0	7.065664448976212e+17
19053.0	7.0653313051962e+17
19054.0	7.064069848694783e+17
19055.0	7.062554889857705e+17
19056.0	7.061424722061994e+17
19057.0	7.060132540885674e+17
19058.0	7.058742375175508e+17
19059.0	7.057480159505066e+17
19060.0	7.056176965484543e+17
19061.0	7.054872630613332e+17
19062.0	7.053552216178687e+17
19063.0	7.052233903090345e+17
19064.0	7.050840710490794e+17
19065.0	7.049466299984553e+17
19066.0	7.04821427507473e+17
19067.0	7.046968343090516e+17
19068.0	7.045651112132607e+17
19069.0	7.044333843425961e+17
19070.0	7.042999805891926e+17
19071.0	7.041686085566463e+17
19072.0	7.040355126651561e+17
19073.0	7.03906146628403e+17
19074.0	7.037746582738259e+17
19075.0	7.036428580727466e+17
19076.0	7.035099299534164e+17
19077.0	7.033780660688212e+17
19078.0	7.032452926494036e+17
19079.0	7.031156067270656e+17
19080.0	7.02982752637201e+17
19081.0	7.028486715037012e+17
19082.0	7.027175572810409e+17
19083.0	7.025790826840063e+17
19084.0	7.02437458584098e+17
19085.0	7.023221826125823e+17
19086.0	7.021507503631017e+17
19087.0	7.02017576247842e+17
19088.0	7.019015046867625e+17
19089.0	7.017599566435668e+17
19090.0	7.016547759423487e+17
19091.0	7.015271363510272e+17
19092.0	7.013836818568532e+17
19093.0	7.01268478726417e+17
19094.0	7.011386501977428e+17
19095.0	7.01007499834163e+17
19096.0	7.008751710808745e+17
19097.0	7.007442539205971e+17
19098.0	7.006101271390889e+17
19099.0	7.004779637112831e+17
19100.0	7.003454185319081e+17
19101.0	7.002158875891027e+17
19102.0	7.000795658584063e+17
19103.0	6.999541827327316e+17
19104.0	6.998221051483476e+17
19105.0	6.996827202475347e+17
19106.0	6.995511431135231e+17
19107.0	6.994202116227071e+17
19108.0	6.992809791848447e+17
19109.0	6.990369713553405e+17
19110.0	6.989914287636479e+17
19111.0	6.988821738553343e+17
19112.0	6.987545625755647e+17
19113.0	6.986262280579754e+17
19114.0	6.984932319909203e+17
19115.0	6.983554384789503e+17
19116.0	6.982295393839786e+17
19117.0	6.980967018616148e+17
19118.0	6.979534034654548e+17
19119.0	6.975558276262565e+17
19120.0	6.976839580909567e+17
19121.0	6.975587093228201e+17
19122.0	6.974420495805098e+17
19123.0	6.973109834525353e+17
19124.0	6.971655488274431e+17
19125.0	6.970464989609983e+17
19126.0	6.969112756486143e+17
19127.0	6.966719467749375e+17
19128.0	6.966274230495913e+17
19129.0	6.965143511848276e+17
19130.0	6.963889168886442e+17
19131.0	6.962586080422569e+17
19132.0	6.961268632758954e+17
19133.0	6.959887154151423e+17
19134.0	6.958539864014847e+17
19135.0	6.957318623199231e+17
19136.0	6.956005649459881e+17
19137.0	6.954597108503892e+17
19138.0	6.953362484363261e+17
19139.0	6.952063256057171e+17
19140.0	6.950750611570687e+17
19141.0	6.949435475667625e+17
19142.0	6.948093368991743e+17
19143.0	6.946771187357012e+17
19144.0	6.945455544642217e+17
19145.0	6.944170684623529e+17
19146.0	6.942396266141012e+17
19147.0	6.941486132232191e+17
19148.0	6.940193535120724e+17
19149.0	6.938875791758676e+17
19150.0	6.937587393844563e+17
19151.0	6.936273331683327e+17
19152.0	6.9349291341469e+17
19153.0	6.933573689584297e+17
19154.0	6.932232277065727e+17
19155.0	6.930971471380479e+17
19156.0	6.929632469188607e+17
19157.0	6.928142638426793e+17
19158.0	6.926327492553385e+17
19159.0	6.925563187604137e+17
19160.0	6.92430964855057e+17
19161.0	6.922883548140884e+17
19162.0	6.919788571918336e+17
19163.0	6.919937977221119e+17
19164.0	6.919064517607423e+17
19165.0	6.917722954792959e+17
19166.0	6.916378605562536e+17
19167.0	6.914997659631615e+17
19168.0	6.913827263567187e+17
19169.0	6.912534722379775e+17
19170.0	6.911235001242964e+17
19171.0	6.909856940993193e+17
19172.0	6.908583590843731e+17
19173.0	6.907299097826644e+17
19174.0	6.905963035841876e+17
19175.0	6.904681095058772e+17
19176.0	6.903363076969812e+17
19177.0	6.901919470933331e+17
19178.0	6.900642774428329e+17
19179.0	6.899282684674047e+17
19180.0	6.898060541384019e+17
19181.0	6.896697418448896e+17
19182.0	6.895438932213759e+17
19183.0	6.894143930368e+17
19184.0	6.892823042676052e+17
19185.0	6.89150407877154e+17
19186.0	6.890124876272979e+17
19187.0	6.888732519738026e+17
19188.0	6.887466998956031e+17
19189.0	6.886138016257363e+17
19190.0	6.884795404866899e+17
19191.0	6.883442849480703e+17
19192.0	6.882150855649961e+17
19193.0	6.880797931864063e+17
19194.0	6.879426372785491e+17
19195.0	6.878058125109929e+17
19196.0	6.876587388218026e+17
19197.0	6.874939122515968e+17
19198.0	6.872357670311252e+17
19199.0	6.859105045402962e+17
19200.0	6.859850232714582e+17
19201.0	6.8684469515933e+17
19202.0	6.868232734507007e+17
19203.0	6.867175121879037e+17
19204.0	6.866008818057215e+17
19205.0	6.864766582652928e+17
19206.0	6.863485849829375e+17
19207.0	6.862102006333439e+17
19208.0	6.860753325785087e+17
19209.0	6.859564629972308e+17
19210.0	6.85825229656337e+17
19211.0	6.856937482922665e+17
19212.0	6.855602891740499e+17
19213.0	6.854122630283263e+17
19214.0	6.852747676614655e+17
19215.0	6.85156337852962e+17
19216.0	6.850302540688041e+17
19217.0	6.84896539517474e+17
19218.0	6.847159505431209e+17
19219.0	6.846185708978175e+17
19220.0	6.844985247443625e+17
19221.0	6.843507601833983e+17
19222.0	6.842333525267796e+17
19223.0	6.841020220178431e+17
19224.0	6.839668452622335e+17
19225.0	6.838297955401727e+17
19226.0	6.837031904040276e+17
19227.0	6.835702486532093e+17
19228.0	6.834394340436649e+17
19229.0	6.833061562591914e+17
19230.0	6.831720154966698e+17
19231.0	6.830380066450089e+17
19232.0	6.829053173213865e+17
19233.0	6.827573028498089e+17
19234.0	6.826179011717801e+17
19235.0	6.82483223887872e+17
19236.0	6.823518571681108e+17
19237.0	6.822171083713193e+17
19238.0	6.820761367653033e+17
19239.0	6.819504581509117e+17
19240.0	6.81816277262882e+17
19241.0	6.816809683167914e+17
19242.0	6.815475679188308e+17
19243.0	6.814018446557183e+17
19244.0	6.812805727868244e+17
19245.0	6.811457099049642e+17
19246.0	6.810107536998399e+17
19247.0	6.808770943735124e+17
19248.0	6.807426555357866e+17
19249.0	6.806068631961599e+17
19250.0	6.804704160557738e+17
19251.0	6.803296629030911e+17
19252.0	6.801798972396884e+17
19253.0	6.800661965788499e+17
19254.0	6.799242431561728e+17
19255.0	6.797689411513001e+17
19256.0	6.796464335006378e+17
19257.0	6.795130196109993e+17
19258.0	6.793771858176681e+17
19259.0	6.792345623549268e+17
19260.0	6.790645446344701e+17
19261.0	6.789674889292457e+17
19262.0	6.788281453423274e+17
19263.0	6.786897431669417e+17
19264.0	6.785250714364585e+17
19265.0	6.784095087143594e+17
19266.0	6.782735962778281e+17
19267.0	6.781497556773546e+17
19268.0	6.780127615298217e+17
19269.0	6.778753534743891e+17
19270.0	6.777288702033919e+17
19271.0	6.775658369078612e+17
19272.0	6.774459211972607e+17
19273.0	6.772767131871913e+17
19274.0	6.771331422311763e+17
19275.0	6.770344050993834e+17
19276.0	6.768948286586879e+17
19277.0	6.76756474508083e+17
19278.0	6.766177374874281e+17
19279.0	6.764754311140691e+17
19280.0	6.763341329814868e+17
19281.0	6.761975488271699e+17
19282.0	6.760569477879126e+17
19283.0	6.759070336461481e+17
19284.0	6.757651883666089e+17
19285.0	6.756269139077801e+17
19286.0	6.754897140995412e+17
19287.0	6.753379841037652e+17
19288.0	6.745721383769423e+17
19289.0	6.737583254011886e+17
19290.0	6.749084738824874e+17
19291.0	6.747619637679444e+17
19292.0	6.74642771574784e+17
19293.0	6.745012071738025e+17
19294.0	6.743583301653843e+17
19295.0	6.742163376657747e+17
19296.0	6.74069821399586e+17
19297.0	6.739264032560467e+17
19298.0	6.737826583063209e+17
19299.0	6.736365288947711e+17
19300.0	6.734890354955603e+17
19301.0	6.733267806628522e+17
19302.0	6.731799144518995e+17
19303.0	6.730291968212991e+17
19304.0	6.728857186293076e+17
19305.0	6.72738614251793e+17
19306.0	6.725906596888575e+17
19307.0	6.724377376019796e+17
19308.0	6.722866978488319e+17
19309.0	6.720969039850153e+17
19310.0	6.719277834960895e+17
19311.0	6.718277944344575e+17
19312.0	6.716898118991871e+17
19313.0	6.715332043472895e+17
19314.0	6.695543714960718e+17
19315.0	6.695572902423236e+17
19316.0	6.710658545134249e+17
19317.0	6.709261044285439e+17
19318.0	6.707462733649236e+17
19319.0	6.705948259254272e+17
19320.0	6.704389570603689e+17
19321.0	6.702811250513236e+17
19322.0	6.701169307025408e+17
19323.0	6.699543469664937e+17
19324.0	6.698040313599316e+17
19325.0	6.696259598068393e+17
19326.0	6.694895256687955e+17
19327.0	6.693354410606591e+17
19328.0	6.691719772198228e+17
19329.0	6.690167384091306e+17
19330.0	6.688427848237055e+17
19331.0	6.686380427400532e+17
19332.0	6.684775246987261e+17
19333.0	6.683107321883305e+17
19334.0	6.681459807660714e+17
19335.0	6.679681229127679e+17
19336.0	6.678091362817364e+17
19337.0	6.676404758380543e+17
19338.0	6.674546499256319e+17
19339.0	6.672860928016383e+17
19340.0	6.670504484842153e+17
19341.0	6.668745349005311e+17
19342.0	6.666766823806291e+17
19343.0	6.665155600100009e+17
19344.0	6.663316483080191e+17
19345.0	6.660350874572114e+17
19346.0	6.659079636254716e+17
19347.0	6.657026505572352e+17
19348.0	6.655211059806207e+17
19349.0	6.653329878810623e+17
19350.0	6.651449228394495e+17
19351.0	6.649578776428543e+17
19352.0	6.647595546618538e+17
19353.0	6.644830525805907e+17
19354.0	6.642724216242173e+17
19355.0	6.640700846243839e+17
19356.0	6.638800283369471e+17
19357.0	6.636811602362368e+17
19358.0	6.63375394635776e+17
19359.0	6.631344174705321e+17
19360.0	6.629266413671763e+17
19361.0	6.627057388399274e+17
19362.0	6.62460706132241e+17
19363.0	6.621939475589801e+17
19364.0	6.619816573359444e+17
19365.0	6.617668366893055e+17
19366.0	6.615484871649961e+17
19367.0	6.613272005094057e+17
19368.0	6.611030017485481e+17
19369.0	6.608719023090346e+17
19370.0	6.60641203425553e+17
19371.0	6.604078525535572e+17
19372.0	6.601535318392831e+17
19373.0	6.598800063157588e+17
19374.0	6.596368999120895e+17
19375.0	6.593881997748906e+17
19376.0	6.591355486033236e+17
19377.0	6.588776490292566e+17
19378.0	6.58616676917794e+17
19379.0	6.583502743710378e+17
19380.0	6.580034389846698e+17
19381.0	6.577176292534954e+17
19382.0	6.574263445574998e+17
19383.0	6.57134124601617e+17
19384.0	6.568435653804031e+17
19385.0	6.565247988356435e+17
19386.0	6.561077387766442e+17
19387.0	6.557912172331008e+17
19388.0	6.554704078525779e+17
19389.0	6.551408792829951e+17
19390.0	6.547032408500906e+17
19391.0	6.526478976024556e+17
19392.0	6.538468135359827e+17
19393.0	6.536070372698794e+17
19394.0	6.531175426992812e+17
19395.0	6.526776726869332e+17
19396.0	6.522947084746751e+17
19397.0	6.518402775864659e+17
19398.0	6.51232557539874e+17
19399.0	6.507771217663315e+17
19400.0	6.502868952197801e+17
19401.0	6.496065131205972e+17
19402.0	6.491545614155773e+17
19403.0	6.48482240279347e+17
19404.0	6.478472160826708e+17
19405.0	6.47346351103454e+17
19406.0	6.46432715300318e+17
19407.0	6.459091991221588e+17
19408.0	6.451420307914755e+17
19409.0	6.444993593300308e+17
19410.0	6.439173814048083e+17
19411.0	6.433143946302804e+17
19412.0	6.426939845771263e+17
19413.0	6.41958547764019e+17
19414.0	6.412781901316095e+17
19415.0	6.406009318801408e+17
19416.0	6.398678969352188e+17
19417.0	6.389764185915391e+17
19418.0	6.381996910925139e+17
19419.0	6.373504698722984e+17
19420.0	6.362600245821437e+17
19421.0	6.353412899733504e+17
19422.0	6.342615879035562e+17
19423.0	6.330527591519572e+17
19424.0	6.319658514776063e+17
19425.0	6.304787745559894e+17
19426.0	6.291948810447529e+17
19427.0	6.276223323865087e+17
19428.0	6.260874278163796e+17
19429.0	6.245022389938858e+17
19430.0	6.225758329154218e+17
19431.0	6.207197059656364e+17
19432.0	6.188224679160488e+17
19433.0	6.168588134121471e+17
19434.0	6.14739426218257e+17
19435.0	6.121565434762577e+17
19436.0	6.094520340272468e+17
19437.0	6.068707009407657e+17
19438.0	6.017690047086593e+17
19439.0	6.00474719739358e+17
19440.0	5.970573114299732e+17
19441.0	5.930216910225404e+17
19442.0	5.884657065962156e+17
19443.0	5.833051461036714e+17
19444.0	5.773516297906856e+17
19445.0	5.7046477521114477e+17
19446.0	5.622928544628735e+17
19447.0	5.523424114551462e+17
19448.0	5.3979845286516115e+17
19449.0	5.2290803756346016e+17
19450.0	4.9703624774778726e+17
19451.0	4.8045961545864614e+17
19452.0	5.117810975965181e+17
19453.0	5.319651561745074e+17
19454.0	5.4608982029544045e+17
19455.0	5.569393819910143e+17
19456.0	5.656920227927384e+17
19457.0	5.729333271680337e+17
19458.0	5.75730461669245e+17
19459.0	5.842905790939142e+17
19460.0	5.889874592093524e+17
19461.0	5.930723612207786e+17
19462.0	5.966548273463296e+17
19463.0	5.998668437345618e+17
19464.0	6.027730162985642e+17
19465.0	6.052736099418113e+17
19466.0	6.076732462683476e+17
19467.0	6.101311611207684e+17
19468.0	6.121169034586794e+17
19469.0	6.139092424545618e+17
19470.0	6.157975139909635e+17
19471.0	6.174136894925482e+17
19472.0	6.189066463390374e+17
19473.0	6.204700574963027e+17
19474.0	6.216491659689983e+17
19475.0	6.230834585534459e+17
19476.0	6.242087307575295e+17
19477.0	6.25378823923302e+17
19478.0	6.264053550110036e+17
19479.0	6.272670462465363e+17
19480.0	6.282584706602324e+17
19481.0	6.289618084648275e+17
19482.0	6.297263278129151e+17
19483.0	6.304573231377066e+17
19484.0	6.310300401795071e+17
19485.0	6.316292866135379e+17
19486.0	6.321889688070826e+17
19487.0	6.326385601675263e+17
19488.0	6.330641513709565e+17
19489.0	6.335362641166336e+17
19490.0	6.338941945555625e+17
19491.0	6.343352351282515e+17
19492.0	6.346905321734143e+17
19493.0	6.350248367270569e+17
19494.0	6.356076406505471e+17
19495.0	6.35910410609186e+17
19496.0	6.363676400768339e+17
19497.0	6.368164071866367e+17
19498.0	6.367210438830758e+17
19499.0	6.350595543793652e+17
19500.0	6.378364214444031e+17
19501.0	6.38156363582669e+17
19502.0	6.385941288932691e+17
19503.0	6.387765758044842e+17
19504.0	6.390150485508095e+17
19505.0	6.393502845894655e+17
19506.0	6.394974795639465e+17
19507.0	6.396253281015124e+17
19508.0	6.399152171428521e+17
19509.0	6.400468683762345e+17
19510.0	6.401115896326825e+17
19511.0	6.36891174640023e+17
19512.0	6.399723539791866e+17
19513.0	6.397910390407158e+17
19514.0	6.400526758794574e+17
19515.0	6.406734932694356e+17
19516.0	6.408277736117588e+17
19517.0	6.409719019907754e+17
19518.0	6.410295178166271e+17
19519.0	6.4107721012893e+17
19520.0	6.411179543669417e+17
19521.0	6.411597762614612e+17
19522.0	6.412270183645183e+17
19523.0	6.412901985637716e+17
19524.0	6.413065086741162e+17
19525.0	6.413230375174144e+17
19526.0	6.413332616227497e+17
19527.0	6.413384320111956e+17
19528.0	6.413386927570943e+17
19529.0	6.413363102526122e+17
19530.0	6.413740331936425e+17
19531.0	6.413702291696298e+17
19532.0	6.413569298705065e+17
19533.0	6.413404252143615e+17
19534.0	6.413207005910356e+17
19535.0	6.412973421625343e+17
19536.0	6.412700096309929e+17
19537.0	6.41243885478434e+17
19538.0	6.411979419811839e+17
19539.0	6.411540711691606e+17
19540.0	6.412194969987753e+17
19541.0	6.41191708336674e+17
19542.0	6.411715636538025e+17
19543.0	6.41126035881984e+17
19544.0	6.41169905365811e+17
19545.0	6.411349925385556e+17
19546.0	6.410678984944297e+17
19547.0	6.410729552871423e+17
19548.0	6.410231614887252e+17
19549.0	6.410116287605417e+17
19550.0	6.410205815723348e+17
19551.0	6.409649208513876e+17
19552.0	6.409073986983252e+17
19553.0	6.408468445528063e+17
19554.0	6.407856882450431e+17
19555.0	6.407452446687232e+17
19556.0	6.407441423357268e+17
19557.0	6.406796899341652e+17
19558.0	6.406137623958868e+17
19559.0	6.405460666089472e+17
19560.0	6.404730232242176e+17
19561.0	6.404125243736063e+17
19562.0	6.403450834605396e+17
19563.0	6.40324145914402e+17
19564.0	6.4026164344477e+17
19565.0	6.40186589520418e+17
19566.0	6.401084524331007e+17
19567.0	6.400330760366764e+17
19568.0	6.399528350864724e+17
19569.0	6.398742194989738e+17
19570.0	6.397956420796415e+17
19571.0	6.397143545806847e+17
19572.0	6.396514501569193e+17
19573.0	6.39592755765794e+17
19574.0	6.395025550213119e+17
19575.0	6.394252461692243e+17
19576.0	6.39339757375761e+17
19577.0	6.392524489534121e+17
19578.0	6.391639926898687e+17
19579.0	6.390764480582996e+17
19580.0	6.389882049353044e+17
19581.0	6.389003188174847e+17
19582.0	6.388115758033578e+17
19583.0	6.387211839384234e+17
19584.0	6.386290954076159e+17
19585.0	6.385296062371156e+17
19586.0	6.384606506210644e+17
19587.0	6.383768706569556e+17
19588.0	6.382610749412691e+17
19589.0	6.381942029855401e+17
19590.0	6.380960565515604e+17
19591.0	6.380082962628608e+17
19592.0	6.379140572424873e+17
19593.0	6.378166537595562e+17
19594.0	6.377036881504938e+17
19595.0	6.376244778805929e+17
19596.0	6.374834274915668e+17
19597.0	6.37430728228864e+17
19598.0	6.373107499532287e+17
19599.0	6.372357376922964e+17
19600.0	6.371380977904297e+17
19601.0	6.37034215575825e+17
19602.0	6.369329332704598e+17
19603.0	6.367967902171135e+17
19604.0	6.367403141933738e+17
19605.0	6.366373322861226e+17
19606.0	6.365578808437417e+17
19607.0	6.364579333057193e+17
19608.0	6.363554856129876e+17
19609.0	6.362516068237311e+17
19610.0	6.361569569013759e+17
19611.0	6.360642719405396e+17
19612.0	6.359650950359721e+17
19613.0	6.358614590969172e+17
19614.0	6.357559916451156e+17
19615.0	6.356544389469524e+17
19616.0	6.355346434730665e+17
19617.0	6.354436218333866e+17
19618.0	6.353035071236777e+17
19619.0	6.351889949349203e+17
19620.0	6.350911251851946e+17
19621.0	6.350247439630335e+17
19622.0	6.349249212055552e+17
19623.0	6.348197097461076e+17
19624.0	6.347131168926377e+17
19625.0	6.346072912472746e+17
19626.0	6.344994087152297e+17
19627.0	6.343860511484585e+17
19628.0	6.342479039168511e+17
19629.0	6.341267393522345e+17
19630.0	6.337030505452884e+17
19631.0	6.325950584542551e+17
19632.0	6.33784587325713e+17
19633.0	6.337358542667776e+17
19634.0	6.336466844822188e+17
19635.0	6.335410106007551e+17
19636.0	6.33434766713378e+17
19637.0	6.333007442302292e+17
19638.0	6.332318519481683e+17
19639.0	6.331294956213587e+17
19640.0	6.330144448140627e+17
19641.0	6.328619750129664e+17
19642.0	6.328064779397802e+17
19643.0	6.326984716058621e+17
19644.0	6.325854564341075e+17
19645.0	6.324659203779242e+17
19646.0	6.323695201725098e+17
19647.0	6.32266127712802e+17
19648.0	6.321576676950015e+17
19649.0	6.320487890157567e+17
19650.0	6.319485053042688e+17
19651.0	6.318413311901695e+17
19652.0	6.317325942784e+17
19653.0	6.316226569568255e+17
19654.0	6.315136142802943e+17
19655.0	6.314040419330729e+17
19656.0	6.312950490289491e+17
19657.0	6.311859305054207e+17
19658.0	6.310762932862975e+17
19659.0	6.309664851492864e+17
19660.0	6.308567688675327e+17
19661.0	6.307468360897876e+17
19662.0	6.306365931432618e+17
19663.0	6.305223209385983e+17
19664.0	6.304115109920767e+17
19665.0	6.30306280448546e+17
