# Flux units: erg / (cm m2 s)
# Wavelength units: Angstrom
wave	flux
19000.0	6.86982187590178e+17
19001.0	6.868493493687636e+17
19002.0	6.867272393381204e+17
19003.0	6.865989223667027e+17
19004.0	6.864705382864212e+17
19005.0	6.863445234286591e+17
19006.0	6.862168910375593e+17
19007.0	6.86062168056354e+17
19008.0	6.859583347752959e+17
19009.0	6.858281767840426e+17
19010.0	6.856828029064531e+17
19011.0	6.855719814955007e+17
19012.0	6.853853411191465e+17
19013.0	6.853231412685481e+17
19014.0	6.851915651831123e+17
19015.0	6.850650054852607e+17
19016.0	6.849365400354815e+17
19017.0	6.848105367120553e+17
19018.0	6.846792156403028e+17
19019.0	6.845558758397268e+17
19020.0	6.844264176680959e+17
19021.0	6.842999970114217e+17
19022.0	6.841727082037247e+17
19023.0	6.840413399460521e+17
19024.0	6.83913570820642e+17
19025.0	6.837801222580906e+17
19026.0	6.836513567757652e+17
19027.0	6.834678992470015e+17
19028.0	6.834038644583081e+17
19029.0	6.832745037343402e+17
19030.0	6.831478808423082e+17
19031.0	6.830200520878761e+17
19032.0	6.828920459143849e+17
19033.0	6.827591271623338e+17
19034.0	6.826357221403306e+17
19035.0	6.825002654848339e+17
19036.0	6.781950723358721e+17
19037.0	6.822496985328297e+17
19038.0	6.821225041668778e+17
19039.0	6.819961067186858e+17
19040.0	6.818681940781737e+17
19041.0	6.817401101702484e+17
19042.0	6.816067334701055e+17
19043.0	6.814844574848339e+17
19044.0	6.813558827734356e+17
19045.0	6.812262041212244e+17
19046.0	6.810976438801748e+17
19047.0	6.80971179532834e+17
19048.0	6.80833724850722e+17
19049.0	6.807105320605012e+17
19050.0	6.805856881825107e+17
19051.0	6.798518259111246e+17
19052.0	6.801918750534313e+17
19053.0	6.801975812642131e+17
19054.0	6.800761725911039e+17
19055.0	6.799346067920212e+17
19056.0	6.798192819568637e+17
19057.0	6.79691247751441e+17
19058.0	6.795563404099581e+17
19059.0	6.794362733548884e+17
19060.0	6.793072317475497e+17
19061.0	6.791805086815572e+17
19062.0	6.790522685358079e+17
19063.0	6.789243863739049e+17
19064.0	6.787902275059711e+17
19065.0	6.78659050508561e+17
19066.0	6.785374520431955e+17
19067.0	6.784124577994067e+17
19068.0	6.782846838505471e+17
19069.0	6.781567431781033e+17
19070.0	6.780275154834772e+17
19071.0	6.77898965099042e+17
19072.0	6.777721551410516e+17
19073.0	6.776447637826217e+17
19074.0	6.775171342576298e+17
19075.0	6.77389208195345e+17
19076.0	6.772602133544959e+17
19077.0	6.77132585926656e+17
19078.0	6.770040305090559e+17
19079.0	6.76877583917602e+17
19080.0	6.767491799842815e+17
19081.0	6.766198077958825e+17
19082.0	6.764915238196563e+17
19083.0	6.763598151942143e+17
19084.0	6.762252231944874e+17
19085.0	6.761098372623018e+17
19086.0	6.759569815153321e+17
19087.0	6.757280291400362e+17
19088.0	6.757132635821396e+17
19089.0	6.75522194510097e+17
19090.0	6.754669640548351e+17
19091.0	6.75340534030882e+17
19092.0	6.751812253472084e+17
19093.0	6.750872165242195e+17
19094.0	6.749591349930665e+17
19095.0	6.748312063442943e+17
19096.0	6.747027605378387e+17
19097.0	6.745762422936915e+17
19098.0	6.744483461507753e+17
19099.0	6.743204453941247e+17
19100.0	6.741867449636179e+17
19101.0	6.740632408861353e+17
19102.0	6.739327398707199e+17
19103.0	6.738103084864852e+17
19104.0	6.736825472603476e+17
19105.0	6.735533398381908e+17
19106.0	6.734029192342186e+17
19107.0	6.732976871527764e+17
19108.0	6.731702464413696e+17
19109.0	6.726745566740475e+17
19110.0	6.72899494261555e+17
19111.0	6.727867775844352e+17
19112.0	6.726604266231126e+17
19113.0	6.72533584019456e+17
19114.0	6.724059493214889e+17
19115.0	6.722671495959894e+17
19116.0	6.721494568665087e+17
19117.0	6.720213492607657e+17
19118.0	6.718691018975914e+17
19119.0	6.715694123756198e+17
19120.0	6.716054196365993e+17
19121.0	6.714859950789971e+17
19122.0	6.713852534194175e+17
19123.0	6.712576038316714e+17
19124.0	6.711091330897236e+17
19125.0	6.709982399561728e+17
19126.0	6.708733489621674e+17
19127.0	6.706539828084735e+17
19128.0	6.704564950532093e+17
19129.0	6.704881540792319e+17
19130.0	6.703642906897066e+17
19131.0	6.702322629476351e+17
19132.0	6.701097516619091e+17
19133.0	6.699460198050474e+17
19134.0	6.697844544460116e+17
19135.0	6.697261018906621e+17
19136.0	6.69600062775842e+17
19137.0	6.694637945924265e+17
19138.0	6.693374031560703e+17
19139.0	6.692173069505875e+17
19140.0	6.690902829432831e+17
19141.0	6.689628625742505e+17
19142.0	6.688328785068031e+17
19143.0	6.687051653753513e+17
19144.0	6.685790834087252e+17
19145.0	6.684516849199786e+17
19146.0	6.682905675126102e+17
19147.0	6.681926026919933e+17
19148.0	6.680681440608256e+17
19149.0	6.679412348376404e+17
19150.0	6.678154457033385e+17
19151.0	6.676883861842602e+17
19152.0	6.675567279603711e+17
19153.0	6.674320482194772e+17
19154.0	6.672993275783848e+17
19155.0	6.671774773848746e+17
19156.0	6.67050694480145e+17
19157.0	6.669151013699583e+17
19158.0	6.665432298334886e+17
19159.0	6.666653179139412e+17
19160.0	6.665358054959785e+17
19161.0	6.663989960376319e+17
19162.0	6.657169564194138e+17
19163.0	6.661346733064191e+17
19164.0	6.660315191530835e+17
19165.0	6.658928077875882e+17
19166.0	6.657570937416361e+17
19167.0	6.655954212181332e+17
19168.0	6.655183689875455e+17
19169.0	6.653897026306047e+17
19170.0	6.652740265224873e+17
19171.0	6.651132348028244e+17
19172.0	6.650161061167101e+17
19173.0	6.648904992249172e+17
19174.0	6.64762537021713e+17
19175.0	6.646381893997908e+17
19176.0	6.645106959799636e+17
19177.0	6.643748376499539e+17
19178.0	6.64239484244241e+17
19179.0	6.640817791128916e+17
19180.0	6.639878594887679e+17
19181.0	6.638671025405951e+17
19182.0	6.637430230046036e+17
19183.0	6.636166334556841e+17
19184.0	6.634868924481535e+17
19185.0	6.633632203887955e+17
19186.0	6.632360196614825e+17
19187.0	6.631044408497491e+17
19188.0	6.629788766000467e+17
19189.0	6.628457665877332e+17
19190.0	6.627157474978473e+17
19191.0	6.62590648745984e+17
19192.0	6.624693607290196e+17
19193.0	6.623360610642602e+17
19194.0	6.622105676982953e+17
19195.0	6.620856818772649e+17
19196.0	6.619572349523284e+17
19197.0	6.618264997549396e+17
19198.0	6.616853045925203e+17
19199.0	6.582949986871968e+17
19200.0	6.590981574317408e+17
19201.0	6.613047036608512e+17
19202.0	6.611891145845417e+17
19203.0	6.610557730466474e+17
19204.0	6.609350437808809e+17
19205.0	6.608105350976852e+17
19206.0	6.606822316179455e+17
19207.0	6.605497128626857e+17
19208.0	6.604173856473087e+17
19209.0	6.602993331164499e+17
19210.0	6.601722783509162e+17
19211.0	6.600443357910356e+17
19212.0	6.599162467101354e+17
19213.0	6.597552908533759e+17
19214.0	6.59610124034594e+17
19215.0	6.595179595169791e+17
19216.0	6.594041203042985e+17
19217.0	6.592764571549695e+17
19218.0	6.59103005418018e+17
19219.0	6.590115378539178e+17
19220.0	6.588889949011968e+17
19221.0	6.587456298855082e+17
19222.0	6.586349443700052e+17
19223.0	6.585072215916543e+17
19224.0	6.583771195244543e+17
19225.0	6.582428348973055e+17
19226.0	6.58121422938658e+17
19227.0	6.579927759454208e+17
19228.0	6.578653985680042e+17
19229.0	6.577368486029993e+17
19230.0	6.576021574079827e+17
19231.0	6.574746367950847e+17
19232.0	6.573495964139519e+17
19233.0	6.572176769548287e+17
19234.0	6.570921735225343e+17
19235.0	6.569633862298281e+17
19236.0	6.568356521268564e+17
19237.0	6.56705823178752e+17
19238.0	6.565674851063124e+17
19239.0	6.564485721838932e+17
19240.0	6.563155980670292e+17
19241.0	6.561705258298026e+17
19242.0	6.560212381772457e+17
19243.0	6.558841362361001e+17
19244.0	6.557637491556351e+17
19245.0	6.556342784010921e+17
19246.0	6.555039058711891e+17
19247.0	6.553750400750931e+17
19248.0	6.552445560466089e+17
19249.0	6.551139692576767e+17
19250.0	6.549846691414015e+17
19251.0	6.548483918703274e+17
19252.0	6.547113462027604e+17
19253.0	6.545944841551871e+17
19254.0	6.544649147645951e+17
19255.0	6.543259044151295e+17
19256.0	6.541981724093097e+17
19257.0	6.540737071371604e+17
19258.0	6.539437389381632e+17
19259.0	6.538093615469908e+17
19260.0	6.536095481200637e+17
19261.0	6.535512842742442e+17
19262.0	6.534177314832383e+17
19263.0	6.532855283493545e+17
19264.0	6.531298987693395e+17
19265.0	6.530162056582484e+17
19266.0	6.528858341769215e+17
19267.0	6.527634270497449e+17
19268.0	6.526316564884138e+17
19269.0	6.524997476548608e+17
19270.0	6.523675135530324e+17
19271.0	6.522179238406826e+17
19272.0	6.521011937039699e+17
19273.0	6.518499732094973e+17
19274.0	6.517604288036863e+17
19275.0	6.517051478769663e+17
19276.0	6.515711608356863e+17
19277.0	6.514382572530346e+17
19278.0	6.513058209158484e+17
19279.0	6.511666365726719e+17
19280.0	6.51034527670818e+17
19281.0	6.509035256457898e+17
19282.0	6.507696891101183e+17
19283.0	6.505837496718675e+17
19284.0	6.504455622448468e+17
19285.0	6.503563408004436e+17
19286.0	6.502302368836266e+17
19287.0	6.500966643094868e+17
19288.0	6.486890790256623e+17
19289.0	6.472372469104605e+17
19290.0	6.496900491160234e+17
19291.0	6.49540688552482e+17
19292.0	6.494184740836694e+17
19293.0	6.49281632608802e+17
19294.0	6.49145304097314e+17
19295.0	6.490082613657599e+17
19296.0	6.488703439121066e+17
19297.0	6.487310308037972e+17
19298.0	6.485944251187199e+17
19299.0	6.484564869032618e+17
19300.0	6.483184138409299e+17
19301.0	6.481793319785812e+17
19302.0	6.480393703609683e+17
19303.0	6.478961009055059e+17
19304.0	6.477586571984895e+17
19305.0	6.476194177701204e+17
19306.0	6.474775625640617e+17
19307.0	6.473321997314729e+17
19308.0	6.471919389201748e+17
19309.0	6.469335713316861e+17
19310.0	6.467564820146856e+17
19311.0	6.467518208846506e+17
19312.0	6.466269304498857e+17
19313.0	6.464832398863018e+17
19314.0	6.433904759493998e+17
19315.0	6.433791333629971e+17
19316.0	6.46038464635426e+17
19317.0	6.45905700233762e+17
19318.0	6.457591476868436e+17
19319.0	6.4561368530944e+17
19320.0	6.454662303580159e+17
19321.0	6.453185344438271e+17
19322.0	6.451566809361066e+17
19323.0	6.449700696402602e+17
19324.0	6.44868193980689e+17
19325.0	6.446110003778902e+17
19326.0	6.445692389512532e+17
19327.0	6.444196245624148e+17
19328.0	6.442676676547923e+17
19329.0	6.441161085769044e+17
19330.0	6.439606565557588e+17
19331.0	6.438060452828502e+17
19332.0	6.436518495955625e+17
19333.0	6.434956517572608e+17
19334.0	6.433405560422399e+17
19335.0	6.431814892300969e+17
19336.0	6.430232325477716e+17
19337.0	6.428657213330771e+17
19338.0	6.426947096324777e+17
19339.0	6.425442575712255e+17
19340.0	6.423794944748201e+17
19341.0	6.422175022754473e+17
19342.0	6.420303799036585e+17
19343.0	6.41890495041809e+17
19344.0	6.417236964496724e+17
19345.0	6.41459713946419e+17
19346.0	6.413385668580691e+17
19347.0	6.41213696905489e+17
19348.0	6.410473918431231e+17
19349.0	6.40872141099281e+17
19350.0	6.406984704196605e+17
19351.0	6.405246361621844e+17
19352.0	6.403444887082323e+17
19353.0	6.401713899918676e+17
19354.0	6.399919704593748e+17
19355.0	6.398063732763305e+17
19356.0	6.396279865212927e+17
19357.0	6.394436184790356e+17
19358.0	6.392149058082131e+17
19359.0	6.389957241339901e+17
19360.0	6.38809777705233e+17
19361.0	6.386189478483284e+17
19362.0	6.384283033097555e+17
19363.0	6.382328762160467e+17
19364.0	6.380353477061289e+17
19365.0	6.378358173248169e+17
19366.0	6.376340048226985e+17
19367.0	6.374299438241107e+17
19368.0	6.372235355531945e+17
19369.0	6.370096440147965e+17
19370.0	6.367885965743444e+17
19371.0	6.365864676119891e+17
19372.0	6.3637245933213e+17
19373.0	6.361513353456297e+17
19374.0	6.359307010441215e+17
19375.0	6.357052349044052e+17
19376.0	6.354769907373396e+17
19377.0	6.352452658571946e+17
19378.0	6.349400370577408e+17
19379.0	6.346680404978346e+17
19380.0	6.344265685445289e+17
19381.0	6.341814108465834e+17
19382.0	6.339284195868672e+17
19383.0	6.336733466940756e+17
19384.0	6.334222237870761e+17
19385.0	6.331609647852201e+17
19386.0	6.328954833775274e+17
19387.0	6.326139881171624e+17
19388.0	6.321989328655702e+17
19389.0	6.319171779777875e+17
19390.0	6.316288065754452e+17
19391.0	6.278155092361171e+17
19392.0	6.30917585226956e+17
19393.0	6.30719246447411e+17
19394.0	6.302166654386175e+17
19395.0	6.298895594291199e+17
19396.0	6.295612530098176e+17
19397.0	6.292364093379924e+17
19398.0	6.286549745052333e+17
19399.0	6.282442581213183e+17
19400.0	6.279130123337728e+17
19401.0	6.273099117537961e+17
19402.0	6.268352409720148e+17
19403.0	6.263570163564544e+17
19404.0	6.256310857236479e+17
19405.0	6.251372399820797e+17
19406.0	6.242808021123072e+17
19407.0	6.235766929752068e+17
19408.0	6.227096024121343e+17
19409.0	6.216324143382532e+17
19410.0	6.205716414420306e+17
19411.0	6.195146725698222e+17
19412.0	6.186828621152255e+17
19413.0	6.180292362502143e+17
19414.0	6.17347883938611e+17
19415.0	6.166441610270038e+17
19416.0	6.158850406569299e+17
19417.0	6.15092697834018e+17
19418.0	6.143502921149097e+17
19419.0	6.135193218493097e+17
19420.0	6.126116377635498e+17
19421.0	6.117188763822762e+17
19422.0	6.107873668322643e+17
19423.0	6.098222328053759e+17
19424.0	6.0872623376739e+17
19425.0	6.076555637817344e+17
19426.0	6.064852484576598e+17
19427.0	6.052359829804372e+17
19428.0	6.038849489382057e+17
19429.0	6.02434635510579e+17
19430.0	6.007000204137815e+17
19431.0	5.983189213730138e+17
19432.0	5.964945119597905e+17
19433.0	5.934963835447978e+17
19434.0	5.894854341033975e+17
19435.0	5.862456762389841e+17
19436.0	5.835329948177747e+17
19437.0	5.809642684110164e+17
19438.0	5.737649053980007e+17
19439.0	5.7464570210768237e+17
19440.0	5.714824026303145e+17
19441.0	5.6759068194242515e+17
19442.0	5.62819180125662e+17
19443.0	5.559984814642519e+17
19444.0	5.4770702305198054e+17
19445.0	5.4070671527553715e+17
19446.0	5.3224314380834086e+17
19447.0	5.208231789985786e+17
19448.0	5.054417641056942e+17
19449.0	4.847991130510677e+17
19450.0	4.495284948172758e+17
19451.0	4.397441605784918e+17
19452.0	4.679515645848243e+17
19453.0	4.965092389027849e+17
19454.0	5.1309355319951277e+17
19455.0	5.2651706761434464e+17
19456.0	5.359079728523948e+17
19457.0	5.4329206874221184e+17
19458.0	5.4607911985698605e+17
19459.0	5.580073163816982e+17
19460.0	5.636436559309483e+17
19461.0	5.676619979729579e+17
19462.0	5.710881451846316e+17
19463.0	5.7410967522945683e+17
19464.0	5.768897485602815e+17
19465.0	5.795622046487894e+17
19466.0	5.819575794226515e+17
19467.0	5.843849105287852e+17
19468.0	5.881121103413249e+17
19469.0	5.913097464184826e+17
19470.0	5.937472108232703e+17
19471.0	5.956156602187773e+17
19472.0	5.971507095622995e+17
19473.0	5.984707396588884e+17
19474.0	5.996379221874004e+17
19475.0	6.006063669182463e+17
19476.0	6.016757625345363e+17
19477.0	6.025262414867114e+17
19478.0	6.033954159198205e+17
19479.0	6.041795184033791e+17
19480.0	6.048941537755136e+17
19481.0	6.055725151289344e+17
19482.0	6.062404014877353e+17
19483.0	6.068774418863443e+17
19484.0	6.074528608987818e+17
19485.0	6.079965072195583e+17
19486.0	6.08510282965538e+17
19487.0	6.089927294975999e+17
19488.0	6.094500196428458e+17
19489.0	6.098729437582676e+17
19490.0	6.102325935822162e+17
19491.0	6.110519646399145e+17
19492.0	6.119926051897339e+17
19493.0	6.127464631063896e+17
19494.0	6.133299839762435e+17
19495.0	6.140862852147881e+17
19496.0	6.144405036247725e+17
19497.0	6.149679430150826e+17
19498.0	6.14627092061662e+17
19499.0	6.10328956877755e+17
19500.0	6.158571002309289e+17
19501.0	6.162124132843517e+17
19502.0	6.164412905117012e+17
19503.0	6.165647745264297e+17
19504.0	6.16785162482483e+17
19505.0	6.170303265417897e+17
19506.0	6.171239183810559e+17
19507.0	6.172103203444052e+17
19508.0	6.173193408610304e+17
19509.0	6.17557228851473e+17
19510.0	6.176099968308564e+17
19511.0	6.116855314557595e+17
19512.0	6.167303265714172e+17
19513.0	6.162407216207168e+17
19514.0	6.166133084957338e+17
19515.0	6.179179685653162e+17
19516.0	6.180273430112937e+17
19517.0	6.180514528493565e+17
19518.0	6.18075903824145e+17
19519.0	6.180907903178067e+17
19520.0	6.181045312072361e+17
19521.0	6.181154471630163e+17
19522.0	6.181192174927871e+17
19523.0	6.181225830722218e+17
19524.0	6.181206029413034e+17
19525.0	6.181940099721898e+17
19526.0	6.182070393678506e+17
19527.0	6.181959247418708e+17
19528.0	6.181812292288511e+17
19529.0	6.181642578165759e+17
19530.0	6.181445787014484e+17
19531.0	6.181218144660138e+17
19532.0	6.180964106152618e+17
19533.0	6.180684485186899e+17
19534.0	6.180377819348991e+17
19535.0	6.180045364832937e+17
19536.0	6.179678196858879e+17
19537.0	6.17932565652002e+17
19538.0	6.178853098269353e+17
19539.0	6.178247377857193e+17
19540.0	6.178059923925674e+17
19541.0	6.177616198718804e+17
19542.0	6.177138454910292e+17
19543.0	6.176641863996756e+17
19544.0	6.176139367503188e+17
19545.0	6.17534971847202e+17
19546.0	6.17462777389602e+17
19547.0	6.174673488314367e+17
19548.0	6.174547439692457e+17
19549.0	6.173907817420115e+17
19550.0	6.173351305980585e+17
19551.0	6.172731407422804e+17
19552.0	6.172095776030719e+17
19553.0	6.171433881305087e+17
19554.0	6.170767579764052e+17
19555.0	6.170104306510506e+17
19556.0	6.169426053999273e+17
19557.0	6.168725573773993e+17
19558.0	6.16801683706129e+17
19559.0	6.167293773305172e+17
19560.0	6.166550758643027e+17
19561.0	6.165815239202131e+17
19562.0	6.165072098710867e+17
19563.0	6.164310013247487e+17
19564.0	6.163538993916585e+17
19565.0	6.162758544392191e+17
19566.0	6.161958729766228e+17
19567.0	6.161170185235113e+17
19568.0	6.160351499037353e+17
19569.0	6.159548312190975e+17
19570.0	6.158731661628756e+17
19571.0	6.157899317379071e+17
19572.0	6.157050801990314e+17
19573.0	6.156208966030676e+17
19574.0	6.155324676025002e+17
19575.0	6.154513624858623e+17
19576.0	6.15365039235618e+17
19577.0	6.152770281974441e+17
19578.0	6.151880159090004e+17
19579.0	6.151007006359551e+17
19580.0	6.150118122891944e+17
19581.0	6.149228836072105e+17
19582.0	6.148337175276201e+17
19583.0	6.147431687957161e+17
19584.0	6.146500118358697e+17
19585.0	6.145546941803177e+17
19586.0	6.14458658529826e+17
19587.0	6.143553189183487e+17
19588.0	6.142577850624682e+17
19589.0	6.141865130721279e+17
19590.0	6.140896772882432e+17
19591.0	6.140008895348735e+17
19592.0	6.139065561426602e+17
19593.0	6.138104134675113e+17
19594.0	6.137011604466346e+17
19595.0	6.136170034145961e+17
19596.0	6.131762652512257e+17
19597.0	6.13408379432687e+17
19598.0	6.133130401065642e+17
19599.0	6.132332772371114e+17
19600.0	6.131357659605674e+17
19601.0	6.130341969046186e+17
19602.0	6.129363764379647e+17
19603.0	6.127681520620883e+17
19604.0	6.127308971354793e+17
19605.0	6.126276968447999e+17
19606.0	6.125436395672916e+17
19607.0	6.124442730102783e+17
19608.0	6.123437837778943e+17
19609.0	6.122407546847231e+17
19610.0	6.121433991566676e+17
19611.0	6.120423526410921e+17
19612.0	6.119423616221183e+17
19613.0	6.118412589028692e+17
19614.0	6.117377095761917e+17
19615.0	6.116365981887145e+17
19616.0	6.115046128790185e+17
19617.0	6.114339373886121e+17
19618.0	6.113023937391273e+17
19619.0	6.111941070858921e+17
19620.0	6.110927524287827e+17
19621.0	6.110242790178815e+17
19622.0	6.10922120941841e+17
19623.0	6.108190714363903e+17
19624.0	6.10715826266658e+17
19625.0	6.10612084351522e+17
19626.0	6.105086180021588e+17
19627.0	6.104038627431764e+17
19628.0	6.102191458047318e+17
19629.0	6.101880741909843e+17
19630.0	6.097854608528724e+17
19631.0	6.064828998571356e+17
19632.0	6.098786674453161e+17
19633.0	6.097743858630656e+17
19634.0	6.096748592234496e+17
19635.0	6.09568101114402e+17
19636.0	6.094648752384682e+17
19637.0	6.093396572984659e+17
19638.0	6.092549916371625e+17
19639.0	6.091484912680959e+17
19640.0	6.090382546829312e+17
19641.0	6.089024227770368e+17
19642.0	6.088340107427839e+17
19643.0	6.087268691345407e+17
19644.0	6.086191706625364e+17
19645.0	6.085025033005737e+17
19646.0	6.08410054828578e+17
19647.0	6.08304843718656e+17
19648.0	6.081988008782506e+17
19649.0	6.080924552090964e+17
19650.0	6.079863238688767e+17
19651.0	6.078799584864937e+17
19652.0	6.077735209620819e+17
19653.0	6.0766532665344e+17
19654.0	6.075604039019178e+17
19655.0	6.074535009495721e+17
19656.0	6.073466713276415e+17
19657.0	6.072402368091476e+17
19658.0	6.071333780368041e+17
19659.0	6.07026371694865e+17
19660.0	6.069194708396714e+17
19661.0	6.068124215760212e+17
19662.0	6.067053042947411e+17
19663.0	6.06593639129634e+17
19664.0	6.064766773974356e+17
19665.0	6.063836531873108e+17
