# Flux units: erg / (cm m2 s)
# Wavelength units: Angstrom
wave	flux
19000.0	4.438746227277822e+17
19001.0	4.437853563344213e+17
19002.0	4.4371161634570234e+17
19003.0	4.4362939044113056e+17
19004.0	4.435488417688234e+17
19005.0	4.4346745192884896e+17
19006.0	4.433864745986729e+17
19007.0	4.432985281527807e+17
19008.0	4.43218024079906e+17
19009.0	4.4312839445981856e+17
19010.0	4.430240899487059e+17
19011.0	4.429715063089834e+17
19012.0	4.428649323298815e+17
19013.0	4.4281455104928416e+17
19014.0	4.4272901660781216e+17
19015.0	4.426483773385387e+17
19016.0	4.425652175022762e+17
19017.0	4.4248801141063674e+17
19018.0	4.424053185402196e+17
19019.0	4.4232485892696736e+17
19020.0	4.422423194282666e+17
19021.0	4.421623132891819e+17
19022.0	4.420806107638442e+17
19023.0	4.419968298210645e+17
19024.0	4.419164263415807e+17
19025.0	4.418344897740799e+17
19026.0	4.417507669224106e+17
19027.0	4.416496209319252e+17
19028.0	4.415926406829397e+17
19029.0	4.415096521140906e+17
19030.0	4.414306036744192e+17
19031.0	4.413495392425302e+17
19032.0	4.412676174249983e+17
19033.0	4.4117960925293216e+17
19034.0	4.411046318746283e+17
19035.0	4.4100919132596896e+17
19036.0	4.390231554566829e+17
19037.0	4.4085809180398925e+17
19038.0	4.407787285118975e+17
19039.0	4.4069935326603936e+17
19040.0	4.406181501424981e+17
19041.0	4.405357596114942e+17
19042.0	4.4044484101188256e+17
19043.0	4.403746378700117e+17
19044.0	4.402923566006272e+17
19045.0	4.402115575982761e+17
19046.0	4.401265108844542e+17
19047.0	4.4004665063724365e+17
19048.0	4.399515061365418e+17
19049.0	4.398748248921429e+17
19050.0	4.39802586604066e+17
19051.0	4.394975627662675e+17
19052.0	4.3957096308626765e+17
19053.0	4.3956216546372256e+17
19054.0	4.394820036460544e+17
19055.0	4.393807355314176e+17
19056.0	4.3931806270313805e+17
19057.0	4.3923894044371616e+17
19058.0	4.3915233267985056e+17
19059.0	4.3907553951743994e+17
19060.0	4.389950828402004e+17
19061.0	4.3891608060777805e+17
19062.0	4.3883475312312314e+17
19063.0	4.3875399124036256e+17
19064.0	4.3866279476811085e+17
19065.0	4.385791959979349e+17
19066.0	4.3850621364032845e+17
19067.0	4.3842939419361274e+17
19068.0	4.3834989913047034e+17
19069.0	4.3826916716707834e+17
19070.0	4.381862243161428e+17
19071.0	4.381066322247679e+17
19072.0	4.3802501428456096e+17
19073.0	4.379459011827029e+17
19074.0	4.378656065454079e+17
19075.0	4.377849048509098e+17
19076.0	4.377027180931753e+17
19077.0	4.3762176159470925e+17
19078.0	4.375401220538368e+17
19079.0	4.374619103778132e+17
19080.0	4.3738006741319674e+17
19081.0	4.372979941812906e+17
19082.0	4.372170670429525e+17
19083.0	4.371321545468586e+17
19084.0	4.370425263947775e+17
19085.0	4.369777124442112e+17
19086.0	4.36869111218176e+17
19087.0	4.367678791745536e+17
19088.0	4.367255365571925e+17
19089.0	4.366207355103914e+17
19090.0	4.365736445214719e+17
19091.0	4.364924513943551e+17
19092.0	4.363985365237759e+17
19093.0	4.363348382580734e+17
19094.0	4.3625427951943686e+17
19095.0	4.3617384234571085e+17
19096.0	4.36092211892497e+17
19097.0	4.3601286873306445e+17
19098.0	4.3593102248290976e+17
19099.0	4.35850333650944e+17
19100.0	4.357687266858325e+17
19101.0	4.356899194885461e+17
19102.0	4.3560234661533005e+17
19103.0	4.355311674589182e+17
19104.0	4.3545117956505594e+17
19105.0	4.353671192117247e+17
19106.0	4.352818137792511e+17
19107.0	4.3520777012292256e+17
19108.0	4.351288126297428e+17
19109.0	4.349295610997417e+17
19110.0	4.349602139821396e+17
19111.0	4.348881187897343e+17
19112.0	4.348081858412544e+17
19113.0	4.34729204790067e+17
19114.0	4.3464836461363194e+17
19115.0	4.3456195524034554e+17
19116.0	4.344875206049791e+17
19117.0	4.344070958743551e+17
19118.0	4.3430789513216006e+17
19119.0	4.3362343001784256e+17
19120.0	4.341545931112447e+17
19121.0	4.3407786104586234e+17
19122.0	4.3400913716510714e+17
19123.0	4.339291276705791e+17
19124.0	4.338425513639934e+17
19125.0	4.337672914993151e+17
19126.0	4.3368848388259834e+17
19127.0	4.3345934583944525e+17
19128.0	4.334882647965695e+17
19129.0	4.3344421481786016e+17
19130.0	4.3336762235289594e+17
19131.0	4.332887390289919e+17
19132.0	4.3320960341770234e+17
19133.0	4.3311268165058554e+17
19134.0	4.330334281793536e+17
19135.0	4.329697567571968e+17
19136.0	4.328909005564587e+17
19137.0	4.327982569794218e+17
19138.0	4.327281466714794e+17
19139.0	4.3265154204303354e+17
19140.0	4.3257203523584e+17
19141.0	4.324922069352447e+17
19142.0	4.324103792798378e+17
19143.0	4.3232849101673805e+17
19144.0	4.3224989905715194e+17
19145.0	4.3217317076664314e+17
19146.0	4.3204873527405216e+17
19147.0	4.320023161427284e+17
19148.0	4.319326324654078e+17
19149.0	4.318525508288511e+17
19150.0	4.317750222651392e+17
19151.0	4.316954958146218e+17
19152.0	4.316144352275114e+17
19153.0	4.315332070779561e+17
19154.0	4.3144650794816845e+17
19155.0	4.313775229020842e+17
19156.0	4.3129839833579526e+17
19157.0	4.312156423411029e+17
19158.0	4.3105354773080736e+17
19159.0	4.310587049771008e+17
19160.0	4.3097836846667085e+17
19161.0	4.3089817742868474e+17
19162.0	4.3063465776687795e+17
19163.0	4.3072803338977274e+17
19164.0	4.30662965264384e+17
19165.0	4.3057632499466234e+17
19166.0	4.304890383127893e+17
19167.0	4.304072581928276e+17
19168.0	4.303429496558932e+17
19169.0	4.302616326569983e+17
19170.0	4.301871602728959e+17
19171.0	4.3009601049722874e+17
19172.0	4.3002750975344634e+17
19173.0	4.299487635832832e+17
19174.0	4.298656706461696e+17
19175.0	4.29790941221137e+17
19176.0	4.2971174758864205e+17
19177.0	4.2962071804968954e+17
19178.0	4.295475797338794e+17
19179.0	4.2945853179385165e+17
19180.0	4.2939187913031674e+17
19181.0	4.293061497236138e+17
19182.0	4.292332782354432e+17
19183.0	4.291577366533461e+17
19184.0	4.2907726997968205e+17
19185.0	4.289993181407914e+17
19186.0	4.289206387998719e+17
19187.0	4.2883665701983565e+17
19188.0	4.2876170019362125e+17
19189.0	4.2868187650676045e+17
19190.0	4.28601980817681e+17
19191.0	4.2852147248059725e+17
19192.0	4.284462315601919e+17
19193.0	4.283657657253887e+17
19194.0	4.2828668904407034e+17
19195.0	4.2820950546186234e+17
19196.0	4.281293646856191e+17
19197.0	4.2805093378730656e+17
19198.0	4.2797200062109005e+17
19199.0	4.268121631577425e+17
19200.0	4.270117495330137e+17
19201.0	4.2773561510024525e+17
19202.0	4.2765727270174714e+17
19203.0	4.275751981416447e+17
19204.0	4.2749724385607674e+17
19205.0	4.274198281890474e+17
19206.0	4.273403821992618e+17
19207.0	4.272520952457898e+17
19208.0	4.271673772954965e+17
19209.0	4.271048604254207e+17
19210.0	4.2702603358481056e+17
19211.0	4.2694818870067194e+17
19212.0	4.26869524459247e+17
19213.0	4.267759138155178e+17
19214.0	4.266893350622549e+17
19215.0	4.266285383461546e+17
19216.0	4.26554361380864e+17
19217.0	4.2647544645986976e+17
19218.0	4.2632871782208845e+17
19219.0	4.263072686407679e+17
19220.0	4.262372664060585e+17
19221.0	4.261359726362624e+17
19222.0	4.2607972065826125e+17
19223.0	4.2600212107100154e+17
19224.0	4.2592115737231354e+17
19225.0	4.2583421049896954e+17
19226.0	4.2576638867319456e+17
19227.0	4.256876964697429e+17
19228.0	4.2561066982440954e+17
19229.0	4.255320972285268e+17
19230.0	4.254518892036095e+17
19231.0	4.2537303321258656e+17
19232.0	4.252949721120767e+17
19233.0	4.252122436599808e+17
19234.0	4.251373518454783e+17
19235.0	4.2505864069775354e+17
19236.0	4.249820847931391e+17
19237.0	4.2490222650327046e+17
19238.0	4.248163015720959e+17
19239.0	4.247463209380523e+17
19240.0	4.246647323579732e+17
19241.0	4.245866637077162e+17
19242.0	4.2450889047627085e+17
19243.0	4.2442121092792314e+17
19244.0	4.243540570450602e+17
19245.0	4.2427525257407123e+17
19246.0	4.241957080181417e+17
19247.0	4.241178375487487e+17
19248.0	4.240398271294123e+17
19249.0	4.239605223478612e+17
19250.0	4.238809929613311e+17
19251.0	4.237921074806783e+17
19252.0	4.237075618463744e+17
19253.0	4.2364574766202874e+17
19254.0	4.235687621907797e+17
19255.0	4.2347884735802016e+17
19256.0	4.234066603802624e+17
19257.0	4.2333369885436576e+17
19258.0	4.232553950434645e+17
19259.0	4.2317213419438074e+17
19260.0	4.230595957052755e+17
19261.0	4.230186724403882e+17
19262.0	4.2293708148353696e+17
19263.0	4.2285527263259296e+17
19264.0	4.227395343788714e+17
19265.0	4.226873020121087e+17
19266.0	4.226060661729961e+17
19267.0	4.225491440850261e+17
19268.0	4.224701266132992e+17
19269.0	4.223917965879978e+17
19270.0	4.2231269942449485e+17
19271.0	4.22207028199424e+17
19272.0	4.221537346737493e+17
19273.0	4.2196174243539616e+17
19274.0	4.219171301403305e+17
19275.0	4.219209524095659e+17
19276.0	4.2184083575057056e+17
19277.0	4.217627248776533e+17
19278.0	4.2168404637559456e+17
19279.0	4.2160304108339194e+17
19280.0	4.2152070088403616e+17
19281.0	4.214478378543787e+17
19282.0	4.2137084867816096e+17
19283.0	4.21274001150225e+17
19284.0	4.21199612023057e+17
19285.0	4.2112100615236256e+17
19286.0	4.210533834162175e+17
19287.0	4.209772333804202e+17
19288.0	4.202419977540941e+17
19289.0	4.196744460675746e+17
19290.0	4.2074125281962656e+17
19291.0	4.206435171478187e+17
19292.0	4.205832226996223e+17
19293.0	4.205043541256874e+17
19294.0	4.204254111028564e+17
19295.0	4.2034725101677216e+17
19296.0	4.202662232151381e+17
19297.0	4.201868880248831e+17
19298.0	4.201082503473833e+17
19299.0	4.200295761095338e+17
19300.0	4.1995150878747296e+17
19301.0	4.1987290829946874e+17
19302.0	4.197922209355093e+17
19303.0	4.197089725295273e+17
19304.0	4.196326826835968e+17
19305.0	4.19554904838417e+17
19306.0	4.194758678631765e+17
19307.0	4.1939300197771936e+17
19308.0	4.193150762134186e+17
19309.0	4.191950157294249e+17
19310.0	4.1910499254381216e+17
19311.0	4.1907063350449485e+17
19312.0	4.189996810502143e+17
19313.0	4.189203817911636e+17
19314.0	4.1594514581750016e+17
19315.0	4.1599222275549914e+17
19316.0	4.1867498131292154e+17
19317.0	4.186013307327829e+17
19318.0	4.1852118443403936e+17
19319.0	4.1844229558763526e+17
19320.0	4.183612105337514e+17
19321.0	4.1828072610420045e+17
19322.0	4.1819171150888954e+17
19323.0	4.1810476309763405e+17
19324.0	4.180402250623657e+17
19325.0	4.179201530440362e+17
19326.0	4.178799523179179e+17
19327.0	4.177982026066602e+17
19328.0	4.177154547209557e+17
19329.0	4.176380719792127e+17
19330.0	4.175541907925674e+17
19331.0	4.1747235342035616e+17
19332.0	4.173936438105429e+17
19333.0	4.173120176914432e+17
19334.0	4.1723127160722765e+17
19335.0	4.171440673434282e+17
19336.0	4.17067280891904e+17
19337.0	4.169861675264682e+17
19338.0	4.168877921533951e+17
19339.0	4.168217284400468e+17
19340.0	4.167277568764586e+17
19341.0	4.1664815318084256e+17
19342.0	4.16541798633745e+17
19343.0	4.1649140365175456e+17
19344.0	4.164063318420138e+17
19345.0	4.161711224040105e+17
19346.0	4.1614927455409485e+17
19347.0	4.1614970782569805e+17
19348.0	4.1607475708122445e+17
19349.0	4.159873214316543e+17
19350.0	4.1590232176394234e+17
19351.0	4.15818395418624e+17
19352.0	4.15727353856e+17
19353.0	4.156510275196244e+17
19354.0	4.155659933887146e+17
19355.0	4.154727479290538e+17
19356.0	4.153940571237034e+17
19357.0	4.153077830167211e+17
19358.0	4.152190353189546e+17
19359.0	4.1512602928414714e+17
19360.0	4.150403496498516e+17
19361.0	4.14955498110976e+17
19362.0	4.1487045775851514e+17
19363.0	4.1474520808161274e+17
19364.0	4.1463835364338336e+17
19365.0	4.145491690389502e+17
19366.0	4.144590639945045e+17
19367.0	4.143684944308906e+17
19368.0	4.142774507711147e+17
19369.0	4.1417940828596896e+17
19370.0	4.140803247046655e+17
19371.0	4.139967034250581e+17
19372.0	4.1390684563483296e+17
19373.0	4.1381085080890016e+17
19374.0	4.1371742904866125e+17
19375.0	4.136220967829504e+17
19376.0	4.135260016432468e+17
19377.0	4.134279489519615e+17
19378.0	4.133301938465449e+17
19379.0	4.132315582868139e+17
19380.0	4.1313164493236896e+17
19381.0	4.130306549000873e+17
19382.0	4.129239316736682e+17
19383.0	4.12817189712691e+17
19384.0	4.127210425636181e+17
19385.0	4.1261672393168205e+17
19386.0	4.1251067661735245e+17
19387.0	4.124029276738901e+17
19388.0	4.1229380845131085e+17
19389.0	4.1218320297710925e+17
19390.0	4.120708115682645e+17
19391.0	4.102979897873734e+17
19392.0	4.117086600516946e+17
19393.0	4.117253269574997e+17
19394.0	4.116049569338708e+17
19395.0	4.1148149605771936e+17
19396.0	4.1135927564697594e+17
19397.0	4.1123811038330874e+17
19398.0	4.111077079340374e+17
19399.0	4.109228424473257e+17
19400.0	4.108380468325034e+17
19401.0	4.107151897264128e+17
19402.0	4.105798314972501e+17
19403.0	4.1044020101993805e+17
19404.0	4.1029922710705485e+17
19405.0	4.101529138451796e+17
19406.0	4.100053315267242e+17
19407.0	4.0985308940642976e+17
19408.0	4.096327628270251e+17
19409.0	4.0953620051176096e+17
19410.0	4.093781175435263e+17
19411.0	4.0921185756992845e+17
19412.0	4.0904102909050874e+17
19413.0	4.088663257033386e+17
19414.0	4.0868581886743885e+17
19415.0	4.08504618713088e+17
19416.0	4.082672611622912e+17
19417.0	4.0801300224409594e+17
19418.0	4.0783511628895565e+17
19419.0	4.076296211180202e+17
19420.0	4.0742163432079354e+17
19421.0	4.072060116533248e+17
19422.0	4.069805767611734e+17
19423.0	4.0672444480662163e+17
19424.0	4.0638507982520314e+17
19425.0	4.0613761581929805e+17
19426.0	4.0587959307250336e+17
19427.0	4.054634277983574e+17
19428.0	4.051546741058218e+17
19429.0	4.0468634434273286e+17
19430.0	4.0417234343253344e+17
19431.0	4.033612833882115e+17
19432.0	4.0289216146090643e+17
19433.0	4.019602352766973e+17
19434.0	4.0058266086714016e+17
19435.0	3.985849449796945e+17
19436.0	3.972018373044906e+17
19437.0	3.9642223237311136e+17
19438.0	3.923504567855799e+17
19439.0	3.938197430075388e+17
19440.0	3.929426774807893e+17
19441.0	3.914818871012009e+17
19442.0	3.897924040436395e+17
19443.0	3.8750494011337344e+17
19444.0	3.82946696355294e+17
19445.0	3.764481244353875e+17
19446.0	3.718904424344234e+17
19447.0	3.667445682274301e+17
19448.0	3.600066670843224e+17
19449.0	3.425240012729007e+17
19450.0	2.953797868453869e+17
19451.0	2.7890294735940144e+17
19452.0	3.234277619662866e+17
19453.0	3.528366312740174e+17
19454.0	3.636095429727567e+17
19455.0	3.6894197408945485e+17
19456.0	3.7366853694477664e+17
19457.0	3.786759651459066e+17
19458.0	3.7712035756114426e+17
19459.0	3.865345974599705e+17
19460.0	3.8946771849707514e+17
19461.0	3.908600937665876e+17
19462.0	3.92064072225041e+17
19463.0	3.931026785741482e+17
19464.0	3.941015629769385e+17
19465.0	3.9492619208403616e+17
19466.0	3.957057784905725e+17
19467.0	3.974263538537805e+17
19468.0	3.9889791171078816e+17
19469.0	3.9985353214743846e+17
19470.0	4.005576134623232e+17
19471.0	4.0104410225486483e+17
19472.0	4.01438265049088e+17
19473.0	4.01753986039808e+17
19474.0	4.019581897146368e+17
19475.0	4.021195266938197e+17
19476.0	4.0236569053538976e+17
19477.0	4.0247742777262074e+17
19478.0	4.0259663506527565e+17
19479.0	4.0278460433694714e+17
19480.0	4.0286232905427616e+17
19481.0	4.029313779236863e+17
19482.0	4.0299827819096736e+17
19483.0	4.030586055644501e+17
19484.0	4.0311092552226125e+17
19485.0	4.031537409774933e+17
19486.0	4.0326102393378125e+17
19487.0	4.033236652348757e+17
19488.0	4.0335617738233165e+17
19489.0	4.0335979685696845e+17
19490.0	4.032933285330942e+17
19491.0	4.034220599017472e+17
19492.0	4.0344012267192314e+17
19493.0	4.0345117948641274e+17
19494.0	4.034580860370942e+17
19495.0	4.034613932457983e+17
19496.0	4.034253231401642e+17
19497.0	4.034564113913172e+17
19498.0	4.029686434758651e+17
19499.0	4.0088435561594925e+17
19500.0	4.034316094930944e+17
19501.0	4.0341711964078074e+17
19502.0	4.0339913628276045e+17
19503.0	4.0338163967371936e+17
19504.0	4.033596608217087e+17
19505.0	4.0333596384296954e+17
19506.0	4.0331063444111354e+17
19507.0	4.0328103817379834e+17
19508.0	4.0325310781412685e+17
19509.0	4.032212159343274e+17
19510.0	4.031667834454014e+17
19511.0	3.982487370508966e+17
19512.0	4.025407945484971e+17
19513.0	4.023215620532901e+17
19514.0	4.024254114125135e+17
19515.0	4.029458652594176e+17
19516.0	4.029521976797866e+17
19517.0	4.0290599930866336e+17
19518.0	4.0286583269621754e+17
19519.0	4.028182440531285e+17
19520.0	4.0276886570052256e+17
19521.0	4.027254382264319e+17
19522.0	4.0267347198825805e+17
19523.0	4.026255874370217e+17
19524.0	4.0257394346120525e+17
19525.0	4.025228413894656e+17
19526.0	4.024714415221418e+17
19527.0	4.0241776505651194e+17
19528.0	4.02363129143842e+17
19529.0	4.0230814314659834e+17
19530.0	4.022542854870357e+17
19531.0	4.021982920878762e+17
19532.0	4.021416775821995e+17
19533.0	4.020844841926655e+17
19534.0	4.020263986746708e+17
19535.0	4.019673730733396e+17
19536.0	4.0190638188134394e+17
19537.0	4.018503735225002e+17
19538.0	4.017729941362004e+17
19539.0	4.016889975362902e+17
19540.0	4.016676967634261e+17
19541.0	4.0160798336614394e+17
19542.0	4.015466788596393e+17
19543.0	4.0148294941627725e+17
19544.0	4.014229059272704e+17
19545.0	4.013130073331029e+17
19546.0	4.0122813195659936e+17
19547.0	4.012353593016318e+17
19548.0	4.0117112947780256e+17
19549.0	4.0110177631163725e+17
19550.0	4.010443747448148e+17
19551.0	4.0098039993466874e+17
19552.0	4.009158828010154e+17
19553.0	4.008487895957504e+17
19554.0	4.007833678905343e+17
19555.0	4.00719765045248e+17
19556.0	4.006557933808298e+17
19557.0	4.005900998847146e+17
19558.0	4.0052448545122976e+17
19559.0	4.004583731538602e+17
19560.0	4.003898037633023e+17
19561.0	4.0032421148972365e+17
19562.0	4.002590869509462e+17
19563.0	4.0019345105660576e+17
19564.0	4.0012674855075834e+17
19565.0	4.0005988009028256e+17
19566.0	3.9999053279614285e+17
19567.0	3.9992542426562554e+17
19568.0	3.998565184219817e+17
19569.0	3.9978928715421e+17
19570.0	3.9972350376017914e+17
19571.0	3.99655094452224e+17
19572.0	3.9958575023390714e+17
19573.0	3.995176441741311e+17
19574.0	3.994460827069098e+17
19575.0	3.993840281889449e+17
19576.0	3.993156719389354e+17
19577.0	3.9924389103970976e+17
19578.0	3.991754899805526e+17
19579.0	3.991090250121216e+17
19580.0	3.9904026485063674e+17
19581.0	3.9897287196235085e+17
19582.0	3.9890552584055456e+17
19583.0	3.9883681957587616e+17
19584.0	3.987659793192276e+17
19585.0	3.9869104919674874e+17
19586.0	3.986187766551893e+17
19587.0	3.985542428142251e+17
19588.0	3.984522985078783e+17
19589.0	3.9842088862351354e+17
19590.0	3.983439548820138e+17
19591.0	3.982839267022165e+17
19592.0	3.98215396528401e+17
19593.0	3.9814457675393696e+17
19594.0	3.9805924049332896e+17
19595.0	3.9800192050571936e+17
19596.0	3.978610548757845e+17
19597.0	3.9785888900710394e+17
19598.0	3.97759270162705e+17
19599.0	3.977290230792191e+17
19600.0	3.9766035847796045e+17
19601.0	3.9758537879278925e+17
19602.0	3.975142701006847e+17
19603.0	3.974030168861354e+17
19604.0	3.973727509282816e+17
19605.0	3.972897084626261e+17
19606.0	3.972416863382186e+17
19607.0	3.9717385654326605e+17
19608.0	3.971032402624511e+17
19609.0	3.9703109138295456e+17
19610.0	3.969636546641919e+17
19611.0	3.968927438034261e+17
19612.0	3.968253865667242e+17
19613.0	3.967546947884372e+17
19614.0	3.966826605532501e+17
19615.0	3.9661409878234445e+17
19616.0	3.965302524084223e+17
19617.0	3.964731138943659e+17
19618.0	3.9635378098230605e+17
19619.0	3.962741573637461e+17
19620.0	3.962094625314133e+17
19621.0	3.961936128857429e+17
19622.0	3.9612574030888966e+17
19623.0	3.9605555764920314e+17
19624.0	3.9598453319270394e+17
19625.0	3.959154218281642e+17
19626.0	3.958454504914942e+17
19627.0	3.9577454927762765e+17
19628.0	3.956767658606591e+17
19629.0	3.9562241704809805e+17
19630.0	3.9538948735412883e+17
19631.0	3.9429774245888045e+17
19632.0	3.954240086431061e+17
19633.0	3.9534941350570656e+17
19634.0	3.952842925320874e+17
19635.0	3.952109472972799e+17
19636.0	3.951410246145365e+17
19637.0	3.9504625193888416e+17
19638.0	3.9500209067130874e+17
19639.0	3.9493232066123085e+17
19640.0	3.948424749645823e+17
19641.0	3.947061482007211e+17
19642.0	3.947223701607764e+17
19643.0	3.9465152473115296e+17
19644.0	3.945768071899817e+17
19645.0	3.9449003438025376e+17
19646.0	3.9443998738568525e+17
19647.0	3.9437220806219085e+17
19648.0	3.943024207156565e+17
19649.0	3.94231641346321e+17
19650.0	3.9416200953855994e+17
19651.0	3.940915554374996e+17
19652.0	3.9402156229044896e+17
19653.0	3.93950871490833e+17
19654.0	3.93880917840145e+17
19655.0	3.9381040683636045e+17
19656.0	3.937406767420757e+17
