# Flux units: erg / (cm m2 s)
# Wavelength units: Angstrom
wave	flux
19000.0	7.53486271680785e+17
19001.0	7.532866228103848e+17
19002.0	7.533124773391017e+17
19003.0	7.531799536904874e+17
19004.0	7.530430872595114e+17
19005.0	7.529023719953747e+17
19006.0	7.527659823169535e+17
19007.0	7.52627163856896e+17
19008.0	7.524541449022121e+17
19009.0	7.522955413509462e+17
19010.0	7.519325613894309e+17
19011.0	7.520592950809939e+17
19012.0	7.518699644780543e+17
19013.0	7.517985733694804e+17
19014.0	7.516220443415891e+17
19015.0	7.514998919484758e+17
19016.0	7.513586347802621e+17
19017.0	7.51238397646165e+17
19018.0	7.511017834326697e+17
19019.0	7.50964057448994e+17
19020.0	7.508185626356393e+17
19021.0	7.506931694436351e+17
19022.0	7.505539012143786e+17
19023.0	7.503900645698217e+17
19024.0	7.502652693457577e+17
19025.0	7.501372390550186e+17
19026.0	7.499843535983956e+17
19027.0	7.498417278287871e+17
19028.0	7.497218388219219e+17
19029.0	7.495727304758612e+17
19030.0	7.494516715378003e+17
19031.0	7.493163655277226e+17
19032.0	7.491749713455786e+17
19033.0	7.489743498160808e+17
19034.0	7.4888387783994e+17
19035.0	7.487155605602301e+17
19036.0	7.46760596863931e+17
19037.0	7.484823397815636e+17
19038.0	7.483473062614358e+17
19039.0	7.482221826233684e+17
19040.0	7.480864395668138e+17
19041.0	7.479431452251475e+17
19042.0	7.477468977954812e+17
19043.0	7.476674032915796e+17
19044.0	7.475221263024127e+17
19045.0	7.473890522213033e+17
19046.0	7.472099997603155e+17
19047.0	7.470958404523348e+17
19048.0	7.468413837727058e+17
19049.0	7.467791752538793e+17
19050.0	7.466545032025428e+17
19051.0	7.462140285812731e+17
19052.0	7.463434892694867e+17
19053.0	7.462683940312403e+17
19054.0	7.461251807794515e+17
19055.0	7.458219721665198e+17
19056.0	7.45833131811362e+17
19057.0	7.457057720500223e+17
19058.0	7.455598745834836e+17
19059.0	7.454277674292563e+17
19060.0	7.452775656281428e+17
19061.0	7.451515502810451e+17
19062.0	7.450072484675583e+17
19063.0	7.448691135392425e+17
19064.0	7.446493339669846e+17
19065.0	7.444687066846547e+17
19066.0	7.4440748578461e+17
19067.0	7.443006543451475e+17
19068.0	7.441680949051391e+17
19069.0	7.440293094402729e+17
19070.0	7.438702392027817e+17
19071.0	7.437449297570474e+17
19072.0	7.436077248457386e+17
19073.0	7.434637887755604e+17
19074.0	7.433292148113407e+17
19075.0	7.431886564141738e+17
19076.0	7.430534493896703e+17
19077.0	7.429056756711424e+17
19078.0	7.427447276437503e+17
19079.0	7.426241581809661e+17
19080.0	7.424747946814121e+17
19081.0	7.423140151252308e+17
19082.0	7.421779049272659e+17
19083.0	7.419844706172927e+17
19084.0	7.417620566026924e+17
19085.0	7.417713616661161e+17
19086.0	7.41379218149649e+17
19087.0	7.414517657676458e+17
19088.0	7.412971349213183e+17
19089.0	7.410705268823383e+17
19090.0	7.410517050829481e+17
19091.0	7.409167702687743e+17
19092.0	7.407455719216467e+17
19093.0	7.406514158086825e+17
19094.0	7.405122616644948e+17
19095.0	7.403742624918185e+17
19096.0	7.402237814898687e+17
19097.0	7.400909014652244e+17
19098.0	7.399478192155306e+17
19099.0	7.398061240221696e+17
19100.0	7.396639220170751e+17
19101.0	7.395257830342655e+17
19102.0	7.393275266727933e+17
19103.0	7.3924185437853e+17
19104.0	7.391057631947433e+17
19105.0	7.389589706637311e+17
19106.0	7.388143753887743e+17
19107.0	7.386679348996777e+17
19108.0	7.385352278201684e+17
19109.0	7.382493787324412e+17
19110.0	7.382388900364287e+17
19111.0	7.381147977777152e+17
19112.0	7.379756804035923e+17
19113.0	7.378340416935251e+17
19114.0	7.376903968478547e+17
19115.0	7.375200124753238e+17
19116.0	7.37395297502276e+17
19117.0	7.372525604438016e+17
19118.0	7.370660370885289e+17
19119.0	7.349707591035532e+17
19120.0	7.36813242192145e+17
19121.0	7.366904093431123e+17
19122.0	7.365631733137407e+17
19123.0	7.36419950694673e+17
19124.0	7.362666232982186e+17
19125.0	7.361329016165716e+17
19126.0	7.359801075957757e+17
19127.0	7.34803254400341e+17
19128.0	7.356534736551935e+17
19129.0	7.355111477783208e+17
19130.0	7.354190888173565e+17
19131.0	7.352871512528212e+17
19132.0	7.351442434861738e+17
19133.0	7.34940136350242e+17
19134.0	7.348424568821075e+17
19135.0	7.347196287866195e+17
19136.0	7.345805473437012e+17
19137.0	7.343434079666175e+17
19138.0	7.342874260318889e+17
19139.0	7.341557696255316e+17
19140.0	7.340150640082944e+17
19141.0	7.338742073961129e+17
19142.0	7.337147763086676e+17
19143.0	7.335543763369983e+17
19144.0	7.334198191499945e+17
19145.0	7.333034908276051e+17
19146.0	7.327751096063322e+17
19147.0	7.329684372411731e+17
19148.0	7.328769734519466e+17
19149.0	7.327327437804884e+17
19150.0	7.325906452348925e+17
19151.0	7.3244968250682e+17
19152.0	7.323076270227455e+17
19153.0	7.32152618689058e+17
19154.0	7.319495945224191e+17
19155.0	7.318822934194857e+17
19156.0	7.317378053789012e+17
19157.0	7.315823172168361e+17
19158.0	7.313628610254163e+17
19159.0	7.312954726809599e+17
19160.0	7.311539055536808e+17
19161.0	7.310105638163796e+17
19162.0	7.306439114620928e+17
19163.0	7.307084598433108e+17
19164.0	7.305943121395711e+17
19165.0	7.30385733456145e+17
19166.0	7.301430522849961e+17
19167.0	7.300472525641046e+17
19168.0	7.299157106622463e+17
19169.0	7.297747557635411e+17
19170.0	7.296424511974057e+17
19171.0	7.294876689367037e+17
19172.0	7.293526984709459e+17
19173.0	7.29215584576034e+17
19174.0	7.290370787726676e+17
19175.0	7.28928771637248e+17
19176.0	7.287842928241321e+17
19177.0	7.285460742526292e+17
19178.0	7.284935654812329e+17
19179.0	7.283419619437225e+17
19180.0	7.282061252143785e+17
19181.0	7.2800475821725e+17
19182.0	7.2791727566138e+17
19183.0	7.277855431983104e+17
19184.0	7.276338083790847e+17
19185.0	7.274894300894548e+17
19186.0	7.273545175050921e+17
19187.0	7.271591757654697e+17
19188.0	7.270658202053289e+17
19189.0	7.269230016375466e+17
19190.0	7.267787361746943e+17
19191.0	7.266145655237289e+17
19192.0	7.264923039389012e+17
19193.0	7.263426311793322e+17
19194.0	7.261890185702057e+17
19195.0	7.260523857619624e+17
19196.0	7.258924905048748e+17
19197.0	7.257418445269674e+17
19198.0	7.255400834050729e+17
19199.0	7.240041080291325e+17
19200.0	7.242025149661188e+17
19201.0	7.251178345725951e+17
19202.0	7.250267176523092e+17
19203.0	7.248920389702995e+17
19204.0	7.247393474303316e+17
19205.0	7.245449488498687e+17
19206.0	7.243978659332093e+17
19207.0	7.241952420429823e+17
19208.0	7.239962314058406e+17
19209.0	7.23966484423202e+17
19210.0	7.238239047909373e+17
19211.0	7.236886436599123e+17
19212.0	7.23540635619601e+17
19213.0	7.233348007100412e+17
19214.0	7.231782733392556e+17
19215.0	7.23099507106338e+17
19216.0	7.229586286837757e+17
19217.0	7.228010751066111e+17
19218.0	7.221772090168653e+17
19219.0	7.22404751406967e+17
19220.0	7.2235718044986e+17
19221.0	7.220374047555584e+17
19222.0	7.220693025772884e+17
19223.0	7.219211270444372e+17
19224.0	7.21758216921634e+17
19225.0	7.215553757664595e+17
19226.0	7.214795227572905e+17
19227.0	7.213335339947348e+17
19228.0	7.212041227993087e+17
19229.0	7.210567411083945e+17
19230.0	7.209049347063807e+17
19231.0	7.207540795725139e+17
19232.0	7.206106484965375e+17
19233.0	7.204207779468628e+17
19234.0	7.20304751055121e+17
19235.0	7.201468430592681e+17
19236.0	7.200240177599828e+17
19237.0	7.198642121211901e+17
19238.0	7.19668959720243e+17
19239.0	7.195619777052671e+17
19240.0	7.193303959207935e+17
19241.0	7.19177465864738e+17
19242.0	7.190378620911615e+17
19243.0	7.187828503653033e+17
19244.0	7.187502171422717e+17
19245.0	7.185970849207635e+17
19246.0	7.184404416473769e+17
19247.0	7.182927871868927e+17
19248.0	7.181503508600148e+17
19249.0	7.179985989839529e+17
19250.0	7.178361021399037e+17
19251.0	7.176246531544401e+17
19252.0	7.173500941544106e+17
19253.0	7.173803457118208e+17
19254.0	7.172416720950611e+17
19255.0	7.169636435667622e+17
19256.0	7.169216009819476e+17
19257.0	7.167865463504896e+17
19258.0	7.166354925464233e+17
19259.0	7.164314760074578e+17
19260.0	7.162851539375442e+17
19261.0	7.161667994867028e+17
19262.0	7.159827510504105e+17
19263.0	7.158248320095572e+17
19264.0	7.153922867199994e+17
19265.0	7.154400539705341e+17
19266.0	7.153026640904192e+17
19267.0	7.152507335737343e+17
19268.0	7.150905946275839e+17
19269.0	7.149345156278952e+17
19270.0	7.147754272150867e+17
19271.0	7.144227898479962e+17
19272.0	7.144398336819197e+17
19273.0	7.137345781017253e+17
19274.0	7.136896650750625e+17
19275.0	7.139939710577321e+17
19276.0	7.138263754779305e+17
19277.0	7.135691139274067e+17
19278.0	7.133894518942377e+17
19279.0	7.132132543561727e+17
19280.0	7.130169061234003e+17
19281.0	7.12903469773619e+17
19282.0	7.127522985290408e+17
19283.0	7.125757524443135e+17
19284.0	7.123922263386794e+17
19285.0	7.121647032423763e+17
19286.0	7.120772266983423e+17
19287.0	7.119408040247296e+17
19288.0	7.11261326776729e+17
19289.0	7.104094879612908e+17
19290.0	7.114506990430888e+17
19291.0	7.111193627284827e+17
19292.0	7.111244581087914e+17
19293.0	7.109563273357993e+17
19294.0	7.107863334529705e+17
19295.0	7.106274985159336e+17
19296.0	7.104549627450708e+17
19297.0	7.102326108061692e+17
19298.0	7.099258791176874e+17
19299.0	7.097741792509951e+17
19300.0	7.096044103226708e+17
19301.0	7.094315153795753e+17
19302.0	7.092527277189802e+17
19303.0	7.090419383577257e+17
19304.0	7.088944443992745e+17
19305.0	7.087293012290216e+17
19306.0	7.085595782982314e+17
19307.0	7.08356354482722e+17
19308.0	7.081912128503807e+17
19309.0	7.079792212617898e+17
19310.0	7.077691661833555e+17
19311.0	7.075047453753344e+17
19312.0	7.072507457350313e+17
19313.0	7.070774684112212e+17
19314.0	7.05644856764006e+17
19315.0	7.055519641152188e+17
19316.0	7.065215933874175e+17
19317.0	7.063372774943402e+17
19318.0	7.061494048314708e+17
19319.0	7.0597242533533e+17
19320.0	7.057839015766697e+17
19321.0	7.053476886478847e+17
19322.0	7.050467323762004e+17
19323.0	7.048747081706153e+17
19324.0	7.046973177724927e+17
19325.0	7.044750301462527e+17
19326.0	7.043059717330262e+17
19327.0	7.041046930959017e+17
19328.0	7.037069949228374e+17
19329.0	7.033266371209898e+17
19330.0	7.031004405432319e+17
19331.0	7.028884247674877e+17
19332.0	7.027056232278697e+17
19333.0	7.024708100117844e+17
19334.0	7.02043061957427e+17
19335.0	7.015779598510761e+17
19336.0	7.013639627560275e+17
19337.0	7.011463124221951e+17
19338.0	7.008007136564562e+17
19339.0	7.006289373342376e+17
19340.0	6.998699618074623e+17
19341.0	6.996662980094633e+17
19342.0	6.99237651535189e+17
19343.0	6.992215605772287e+17
19344.0	6.988642785776984e+17
19345.0	6.973263893408407e+17
19346.0	6.976939924040358e+17
19347.0	6.979054791382355e+17
19348.0	6.977041408720896e+17
19349.0	6.974375846739965e+17
19350.0	6.97193080168994e+17
19351.0	6.969332605823656e+17
19352.0	6.966577205346304e+17
19353.0	6.964497647053481e+17
19354.0	6.961912933078355e+17
19355.0	6.958696998021804e+17
19356.0	6.956650348238164e+17
19357.0	6.953732453433343e+17
19358.0	6.950717306699775e+17
19359.0	6.947718413593257e+17
19360.0	6.945002017346899e+17
19361.0	6.942288133488639e+17
19362.0	6.939682107555839e+17
19363.0	6.936822517071871e+17
19364.0	6.933923238685354e+17
19365.0	6.930957217038336e+17
19366.0	6.928014020793684e+17
19367.0	6.925015554807123e+17
19368.0	6.92198585733393e+17
19369.0	6.918065998528511e+17
19370.0	6.914334979872084e+17
19371.0	6.911391071294804e+17
19372.0	6.908502397506899e+17
19373.0	6.905088843623081e+17
19374.0	6.901855469349546e+17
19375.0	6.898517428316841e+17
19376.0	6.89465191510835e+17
19377.0	6.890157355565055e+17
19378.0	6.886668070027261e+17
19379.0	6.883125349755562e+17
19380.0	6.879525792470356e+17
19381.0	6.875744212877311e+17
19382.0	6.869587526855338e+17
19383.0	6.86567092003362e+17
19384.0	6.862418441404415e+17
19385.0	6.858562048010921e+17
19386.0	6.85272555935061e+17
19387.0	6.847699299074047e+17
19388.0	6.843545522536447e+17
19389.0	6.838820595040255e+17
19390.0	6.831097291735039e+17
19391.0	6.812312407113706e+17
19392.0	6.819984820928513e+17
19393.0	6.812471773888511e+17
19394.0	6.807510502954324e+17
19395.0	6.796881400517972e+17
19396.0	6.791404744693075e+17
19397.0	6.780030103322624e+17
19398.0	6.77317445191816e+17
19399.0	6.755979795016355e+17
19400.0	6.749842418171896e+17
19401.0	6.737492791962281e+17
19402.0	6.726622951855443e+17
19403.0	6.718417906870954e+17
19404.0	6.711312800634196e+17
19405.0	6.703847837794303e+17
19406.0	6.696338030155092e+17
19407.0	6.688668035055615e+17
19408.0	6.677321250155185e+17
19409.0	6.672476761926313e+17
19410.0	6.664274985003689e+17
19411.0	6.65571658109201e+17
19412.0	6.64671550054946e+17
19413.0	6.637805535668905e+17
19414.0	6.628520610496511e+17
19415.0	6.619306077629098e+17
19416.0	6.609154762342397e+17
19417.0	6.599892278793555e+17
19418.0	6.589386758029311e+17
19419.0	6.578881381269504e+17
19420.0	6.568070390743039e+17
19421.0	6.555955229622272e+17
19422.0	6.543784936472573e+17
19423.0	6.531197721116671e+17
19424.0	6.517137445923497e+17
19425.0	6.502834775610707e+17
19426.0	6.486555438874623e+17
19427.0	6.468917402096984e+17
19428.0	6.450691940461225e+17
19429.0	6.430462811570175e+17
19430.0	6.407748673601536e+17
19431.0	6.38149378598502e+17
19432.0	6.35684154612121e+17
19433.0	6.327697140962644e+17
19434.0	6.296012233288355e+17
19435.0	6.260941601636343e+17
19436.0	6.227380537043624e+17
19437.0	6.197576527948458e+17
19438.0	6.149287180937897e+17
19439.0	6.126241708332375e+17
19440.0	6.08443290493474e+17
19441.0	6.036999227397455e+17
19442.0	5.983789035552768e+17
19443.0	5.922081501872127e+17
19444.0	5.851851605934075e+17
19445.0	5.770654032155992e+17
19446.0	5.675674348027903e+17
19447.0	5.562142663813797e+17
19448.0	5.422970962269531e+17
19449.0	5.244958430724096e+17
19450.0	5.000271099505308e+17
19451.0	4.8689380739863974e+17
19452.0	5.1341373462282214e+17
19453.0	5.339226959424177e+17
19454.0	5.4927245418605165e+17
19455.0	5.6155361383546874e+17
19456.0	5.716410730108249e+17
19457.0	5.802050560458748e+17
19458.0	5.858867573424155e+17
19459.0	5.937945619988485e+17
19460.0	5.992975316986534e+17
19461.0	6.040672747738452e+17
19462.0	6.083593499574273e+17
19463.0	6.120896594269523e+17
19464.0	6.153652435681279e+17
19465.0	6.183123476458154e+17
19466.0	6.211978882187261e+17
19467.0	6.243734326170962e+17
19468.0	6.274501906705061e+17
19469.0	6.301516068902227e+17
19470.0	6.328212631410006e+17
19471.0	6.351494011245906e+17
19472.0	6.37188563865873e+17
19473.0	6.389995747846826e+17
19474.0	6.407090552351402e+17
19475.0	6.419785285894138e+17
19476.0	6.436465686173012e+17
19477.0	6.450126812523178e+17
19478.0	6.461292150434474e+17
19479.0	6.472585130803199e+17
19480.0	6.481938795025747e+17
19481.0	6.491836590500521e+17
19482.0	6.500643302801407e+17
19483.0	6.50889861931554e+17
19484.0	6.516850749166931e+17
19485.0	6.524488741027839e+17
19486.0	6.53158971937041e+17
19487.0	6.538573705991507e+17
19488.0	6.545286975455232e+17
19489.0	6.55124156453137e+17
19490.0	6.551958972268535e+17
19491.0	6.564188126882474e+17
19492.0	6.57032927650338e+17
19493.0	6.576028705095679e+17
19494.0	6.581455581522601e+17
19495.0	6.586670842729812e+17
19496.0	6.589964814210386e+17
19497.0	6.596423319551999e+17
19498.0	6.599663015340716e+17
19499.0	6.58450020792182e+17
19500.0	6.614078712359593e+17
19501.0	6.621561640102578e+17
19502.0	6.631922591596541e+17
19503.0	6.639855990385327e+17
19504.0	6.646322213246292e+17
19505.0	6.654091774831274e+17
19506.0	6.658819858541225e+17
19507.0	6.664701214370473e+17
19508.0	6.669350768825684e+17
19509.0	6.672553075889492e+17
19510.0	6.677158071457108e+17
19511.0	6.65612730341784e+17
19512.0	6.679898115888458e+17
19513.0	6.679123506932383e+17
19514.0	6.683921112629242e+17
19515.0	6.688039214514181e+17
19516.0	6.694178629091325e+17
19517.0	6.695670591258623e+17
19518.0	6.69726685667874e+17
19519.0	6.698454626249386e+17
19520.0	6.700333987616082e+17
19521.0	6.702708016108884e+17
19522.0	6.703509314819412e+17
19523.0	6.704708651581439e+17
19524.0	6.70562026398242e+17
19525.0	6.706577025968809e+17
19526.0	6.708699457039017e+17
19527.0	6.709408787245738e+17
19528.0	6.710148622625449e+17
19529.0	6.71081727996723e+17
19530.0	6.711512302703956e+17
19531.0	6.712127419755177e+17
19532.0	6.7126525165568e+17
19533.0	6.713794830357844e+17
19534.0	6.714427896933033e+17
19535.0	6.714705939442345e+17
19536.0	6.714969859031037e+17
19537.0	6.715506035086676e+17
19538.0	6.715189343464108e+17
19539.0	6.7131052336524e+17
19540.0	6.716122215393961e+17
19541.0	6.716500656259071e+17
19542.0	6.716633540897449e+17
19543.0	6.716736501273939e+17
19544.0	6.716843579058856e+17
19545.0	6.714434716172283e+17
19546.0	6.712497530033494e+17
19547.0	6.717446616514559e+17
19548.0	6.717458956156927e+17
19549.0	6.71677430313779e+17
19550.0	6.717350418754217e+17
19551.0	6.717278934532095e+17
19552.0	6.717157628269908e+17
19553.0	6.716894675468287e+17
19554.0	6.716628363728212e+17
19555.0	6.716564676717225e+17
19556.0	6.71640908341794e+17
19557.0	6.716437615869955e+17
19558.0	6.718957281782441e+17
19559.0	6.718647976329215e+17
19560.0	6.718173169931603e+17
19561.0	6.717822030490282e+17
19562.0	6.718671495189843e+17
19563.0	6.722499759483561e+17
19564.0	6.722057834332159e+17
19565.0	6.721618181095424e+17
19566.0	6.720982757321385e+17
19567.0	6.720697652303188e+17
19568.0	6.723374262080851e+17
19569.0	6.723877542210218e+17
19570.0	6.723469855162365e+17
19571.0	6.722903532546729e+17
19572.0	6.722260649203028e+17
19573.0	6.721838113619968e+17
19574.0	6.72270432407825e+17
19575.0	6.724208361646761e+17
19576.0	6.72355947974929e+17
19577.0	6.722780773657258e+17
19578.0	6.722007033621161e+17
19579.0	6.721389351053993e+17
19580.0	6.720713772411561e+17
19581.0	6.720192095365801e+17
19582.0	6.722236915034793e+17
19583.0	6.721497301254143e+17
19584.0	6.720722978209791e+17
19585.0	6.719253229076477e+17
19586.0	6.718312758465879e+17
19587.0	6.718311845505706e+17
19588.0	6.714948537286659e+17
19589.0	6.716643215758676e+17
19590.0	6.715487768193705e+17
19591.0	6.715152655187968e+17
19592.0	6.716001034960895e+17
19593.0	6.715505221391699e+17
19594.0	6.713221516536488e+17
19595.0	6.713725292292777e+17
19596.0	6.712162908460372e+17
19597.0	6.712077980794879e+17
19598.0	6.709384951016104e+17
19599.0	6.710352679709354e+17
19600.0	6.709508139821737e+17
19601.0	6.708188691475114e+17
19602.0	6.707327054905343e+17
19603.0	6.70427205948757e+17
19604.0	6.705480484607316e+17
19605.0	6.703006737935021e+17
19606.0	6.704237002096639e+17
19607.0	6.704551228866559e+17
19608.0	6.703543312449535e+17
19609.0	6.702336724434943e+17
19610.0	6.701719660527616e+17
19611.0	6.700695577165823e+17
19612.0	6.699814649593855e+17
19613.0	6.698765323512489e+17
19614.0	6.697584154378237e+17
19615.0	6.696854164428115e+17
19616.0	6.695731330372948e+17
19617.0	6.694822821057876e+17
19618.0	6.690461871068497e+17
19619.0	6.68861479046348e+17
19620.0	6.687918215135228e+17
19621.0	6.690755217195008e+17
19622.0	6.689835843933523e+17
19623.0	6.688841001861119e+17
19624.0	6.687754549897897e+17
19625.0	6.686792909236906e+17
19626.0	6.685676520428884e+17
19627.0	6.684694871539711e+17
19628.0	6.683224141638314e+17
19629.0	6.682413240767827e+17
19630.0	6.680575765118975e+17
19631.0	6.66593702969344e+17
19632.0	6.680227453337599e+17
19633.0	6.679138658156543e+17
19634.0	6.678432671509161e+17
19635.0	6.677128258344276e+17
19636.0	6.676256932233215e+17
19637.0	6.672683970330627e+17
19638.0	6.674131742709076e+17
19639.0	6.673049697561257e+17
19640.0	6.671524522098688e+17
19641.0	6.667006505211232e+17
19642.0	6.670080138717865e+17
19643.0	6.668984903882068e+17
19644.0	6.66755800375842e+17
19645.0	6.665297091450194e+17
19646.0	6.665801353745748e+17
19647.0	6.664742574402218e+17
19648.0	6.663620796612607e+17
19649.0	6.662508755200682e+17
19650.0	6.66145379197474e+17
19651.0	6.660316708470781e+17
19652.0	6.659199338894676e+17
19653.0	6.658137431998461e+17
19654.0	6.656971030309546e+17
19655.0	6.655826950007465e+17
19656.0	6.654779466623657e+17
19657.0	6.653663945337514e+17
19658.0	6.652587755438079e+17
19659.0	6.651465010162345e+17
19660.0	6.650380804248916e+17
19661.0	6.649231985781417e+17
19662.0	6.648138351771645e+17
19663.0	6.646727143937364e+17
19664.0	6.645791708588714e+17
19665.0	6.644774120106666e+17
