# Flux units: erg / (cm m2 s)
# Wavelength units: Angstrom
wave	flux
19000.0	6.914229510602751e+17
19001.0	6.912483186966527e+17
19002.0	6.911647913694548e+17
19003.0	6.910322695383721e+17
19004.0	6.909018178060287e+17
19005.0	6.907707876092585e+17
19006.0	6.906413665572179e+17
19007.0	6.904659125993472e+17
19008.0	6.903499190523219e+17
19009.0	6.902326888147626e+17
19010.0	6.898976886358011e+17
19011.0	6.899786001853097e+17
19012.0	6.897764821980499e+17
19013.0	6.897278244268713e+17
19014.0	6.895704489678163e+17
19015.0	6.894522480984064e+17
19016.0	6.893181250218666e+17
19017.0	6.891432240829779e+17
19018.0	6.890705538514943e+17
19019.0	6.889443569609385e+17
19020.0	6.887894069280768e+17
19021.0	6.886735079626067e+17
19022.0	6.885585791396521e+17
19023.0	6.884101183941289e+17
19024.0	6.88290009256209e+17
19025.0	6.88163128484386e+17
19026.0	6.880238798285482e+17
19027.0	6.878713629114367e+17
19028.0	6.877798439671124e+17
19029.0	6.876419248357375e+17
19030.0	6.875250902608553e+17
19031.0	6.873980661137407e+17
19032.0	6.872668160655359e+17
19033.0	6.87093693231923e+17
19034.0	6.869997676658687e+17
19035.0	6.868615215185919e+17
19036.0	6.833911736827884e+17
19037.0	6.866131525216938e+17
19038.0	6.864785464710484e+17
19039.0	6.863575691821056e+17
19040.0	6.862300512955049e+17
19041.0	6.860980563389098e+17
19042.0	6.859292781750953e+17
19043.0	6.858411304725161e+17
19044.0	6.857072113789609e+17
19045.0	6.855819535231657e+17
19046.0	6.854235872996009e+17
19047.0	6.853230201929725e+17
19048.0	6.850950919968083e+17
19049.0	6.85031632946244e+17
19050.0	6.849129038042452e+17
19051.0	6.842855578402806e+17
19052.0	6.846314104313174e+17
19053.0	6.845351021510655e+17
19054.0	6.844151335922346e+17
19055.0	6.841700871132504e+17
19056.0	6.84146962796817e+17
19057.0	6.840265050423293e+17
19058.0	6.838821489825108e+17
19059.0	6.837701890277375e+17
19060.0	6.836314029337258e+17
19061.0	6.835147975076521e+17
19062.0	6.833817193021439e+17
19063.0	6.832558108398932e+17
19064.0	6.830649644154881e+17
19065.0	6.829118719000575e+17
19066.0	6.828390954827775e+17
19067.0	6.827335919599613e+17
19068.0	6.826100038565887e+17
19069.0	6.824817701421055e+17
19070.0	6.823391846378153e+17
19071.0	6.82220135120896e+17
19072.0	6.820952150463828e+17
19073.0	6.819627184510291e+17
19074.0	6.818383541917012e+17
19075.0	6.817097698334035e+17
19076.0	6.8157053075456e+17
19077.0	6.814471522265769e+17
19078.0	6.812939085763923e+17
19079.0	6.811930763897514e+17
19080.0	6.810584473403392e+17
19081.0	6.809132694066516e+17
19082.0	6.807793488450899e+17
19083.0	6.806252530521427e+17
19084.0	6.804355427947862e+17
19085.0	6.804154682266964e+17
19086.0	6.801070802075647e+17
19087.0	6.800626168801962e+17
19088.0	6.800002831613951e+17
19089.0	6.797663978651648e+17
19090.0	6.797625992937471e+17
19091.0	6.79636821414161e+17
19092.0	6.794692077289471e+17
19093.0	6.793911264957779e+17
19094.0	6.792624621660841e+17
19095.0	6.79135562310178e+17
19096.0	6.789948321562623e+17
19097.0	6.788786325990057e+17
19098.0	6.787493035420329e+17
19099.0	6.786190588684969e+17
19100.0	6.784878643948202e+17
19101.0	6.783649830316714e+17
19102.0	6.781956440894121e+17
19103.0	6.7810703193757e+17
19104.0	6.779823937202857e+17
19105.0	6.778512971137023e+17
19106.0	6.777050251657215e+17
19107.0	6.775879775901012e+17
19108.0	6.774693787511466e+17
19109.0	6.76990543375018e+17
19110.0	6.772103050515795e+17
19111.0	6.770833724801023e+17
19112.0	6.769571019795114e+17
19113.0	6.768278517754538e+17
19114.0	6.766982465235625e+17
19115.0	6.765451775661398e+17
19116.0	6.764339811145043e+17
19117.0	6.76307160670754e+17
19118.0	6.761347869398356e+17
19119.0	6.748165570385217e+17
19120.0	6.758980855878995e+17
19121.0	6.757875109418323e+17
19122.0	6.756776683416234e+17
19123.0	6.755430334201855e+17
19124.0	6.754026433544191e+17
19125.0	6.752887898811049e+17
19126.0	6.751548022805844e+17
19127.0	6.742699226955767e+17
19128.0	6.746163358553425e+17
19129.0	6.747401405246121e+17
19130.0	6.746476547233108e+17
19131.0	6.745167194576212e+17
19132.0	6.743978413479252e+17
19133.0	6.739945544744964e+17
19134.0	6.740022073316695e+17
19135.0	6.740139076922025e+17
19136.0	6.738904710032041e+17
19137.0	6.73687848161553e+17
19138.0	6.735956823157417e+17
19139.0	6.735069160232276e+17
19140.0	6.733799639482367e+17
19141.0	6.732525576301225e+17
19142.0	6.731119358290601e+17
19143.0	6.729696243526314e+17
19144.0	6.728506696968874e+17
19145.0	6.727401331490815e+17
19146.0	6.723361768647342e+17
19147.0	6.724472452502867e+17
19148.0	6.723576799428608e+17
19149.0	6.722296179152211e+17
19150.0	6.720998649539241e+17
19151.0	6.719766353936384e+17
19152.0	6.718401392498004e+17
19153.0	6.717148144249514e+17
19154.0	6.715390979036499e+17
19155.0	6.714702193928873e+17
19156.0	6.713421361840127e+17
19157.0	6.71210728919313e+17
19158.0	6.708421075490129e+17
19159.0	6.709529116934143e+17
19160.0	6.708164707046739e+17
19161.0	6.706776509863254e+17
19162.0	6.700378629690715e+17
19163.0	6.704494015763796e+17
19164.0	6.703273998985898e+17
19165.0	6.701879977312255e+17
19166.0	6.70015087129395e+17
19167.0	6.698950121051475e+17
19168.0	6.697535828306601e+17
19169.0	6.696499461226493e+17
19170.0	6.695652115349501e+17
19171.0	6.694079597379583e+17
19172.0	6.693054949184852e+17
19173.0	6.691822026533545e+17
19174.0	6.690293189443585e+17
19175.0	6.689285502315178e+17
19176.0	6.688003623048532e+17
19177.0	6.686063565209599e+17
19178.0	6.685415222280192e+17
19179.0	6.683797949688492e+17
19180.0	6.68230272295458e+17
19181.0	6.681192167724372e+17
19182.0	6.680014848262144e+17
19183.0	6.679083958839978e+17
19184.0	6.677268966058665e+17
19185.0	6.676536609122985e+17
19186.0	6.675353240775338e+17
19187.0	6.673695608493396e+17
19188.0	6.672776631593641e+17
19189.0	6.671433073688573e+17
19190.0	6.670148805765801e+17
19191.0	6.668821124699476e+17
19192.0	6.667732030324733e+17
19193.0	6.666069644498259e+17
19194.0	6.664963408702122e+17
19195.0	6.663902060347391e+17
19196.0	6.662607991035219e+17
19197.0	6.661384809654953e+17
19198.0	6.660120184356863e+17
19199.0	6.627646281962829e+17
19200.0	6.637313122282167e+17
19201.0	6.656343075192831e+17
19202.0	6.65511847473971e+17
19203.0	6.653796631445503e+17
19204.0	6.652463104917503e+17
19205.0	6.651276712476672e+17
19206.0	6.649982277561001e+17
19207.0	6.648383787062611e+17
19208.0	6.646557140407635e+17
19209.0	6.646174168296105e+17
19210.0	6.644954398982143e+17
19211.0	6.643741112664064e+17
19212.0	6.642485935734783e+17
19213.0	6.640574471864319e+17
19214.0	6.639128763083434e+17
19215.0	6.638603558628009e+17
19216.0	6.637302930123433e+17
19217.0	6.636149631440212e+17
19218.0	6.63119696092637e+17
19219.0	6.632909463093245e+17
19220.0	6.632269025028778e+17
19221.0	6.629586485204308e+17
19222.0	6.629866669604863e+17
19223.0	6.628496025583615e+17
19224.0	6.626903335807657e+17
19225.0	6.625339068732755e+17
19226.0	6.624699111615144e+17
19227.0	6.623434673662633e+17
19228.0	6.622301869746857e+17
19229.0	6.621040377593855e+17
19230.0	6.619607181120852e+17
19231.0	6.618354991934121e+17
19232.0	6.617023008909994e+17
19233.0	6.615649322620243e+17
19234.0	6.614607965716479e+17
19235.0	6.613295766525268e+17
19236.0	6.61221453996578e+17
19237.0	6.610867709105491e+17
19238.0	6.609240968571561e+17
19239.0	6.60843566080546e+17
19240.0	6.605903960735741e+17
19241.0	6.60545712685056e+17
19242.0	6.604520143803734e+17
19243.0	6.602526619773608e+17
19244.0	6.602111831070036e+17
19245.0	6.600833424687103e+17
19246.0	6.599517502352041e+17
19247.0	6.598261591419561e+17
19248.0	6.597077500253523e+17
19249.0	6.59580631855923e+17
19250.0	6.594461926686719e+17
19251.0	6.592800415372626e+17
19252.0	6.590504475732649e+17
19253.0	6.590662908575743e+17
19254.0	6.589308402838185e+17
19255.0	6.58729053017429e+17
19256.0	6.586798145448617e+17
19257.0	6.585701402760532e+17
19258.0	6.584443575730176e+17
19259.0	6.582812196995071e+17
19260.0	6.581337399317843e+17
19261.0	6.58036080526404e+17
19262.0	6.578836409942015e+17
19263.0	6.577629449333417e+17
19264.0	6.574205031503185e+17
19265.0	6.574466599485437e+17
19266.0	6.573391242155348e+17
19267.0	6.572807853615785e+17
19268.0	6.571501330016938e+17
19269.0	6.570239793124691e+17
19270.0	6.568977931173887e+17
19271.0	6.56621397711258e+17
19272.0	6.566291601795753e+17
19273.0	6.533388902421805e+17
19274.0	6.548076509877568e+17
19275.0	6.562663710588927e+17
19276.0	6.561303548832426e+17
19277.0	6.560035444359167e+17
19278.0	6.558783367719593e+17
19279.0	6.557264342504787e+17
19280.0	6.555829749328554e+17
19281.0	6.554953898961578e+17
19282.0	6.553747751348906e+17
19283.0	6.551964301830825e+17
19284.0	6.550095646425085e+17
19285.0	6.54888582600021e+17
19286.0	6.548499111870461e+17
19287.0	6.547392301454676e+17
19288.0	6.538018255710885e+17
19289.0	6.521939651373693e+17
19290.0	6.543560545402879e+17
19291.0	6.541047716205915e+17
19292.0	6.541000427525459e+17
19293.0	6.539688473001983e+17
19294.0	6.538388560325289e+17
19295.0	6.537162257683796e+17
19296.0	6.535842390605823e+17
19297.0	6.534441646860969e+17
19298.0	6.533158559634772e+17
19299.0	6.53200848986658e+17
19300.0	6.530722036012372e+17
19301.0	6.529395388142934e+17
19302.0	6.528078261343572e+17
19303.0	6.526388380456276e+17
19304.0	6.525255317891753e+17
19305.0	6.52416760554018e+17
19306.0	6.522892856590335e+17
19307.0	6.521370337520297e+17
19308.0	6.520193862511272e+17
19309.0	6.517964290042537e+17
19310.0	6.516120442546856e+17
19311.0	6.516207322660863e+17
19312.0	6.515026619094356e+17
19313.0	6.513357738388141e+17
19314.0	6.497085649409349e+17
19315.0	6.496818328240156e+17
19316.0	6.509865616801791e+17
19317.0	6.508561990767956e+17
19318.0	6.507236724222634e+17
19319.0	6.505995367525034e+17
19320.0	6.504466449345194e+17
19321.0	6.503253133666985e+17
19322.0	6.50127575421201e+17
19323.0	6.500029640474624e+17
19324.0	6.499236096333139e+17
19325.0	6.497055936260778e+17
19326.0	6.496582486720511e+17
19327.0	6.495177046054227e+17
19328.0	6.493928926740479e+17
19329.0	6.492581526852948e+17
19330.0	6.491036482972329e+17
19331.0	6.489679703222953e+17
19332.0	6.488497354091178e+17
19333.0	6.487071422851753e+17
19334.0	6.485522168588969e+17
19335.0	6.484174080835583e+17
19336.0	6.482787055261012e+17
19337.0	6.481391697701545e+17
19338.0	6.479078686545235e+17
19339.0	6.478640795615231e+17
19340.0	6.476980191668906e+17
19341.0	6.475826887393277e+17
19342.0	6.472560566162769e+17
19343.0	6.473018855391232e+17
19344.0	6.471447765581823e+17
19345.0	6.460918290448362e+17
19346.0	6.465850701774848e+17
19347.0	6.466826261233663e+17
19348.0	6.465636301537279e+17
19349.0	6.46402000621841e+17
19350.0	6.462608924213247e+17
19351.0	6.461096052741459e+17
19352.0	6.459472467722237e+17
19353.0	6.458358806609919e+17
19354.0	6.456868778016765e+17
19355.0	6.454918765696342e+17
19356.0	6.453866212098047e+17
19357.0	6.45212342915345e+17
19358.0	6.450136705488214e+17
19359.0	6.44714128596446e+17
19360.0	6.447164939042815e+17
19361.0	6.445579644523859e+17
19362.0	6.44425798787618e+17
19363.0	6.442660515894612e+17
19364.0	6.441035536269311e+17
19365.0	6.439424606164308e+17
19366.0	6.437825449470633e+17
19367.0	6.436177538187263e+17
19368.0	6.434529208172544e+17
19369.0	6.432068122705919e+17
19370.0	6.426783065483945e+17
19371.0	6.428801517660841e+17
19372.0	6.427325391088297e+17
19373.0	6.425433324475732e+17
19374.0	6.423753967097172e+17
19375.0	6.421968330249556e+17
19376.0	6.420139436845738e+17
19377.0	6.41811408294161e+17
19378.0	6.415914868845225e+17
19379.0	6.413996269764607e+17
19380.0	6.412077925138431e+17
19381.0	6.410077986619391e+17
19382.0	6.407696534907562e+17
19383.0	6.405176537645055e+17
19384.0	6.40340080075298e+17
19385.0	6.40126897164561e+17
19386.0	6.398905215003304e+17
19387.0	6.396365691857576e+17
19388.0	6.393635074124457e+17
19389.0	6.39134545809681e+17
19390.0	6.388971723205289e+17
19391.0	6.356392613685883e+17
19392.0	6.383140401228456e+17
19393.0	6.380670029572777e+17
19394.0	6.377595193698986e+17
19395.0	6.374886045908991e+17
19396.0	6.372120847537491e+17
19397.0	6.369393847391572e+17
19398.0	6.365947995968852e+17
19399.0	6.359882138998097e+17
19400.0	6.359654282035199e+17
19401.0	6.356616676201812e+17
19402.0	6.353337379891882e+17
19403.0	6.349809948557312e+17
19404.0	6.345937965634899e+17
19405.0	6.341936808635049e+17
19406.0	6.338110696718335e+17
19407.0	6.334164848607231e+17
19408.0	6.326362105184264e+17
19409.0	6.324432759597738e+17
19410.0	6.320274338567508e+17
19411.0	6.314903499440128e+17
19412.0	6.309461994678953e+17
19413.0	6.303752136949759e+17
19414.0	6.297281296160084e+17
19415.0	6.290863338553343e+17
19416.0	6.283288036158121e+17
19417.0	6.275590878745939e+17
19418.0	6.2679489211706e+17
19419.0	6.258738988056573e+17
19420.0	6.248738470581588e+17
19421.0	6.23753310293197e+17
19422.0	6.226111403567784e+17
19423.0	6.216623047660883e+17
19424.0	6.206842515139242e+17
19425.0	6.196432113500159e+17
19426.0	6.18458939269666e+17
19427.0	6.172050767653546e+17
19428.0	6.159749549304489e+17
19429.0	6.145671646849706e+17
19430.0	6.129485912298839e+17
19431.0	6.107491692358326e+17
19432.0	6.094808403673085e+17
19433.0	6.073301510826666e+17
19434.0	6.048917698030252e+17
19435.0	6.019447058508463e+17
19436.0	5.982761374449658e+17
19437.0	5.955701267846484e+17
19438.0	5.891976457792173e+17
19439.0	5.892642618124973e+17
19440.0	5.855790227259391e+17
19441.0	5.813442721437009e+17
19442.0	5.763062845232471e+17
19443.0	5.699250481179306e+17
19444.0	5.633323122556925e+17
19445.0	5.5644975718727706e+17
19446.0	5.4802495094565555e+17
19447.0	5.3758841935189286e+17
19448.0	5.256623515063641e+17
19449.0	5.092226521279147e+17
19450.0	4.748949149712363e+17
19451.0	4.6209581616988096e+17
19452.0	4.944596505897649e+17
19453.0	5.1832027939689894e+17
19454.0	5.3159827327330925e+17
19455.0	5.423660960230059e+17
19456.0	5.516278754880174e+17
19457.0	5.58967666734967e+17
19458.0	5.632915330651515e+17
19459.0	5.717884726673411e+17
19460.0	5.771844911103995e+17
19461.0	5.815471755842899e+17
19462.0	5.852715108969132e+17
19463.0	5.885207959830527e+17
19464.0	5.914246005129215e+17
19465.0	5.940399770173437e+17
19466.0	5.970224534781952e+17
19467.0	6.000981467376298e+17
19468.0	6.025150098396502e+17
19469.0	6.040996836016128e+17
19470.0	6.062895705445716e+17
19471.0	6.078431505328809e+17
19472.0	6.092045733767848e+17
19473.0	6.103923537128106e+17
19474.0	6.11565207359761e+17
19475.0	6.122350698648913e+17
19476.0	6.134804481310719e+17
19477.0	6.143535401839274e+17
19478.0	6.151262399627263e+17
19479.0	6.158333081812991e+17
19480.0	6.166083373367295e+17
19481.0	6.17523449395063e+17
19482.0	6.183538073621844e+17
19483.0	6.19086787641344e+17
19484.0	6.197110264649044e+17
19485.0	6.202302182457344e+17
19486.0	6.20693638156561e+17
19487.0	6.211900029971114e+17
19488.0	6.215420498761044e+17
19489.0	6.219291372290047e+17
19490.0	6.216299689891146e+17
19491.0	6.225273347375103e+17
19492.0	6.227930263497385e+17
19493.0	6.229962863760724e+17
19494.0	6.232407469806931e+17
19495.0	6.234046972908884e+17
19496.0	6.234100263638354e+17
19497.0	6.237028517675008e+17
19498.0	6.237005216918191e+17
19499.0	6.192748278666537e+17
19500.0	6.241015044942505e+17
19501.0	6.241845646458879e+17
19502.0	6.242596979823956e+17
19503.0	6.243280059979092e+17
19504.0	6.243800224978259e+17
19505.0	6.244768810008575e+17
19506.0	6.245201954384552e+17
19507.0	6.245422313330004e+17
19508.0	6.245812280841556e+17
19509.0	6.24638038114304e+17
19510.0	6.245662237305512e+17
19511.0	6.207434636219706e+17
19512.0	6.241083684028393e+17
19513.0	6.232736105409169e+17
19514.0	6.237915459878899e+17
19515.0	6.244845314812595e+17
19516.0	6.247425701664084e+17
19517.0	6.246988310555305e+17
19518.0	6.247203082687827e+17
19519.0	6.246841735708671e+17
19520.0	6.246881880091306e+17
19521.0	6.246646807527423e+17
19522.0	6.2460012803741e+17
19523.0	6.245756066682195e+17
19524.0	6.245248791478271e+17
19525.0	6.244482522196649e+17
19526.0	6.244521362849791e+17
19527.0	6.243983128788991e+17
19528.0	6.243416992120831e+17
19529.0	6.242775564899668e+17
19530.0	6.242172166733823e+17
19531.0	6.241545062361769e+17
19532.0	6.24085110427921e+17
19533.0	6.240160135337299e+17
19534.0	6.239446676537343e+17
19535.0	6.238964889419776e+17
19536.0	6.238149985785172e+17
19537.0	6.237548861631146e+17
19538.0	6.236546209065645e+17
19539.0	6.233443906093066e+17
19540.0	6.235046007887188e+17
19541.0	6.234363735135572e+17
19542.0	6.233501966445228e+17
19543.0	6.232657107091455e+17
19544.0	6.231820070114643e+17
19545.0	6.229265748765344e+17
19546.0	6.225961458597889e+17
19547.0	6.229178870748499e+17
19548.0	6.22834530455825e+17
19549.0	6.22704027972403e+17
19550.0	6.226885079990271e+17
19551.0	6.225982436409344e+17
19552.0	6.225049335889919e+17
19553.0	6.224038333164202e+17
19554.0	6.222998047905108e+17
19555.0	6.222178915713023e+17
19556.0	6.221285540844886e+17
19557.0	6.220324230834857e+17
19558.0	6.219359118688255e+17
19559.0	6.218274875026089e+17
19560.0	6.217303645487104e+17
19561.0	6.216320103568724e+17
19562.0	6.215433652098387e+17
19563.0	6.214460674932735e+17
19564.0	6.213483067255466e+17
19565.0	6.212466423190868e+17
19566.0	6.211349689750867e+17
19567.0	6.210470699947348e+17
19568.0	6.20942472651298e+17
19569.0	6.208464055435263e+17
19570.0	6.207551922940585e+17
19571.0	6.206533387943935e+17
19572.0	6.205335674377556e+17
19573.0	6.204414786972329e+17
19574.0	6.203036793831423e+17
19575.0	6.202550132233556e+17
19576.0	6.201527107234474e+17
19577.0	6.200108893514409e+17
19578.0	6.199262020894719e+17
19579.0	6.198287073105235e+17
19580.0	6.19726002786577e+17
19581.0	6.19625503977199e+17
19582.0	6.195286714089472e+17
19583.0	6.194247503970301e+17
19584.0	6.193368984627881e+17
19585.0	6.191793778808146e+17
19586.0	6.19053245652446e+17
19587.0	6.189883032163667e+17
19588.0	6.186905802637313e+17
19589.0	6.187824481042431e+17
19590.0	6.186611199617706e+17
19591.0	6.185903063389524e+17
19592.0	6.184855156381012e+17
19593.0	6.183687162953727e+17
19594.0	6.181517984967336e+17
19595.0	6.18151495667985e+17
19596.0	6.173855508157784e+17
19597.0	6.179378876645375e+17
19598.0	6.17711994754389e+17
19599.0	6.177296745846102e+17
19600.0	6.176251286213971e+17
19601.0	6.174864673778348e+17
19602.0	6.173902882821459e+17
19603.0	6.170735391277051e+17
19604.0	6.171677595533312e+17
19605.0	6.169406745520812e+17
19606.0	6.169664750441812e+17
19607.0	6.168624793736532e+17
19608.0	6.167485002110292e+17
19609.0	6.166194702079316e+17
19610.0	6.165385223776937e+17
19611.0	6.164246110229844e+17
19612.0	6.163212519079935e+17
19613.0	6.162050015297533e+17
19614.0	6.160906870325247e+17
19615.0	6.160005235474431e+17
19616.0	6.158657015600468e+17
19617.0	6.157806973485055e+17
19618.0	6.154409866865318e+17
19619.0	6.152568726792868e+17
19620.0	6.151613176960337e+17
19621.0	6.153374525292544e+17
19622.0	6.15232492937762e+17
19623.0	6.151237802131455e+17
19624.0	6.150086615280297e+17
19625.0	6.149025655597737e+17
19626.0	6.14787757183249e+17
19627.0	6.146828488321705e+17
19628.0	6.144934222495745e+17
19629.0	6.144208366032211e+17
19630.0	6.142882992532141e+17
19631.0	6.109404436190537e+17
19632.0	6.141270791553023e+17
19633.0	6.139976631364265e+17
19634.0	6.139104212637012e+17
19635.0	6.137811167434067e+17
19636.0	6.13684741284386e+17
19637.0	6.133921639738029e+17
19638.0	6.134632365249876e+17
19639.0	6.133506541355008e+17
19640.0	6.132173316117844e+17
19641.0	6.128551117280605e+17
19642.0	6.130211088586068e+17
19643.0	6.129007460351999e+17
19644.0	6.127772444043946e+17
19645.0	6.125755227788626e+17
19646.0	6.125846422443348e+17
19647.0	6.124743503642623e+17
19648.0	6.123612940184234e+17
19649.0	6.122488826866346e+17
19650.0	6.121419551277055e+17
19651.0	6.120280427943252e+17
19652.0	6.119157130417492e+17
19653.0	6.118079138365439e+17
19654.0	6.116936526768809e+17
19655.0	6.115796066151081e+17
19656.0	6.114731998489257e+17
19657.0	6.113619899755178e+17
19658.0	6.112537809169065e+17
19659.0	6.111425215507113e+17
19660.0	6.110345316444842e+17
19661.0	6.109214883009875e+17
19662.0	6.108127494318762e+17
19663.0	6.106800367599615e+17
19664.0	6.105730219595092e+17
19665.0	6.104803356005716e+17
