# Flux units: erg / (cm m2 s)
# Wavelength units: Angstrom
wave	flux
19000.0	4.9621685404084896e+17
19001.0	4.961156233953279e+17
19002.0	4.960433160410453e+17
19003.0	4.9595654483913363e+17
19004.0	4.958615776176809e+17
19005.0	4.9577238993742496e+17
19006.0	4.956878237510313e+17
19007.0	4.9560559658816845e+17
19008.0	4.9551444031133005e+17
19009.0	4.954071730836821e+17
19010.0	4.953211651751935e+17
19011.0	4.952423697918634e+17
19012.0	4.951256058910036e+17
19013.0	4.950843600142336e+17
19014.0	4.9498692996737696e+17
19015.0	4.948988840465749e+17
19016.0	4.948198891541844e+17
19017.0	4.947374796789077e+17
19018.0	4.9464712115869e+17
19019.0	4.945634159930026e+17
19020.0	4.9447408374906874e+17
19021.0	4.9438891267413325e+17
19022.0	4.9430385400654496e+17
19023.0	4.942007535403007e+17
19024.0	4.941074249635156e+17
19025.0	4.94032968168243e+17
19026.0	4.9394149256506016e+17
19027.0	4.93851960812066e+17
19028.0	4.9376851841952416e+17
19029.0	4.936803373722283e+17
19030.0	4.935931400989353e+17
19031.0	4.935105653680809e+17
19032.0	4.9342055287794336e+17
19033.0	4.9330477918235296e+17
19034.0	4.9319482801957536e+17
19035.0	4.929155928599209e+17
19036.0	4.920448794667689e+17
19037.0	4.9278047251770016e+17
19038.0	4.928503155785727e+17
19039.0	4.927976079971667e+17
19040.0	4.927202600681472e+17
19041.0	4.9263912405346976e+17
19042.0	4.9191471036060915e+17
19043.0	4.924746282041343e+17
19044.0	4.9239095414620154e+17
19045.0	4.922967161044991e+17
19046.0	4.9220875588730874e+17
19047.0	4.921184711169364e+17
19048.0	4.919405560113833e+17
19049.0	4.906047133188079e+17
19050.0	4.9181799551249056e+17
19051.0	4.9162962351773005e+17
19052.0	4.9158397865492474e+17
19053.0	4.9157911521962656e+17
19054.0	4.915104568399189e+17
19055.0	4.912187278972246e+17
19056.0	4.91294106670421e+17
19057.0	4.912689840477524e+17
19058.0	4.905052789538804e+17
19059.0	4.908299011664552e+17
19060.0	4.9101136612119885e+17
19061.0	4.909214905051819e+17
19062.0	4.9083275818653005e+17
19063.0	4.907527680557055e+17
19064.0	4.9066233438754125e+17
19065.0	4.905669272535039e+17
19066.0	4.902439424273069e+17
19067.0	4.903968854157994e+17
19068.0	4.903248513903274e+17
19069.0	4.902381310093994e+17
19070.0	4.9014287759660365e+17
19071.0	4.9005936313193805e+17
19072.0	4.8972379805013286e+17
19073.0	4.8989614787351885e+17
19074.0	4.898005368264021e+17
19075.0	4.8972133410624845e+17
19076.0	4.8963267204218874e+17
19077.0	4.895457588630869e+17
19078.0	4.894576568085162e+17
19079.0	4.8937264693466445e+17
19080.0	4.8928887018618874e+17
19081.0	4.8919829929437856e+17
19082.0	4.891197416581802e+17
19083.0	4.89021478342929e+17
19084.0	4.889234671053481e+17
19085.0	4.8885393316468045e+17
19086.0	4.883843172182696e+17
19087.0	4.8811739982069677e+17
19088.0	4.882466482771279e+17
19089.0	4.8849128727947936e+17
19090.0	4.884235892555775e+17
19091.0	4.8829996053736134e+17
19092.0	4.8772519157214016e+17
19093.0	4.881708260960938e+17
19094.0	4.880873878279509e+17
19095.0	4.8799818637639674e+17
19096.0	4.879170769955498e+17
19097.0	4.8783123028814496e+17
19098.0	4.874743673694888e+17
19099.0	4.8732846934371014e+17
19100.0	4.875708167880704e+17
19101.0	4.8748367739617274e+17
19102.0	4.873957767380991e+17
19103.0	4.873126786979156e+17
19104.0	4.8723389932284576e+17
19105.0	4.8654388528414906e+17
19106.0	4.870534505081513e+17
19107.0	4.868229828706301e+17
19108.0	4.8664592780711264e+17
19109.0	4.867813676154879e+17
19110.0	4.867020119430485e+17
19111.0	4.864490317982376e+17
19112.0	4.8633463383435904e+17
19113.0	4.864598951155028e+17
19114.0	4.862528324632573e+17
19115.0	4.8626322112511994e+17
19116.0	4.861929025699839e+17
19117.0	4.861009112072191e+17
19118.0	4.859294623203328e+17
19119.0	4.850207294488569e+17
19120.0	4.857973920759808e+17
19121.0	4.857542118561108e+17
19122.0	4.856902346691925e+17
19123.0	4.8561042775954765e+17
19124.0	4.8551020961901216e+17
19125.0	4.8543245889699834e+17
19126.0	4.8532779521365325e+17
19127.0	4.851880880504832e+17
19128.0	4.8515072057671674e+17
19129.0	4.85086223086387e+17
19130.0	4.850144073744383e+17
19131.0	4.849318465546921e+17
19132.0	4.8484393338361165e+17
19133.0	4.847593538453503e+17
19134.0	4.846768889353557e+17
19135.0	4.8459379068545696e+17
19136.0	4.845054055852714e+17
19137.0	4.844124676379989e+17
19138.0	4.843362626568191e+17
19139.0	4.842552638657876e+17
19140.0	4.8417173395210234e+17
19141.0	4.8408506900589216e+17
19142.0	4.8399615360587085e+17
19143.0	4.839112821440511e+17
19144.0	4.8382280064477856e+17
19145.0	4.8374279863009274e+17
19146.0	4.835943224355498e+17
19147.0	4.835707484198229e+17
19148.0	4.832727409535663e+17
19149.0	4.831440229367808e+17
19150.0	4.8332266141996365e+17
19151.0	4.8323396251593376e+17
19152.0	4.8314946280925856e+17
19153.0	4.825985344776867e+17
19154.0	4.8294002009920845e+17
19155.0	4.8289335525157536e+17
19156.0	4.8280646702858234e+17
19157.0	4.8257398423770496e+17
19158.0	4.823011554579802e+17
19159.0	4.825405464073556e+17
19160.0	4.824567371530238e+17
19161.0	4.8236664986446496e+17
19162.0	4.822661172909396e+17
19163.0	4.821930225259861e+17
19164.0	4.821192112340991e+17
19165.0	4.815379172600482e+17
19166.0	4.819478850306047e+17
19167.0	4.818750924652543e+17
19168.0	4.817913364086783e+17
19169.0	4.817085650348714e+17
19170.0	4.8162713164404045e+17
19171.0	4.815391087919103e+17
19172.0	4.814553911132159e+17
19173.0	4.8137597007953914e+17
19174.0	4.8128781587578874e+17
19175.0	4.8120340054452896e+17
19176.0	4.811224575377407e+17
19177.0	4.810205513995605e+17
19178.0	4.809476720820223e+17
19179.0	4.8086612139048954e+17
19180.0	4.807819314331647e+17
19181.0	4.806915845171881e+17
19182.0	4.806027794972672e+17
19183.0	4.805291538732372e+17
19184.0	4.8044748147698336e+17
19185.0	4.803584793946794e+17
19186.0	4.802764914469545e+17
19187.0	4.8018543345663994e+17
19188.0	4.8010759143860896e+17
19189.0	4.8002013083293005e+17
19190.0	4.7993384274493434e+17
19191.0	4.798426022324906e+17
19192.0	4.797542901830996e+17
19193.0	4.796012995892566e+17
19194.0	4.794698022169258e+17
19195.0	4.7946469998592e+17
19196.0	4.793476399671978e+17
19197.0	4.792087527904596e+17
19198.0	4.790260949057534e+17
19199.0	4.7877909576854176e+17
19200.0	4.7871121046896634e+17
19201.0	4.787844532229461e+17
19202.0	4.787986534585683e+17
19203.0	4.7876009172664314e+17
19204.0	4.7871319884868256e+17
19205.0	4.7864541889604256e+17
19206.0	4.7857360304428365e+17
19207.0	4.784752676569087e+17
19208.0	4.784078083588095e+17
19209.0	4.7833817004987725e+17
19210.0	4.782540974631594e+17
19211.0	4.781779280636585e+17
19212.0	4.78094372774434e+17
19213.0	4.7800135786168314e+17
19214.0	4.7792154340229114e+17
19215.0	4.778445829570559e+17
19216.0	4.777614292025343e+17
19217.0	4.7767356832044365e+17
19218.0	4.7756770940026874e+17
19219.0	4.774860071545514e+17
19220.0	4.774250716768938e+17
19221.0	4.7733914793410554e+17
19222.0	4.772559427294549e+17
19223.0	4.771800704963925e+17
19224.0	4.7709245966472525e+17
19225.0	4.77015942767138e+17
19226.0	4.7693604274394445e+17
19227.0	4.768527817550506e+17
19228.0	4.7677321678684154e+17
19229.0	4.7668005570259616e+17
19230.0	4.7660452530530976e+17
19231.0	4.765250763795114e+17
19232.0	4.764418998359381e+17
19233.0	4.763516321923071e+17
19234.0	4.762708369648298e+17
19235.0	4.7618696430660256e+17
19236.0	4.761076631601151e+17
19237.0	4.76018839265826e+17
19238.0	4.75932777320721e+17
19239.0	4.75858302280226e+17
19240.0	4.7577271359242234e+17
19241.0	4.756916621628757e+17
19242.0	4.756021519406421e+17
19243.0	4.7551274573714765e+17
19244.0	4.7544200111063034e+17
19245.0	4.753611972848298e+17
19246.0	4.752794130404693e+17
19247.0	4.7519633296588794e+17
19248.0	4.751116852701866e+17
19249.0	4.7501196492363085e+17
19250.0	4.7484727026428576e+17
19251.0	4.747610845872125e+17
19252.0	4.7475162069947725e+17
19253.0	4.74694693228817e+17
19254.0	4.746156921847808e+17
19255.0	4.74512111051298e+17
19256.0	4.7444432543634765e+17
19257.0	4.7436411230836045e+17
19258.0	4.742788498675029e+17
19259.0	4.7418644194044576e+17
19260.0	4.740663088949929e+17
19261.0	4.740265282284202e+17
19262.0	4.7393405969367034e+17
19263.0	4.738430737055743e+17
19264.0	4.7375149820805114e+17
19265.0	4.7367512482556576e+17
19266.0	4.735902342796628e+17
19267.0	4.735350924640255e+17
19268.0	4.734499377468757e+17
19269.0	4.7336869386868045e+17
19270.0	4.732819414013268e+17
19271.0	4.731872303819434e+17
19272.0	4.7311912082691405e+17
19273.0	4.7302492458844154e+17
19274.0	4.7291926321998483e+17
19275.0	4.7287788536244896e+17
19276.0	4.727934775110313e+17
19277.0	4.7271302286103885e+17
19278.0	4.726174710934185e+17
19279.0	4.72542083232563e+17
19280.0	4.72461165461504e+17
19281.0	4.7237755257050445e+17
19282.0	4.722957505702569e+17
19283.0	4.7220929331199994e+17
19284.0	4.721198745954987e+17
19285.0	4.7203102567519565e+17
19286.0	4.719294680137727e+17
19287.0	4.7179189994564256e+17
19288.0	4.712491518350675e+17
19289.0	4.7100270306044563e+17
19290.0	4.7153237661668685e+17
19291.0	4.714961043456e+17
19292.0	4.71458842358579e+17
19293.0	4.713840737867093e+17
19294.0	4.7130316433435296e+17
19295.0	4.712243172212736e+17
19296.0	4.708468413257054e+17
19297.0	4.710144196389548e+17
19298.0	4.709758379840853e+17
19299.0	4.7056813527749997e+17
19300.0	4.7081517202363725e+17
19301.0	4.707349551207766e+17
19302.0	4.7065143883857914e+17
19303.0	4.7056039231269523e+17
19304.0	4.7048426087164576e+17
19305.0	4.703985102138025e+17
19306.0	4.7031601328728736e+17
19307.0	4.702238596748629e+17
19308.0	4.701393987654996e+17
19309.0	4.700415397811541e+17
19310.0	4.699492139226453e+17
19311.0	4.6985367641565856e+17
19312.0	4.6973211597864954e+17
19313.0	4.6946809195178656e+17
19314.0	4.6370413692846163e+17
19315.0	4.639521947080053e+17
19316.0	4.6885261614776384e+17
19317.0	4.693292825793876e+17
19318.0	4.6929479044082336e+17
19319.0	4.6922768367397536e+17
19320.0	4.6904830573499686e+17
19321.0	4.6881762495692794e+17
19322.0	4.690024094236672e+17
19323.0	4.689234160691882e+17
19324.0	4.688414252553555e+17
19325.0	4.687628382590293e+17
19326.0	4.6868120794562554e+17
19327.0	4.686031763450538e+17
19328.0	4.679802974546608e+17
19329.0	4.684439215581865e+17
19330.0	4.683638164335274e+17
19331.0	4.6827937223147514e+17
19332.0	4.682001121192619e+17
19333.0	4.6812045983962445e+17
19334.0	4.6802192718015155e+17
19335.0	4.668533633275235e+17
19336.0	4.678659380084736e+17
19337.0	4.6779284527076685e+17
19338.0	4.676904247711061e+17
19339.0	4.676236801824085e+17
19340.0	4.6752030065513805e+17
19341.0	4.67044833235218e+17
19342.0	4.6725363190988826e+17
19343.0	4.672893651430058e+17
19344.0	4.6678995195221395e+17
19345.0	4.668566894804996e+17
19346.0	4.669565716572842e+17
19347.0	4.664450026045439e+17
19348.0	4.6688825448420685e+17
19349.0	4.668077899776e+17
19350.0	4.6653358064271354e+17
19351.0	4.666430437982207e+17
19352.0	4.660196531328333e+17
19353.0	4.6648866363146234e+17
19354.0	4.664109453453993e+17
19355.0	4.663190639433046e+17
19356.0	4.6624604970898765e+17
19357.0	4.661660779631958e+17
19358.0	4.660828430488916e+17
19359.0	4.658855555716432e+17
19360.0	4.654878048998739e+17
19361.0	4.658376256520191e+17
19362.0	4.6575748249900365e+17
19363.0	4.6567684693469856e+17
19364.0	4.655965121019904e+17
19365.0	4.6551264657407994e+17
19366.0	4.6542650983055354e+17
19367.0	4.6534865620828154e+17
19368.0	4.6526914961080314e+17
19369.0	4.6518558628249594e+17
19370.0	4.651056505378134e+17
19371.0	4.6501638197739514e+17
19372.0	4.6494044815796896e+17
19373.0	4.6485437376976205e+17
19374.0	4.647740127226538e+17
19375.0	4.64697634586624e+17
19376.0	4.646162543236436e+17
19377.0	4.6453435913994234e+17
19378.0	4.644527099521706e+17
19379.0	4.643708076381524e+17
19380.0	4.6427921354588154e+17
19381.0	4.641992605346474e+17
19382.0	4.641128480855381e+17
19383.0	4.640322548137983e+17
19384.0	4.6394520147503776e+17
19385.0	4.638721688556885e+17
19386.0	4.637872623714304e+17
19387.0	4.636987011803817e+17
19388.0	4.636066116009983e+17
19389.0	4.6350178755543034e+17
19390.0	4.633128014446591e+17
19391.0	4.6246606108535424e+17
19392.0	4.629426729211221e+17
19393.0	4.6313981345791994e+17
19394.0	4.631019777600169e+17
19395.0	4.628749653901316e+17
19396.0	4.629197011375446e+17
19397.0	4.628715426283519e+17
19398.0	4.6264493172326406e+17
19399.0	4.6248799051448314e+17
19400.0	4.624845334992214e+17
19401.0	4.6253608855579296e+17
19402.0	4.624581998411775e+17
19403.0	4.6237394088755194e+17
19404.0	4.6228525274890234e+17
19405.0	4.6219626324951034e+17
19406.0	4.6211308321068365e+17
19407.0	4.618295887353169e+17
19408.0	4.6190622181512525e+17
19409.0	4.6183528376128845e+17
19410.0	4.6176208630579194e+17
19411.0	4.616750432430761e+17
19412.0	4.615849303692628e+17
19413.0	4.612981724457642e+17
19414.0	4.614024125743104e+17
19415.0	4.613056911551146e+17
19416.0	4.611949324490068e+17
19417.0	4.6111612448276474e+17
19418.0	4.6102126736179194e+17
19419.0	4.609224364873045e+17
19420.0	4.608204147960491e+17
19421.0	4.6071806091591674e+17
19422.0	4.6060423806102176e+17
19423.0	4.6050122875098445e+17
19424.0	4.603873425620991e+17
19425.0	4.602653903770964e+17
19426.0	4.6014503706077856e+17
19427.0	4.6001267873764685e+17
19428.0	4.598619306284372e+17
19429.0	4.5970211736999245e+17
19430.0	4.594774577250304e+17
19431.0	4.592696864451242e+17
19432.0	4.5918671353501005e+17
19433.0	4.590181479525034e+17
19434.0	4.5880095535704736e+17
19435.0	4.5850897664354976e+17
19436.0	4.581821061442219e+17
19437.0	4.577261420281855e+17
19438.0	4.5581441489524064e+17
19439.0	4.5652265926655994e+17
19440.0	4.567507095868757e+17
19441.0	4.563187681372842e+17
19442.0	4.5571083068593485e+17
19443.0	4.5495335874723834e+17
19444.0	4.5396263862708896e+17
19445.0	4.527240743572822e+17
19446.0	4.5107214073637536e+17
19447.0	4.4886872115118054e+17
19448.0	4.456878216751788e+17
19449.0	4.407017673676119e+17
19450.0	4.306567629373433e+17
19451.0	4.2190021444239424e+17
19452.0	4.367405973241857e+17
19453.0	4.432633312313346e+17
19454.0	4.4694545723555814e+17
19455.0	4.4935992063645005e+17
19456.0	4.509833531927211e+17
19457.0	4.516773441306626e+17
19458.0	4.3569081762885606e+17
19459.0	4.502228976358776e+17
19460.0	4.542281605098153e+17
19461.0	4.549211603337215e+17
19462.0	4.553317694133589e+17
19463.0	4.5561425445956256e+17
19464.0	4.5582190878829216e+17
19465.0	4.55979982459153e+17
19466.0	4.560977640379732e+17
19467.0	4.5618533467422714e+17
19468.0	4.5624613642349216e+17
19469.0	4.558945159654051e+17
19470.0	4.5629988698849274e+17
19471.0	4.563104597103957e+17
19472.0	4.5630553189253126e+17
19473.0	4.562909731837268e+17
19474.0	4.558629565541028e+17
19475.0	4.561882520223743e+17
19476.0	4.561938080071679e+17
19477.0	4.561644948553728e+17
19478.0	4.561286478867114e+17
19479.0	4.556997154308089e+17
19480.0	4.5602808679191885e+17
19481.0	4.5596548855234554e+17
19482.0	4.559139186059946e+17
19483.0	4.558600552142164e+17
19484.0	4.5579482120410445e+17
19485.0	4.557334135876266e+17
19486.0	4.5526381924188275e+17
19487.0	4.555974722803029e+17
19488.0	4.55527195668207e+17
19489.0	4.554263534851413e+17
19490.0	4.553258957799423e+17
19491.0	4.5530559807488e+17
19492.0	4.552506117980159e+17
19493.0	4.5517664035362125e+17
19494.0	4.5509850005067085e+17
19495.0	4.550121603028308e+17
19496.0	4.548840367587327e+17
19497.0	4.5475145438986234e+17
19498.0	4.541076276772863e+17
19499.0	4.533169392276821e+17
19500.0	4.544443720575658e+17
19501.0	4.5453086503731194e+17
19502.0	4.5449213133892256e+17
19503.0	4.5443179585645216e+17
19504.0	4.5435916162607776e+17
19505.0	4.542741699275435e+17
19506.0	4.5420660038915405e+17
19507.0	4.541179144175614e+17
19508.0	4.540149795564201e+17
19509.0	4.5386182762168314e+17
19510.0	4.5331316519294266e+17
19511.0	4.456679587097232e+17
19512.0	4.526024762414419e+17
19513.0	4.529622733553661e+17
19514.0	4.530315971614036e+17
19515.0	4.534119027441664e+17
19516.0	4.5335538687453843e+17
19517.0	4.5335400317364896e+17
19518.0	4.5318217204585786e+17
19519.0	4.5310794300129254e+17
19520.0	4.52764320242073e+17
19521.0	4.530861856784383e+17
19522.0	4.529474819325951e+17
19523.0	4.528402010734594e+17
19524.0	4.525578906501127e+17
19525.0	4.5277452099911674e+17
19526.0	4.527034459313492e+17
19527.0	4.526289898351275e+17
19528.0	4.525208396365822e+17
19529.0	4.524288186340693e+17
19530.0	4.523990533363029e+17
19531.0	4.523213794399572e+17
19532.0	4.5224330261080736e+17
19533.0	4.521631423310506e+17
19534.0	4.5209053662194336e+17
19535.0	4.520120832141994e+17
19536.0	4.519297918085802e+17
19537.0	4.5184944865716896e+17
19538.0	4.5139717874428634e+17
19539.0	4.516791626410666e+17
19540.0	4.516182997248682e+17
19541.0	4.514596907909119e+17
19542.0	4.5143179014089376e+17
19543.0	4.5099893782828397e+17
19544.0	4.512799265565355e+17
19545.0	4.5118833805666976e+17
19546.0	4.5111250755693216e+17
19547.0	4.5107537552343034e+17
19548.0	4.510051561635839e+17
19549.0	4.5091730562744314e+17
19550.0	4.508478541048491e+17
19551.0	4.507785480546985e+17
19552.0	4.5069685203053216e+17
19553.0	4.5062142138777594e+17
19554.0	4.5053946566628685e+17
19555.0	4.504181464017579e+17
19556.0	4.503555436183551e+17
19557.0	4.503080111789397e+17
19558.0	4.5023534080764576e+17
19559.0	4.501585421227348e+17
19560.0	4.499400611768999e+17
19561.0	4.500010081189887e+17
19562.0	4.497921879834622e+17
19563.0	4.498513835240107e+17
19564.0	4.4976469131482445e+17
19565.0	4.496926367372628e+17
19566.0	4.4961082606878714e+17
19567.0	4.49541054730513e+17
19568.0	4.4946130535273805e+17
19569.0	4.49385182859537e+17
19570.0	4.493064693350399e+17
19571.0	4.492290784843093e+17
19572.0	4.4915124590346234e+17
19573.0	4.4903102652525216e+17
19574.0	4.489743159700137e+17
19575.0	4.48923993968913e+17
19576.0	4.488235181583019e+17
19577.0	4.487006110001834e+17
19578.0	4.486902028348074e+17
19579.0	4.486132314843818e+17
19580.0	4.485332542160895e+17
19581.0	4.484540496084991e+17
19582.0	4.483835611840511e+17
19583.0	4.4830812564794016e+17
19584.0	4.482256924748457e+17
19585.0	4.4814048267250336e+17
19586.0	4.480599971943766e+17
19587.0	4.479913419603968e+17
19588.0	4.478981248821929e+17
19589.0	4.47834853806353e+17
19590.0	4.4775266040763725e+17
19591.0	4.47686848282624e+17
19592.0	4.476120770543615e+17
19593.0	4.474985510862847e+17
19594.0	4.474003882246143e+17
19595.0	4.473798576657748e+17
19596.0	4.472970903464618e+17
19597.0	4.4722289618452474e+17
19598.0	4.4709729705219405e+17
19599.0	4.47065560781073e+17
19600.0	4.469904604397566e+17
19601.0	4.4691131154650445e+17
19602.0	4.4682818421609805e+17
19603.0	4.4674186103575885e+17
19604.0	4.466760384249855e+17
19605.0	4.465854395711488e+17
19606.0	4.4652940723486714e+17
19607.0	4.4645877669341875e+17
19608.0	4.46373049803298e+17
19609.0	4.4630131972505594e+17
19610.0	4.46045218319019e+17
19611.0	4.458744860988759e+17
19612.0	4.4607515320647674e+17
19613.0	4.459913454201513e+17
19614.0	4.459148715141802e+17
19615.0	4.458402621860521e+17
19616.0	4.4557680942339437e+17
19617.0	4.4540097972579e+17
19618.0	4.455442417713151e+17
19619.0	4.454305826340864e+17
19620.0	4.453203870132902e+17
19621.0	4.4496543592830266e+17
19622.0	4.452994021414229e+17
19623.0	4.452061584293887e+17
19624.0	4.450909122374315e+17
19625.0	4.45067000090897e+17
19626.0	4.449797752750079e+17
19627.0	4.448954407540053e+17
19628.0	4.447913084889771e+17
19629.0	4.437272764787365e+17
19630.0	4.444791597869738e+17
19631.0	4.443087075366229e+17
19632.0	4.4440950980389536e+17
19633.0	4.443961942867966e+17
19634.0	4.443575658654379e+17
19635.0	4.442519806935036e+17
19636.0	4.4377481520960806e+17
19637.0	4.4368709623480275e+17
19638.0	4.440480857194493e+17
19639.0	4.439972478189568e+17
19640.0	4.4388531233095674e+17
19641.0	4.437484984685911e+17
19642.0	4.437425452133034e+17
19643.0	4.436709979368105e+17
19644.0	4.436175485927423e+17
19645.0	4.435417255728468e+17
19646.0	4.429978605890211e+17
19647.0	4.433874957718868e+17
19648.0	4.4332572045475834e+17
19649.0	4.432475510013951e+17
19650.0	4.4317271014768634e+17
19651.0	4.430973225664511e+17
19652.0	4.4302229807213216e+17
19653.0	4.4294295057858554e+17
19654.0	4.4287061680018765e+17
19655.0	4.4279094033339725e+17
