# Flux units: erg / (cm m2 s)
# Wavelength units: Angstrom
wave	flux
19000.0	7.117761174743721e+17
19001.0	7.116395797370195e+17
19002.0	7.115142265307135e+17
19003.0	7.113830562441897e+17
19004.0	7.112518834410836e+17
19005.0	7.111208897347583e+17
19006.0	7.109896783440553e+17
19007.0	7.108545758975314e+17
19008.0	7.107236827146922e+17
19009.0	7.105904595959807e+17
19010.0	7.104393869175466e+17
19011.0	7.103305787026089e+17
19012.0	7.101878020778666e+17
19013.0	7.100699892514815e+17
19014.0	7.099343950927187e+17
19015.0	7.098042652732074e+17
19016.0	7.09671949242641e+17
19017.0	7.0954238621341e+17
19018.0	7.094102671753215e+17
19019.0	7.092797946811732e+17
19020.0	7.091463200440319e+17
19021.0	7.090160641157802e+17
19022.0	7.08884742414882e+17
19023.0	7.087503932653565e+17
19024.0	7.086194276608681e+17
19025.0	7.084879724412927e+17
19026.0	7.083543519821823e+17
19027.0	7.082145570881535e+17
19028.0	7.080931282124799e+17
19029.0	7.079610793590783e+17
19030.0	7.078290594463743e+17
19031.0	7.07696977178351e+17
19032.0	7.075648592587434e+17
19033.0	7.074276230299647e+17
19034.0	7.07300469908002e+17
19035.0	7.071653227222356e+17
19036.0	7.063388447659347e+17
19037.0	7.069033425797119e+17
19038.0	7.067702645839187e+17
19039.0	7.066395014245033e+17
19040.0	7.065072552990036e+17
19041.0	7.063749079509674e+17
19042.0	7.062381016383487e+17
19043.0	7.061103850815488e+17
19044.0	7.059779067314175e+17
19045.0	7.058456661983232e+17
19046.0	7.057104616904019e+17
19047.0	7.055798432344745e+17
19048.0	7.05437325538099e+17
19049.0	7.053123815560531e+17
19050.0	7.051811669497172e+17
19051.0	7.049442856621394e+17
19052.0	7.048979855791444e+17
19053.0	7.047852094128127e+17
19054.0	7.046536658332329e+17
19055.0	7.045068120653823e+17
19056.0	7.043875324908883e+17
19057.0	7.042556884593322e+17
19058.0	7.041223811749203e+17
19059.0	7.039910652062378e+17
19060.0	7.038572758564863e+17
19061.0	7.037260416068266e+17
19062.0	7.035931922006015e+17
19063.0	7.034607076988244e+17
19064.0	7.033217078351188e+17
19065.0	7.031856021110783e+17
19066.0	7.030596268894889e+17
19067.0	7.029302756027049e+17
19068.0	7.027977676827306e+17
19069.0	7.026651664394921e+17
19070.0	7.025311804467882e+17
19071.0	7.023999175360511e+17
19072.0	7.022672572929363e+17
19073.0	7.021342950599338e+17
19074.0	7.020019365969919e+17
19075.0	7.01869260415522e+17
19076.0	7.017354266061482e+17
19077.0	7.016031200127657e+17
19078.0	7.014697052842665e+17
19079.0	7.013384969693865e+17
19080.0	7.012053253008042e+17
19081.0	7.010709140056745e+17
19082.0	7.009378588688383e+17
19083.0	7.008011080608425e+17
19084.0	7.006613528728916e+17
19085.0	7.005450764200618e+17
19086.0	7.004022831579136e+17
19087.0	7.002703369950548e+17
19088.0	7.001524692931924e+17
19089.0	7.000044280479743e+17
19090.0	6.998905041103529e+17
19091.0	6.99758045962786e+17
19092.0	6.996196523158185e+17
19093.0	6.994942245208063e+17
19094.0	6.99360727793664e+17
19095.0	6.992277518592681e+17
19096.0	6.990949405513044e+17
19097.0	6.989629333613225e+17
19098.0	6.9883031191552e+17
19099.0	6.986974721561939e+17
19100.0	6.98563605631249e+17
19101.0	6.984316437397503e+17
19102.0	6.982937993368916e+17
19103.0	6.981661800180393e+17
19104.0	6.980333369032703e+17
19105.0	6.979004082246996e+17
19106.0	6.977638395893076e+17
19107.0	6.976338077766995e+17
19108.0	6.975016364496212e+17
19109.0	6.973079065111209e+17
19110.0	6.972334730641407e+17
19111.0	6.971032916546899e+17
19112.0	6.969705292802729e+17
19113.0	6.968376819711999e+17
19114.0	6.967048189334867e+17
19115.0	6.965693078219434e+17
19116.0	6.964377471156223e+17
19117.0	6.96304799772399e+17
19118.0	6.961654799532032e+17
19119.0	6.95844688118852e+17
19120.0	6.959016451593556e+17
19121.0	6.957701918272169e+17
19122.0	6.956417791557631e+17
19123.0	6.955087995163988e+17
19124.0	6.953723282587648e+17
19125.0	6.952424424079359e+17
19126.0	6.951096423546879e+17
19127.0	6.948811044465322e+17
19128.0	6.948223363055615e+17
19129.0	6.947067342968147e+17
19130.0	6.945778220837546e+17
19131.0	6.9444539252736e+17
19132.0	6.943122954474836e+17
19133.0	6.941670075531263e+17
19134.0	6.940365194002431e+17
19135.0	6.939135237423104e+17
19136.0	6.937807785645395e+17
19137.0	6.936388590458195e+17
19138.0	6.935132113294676e+17
19139.0	6.933817521253034e+17
19140.0	6.93248903348224e+17
19141.0	6.931159029470548e+17
19142.0	6.92981527093794e+17
19143.0	6.928470730167636e+17
19144.0	6.927153420916052e+17
19145.0	6.925836394080938e+17
19146.0	6.924179218279081e+17
19147.0	6.923122666810025e+17
19148.0	6.921843350263123e+17
19149.0	6.92051360490018e+17
19150.0	6.919180413916499e+17
19151.0	6.917854796447743e+17
19152.0	6.916520112990889e+17
19153.0	6.915181476402516e+17
19154.0	6.91378990490146e+17
19155.0	6.912529436857684e+17
19156.0	6.911195178423636e+17
19157.0	6.909847446487039e+17
19158.0	6.908122025164799e+17
19159.0	6.907185275600893e+17
19160.0	6.90585944002833e+17
19161.0	6.904512868515839e+17
19162.0	6.902258729309526e+17
19163.0	6.901834548161194e+17
19164.0	6.900540216005972e+17
19165.0	6.899190653255679e+17
19166.0	6.897794197487615e+17
19167.0	6.896453421105151e+17
19168.0	6.895188947501055e+17
19169.0	6.893849035844265e+17
19170.0	6.89254176985361e+17
19171.0	6.891155185380009e+17
19172.0	6.889873050959871e+17
19173.0	6.888540343020201e+17
19174.0	6.887177264125268e+17
19175.0	6.885874560838313e+17
19176.0	6.8845397096093e+17
19177.0	6.883119403630591e+17
19178.0	6.88184185008947e+17
19179.0	6.880458591698943e+17
19180.0	6.879179884724223e+17
19181.0	6.877802868157097e+17
19182.0	6.876510583521279e+17
19183.0	6.875187640620371e+17
19184.0	6.873836053419348e+17
19185.0	6.87251178721553e+17
19186.0	6.871177238675455e+17
19187.0	6.869805250379773e+17
19188.0	6.868500654063615e+17
19189.0	6.867155918258175e+17
19190.0	6.8658113033885e+17
19191.0	6.864467188340052e+17
19192.0	6.863145668007252e+17
19193.0	6.861797182494035e+17
19194.0	6.860455558163113e+17
19195.0	6.859123784155135e+17
19196.0	6.857773578278228e+17
19197.0	6.856424422375423e+17
19198.0	6.855047697312425e+17
19199.0	6.848117545282217e+17
19200.0	6.84841924156894e+17
19201.0	6.851028018965162e+17
19202.0	6.849720041340927e+17
19203.0	6.84837127061504e+17
19204.0	6.847030452289535e+17
19205.0	6.845701040373759e+17
19206.0	6.84434880864802e+17
19207.0	6.842954577259178e+17
19208.0	6.841557354632532e+17
19209.0	6.840321260388351e+17
19210.0	6.838974316980906e+17
19211.0	6.83762644034082e+17
19212.0	6.836278202990591e+17
19213.0	6.834848315124393e+17
19214.0	6.833464280787625e+17
19215.0	6.832206796991145e+17
19216.0	6.830877638830761e+17
19217.0	6.829528413022889e+17
19218.0	6.82772204303155e+17
19219.0	6.826735525254484e+17
19220.0	6.825457996879187e+17
19221.0	6.823941312086015e+17
19222.0	6.822757602601641e+17
19223.0	6.821406357935444e+17
19224.0	6.820032576574804e+17
19225.0	6.81861415313954e+17
19226.0	6.817328166950228e+17
19227.0	6.815967639590228e+17
19228.0	6.814620842284372e+17
19229.0	6.81326051135761e+17
19230.0	6.811889129138857e+17
19231.0	6.810538626165418e+17
19232.0	6.80916752146978e+17
19233.0	6.807771103450452e+17
19234.0	6.806433776883028e+17
19235.0	6.805068651866793e+17
19236.0	6.803714492159316e+17
19237.0	6.802338056503293e+17
19238.0	6.800920496395604e+17
19239.0	6.799609113695572e+17
19240.0	6.798204279805267e+17
19241.0	6.79684241166609e+17
19242.0	6.795482824529235e+17
19243.0	6.794024256012287e+17
19244.0	6.79274498560273e+17
19245.0	6.7913682794141e+17
19246.0	6.789981678862335e+17
19247.0	6.788610594439167e+17
19248.0	6.787230993481728e+17
19249.0	6.785848360042495e+17
19250.0	6.78446213627904e+17
19251.0	6.783006826736297e+17
19252.0	6.781539479541076e+17
19253.0	6.780301667729408e+17
19254.0	6.778913258733565e+17
19255.0	6.777427049054208e+17
19256.0	6.776111430107133e+17
19257.0	6.774742997882196e+17
19258.0	6.773347256543913e+17
19259.0	6.771910901060948e+17
19260.0	6.770428475342847e+17
19261.0	6.769150918306473e+17
19262.0	6.767721324041556e+17
19263.0	6.766309027785385e+17
19264.0	6.764647430488061e+17
19265.0	6.763424241418239e+17
19266.0	6.762026152667817e+17
19267.0	6.760708019934548e+17
19268.0	6.759293644701695e+17
19269.0	6.75787699196177e+17
19270.0	6.756456537085267e+17
19271.0	6.754855064436735e+17
19272.0	6.753592581029888e+17
19273.0	6.751143560478719e+17
19274.0	6.750093578687827e+17
19275.0	6.749327634464767e+17
19276.0	6.747883980892842e+17
19277.0	6.746450425806845e+17
19278.0	6.745021027276115e+17
19279.0	6.743577607187113e+17
19280.0	6.742092697741993e+17
19281.0	6.740676312039423e+17
19282.0	6.739234980713812e+17
19283.0	6.737700751846057e+17
19284.0	6.736242755851604e+17
19285.0	6.734756790140927e+17
19286.0	6.733383373684735e+17
19287.0	6.731936935794004e+17
19288.0	6.728446311574184e+17
19289.0	6.724598190047226e+17
19290.0	6.727301625894227e+17
19291.0	6.725567290976937e+17
19292.0	6.72422970925602e+17
19293.0	6.722737470963711e+17
19294.0	6.721249762519721e+17
19295.0	6.719753791995903e+17
19296.0	6.718254479310847e+17
19297.0	6.716749523189759e+17
19298.0	6.715232921583615e+17
19299.0	6.713730552649043e+17
19300.0	6.712212218096297e+17
19301.0	6.710687425713491e+17
19302.0	6.709154100718249e+17
19303.0	6.707590002114559e+17
19304.0	6.706072289017855e+17
19305.0	6.704541504372735e+17
19306.0	6.703004233236477e+17
19307.0	6.701416782845267e+17
19308.0	6.699868386317652e+17
19309.0	6.698129203483987e+17
19310.0	6.696485561303039e+17
19311.0	6.695136566880936e+17
19312.0	6.693589603407188e+17
19313.0	6.69200256335872e+17
19314.0	6.685651213396653e+17
19315.0	6.684302292374872e+17
19316.0	6.687182790765225e+17
19317.0	6.685587442499583e+17
19318.0	6.683954144171348e+17
19319.0	6.682333153329151e+17
19320.0	6.68069293859362e+17
19321.0	6.679047428549289e+17
19322.0	6.677331359825919e+17
19323.0	6.675643636908031e+17
19324.0	6.674051210674175e+17
19325.0	6.672200179733844e+17
19326.0	6.670681053855743e+17
19327.0	6.668980601924265e+17
19328.0	6.667284368064511e+17
19329.0	6.665571065484628e+17
19330.0	6.663825867319977e+17
19331.0	6.662087789685417e+17
19332.0	6.660365068096851e+17
19333.0	6.658612155908095e+17
19334.0	6.656843486418259e+17
19335.0	6.655067943163219e+17
19336.0	6.653276969063764e+17
19337.0	6.651473240085844e+17
19338.0	6.649546402693119e+17
19339.0	6.647837601999529e+17
19340.0	6.645963441569792e+17
19341.0	6.644131210199039e+17
19342.0	6.642064817127423e+17
19343.0	6.640398757789695e+17
19344.0	6.63850617737489e+17
19345.0	6.635583167616339e+17
19346.0	6.634188607673684e+17
19347.0	6.6326958192285e+17
19348.0	6.630780435780947e+17
19349.0	6.628794402777769e+17
19350.0	6.62680488640512e+17
19351.0	6.624800742397267e+17
19352.0	6.622751317382484e+17
19353.0	6.620756973365929e+17
19354.0	6.618707501514751e+17
19355.0	6.616355351210665e+17
19356.0	6.613932182252201e+17
19357.0	6.611821444901545e+17
19358.0	6.609679392178175e+17
19359.0	6.607479239256746e+17
19360.0	6.605337387160916e+17
19361.0	6.603143624261631e+17
19362.0	6.600944774370644e+17
19363.0	6.598700653259433e+17
19364.0	6.596432970645503e+17
19365.0	6.594140417206953e+17
19366.0	6.591821752128852e+17
19367.0	6.589476948847273e+17
19368.0	6.587105025895082e+17
19369.0	6.584669651511978e+17
19370.0	6.582162588084906e+17
19371.0	6.579787160092671e+17
19372.0	6.577325828560212e+17
19373.0	6.57419014382114e+17
19374.0	6.571217368645632e+17
19375.0	6.568606754843306e+17
19376.0	6.565968680233641e+17
19377.0	6.563296024985599e+17
19378.0	6.560594523411795e+17
19379.0	6.557858472656895e+17
19380.0	6.555087839865514e+17
19381.0	6.55228175262242e+17
19382.0	6.548919186096127e+17
19383.0	6.545014674249044e+17
19384.0	6.542141510298281e+17
19385.0	6.539165348921343e+17
19386.0	6.536147531814227e+17
19387.0	6.533081228552874e+17
19388.0	6.529366450940585e+17
19389.0	6.524724818127529e+17
19390.0	6.521428013394601e+17
19391.0	6.51229377907916e+17
19392.0	6.514494192746492e+17
19393.0	6.508489390161917e+17
19394.0	6.504873006028115e+17
19395.0	6.501180885346985e+17
19396.0	6.495033515573247e+17
19397.0	6.490148497784831e+17
19398.0	6.485985305034752e+17
19399.0	6.477519114993663e+17
19400.0	6.473526217976489e+17
19401.0	6.464935455009444e+17
19402.0	6.459404948515501e+17
19403.0	6.448678901732691e+17
19404.0	6.440715210282328e+17
19405.0	6.431083832104275e+17
19406.0	6.417998585790464e+17
19407.0	6.408379638830418e+17
19408.0	6.400904746674858e+17
19409.0	6.394723094757376e+17
19410.0	6.387976368728745e+17
19411.0	6.38098135458338e+17
19412.0	6.373737425971881e+17
19413.0	6.366244954789204e+17
19414.0	6.358472232796159e+17
19415.0	6.350447360431444e+17
19416.0	6.341624567169023e+17
19417.0	6.332814230989481e+17
19418.0	6.323922637160448e+17
19419.0	6.314711136075776e+17
19420.0	6.305215884034045e+17
19421.0	6.294688322202282e+17
19422.0	6.284746699745962e+17
19423.0	6.274191544986281e+17
19424.0	6.262382195463508e+17
19425.0	6.250241995046913e+17
19426.0	6.237217624861354e+17
19427.0	6.222139736020308e+17
19428.0	6.206028499298985e+17
19429.0	6.187030060990458e+17
19430.0	6.164337611068759e+17
19431.0	6.135140888259242e+17
19432.0	6.098077540679677e+17
19433.0	6.065270620334762e+17
19434.0	6.041789229520212e+17
19435.0	6.017058294726653e+17
19436.0	5.990662710580564e+17
19437.0	5.962615493405354e+17
19438.0	5.925565150265345e+17
19439.0	5.898653616395607e+17
19440.0	5.860511800710486e+17
19441.0	5.814265893442906e+17
19442.0	5.754824930186583e+17
19443.0	5.67775153094656e+17
19444.0	5.6105265818937984e+17
19445.0	5.5374247851895475e+17
19446.0	5.445717682989733e+17
19447.0	5.3246516188064365e+17
19448.0	5.171877458739205e+17
19449.0	4.9670843716512435e+17
19450.0	4.6467195887506554e+17
19451.0	4.549256564178938e+17
19452.0	4.8140312463278163e+17
19453.0	5.0804666526597184e+17
19454.0	5.248522739777531e+17
19455.0	5.38371987551027e+17
19456.0	5.4866416846766106e+17
19457.0	5.5648430559941946e+17
19458.0	5.623627307985589e+17
19459.0	5.7022622466048045e+17
19460.0	5.769218257584123e+17
19461.0	5.81870517555473e+17
19462.0	5.858332354368855e+17
19463.0	5.891551307060562e+17
19464.0	5.920855274029055e+17
19465.0	5.948036447120042e+17
19466.0	5.972874109474131e+17
19467.0	5.995781411220137e+17
19468.0	6.017602673442816e+17
19469.0	6.040593532015963e+17
19470.0	6.077892262537896e+17
19471.0	6.107663653928959e+17
19472.0	6.130716566530729e+17
19473.0	6.148495817135442e+17
19474.0	6.163634589794301e+17
19475.0	6.176092934460758e+17
19476.0	6.187639759000919e+17
19477.0	6.19864027963938e+17
19478.0	6.207604457297235e+17
19479.0	6.216800438059008e+17
19480.0	6.224384705079978e+17
19481.0	6.232201508509011e+17
19482.0	6.239846913103188e+17
19483.0	6.246764977149268e+17
19484.0	6.253434365105492e+17
19485.0	6.259847634179412e+17
19486.0	6.266269656765782e+17
19487.0	6.272194745903786e+17
19488.0	6.277652251934719e+17
19489.0	6.282775492908372e+17
19490.0	6.287128160545449e+17
19491.0	6.292410655746729e+17
19492.0	6.29685696401681e+17
19493.0	6.301047412053331e+17
19494.0	6.30501242184226e+17
19495.0	6.311744126670163e+17
19496.0	6.319827973046273e+17
19497.0	6.327641641233073e+17
19498.0	6.335550742418772e+17
19499.0	6.332860001331885e+17
19500.0	6.346963742097407e+17
19501.0	6.352164399437143e+17
19502.0	6.355768820716884e+17
19503.0	6.359246670484817e+17
19504.0	6.363149183046995e+17
19505.0	6.364654446750377e+17
19506.0	6.368387416457215e+17
19507.0	6.37054241350178e+17
19508.0	6.371738436064596e+17
19509.0	6.373852476429652e+17
19510.0	6.376292170945876e+17
19511.0	6.367683096346619e+17
19512.0	6.376654391738365e+17
19513.0	6.376464402350076e+17
19514.0	6.379670516443816e+17
19515.0	6.381953390826836e+17
19516.0	6.382832869965823e+17
19517.0	6.383349324404051e+17
19518.0	6.383872835059711e+17
19519.0	6.384322031037097e+17
19520.0	6.385797143287123e+17
19521.0	6.386480187790675e+17
19522.0	6.386791642125651e+17
19523.0	6.387088614227967e+17
19524.0	6.387339901272063e+17
19525.0	6.387547877933055e+17
19526.0	6.387741268202835e+17
19527.0	6.387895645153962e+17
19528.0	6.388013384859647e+17
19529.0	6.388155862570323e+17
19530.0	6.389081054729556e+17
19531.0	6.389083531466068e+17
19532.0	6.389055383491924e+17
19533.0	6.388997715307176e+17
19534.0	6.388911198699519e+17
19535.0	6.388796722861395e+17
19536.0	6.388632694117716e+17
19537.0	6.38848689381922e+17
19538.0	6.388230266028032e+17
19539.0	6.38779540967697e+17
19540.0	6.38781554303522e+17
19541.0	6.387566672609279e+17
19542.0	6.38727833587985e+17
19543.0	6.386967744173396e+17
19544.0	6.386635313425066e+17
19545.0	6.386021236561235e+17
19546.0	6.385446804258815e+17
19547.0	6.385514179461119e+17
19548.0	6.385099952794282e+17
19549.0	6.384912241612116e+17
19550.0	6.384787180748797e+17
19551.0	6.384326861477204e+17
19552.0	6.383847223241385e+17
19553.0	6.383338192721236e+17
19554.0	6.38281988579874e+17
19555.0	6.382302958802262e+17
19556.0	6.381767386027348e+17
19557.0	6.381205919017642e+17
19558.0	6.380632949129215e+17
19559.0	6.380043173363711e+17
19560.0	6.379427957746345e+17
19561.0	6.378818962281812e+17
19562.0	6.378199276934484e+17
19563.0	6.377557194702847e+17
19564.0	6.376903020292778e+17
19565.0	6.376236490162175e+17
19566.0	6.37554722410769e+17
19567.0	6.374867166647636e+17
19568.0	6.374151387698516e+17
19569.0	6.373449949773823e+17
19570.0	6.372731738827434e+17
19571.0	6.371995460217514e+17
19572.0	6.371238634411348e+17
19573.0	6.370488706138111e+17
19574.0	6.369688774770687e+17
19575.0	6.36896801788177e+17
19576.0	6.368190522545491e+17
19577.0	6.367395843844778e+17
19578.0	6.366585005189802e+17
19579.0	6.365789779831465e+17
19580.0	6.364977909377706e+17
19581.0	6.364162412249087e+17
19582.0	6.363343253493076e+17
19583.0	6.362507633491968e+17
19584.0	6.361660211418452e+17
19585.0	6.360754570308265e+17
19586.0	6.359876638867456e+17
19587.0	6.359058363711487e+17
19588.0	6.357970166218752e+17
19589.0	6.357333075208874e+17
19590.0	6.356417903241898e+17
19591.0	6.355573004741289e+17
19592.0	6.354676737201492e+17
19593.0	6.35376464105745e+17
19594.0	6.352744279441407e+17
19595.0	6.351932638276266e+17
19596.0	6.350517894643711e+17
19597.0	6.350089575814483e+17
19598.0	6.349013901814442e+17
19599.0	6.348256865594026e+17
19600.0	6.347319300237994e+17
19601.0	6.34633880408337e+17
19602.0	6.345399254821546e+17
19603.0	6.344180249569961e+17
19604.0	6.343480009119059e+17
19605.0	6.342398793045331e+17
19606.0	6.341595900499284e+17
19607.0	6.340630446516906e+17
19608.0	6.339653423945044e+17
19609.0	6.338654609866751e+17
19610.0	6.337705292769961e+17
19611.0	6.336719792810666e+17
19612.0	6.335737348401834e+17
19613.0	6.334747849872724e+17
19614.0	6.333731475641684e+17
19615.0	6.332756620825939e+17
19616.0	6.33170760372497e+17
19617.0	6.330756495660372e+17
19618.0	6.329443133947901e+17
19619.0	6.328368584720383e+17
19620.0	6.327371997118463e+17
19621.0	6.326716437889023e+17
19622.0	6.325699760969044e+17
19623.0	6.324680082325503e+17
19624.0	6.323657566235305e+17
19625.0	6.322632065198762e+17
19626.0	6.321604399202301e+17
19627.0	6.320572379518292e+17
19628.0	6.319406302887935e+17
19629.0	6.318451257070932e+17
19630.0	6.317020264704682e+17
19631.0	6.310399375485612e+17
19632.0	6.315374113630889e+17
19633.0	6.314326466669225e+17
19634.0	6.313300432257023e+17
19635.0	6.312231504794963e+17
19636.0	6.311205361330857e+17
19637.0	6.309939300881748e+17
19638.0	6.309096575729663e+17
19639.0	6.308036367526569e+17
19640.0	6.306929272597162e+17
19641.0	6.305549426272938e+17
19642.0	6.30487153447185e+17
19643.0	6.303807627591679e+17
19644.0	6.30271048225041e+17
19645.0	6.301532596557139e+17
19646.0	6.300615200909994e+17
19647.0	6.299547448552106e+17
19648.0	6.298478209313449e+17
19649.0	6.29740615639586e+17
19650.0	6.296335778403668e+17
19651.0	6.295262508438868e+17
19652.0	6.294187927055018e+17
19653.0	6.293110967500797e+17
19654.0	6.292034976830803e+17
19655.0	6.29095401660962e+17
19656.0	6.289873345795412e+17
19657.0	6.288796470826324e+17
19658.0	6.287714689220607e+17
19659.0	6.286630917417642e+17
19660.0	6.28554787332642e+17
19661.0	6.284462849523711e+17
19662.0	6.283376728910505e+17
19663.0	6.282263250949459e+17
19664.0	6.281179539963904e+17
19665.0	6.28011280891904e+17
