# Flux units: erg / (cm m2 s)
# Wavelength units: Angstrom
wave	flux
19000.0	4.4860617212122445e+17
19001.0	4.485270609767081e+17
19002.0	4.484508058735957e+17
19003.0	4.4837279629311994e+17
19004.0	4.482949269422079e+17
19005.0	4.4821683669128525e+17
19006.0	4.4813787905829536e+17
19007.0	4.4806189714418336e+17
19008.0	4.47983607943441e+17
19009.0	4.4790593132079776e+17
19010.0	4.478215524799828e+17
19011.0	4.4775071334181536e+17
19012.0	4.476706091958272e+17
19013.0	4.4759635715249485e+17
19014.0	4.4751784124962125e+17
19015.0	4.4743999245079885e+17
19016.0	4.473623277819221e+17
19017.0	4.4728610721191245e+17
19018.0	4.472083467031892e+17
19019.0	4.471308392508074e+17
19020.0	4.4705330684231674e+17
19021.0	4.469759908599125e+17
19022.0	4.468986711725397e+17
19023.0	4.468206767614634e+17
19024.0	4.4674245376081914e+17
19025.0	4.466661072218794e+17
19026.0	4.465886027754153e+17
19027.0	4.4651039284701856e+17
19028.0	4.464339686435498e+17
19029.0	4.4635651026452474e+17
19030.0	4.462790531437909e+17
19031.0	4.462021086369108e+17
19032.0	4.4612485633802234e+17
19033.0	4.460462318725802e+17
19034.0	4.459703666300245e+17
19035.0	4.458928867901439e+17
19036.0	4.4575124982770336e+17
19037.0	4.457384665677823e+17
19038.0	4.4566112548945914e+17
19039.0	4.4558430534369274e+17
19040.0	4.455067407089664e+17
19041.0	4.4542970840132256e+17
19042.0	4.453031161976148e+17
19043.0	4.4527564182869325e+17
19044.0	4.451988118263125e+17
19045.0	4.4512134030513485e+17
19046.0	4.4504385242617165e+17
19047.0	4.449673164445012e+17
19048.0	4.4488118746043725e+17
19049.0	4.4471090011613843e+17
19050.0	4.4473566873954976e+17
19051.0	4.446452154280617e+17
19052.0	4.445819540690261e+17
19053.0	4.445055084746068e+17
19054.0	4.444284490437972e+17
19055.0	4.443337870977706e+17
19056.0	4.442703297948329e+17
19057.0	4.4419791261969056e+17
19058.0	4.440691852356265e+17
19059.0	4.4402346172962125e+17
19060.0	4.439671687872512e+17
19061.0	4.4389019492024314e+17
19062.0	4.438129984055978e+17
19063.0	4.4373699265385805e+17
19064.0	4.4365895664926714e+17
19065.0	4.435815040024575e+17
19066.0	4.434868838596607e+17
19067.0	4.4342934304194554e+17
19068.0	4.4335339167634765e+17
19069.0	4.43276676108561e+17
19070.0	4.4319922332194125e+17
19071.0	4.4312301002205856e+17
19072.0	4.430266846150655e+17
19073.0	4.429701063901183e+17
19074.0	4.428928410888874e+17
19075.0	4.4281690433344845e+17
19076.0	4.427392344216916e+17
19077.0	4.426635256266751e+17
19078.0	4.4258652582488736e+17
19079.0	4.425101982302207e+17
19080.0	4.4243405371692365e+17
19081.0	4.4235671844072096e+17
19082.0	4.4228059203283616e+17
19083.0	4.422039171497983e+17
19084.0	4.4212595629315405e+17
19085.0	4.4205171753178445e+17
19086.0	4.4194600541224954e+17
19087.0	4.4185446479735456e+17
19088.0	4.417967030097236e+17
19089.0	4.417433324486655e+17
19090.0	4.4166989717613216e+17
19091.0	4.4159050815897594e+17
19092.0	4.4147648243957766e+17
19093.0	4.4144068028006394e+17
19094.0	4.4136461587797325e+17
19095.0	4.4128802271395834e+17
19096.0	4.4121175670565536e+17
19097.0	4.411357908697087e+17
19098.0	4.410390207266815e+17
19099.0	4.409582749220864e+17
19100.0	4.4090680424093e+17
19101.0	4.408307805934932e+17
19102.0	4.4075308677420365e+17
19103.0	4.406783726583807e+17
19104.0	4.406027291546964e+17
19105.0	4.404812073052843e+17
19106.0	4.4044969067588256e+17
19107.0	4.403635960152063e+17
19108.0	4.4028108748445005e+17
19109.0	4.4021873055716685e+17
19110.0	4.4014591709020154e+17
19111.0	4.4005703398632096e+17
19112.0	4.3997776905065805e+17
19113.0	4.39918194135313e+17
19114.0	4.3983326695915514e+17
19115.0	4.397641742592682e+17
19116.0	4.396895954796543e+17
19117.0	4.3961438063383885e+17
19118.0	4.3953733287717536e+17
19119.0	4.392779849400316e+17
19120.0	4.393861335307604e+17
19121.0	4.3931005165240314e+17
19122.0	4.392351942311934e+17
19123.0	4.391593691840511e+17
19124.0	4.3908306780378445e+17
19125.0	4.3900759458884256e+17
19126.0	4.3893185314815994e+17
19127.0	4.388315776155647e+17
19128.0	4.38780141117986e+17
19129.0	4.38703919010065e+17
19130.0	4.3862904767774714e+17
19131.0	4.385533656563712e+17
19132.0	4.3847756283903994e+17
19133.0	4.384016341925887e+17
19134.0	4.383263774037332e+17
19135.0	4.382507445955242e+17
19136.0	4.381751285645312e+17
19137.0	4.380966748771668e+17
19138.0	4.38023752847633e+17
19139.0	4.3794837756968954e+17
19140.0	4.3787268862771194e+17
19141.0	4.377971487932415e+17
19142.0	4.3772133437166925e+17
19143.0	4.3764525514970445e+17
19144.0	4.375703803221332e+17
19145.0	4.3749516771328e+17
19146.0	4.374123511807999e+17
19147.0	4.3734217103769594e+17
19148.0	4.372521558911659e+17
19149.0	4.37173366170146e+17
19150.0	4.371181752811519e+17
19151.0	4.370426916503551e+17
19152.0	4.369674276612778e+17
19153.0	4.368556950377812e+17
19154.0	4.368121860543829e+17
19155.0	4.367413599185578e+17
19156.0	4.366660037246974e+17
19157.0	4.365798181175296e+17
19158.0	4.364877338509312e+17
19159.0	4.364390235111424e+17
19160.0	4.3636496237854714e+17
19161.0	4.3628958409468576e+17
19162.0	4.3620931147748685e+17
19163.0	4.3613940592148474e+17
19164.0	4.360639803118933e+17
19165.0	4.35950438125841e+17
19166.0	4.359116809393493e+17
19167.0	4.35837705789986e+17
19168.0	4.3576379124831565e+17
19169.0	4.356883892666366e+17
19170.0	4.3561334072497485e+17
19171.0	4.3553764059818656e+17
19172.0	4.354635079527082e+17
19173.0	4.353884771669333e+17
19174.0	4.353126463176704e+17
19175.0	4.35238460264721e+17
19176.0	4.3516340878704634e+17
19177.0	4.350866070263125e+17
19178.0	4.350126209717589e+17
19179.0	4.3493689092560205e+17
19180.0	4.3486352541832525e+17
19181.0	4.3478613261025274e+17
19182.0	4.347130571390975e+17
19183.0	4.3463879384104954e+17
19184.0	4.34563859873792e+17
19185.0	4.344890885057194e+17
19186.0	4.3441431755707725e+17
19187.0	4.343392527275348e+17
19188.0	4.3426471421323936e+17
19189.0	4.3419011005808634e+17
19190.0	4.3411534393289376e+17
19191.0	4.340405956334933e+17
19192.0	4.3396586264330234e+17
19193.0	4.3388674520733005e+17
19194.0	4.3380952492496205e+17
19195.0	4.337416262735189e+17
19196.0	4.3366682589484365e+17
19197.0	4.335919518362282e+17
19198.0	4.335172411457534e+17
19199.0	4.3339591852578125e+17
19200.0	4.333394931832149e+17
19201.0	4.332934986552661e+17
19202.0	4.332192389922815e+17
19203.0	4.331446513347242e+17
19204.0	4.330698652865877e+17
19205.0	4.329957378140842e+17
19206.0	4.329210168475647e+17
19207.0	4.328450684179797e+17
19208.0	4.3276815634705056e+17
19209.0	4.32697638003234e+17
19210.0	4.326230209855488e+17
19211.0	4.325487550311082e+17
19212.0	4.3247445160755194e+17
19213.0	4.3239875651392845e+17
19214.0	4.323242402993493e+17
19215.0	4.322509702124885e+17
19216.0	4.321769126450517e+17
19217.0	4.321025642026325e+17
19218.0	4.3201753251839994e+17
19219.0	4.3195207732865696e+17
19220.0	4.3187936487451296e+17
19221.0	4.3180098570594976e+17
19222.0	4.3173085316819616e+17
19223.0	4.316565955324585e+17
19224.0	4.315818983336617e+17
19225.0	4.315064138640042e+17
19226.0	4.3143414810323616e+17
19227.0	4.3135980637170336e+17
19228.0	4.312857022474923e+17
19229.0	4.312106860019712e+17
19230.0	4.3113717187652256e+17
19231.0	4.3106334863086925e+17
19232.0	4.3098917033738234e+17
19233.0	4.309143227028821e+17
19234.0	4.3084054734219936e+17
19235.0	4.3076644447627936e+17
19236.0	4.3069291923592525e+17
19237.0	4.306183724728318e+17
19238.0	4.3054346143443616e+17
19239.0	4.304708469172906e+17
19240.0	4.303962623355562e+17
19241.0	4.3032264943424845e+17
19242.0	4.302481823629311e+17
19243.0	4.301731805178538e+17
19244.0	4.3010083925961376e+17
19245.0	4.300270084642133e+17
19246.0	4.299532162564096e+17
19247.0	4.298792692088831e+17
19248.0	4.298052650489172e+17
19249.0	4.2973025761143456e+17
19250.0	4.296504879611904e+17
19251.0	4.2957625052801696e+17
19252.0	4.2950677362988365e+17
19253.0	4.294358959041194e+17
19254.0	4.2936255758991354e+17
19255.0	4.2928643845215565e+17
19256.0	4.292147785586006e+17
19257.0	4.291411544724821e+17
19258.0	4.290673204614484e+17
19259.0	4.2899304423096314e+17
19260.0	4.289171884954964e+17
19261.0	4.2884644226116256e+17
19262.0	4.287720937488383e+17
19263.0	4.286978296119295e+17
19264.0	4.2861796859576314e+17
19265.0	4.2854885827979936e+17
19266.0	4.284726256162132e+17
19267.0	4.2840463308226554e+17
19268.0	4.283308244467711e+17
19269.0	4.282576563514025e+17
19270.0	4.281839929087317e+17
19271.0	4.281052660323668e+17
19272.0	4.2803658710056954e+17
19273.0	4.2796150220827296e+17
19274.0	4.2788542634175136e+17
19275.0	4.27816646676753e+17
19276.0	4.277427650603689e+17
19277.0	4.276697577466538e+17
19278.0	4.275956418783914e+17
19279.0	4.275229313116842e+17
19280.0	4.274486376049323e+17
19281.0	4.2737616436592634e+17
19282.0	4.2730268763968845e+17
19283.0	4.2722901364135245e+17
19284.0	4.2715588140728314e+17
19285.0	4.270805817666218e+17
19286.0	4.270088427405312e+17
19287.0	4.2693561781234336e+17
19288.0	4.268498707895636e+17
19289.0	4.267418115375102e+17
19290.0	4.26716318068463e+17
19291.0	4.2664034594106016e+17
19292.0	4.2656971358207994e+17
19293.0	4.264965046621525e+17
19294.0	4.264233343298218e+17
19295.0	4.263503184177834e+17
19296.0	4.262552290022741e+17
19297.0	4.262006863429631e+17
19298.0	4.261306493654355e+17
19299.0	4.260333457768447e+17
19300.0	4.2598432785476256e+17
19301.0	4.259115542336853e+17
19302.0	4.2583835768695456e+17
19303.0	4.25764273206067e+17
19304.0	4.2569191929501005e+17
19305.0	4.2561947933081594e+17
19306.0	4.255464611818153e+17
19307.0	4.2547249400162976e+17
19308.0	4.254000080399017e+17
19309.0	4.253255557884585e+17
19310.0	4.252524226456233e+17
19311.0	4.251806842486783e+17
19312.0	4.2510820534736205e+17
19313.0	4.2503573742114125e+17
19314.0	4.246532504507723e+17
19315.0	4.246036156863835e+17
19316.0	4.247893738607957e+17
19317.0	4.247438244184063e+17
19318.0	4.2467134691519136e+17
19319.0	4.245983743442942e+17
19320.0	4.245173062773418e+17
19321.0	4.2443321055204685e+17
19322.0	4.243792351723519e+17
19323.0	4.243067657082196e+17
19324.0	4.2423451980049056e+17
19325.0	4.2416014164841805e+17
19326.0	4.240890149208063e+17
19327.0	4.2401592903379616e+17
19328.0	4.2390229450315104e+17
19329.0	4.2387063365959674e+17
19330.0	4.2379762788379296e+17
19331.0	4.237249903678804e+17
19332.0	4.236528049979391e+17
19333.0	4.235801572059818e+17
19334.0	4.235063100527958e+17
19335.0	4.233509558987435e+17
19336.0	4.233617437884415e+17
19337.0	4.2328965160195405e+17
19338.0	4.232142510882815e+17
19339.0	4.231439806278315e+17
19340.0	4.2306656328308045e+17
19341.0	4.229682208352938e+17
19342.0	4.2291386111754234e+17
19343.0	4.228542482437461e+17
19344.0	4.2275091191780685e+17
19345.0	4.226627130447187e+17
19346.0	4.226287930791253e+17
19347.0	4.225254513704959e+17
19348.0	4.224917177019051e+17
19349.0	4.224189776352597e+17
19350.0	4.2233266333286394e+17
19351.0	4.222737055394474e+17
19352.0	4.221602046672895e+17
19353.0	4.221292810425684e+17
19354.0	4.220570133244586e+17
19355.0	4.219835478529364e+17
19356.0	4.219119434640042e+17
19357.0	4.2183978270064634e+17
19358.0	4.217673881048404e+17
19359.0	4.216861526152532e+17
19360.0	4.215898474108244e+17
19361.0	4.215496643007829e+17
19362.0	4.2147773268623354e+17
19363.0	4.2140539716020896e+17
19364.0	4.213331718045695e+17
19365.0	4.212607864362325e+17
19366.0	4.211878363048618e+17
19367.0	4.211159467032575e+17
19368.0	4.2104375322432845e+17
19369.0	4.2097106985069216e+17
19370.0	4.2089904162734074e+17
19371.0	4.2082604619748685e+17
19372.0	4.207543319177898e+17
19373.0	4.206820800681302e+17
19374.0	4.2060945953914874e+17
19375.0	4.205375285537451e+17
19376.0	4.204651048774314e+17
19377.0	4.203928488334676e+17
19378.0	4.2032054140927994e+17
19379.0	4.202482040657236e+17
19380.0	4.201754062574933e+17
19381.0	4.20102835151394e+17
19382.0	4.200300502056959e+17
19383.0	4.199574418401961e+17
19384.0	4.198854221452629e+17
19385.0	4.198137935691776e+17
19386.0	4.1974147565922976e+17
19387.0	4.196689876702549e+17
19388.0	4.195964797583359e+17
19389.0	4.1952418414810445e+17
19390.0	4.194518145084074e+17
19391.0	4.19318182654771e+17
19392.0	4.1930636785964365e+17
19393.0	4.1923406721624736e+17
19394.0	4.191616027153748e+17
19395.0	4.1907682345833805e+17
19396.0	4.190136360588629e+17
19397.0	4.189431258939391e+17
19398.0	4.188602711233876e+17
19399.0	4.1877228525103776e+17
19400.0	4.187158713029974e+17
19401.0	4.1865180841246714e+17
19402.0	4.185790859618987e+17
19403.0	4.185059761673555e+17
19404.0	4.184323552968704e+17
19405.0	4.183586457168554e+17
19406.0	4.1828607083588256e+17
19407.0	4.1819771880079354e+17
19408.0	4.181271124464981e+17
19409.0	4.180649757900799e+17
19410.0	4.1799106320575136e+17
19411.0	4.179167924278613e+17
19412.0	4.1784228110663674e+17
19413.0	4.177526889556649e+17
19414.0	4.1769272557786445e+17
19415.0	4.176177941970943e+17
19416.0	4.175401019157162e+17
19417.0	4.1746637115446605e+17
19418.0	4.1739049521643526e+17
19419.0	4.173138897491284e+17
19420.0	4.1723688120920736e+17
19421.0	4.171590433155753e+17
19422.0	4.170801917285718e+17
19423.0	4.170017423753214e+17
19424.0	4.1692167010604365e+17
19425.0	4.168406708955819e+17
19426.0	4.167585824243712e+17
19427.0	4.1667501259489274e+17
19428.0	4.165896344611498e+17
19429.0	4.165029380576596e+17
19430.0	4.164131875018068e+17
19431.0	4.163052651937792e+17
19432.0	4.162258834467497e+17
19433.0	4.161266453053438e+17
19434.0	4.160218985747796e+17
19435.0	4.159098948594346e+17
19436.0	4.1578362365979315e+17
19437.0	4.1566369515656525e+17
19438.0	4.153800751316991e+17
19439.0	4.153616659819178e+17
19440.0	4.1517834197183136e+17
19441.0	4.149625349647018e+17
19442.0	4.1470049722040314e+17
19443.0	4.143707049689087e+17
19444.0	4.1392441319751674e+17
19445.0	4.133193188551338e+17
19446.0	4.1244423618559994e+17
19447.0	4.111032070264148e+17
19448.0	4.0895925043855366e+17
19449.0	4.055331801224533e+17
19450.0	4.0105307030596243e+17
19451.0	3.9890128092528634e+17
19452.0	4.0203823087615994e+17
19453.0	4.06259656084685e+17
19454.0	4.091779639585449e+17
19455.0	4.1093025119600634e+17
19456.0	4.119818099053908e+17
19457.0	4.126196802169514e+17
19458.0	4.119573984968719e+17
19459.0	4.1321584922023264e+17
19460.0	4.134785947533312e+17
19461.0	4.135912959814314e+17
19462.0	4.1365724644857165e+17
19463.0	4.136924363795114e+17
19464.0	4.1370515106256205e+17
19465.0	4.137023575162879e+17
19466.0	4.136861503761066e+17
19467.0	4.136613093310464e+17
19468.0	4.136286373107029e+17
19469.0	4.135569934953129e+17
19470.0	4.1354687809235616e+17
19471.0	4.1349955480890016e+17
19472.0	4.134486015650474e+17
19473.0	4.1339547476295674e+17
19474.0	4.133105175975252e+17
19475.0	4.132699316245844e+17
19476.0	4.1322509094966605e+17
19477.0	4.1316541334377805e+17
19478.0	4.131050295569066e+17
19479.0	4.130141088601429e+17
19480.0	4.129799492599808e+17
19481.0	4.1291546428265805e+17
19482.0	4.1285233860935674e+17
19483.0	4.127881119312553e+17
19484.0	4.1272252441122125e+17
19485.0	4.126564044242944e+17
19486.0	4.125600747530923e+17
19487.0	4.125249501134848e+17
19488.0	4.124587663731371e+17
19489.0	4.1239184443528525e+17
19490.0	4.123016696954879e+17
19491.0	4.1225677764034554e+17
19492.0	4.1218993029120006e+17
19493.0	4.1212222443793056e+17
19494.0	4.120542365177174e+17
19495.0	4.119863859609599e+17
19496.0	4.1191135734224205e+17
19497.0	4.1185003347203405e+17
19498.0	4.11781204733679e+17
19499.0	4.116105296958803e+17
19500.0	4.1164529467391994e+17
19501.0	4.1159845695105696e+17
19502.0	4.1154217002052256e+17
19503.0	4.114722915876864e+17
19504.0	4.114021614966101e+17
19505.0	4.1133142679661216e+17
19506.0	4.112623364734976e+17
19507.0	4.111920570651989e+17
19508.0	4.111224344849065e+17
19509.0	4.1105252941823994e+17
19510.0	4.1097652478498125e+17
19511.0	4.10448442337962e+17
19512.0	4.1083257333568845e+17
19513.0	4.107382166650879e+17
19514.0	4.1068224752298656e+17
19515.0	4.1062579967098874e+17
19516.0	4.1055949373658445e+17
19517.0	4.104916361194154e+17
19518.0	4.104152898600959e+17
19519.0	4.1034537535624525e+17
19520.0	4.102555369996287e+17
19521.0	4.102144649767593e+17
19522.0	4.101409055528276e+17
19523.0	4.100684023245482e+17
19524.0	4.09983234605056e+17
19525.0	4.099350178649429e+17
19526.0	4.0986562289554765e+17
19527.0	4.097959915771221e+17
19528.0	4.0972445478638925e+17
19529.0	4.096538513681066e+17
19530.0	4.095873980039168e+17
19531.0	4.0951752523339085e+17
19532.0	4.0944785071363405e+17
19533.0	4.0937784575262714e+17
19534.0	4.093090500094634e+17
19535.0	4.092394940486996e+17
19536.0	4.0916943029753165e+17
19537.0	4.0910015004235085e+17
19538.0	4.090039613696683e+17
19539.0	4.089522953038507e+17
19540.0	4.088916762864297e+17
19541.0	4.0881672456328525e+17
19542.0	4.0875043002340685e+17
19543.0	4.086549206881621e+17
19544.0	4.08612180730402e+17
19545.0	4.0853992244947616e+17
19546.0	4.084603815985151e+17
19547.0	4.0840602474687136e+17
19548.0	4.0833665732007245e+17
19549.0	4.082659733012479e+17
19550.0	4.081975106557268e+17
19551.0	4.0812859914977274e+17
19552.0	4.0805903459068576e+17
19553.0	4.079900282235561e+17
19554.0	4.0791964409746765e+17
19555.0	4.078483516948479e+17
19556.0	4.0777984291198285e+17
19557.0	4.077126231086421e+17
19558.0	4.0764360164201805e+17
19559.0	4.075745092217515e+17
19560.0	4.074951025885183e+17
19561.0	4.074360639149396e+17
19562.0	4.073572743337301e+17
19563.0	4.072979459036501e+17
19564.0	4.072278215447891e+17
19565.0	4.071595150671872e+17
19566.0	4.0708979161388365e+17
19567.0	4.070214443117227e+17
19568.0	4.0695242480244045e+17
19569.0	4.0688323248783354e+17
19570.0	4.068140810676906e+17
19571.0	4.0674509776923296e+17
19572.0	4.066757590035114e+17
19573.0	4.066038908627627e+17
19574.0	4.065360644232533e+17
19575.0	4.0646930165923834e+17
19576.0	4.063987608758954e+17
19577.0	4.0632692761777485e+17
19578.0	4.062618763395072e+17
19579.0	4.061932653554347e+17
19580.0	4.0612415308212896e+17
19581.0	4.060548066268501e+17
19582.0	4.0598677718302714e+17
19583.0	4.059180199575551e+17
19584.0	4.0584879087288314e+17
19585.0	4.05778965987328e+17
19586.0	4.057099748595029e+17
19587.0	4.056424028045312e+17
19588.0	4.0556713566972576e+17
19589.0	4.055050331269802e+17
19590.0	4.054344056613547e+17
19591.0	4.0536754530986656e+17
19592.0	4.0529878899316045e+17
19593.0	4.0522754580370765e+17
19594.0	4.051562222933332e+17
19595.0	4.0509242867711994e+17
19596.0	4.0502351381572256e+17
19597.0	4.04955300241954e+17
19598.0	4.0487703536817485e+17
19599.0	4.048181820828329e+17
19600.0	4.047492276551679e+17
19601.0	4.0468010426695674e+17
19602.0	4.0461156388700154e+17
19603.0	4.045374681513983e+17
19604.0	4.044748597056853e+17
19605.0	4.044027507419818e+17
19606.0	4.0433782704046074e+17
19607.0	4.042696396810922e+17
19608.0	4.0420040011066016e+17
19609.0	4.0413196626602656e+17
19610.0	4.0405057887272954e+17
19611.0	4.039747932520447e+17
19612.0	4.039272631894015e+17
19613.0	4.038582142500863e+17
19614.0	4.037899609003348e+17
19615.0	4.037220047170218e+17
19616.0	4.036396477404501e+17
19617.0	4.0356437599191034e+17
19618.0	4.0350820132891296e+17
19619.0	4.0343395949172045e+17
19620.0	4.0336359277199354e+17
19621.0	4.032815956667049e+17
19622.0	4.032434569303381e+17
19623.0	4.0317398087106554e+17
19624.0	4.03103312580881e+17
19625.0	4.030387226760533e+17
19626.0	4.029703358775295e+17
19627.0	4.02902252327185e+17
19628.0	4.0283306903033165e+17
19629.0	4.0269465273412256e+17
19630.0	4.026973183541248e+17
19631.0	4.0259286955895456e+17
19632.0	4.0256119040027296e+17
19633.0	4.024928003861162e+17
19634.0	4.0242490019676154e+17
19635.0	4.023534939187882e+17
19636.0	4.0225482466481485e+17
19637.0	4.0218445444983456e+17
19638.0	4.021503114171732e+17
19639.0	4.020841293545472e+17
19640.0	4.020158258129578e+17
19641.0	4.019229783927466e+17
19642.0	4.0187835917707936e+17
19643.0	4.018104159262036e+17
19644.0	4.017435394266453e+17
19645.0	4.016722792502613e+17
19646.0	4.015724687261695e+17
19647.0	4.015391908386132e+17
19648.0	4.014723262229162e+17
19649.0	4.0140419122244256e+17
19650.0	4.013363282225834e+17
19651.0	4.012685398813355e+17
19652.0	4.0120064220856314e+17
19653.0	4.0113262821375994e+17
19654.0	4.0106503763394554e+17
19655.0	4.0099701881569274e+17
