# Flux units: erg / (cm m2 s)
# Wavelength units: Angstrom
wave	flux
19000.0	6.406852179569321e+17
19001.0	6.405660981155156e+17
19002.0	6.404489200271359e+17
19003.0	6.403307522927273e+17
19004.0	6.402126039220223e+17
19005.0	6.4009448470173e+17
19006.0	6.399763449293482e+17
19007.0	6.398581992849407e+17
19008.0	6.397395800337066e+17
19009.0	6.396207378552148e+17
19010.0	6.394998262770345e+17
19011.0	6.393854206935039e+17
19012.0	6.392664298968403e+17
19013.0	6.391496288763903e+17
19014.0	6.390315692152147e+17
19015.0	6.389134946642601e+17
19016.0	6.387949707635369e+17
19017.0	6.386773427661482e+17
19018.0	6.385593628666537e+17
19019.0	6.38441361436399e+17
19020.0	6.383233409919657e+17
19021.0	6.382053410996223e+17
19022.0	6.380873546290516e+17
19023.0	6.37969362006835e+17
19024.0	6.378512869665449e+17
19025.0	6.377333740361044e+17
19026.0	6.376151972839424e+17
19027.0	6.374968626162344e+17
19028.0	6.373795968669012e+17
19029.0	6.372616990359551e+17
19030.0	6.371438081256105e+17
19031.0	6.370259101548544e+17
19032.0	6.369080162385919e+17
19033.0	6.367892320813055e+17
19034.0	6.366721268340052e+17
19035.0	6.365531768619007e+17
19036.0	6.363916563819177e+17
19037.0	6.363178560651264e+17
19038.0	6.362008855248895e+17
19039.0	6.360832266993663e+17
19040.0	6.359664796456276e+17
19041.0	6.358507809581738e+17
19042.0	6.357317998084095e+17
19043.0	6.356153246154751e+17
19044.0	6.354975991005183e+17
19045.0	6.353799000096765e+17
19046.0	6.352617718415359e+17
19047.0	6.351441917291178e+17
19048.0	6.350251731801427e+17
19049.0	6.34907707712034e+17
19050.0	6.347914643243007e+17
19051.0	6.346675642346153e+17
19052.0	6.345543305396223e+17
19053.0	6.344387694952447e+17
19054.0	6.343213065437184e+17
19055.0	6.342013123297279e+17
19056.0	6.340862728470527e+17
19057.0	6.339687708884992e+17
19058.0	6.338507937153023e+17
19059.0	6.3373375452829e+17
19060.0	6.336161574988457e+17
19061.0	6.334988681216e+17
19062.0	6.333814127198207e+17
19063.0	6.332639988416511e+17
19064.0	6.331457174416042e+17
19065.0	6.330280077251923e+17
19066.0	6.329113155469311e+17
19067.0	6.327945658367997e+17
19068.0	6.326772396195839e+17
19069.0	6.325599404556287e+17
19070.0	6.324425827811327e+17
19071.0	6.323253767307263e+17
19072.0	6.322081197195264e+17
19073.0	6.320908447427242e+17
19074.0	6.319736626697556e+17
19075.0	6.318564537532415e+17
19076.0	6.317391129258665e+17
19077.0	6.316219235827711e+17
19078.0	6.315047052989779e+17
19079.0	6.313878065512447e+17
19080.0	6.312706936143872e+17
19081.0	6.31153583194112e+17
19082.0	6.310361842057216e+17
19083.0	6.309192625291264e+17
19084.0	6.308002042740735e+17
19085.0	6.306853380161535e+17
19086.0	6.305651925275988e+17
19087.0	6.304501364075177e+17
19088.0	6.303334342328319e+17
19089.0	6.302153430444714e+17
19090.0	6.300974869468502e+17
19091.0	6.299803540870483e+17
19092.0	6.298627528633002e+17
19093.0	6.297468601892863e+17
19094.0	6.296300289698474e+17
19095.0	6.295131913191423e+17
19096.0	6.29396261184034e+17
19097.0	6.292795481041577e+17
19098.0	6.291626023103146e+17
19099.0	6.290457953479338e+17
19100.0	6.289292823363583e+17
19101.0	6.288124755137876e+17
19102.0	6.286948937935529e+17
19103.0	6.285791362460329e+17
19104.0	6.284624646198612e+17
19105.0	6.283453383311359e+17
19106.0	6.282289955383977e+17
19107.0	6.281123629891583e+17
19108.0	6.279957499434326e+17
19109.0	6.278768340150953e+17
19110.0	6.277621836939263e+17
19111.0	6.27646185742882e+17
19112.0	6.275297171909289e+17
19113.0	6.274132225643859e+17
19114.0	6.272967218561023e+17
19115.0	6.271799831210666e+17
19116.0	6.270637595164671e+17
19117.0	6.269472043521364e+17
19118.0	6.268299202876756e+17
19119.0	6.266634212387497e+17
19120.0	6.265974412017663e+17
19121.0	6.264814352116393e+17
19122.0	6.263654576029695e+17
19123.0	6.262491509511508e+17
19124.0	6.261328281512618e+17
19125.0	6.260164686512128e+17
19126.0	6.258996700075347e+17
19127.0	6.257687595581437e+17
19128.0	6.256670464977578e+17
19129.0	6.255506917512532e+17
19130.0	6.25435368034577e+17
19131.0	6.253192343278932e+17
19132.0	6.252030567907327e+17
19133.0	6.250867911731881e+17
19134.0	6.249708527113556e+17
19135.0	6.248547452190719e+17
19136.0	6.247386120716288e+17
19137.0	6.246212813804884e+17
19138.0	6.245063517186729e+17
19139.0	6.243905115433642e+17
19140.0	6.242745272238079e+17
19141.0	6.241585334670675e+17
19142.0	6.24042537193745e+17
19143.0	6.239261581901823e+17
19144.0	6.238105159161172e+17
19145.0	6.236947220179625e+17
19146.0	6.235729211075241e+17
19147.0	6.234622608976553e+17
19148.0	6.233468791597738e+17
19149.0	6.232310093447165e+17
19150.0	6.231153112864084e+17
19151.0	6.229995333266089e+17
19152.0	6.228837291524095e+17
19153.0	6.227675877561684e+17
19154.0	6.226511037551956e+17
19155.0	6.22536316559906e+17
19156.0	6.224205751604566e+17
19157.0	6.223044643127295e+17
19158.0	6.221875273269247e+17
19159.0	6.220731408973823e+17
19160.0	6.219577399356074e+17
19161.0	6.218419102460585e+17
19162.0	6.217225728600746e+17
19163.0	6.216100409420457e+17
19164.0	6.214952410939391e+17
19165.0	6.213792962008404e+17
19166.0	6.212630435157331e+17
19167.0	6.211482240942079e+17
19168.0	6.210329919531689e+17
19169.0	6.209174816598697e+17
19170.0	6.208020424600234e+17
19171.0	6.206864048695978e+17
19172.0	6.205710624183636e+17
19173.0	6.20455632445986e+17
19174.0	6.203397251618131e+17
19175.0	6.202247573318314e+17
19176.0	6.20109361123601e+17
19177.0	6.19992467968273e+17
19178.0	6.198783669611177e+17
19179.0	6.197628975622825e+17
19180.0	6.196477418973866e+17
19181.0	6.195313415727785e+17
19182.0	6.194169226373801e+17
19183.0	6.193018038823593e+17
19184.0	6.191864657652394e+17
19185.0	6.190711563791018e+17
19186.0	6.189558971148969e+17
19187.0	6.188405961872724e+17
19188.0	6.187253386007892e+17
19189.0	6.186101315556692e+17
19190.0	6.184948604775081e+17
19191.0	6.183796057571327e+17
19192.0	6.182644183553364e+17
19193.0	6.18149185655057e+17
19194.0	6.180339393931946e+17
19195.0	6.179186369276585e+17
19196.0	6.178031746591401e+17
19197.0	6.176875399348223e+17
19198.0	6.175679176856916e+17
19199.0	6.174274354850474e+17
19200.0	6.173168195949908e+17
19201.0	6.172222754390015e+17
19202.0	6.171090295805268e+17
19203.0	6.169944303599615e+17
19204.0	6.168793347435178e+17
19205.0	6.167645412567722e+17
19206.0	6.166494589921961e+17
19207.0	6.165341236013737e+17
19208.0	6.164175880803668e+17
19209.0	6.163044879040511e+17
19210.0	6.161894851914409e+17
19211.0	6.160744646530388e+17
19212.0	6.159594225139712e+17
19213.0	6.158435033459369e+17
19214.0	6.157283387331924e+17
19215.0	6.15614252056576e+17
19216.0	6.154993632193194e+17
19217.0	6.153841111553363e+17
19218.0	6.152627420484948e+17
19219.0	6.151525530686804e+17
19220.0	6.150393727112534e+17
19221.0	6.149220248933715e+17
19222.0	6.148091473646931e+17
19223.0	6.146945438100138e+17
19224.0	6.145795333379412e+17
19225.0	6.144635529330687e+17
19226.0	6.143496970130772e+17
19227.0	6.142347995774975e+17
19228.0	6.141198524394153e+17
19229.0	6.140048769897812e+17
19230.0	6.138899019595775e+17
19231.0	6.137749734861481e+17
19232.0	6.136599179952127e+17
19233.0	6.135448371986431e+17
19234.0	6.134298929266687e+17
19235.0	6.133150989505876e+17
19236.0	6.132001079820287e+17
19237.0	6.130850125753001e+17
19238.0	6.129697988891988e+17
19239.0	6.128551899518292e+17
19240.0	6.127401578091859e+17
19241.0	6.126251857849002e+17
19242.0	6.125102042535251e+17
19243.0	6.123936500678655e+17
19244.0	6.122801714255188e+17
19245.0	6.121651330613247e+17
19246.0	6.120499820800681e+17
19247.0	6.11935017116194e+17
19248.0	6.118199749771263e+17
19249.0	6.117048850229929e+17
19250.0	6.115897436187306e+17
19251.0	6.114738020810751e+17
19252.0	6.11356679007983e+17
19253.0	6.112443345753427e+17
19254.0	6.111292873332052e+17
19255.0	6.110122125645139e+17
19256.0	6.108987360193193e+17
19257.0	6.107837303007914e+17
19258.0	6.106684978801321e+17
19259.0	6.105525016767146e+17
19260.0	6.104369904746496e+17
19261.0	6.103226526291283e+17
19262.0	6.102073115060905e+17
19263.0	6.100913522824532e+17
19264.0	6.099719996571647e+17
19265.0	6.098592926968489e+17
19266.0	6.097436448303786e+17
19267.0	6.096303201888938e+17
19268.0	6.095148434500265e+17
19269.0	6.093993022586879e+17
19270.0	6.09283527025186e+17
19271.0	6.091652442969427e+17
19272.0	6.090521081894228e+17
19273.0	6.089334081279316e+17
19274.0	6.088166195505834e+17
19275.0	6.087053303349247e+17
19276.0	6.085895660066132e+17
19277.0	6.084737230351018e+17
19278.0	6.083578221821951e+17
19279.0	6.082418093413716e+17
19280.0	6.081233683480576e+17
19281.0	6.08004847243537e+17
19282.0	6.078887556896084e+17
19283.0	6.077723557145257e+17
19284.0	6.076560612960937e+17
19285.0	6.075389783485098e+17
19286.0	6.074235722137599e+17
19287.0	6.073070414462976e+17
19288.0	6.071770809368575e+17
19289.0	6.070448327841107e+17
19290.0	6.069573437270697e+17
19291.0	6.068384814858239e+17
19292.0	6.067242322100223e+17
19293.0	6.066073577892521e+17
19294.0	6.064904605095252e+17
19295.0	6.063734376802986e+17
19296.0	6.062563218773331e+17
19297.0	6.061390987001855e+17
19298.0	6.060218077151231e+17
19299.0	6.05904404742144e+17
19300.0	6.057868595822591e+17
19301.0	6.056692020150272e+17
19302.0	6.055513573119316e+17
19303.0	6.054329321171625e+17
19304.0	6.053154111444308e+17
19305.0	6.051975565847209e+17
19306.0	6.050793469771775e+17
19307.0	6.049607886132563e+17
19308.0	6.048423786577919e+17
19309.0	6.047228286905001e+17
19310.0	6.04603507941922e+17
19311.0	6.044854498885631e+17
19312.0	6.043669099096745e+17
19313.0	6.04247418732544e+17
19314.0	6.040676226913619e+17
19315.0	6.039535606213292e+17
19316.0	6.038865316588201e+17
19317.0	6.037607720943615e+17
19318.0	6.036407100724564e+17
19319.0	6.035203999574698e+17
19320.0	6.033998509768703e+17
19321.0	6.032790364968276e+17
19322.0	6.031573973467133e+17
19323.0	6.030364743041023e+17
19324.0	6.029152077479935e+17
19325.0	6.027929949569023e+17
19326.0	6.026715372803412e+17
19327.0	6.025493015603881e+17
19328.0	6.02426543579682e+17
19329.0	6.02304196780578e+17
19330.0	6.021808309753171e+17
19331.0	6.020576289576276e+17
19332.0	6.01934055744034e+17
19333.0	6.018064511751508e+17
19334.0	6.016817214521344e+17
19335.0	6.015448671846399e+17
19336.0	6.014193142595583e+17
19337.0	6.012937976152063e+17
19338.0	6.01165924540962e+17
19339.0	6.010416239651497e+17
19340.0	6.009137652214442e+17
19341.0	6.00786726953506e+17
19342.0	6.006570093641727e+17
19343.0	6.005316137953962e+17
19344.0	6.004024399975763e+17
19345.0	6.002566947143679e+17
19346.0	6.001235732376233e+17
19347.0	5.999944432702804e+17
19348.0	5.998647661559807e+17
19349.0	5.997334269089107e+17
19350.0	5.996013998658899e+17
19351.0	5.994687111714132e+17
19352.0	5.993347736229203e+17
19353.0	5.992012304788138e+17
19354.0	5.990507366842367e+17
19355.0	5.989045598071466e+17
19356.0	5.987691179016191e+17
19357.0	5.986320572044627e+17
19358.0	5.984940741798569e+17
19359.0	5.983549248591188e+17
19360.0	5.982132918812672e+17
19361.0	5.980400223169193e+17
19362.0	5.978986328184148e+17
19363.0	5.977558719922175e+17
19364.0	5.976119973685929e+17
19365.0	5.974593402918227e+17
19366.0	5.972906200793088e+17
19367.0	5.97119491777058e+17
19368.0	5.96970849837602e+17
19369.0	5.968205219976531e+17
19370.0	5.966633699551914e+17
19371.0	5.964884551750995e+17
19372.0	5.963339916115967e+17
19373.0	5.961778220149418e+17
19374.0	5.960197439400618e+17
19375.0	5.958598361000618e+17
19376.0	5.956981351251967e+17
19377.0	5.955344286438739e+17
19378.0	5.953532245748393e+17
19379.0	5.95182720524834e+17
19380.0	5.950125778141183e+17
19381.0	5.948400613370537e+17
19382.0	5.946638331106643e+17
19383.0	5.944828465162922e+17
19384.0	5.943035867168767e+17
19385.0	5.941213578395647e+17
19386.0	5.939129527304191e+17
19387.0	5.937169103323135e+17
19388.0	5.935249592680447e+17
19389.0	5.933290689134591e+17
19390.0	5.931285461598208e+17
19391.0	5.928853918711807e+17
19392.0	5.926726742485673e+17
19393.0	5.924559210763604e+17
19394.0	5.92237703602722e+17
19395.0	5.92014190191138e+17
19396.0	5.91743971107362e+17
19397.0	5.914831583794516e+17
19398.0	5.9124054242973e+17
19399.0	5.909698844120403e+17
19400.0	5.906437827286356e+17
19401.0	5.903818891984895e+17
19402.0	5.900741020134056e+17
19403.0	5.897052167514793e+17
19404.0	5.894204162397524e+17
19405.0	5.890079855738877e+17
19406.0	5.88681722269969e+17
19407.0	5.882543059151528e+17
19408.0	5.878699493337769e+17
19409.0	5.873870729554602e+17
19410.0	5.869714136541866e+17
19411.0	5.864878819158698e+17
19412.0	5.861142909943807e+17
19413.0	5.857325638920873e+17
19414.0	5.853350462838102e+17
19415.0	5.848634678924628e+17
19416.0	5.844262479112874e+17
19417.0	5.839692876480511e+17
19418.0	5.834242660149932e+17
19419.0	5.828840960731818e+17
19420.0	5.823438674111145e+17
19421.0	5.816670116730196e+17
19422.0	5.810877039815337e+17
19423.0	5.803103077007359e+17
19424.0	5.79633406943778e+17
19425.0	5.78737397703202e+17
19426.0	5.778277211133271e+17
19427.0	5.768346088417964e+17
19428.0	5.7571176940393805e+17
19429.0	5.744902883246076e+17
19430.0	5.731937658339322e+17
19431.0	5.71701824498347e+17
19432.0	5.702327700116821e+17
19433.0	5.688258825202345e+17
19434.0	5.675117916979199e+17
19435.0	5.660595058988373e+17
19436.0	5.6442873540771834e+17
19437.0	5.6249583039501645e+17
19438.0	5.6030272481307296e+17
19439.0	5.5791414655931725e+17
19440.0	5.551300027962712e+17
19441.0	5.51977037734434e+17
19442.0	5.483392796371625e+17
19443.0	5.442363342192639e+17
19444.0	5.394934602749266e+17
19445.0	5.338561184268288e+17
19446.0	5.2689828622718285e+17
19447.0	5.18329531332471e+17
19448.0	5.067687224235354e+17
19449.0	4.898513399141717e+17
19450.0	4.5900891006784755e+17
19451.0	4.374669090794186e+17
19452.0	4.7732908999311334e+17
19453.0	4.991656498910556e+17
19454.0	5.126555569924774e+17
19455.0	5.222822762774526e+17
19456.0	5.296918122288471e+17
19457.0	5.357894369279998e+17
19458.0	5.4047329561695584e+17
19459.0	5.449575159212719e+17
19460.0	5.4851096214678163e+17
19461.0	5.516557082602153e+17
19462.0	5.5439664272288435e+17
19463.0	5.5683287337314976e+17
19464.0	5.5894819097367846e+17
19465.0	5.607082610917377e+17
19466.0	5.622249795791529e+17
19467.0	5.6363346335279763e+17
19468.0	5.647270029208234e+17
19469.0	5.658855321108477e+17
19470.0	5.670724463930025e+17
19471.0	5.683978983265621e+17
19472.0	5.696233571439955e+17
19473.0	5.706259834251945e+17
19474.0	5.7152480487669754e+17
19475.0	5.723404186768724e+17
19476.0	5.7316761022409363e+17
19477.0	5.73779168198656e+17
19478.0	5.7437245061201914e+17
19479.0	5.748692670393002e+17
19480.0	5.753235504977236e+17
19481.0	5.757311144427519e+17
19482.0	5.761282732982271e+17
19483.0	5.764304192143358e+17
19484.0	5.767884897430184e+17
19485.0	5.770528039458132e+17
19486.0	5.772833691009023e+17
19487.0	5.775206045974527e+17
19488.0	5.777352615264255e+17
19489.0	5.779055171338239e+17
19490.0	5.780528742181546e+17
19491.0	5.78276416290816e+17
19492.0	5.784853074498899e+17
19493.0	5.787686187739817e+17
19494.0	5.789219398789802e+17
19495.0	5.791647617690281e+17
19496.0	5.792735413927936e+17
19497.0	5.794527219198633e+17
19498.0	5.795589691626835e+17
19499.0	5.795932497685161e+17
19500.0	5.798066299513514e+17
19501.0	5.798589335513769e+17
19502.0	5.799258835211603e+17
19503.0	5.800217157479082e+17
19504.0	5.800503141203967e+17
19505.0	5.800709904313001e+17
19506.0	5.801371638956031e+17
19507.0	5.801573600286036e+17
19508.0	5.801605621000874e+17
19509.0	5.801584371258707e+17
19510.0	5.801714275844093e+17
19511.0	5.800811140131497e+17
19512.0	5.801572297954644e+17
19513.0	5.801286471516159e+17
19514.0	5.801112842709673e+17
19515.0	5.800946184137386e+17
19516.0	5.800822003378857e+17
19517.0	5.800628266379945e+17
19518.0	5.800270971098451e+17
19519.0	5.799886379286527e+17
19520.0	5.799484050462036e+17
19521.0	5.799072953445034e+17
19522.0	5.798612567064575e+17
19523.0	5.798129236443135e+17
19524.0	5.797655180126889e+17
19525.0	5.797265389475156e+17
19526.0	5.796720345961811e+17
19527.0	5.796155821304489e+17
19528.0	5.795573389066239e+17
19529.0	5.794972742363818e+17
19530.0	5.794353963685204e+17
19531.0	5.793731034742781e+17
19532.0	5.79332965872435e+17
19533.0	5.792665949263188e+17
19534.0	5.79198835036433e+17
19535.0	5.79129749606673e+17
19536.0	5.790866997597524e+17
19537.0	5.790290684149759e+17
19538.0	5.789591028804265e+17
19539.0	5.788866560655359e+17
19540.0	5.788163873527124e+17
19541.0	5.787406854083924e+17
19542.0	5.786914889487702e+17
19543.0	5.786177428084052e+17
19544.0	5.785390531215359e+17
19545.0	5.784548775646547e+17
19546.0	5.783717421951658e+17
19547.0	5.782982999321257e+17
19548.0	5.782188444352512e+17
19549.0	5.781564714997076e+17
19550.0	5.780742944587776e+17
19551.0	5.779905051972947e+17
19552.0	5.779060272310954e+17
19553.0	5.77820722008337e+17
19554.0	5.777349219975167e+17
19555.0	5.776489961575763e+17
19556.0	5.77562170359808e+17
19557.0	5.774866850512896e+17
19558.0	5.774033876418559e+17
19559.0	5.773150874064212e+17
19560.0	5.772262741377023e+17
19561.0	5.771369934138025e+17
19562.0	5.770472695616852e+17
19563.0	5.7695711278749e+17
19564.0	5.76866553569826e+17
19565.0	5.767755808636927e+17
19566.0	5.766840638068052e+17
19567.0	5.765924859325097e+17
19568.0	5.765004403933183e+17
19569.0	5.7641229660542285e+17
19570.0	5.763262965263017e+17
19571.0	5.762332465911124e+17
19572.0	5.7613987278574925e+17
19573.0	5.760461015700821e+17
19574.0	5.759517007893843e+17
19575.0	5.7585865567764474e+17
19576.0	5.7576706326309536e+17
19577.0	5.756723391015594e+17
19578.0	5.7557709708328954e+17
19579.0	5.754822677845332e+17
19580.0	5.7539289891034445e+17
19581.0	5.752976684963156e+17
19582.0	5.752019658036564e+17
19583.0	5.751059230228479e+17
19584.0	5.7500966828987725e+17
19585.0	5.7491245935274656e+17
19586.0	5.7481524873789434e+17
19587.0	5.747195795297621e+17
19588.0	5.746189088238249e+17
19589.0	5.745257726956884e+17
19590.0	5.744347603533822e+17
19591.0	5.7433801460722336e+17
19592.0	5.7424044237346125e+17
19593.0	5.7414276444323834e+17
19594.0	5.740424994663082e+17
19595.0	5.739468557036202e+17
19596.0	5.738481766629375e+17
19597.0	5.7375052250043725e+17
19598.0	5.7364893415069005e+17
19599.0	5.7355365717988685e+17
19600.0	5.7345510005364045e+17
19601.0	5.733560446440788e+17
19602.0	5.7325680832020474e+17
19603.0	5.731549956450986e+17
19604.0	5.730593610399743e+17
19605.0	5.72957913129506e+17
19606.0	5.7286137528101536e+17
19607.0	5.727621741193898e+17
19608.0	5.72662789387059e+17
19609.0	5.7256321024873805e+17
19610.0	5.724637254123519e+17
19611.0	5.7236404092709536e+17
19612.0	5.7226465130141005e+17
19613.0	5.7216491760298656e+17
19614.0	5.720651096653822e+17
19615.0	5.719652023227733e+17
19616.0	5.7186478586156365e+17
19617.0	5.7176494052474874e+17
19618.0	5.716597021518505e+17
19619.0	5.7155819859694925e+17
19620.0	5.714590277042175e+17
19621.0	5.7136427655932576e+17
19622.0	5.71264453522227e+17
19623.0	5.711641668747263e+17
19624.0	5.710638072463358e+17
19625.0	5.709633844936703e+17
19626.0	5.708628988264447e+17
19627.0	5.707622778929151e+17
19628.0	5.706610444511915e+17
19629.0	5.7055904505965216e+17
19630.0	5.7045374810630816e+17
19631.0	5.703322036076543e+17
19632.0	5.702579673628671e+17
19633.0	5.701583092318206e+17
19634.0	5.700577952530431e+17
19635.0	5.6995707079010976e+17
19636.0	5.6985602084918605e+17
19637.0	5.697517888995326e+17
19638.0	5.696584345976832e+17
19639.0	5.695576614109183e+17
19640.0	5.694560513906004e+17
19641.0	5.693469520210602e+17
19642.0	5.692548223860735e+17
19643.0	5.691538610148691e+17
19644.0	5.6905242498826234e+17
19645.0	5.6894951424436896e+17
19646.0	5.6885044037986963e+17
19647.0	5.687497746371924e+17
19648.0	5.686487177756671e+17
19649.0	5.6854761568556365e+17
19650.0	5.6844653246982816e+17
19651.0	5.6834541192478726e+17
19652.0	5.6824428264161274e+17
19653.0	5.681431267246079e+17
19654.0	5.6804198401966074e+17
19655.0	5.679407756738558e+17
19656.0	5.678395817983999e+17
19657.0	5.677384546123775e+17
19658.0	5.6763725822033914e+17
19659.0	5.6753604540061005e+17
19660.0	5.674348453735081e+17
19661.0	5.673336262623231e+17
19662.0	5.6723238408246605e+17
19663.0	5.671307897907881e+17
