# Flux units: erg / (cm m2 s)
# Wavelength units: Angstrom
wave	flux
19000.0	4.806777882629462e+17
19001.0	4.805779029404329e+17
19002.0	4.8050788483727354e+17
19003.0	4.8042209342477645e+17
19004.0	4.803351553594708e+17
19005.0	4.802484339299668e+17
19006.0	4.8014939970164045e+17
19007.0	4.8008223260671994e+17
19008.0	4.799883921850366e+17
19009.0	4.799046011060224e+17
19010.0	4.797453942041256e+17
19011.0	4.7973740370548045e+17
19012.0	4.796322079047678e+17
19013.0	4.795724933890047e+17
19014.0	4.794811004835156e+17
19015.0	4.793942187616938e+17
19016.0	4.7930776877356365e+17
19017.0	4.792329916033706e+17
19018.0	4.791463120470015e+17
19019.0	4.790601876766719e+17
19020.0	4.7897716653206176e+17
19021.0	4.7889372365018445e+17
19022.0	4.7880898745466874e+17
19023.0	4.7871793813258234e+17
19024.0	4.786288649568255e+17
19025.0	4.785543448275626e+17
19026.0	4.7846557140473165e+17
19027.0	4.783746150563839e+17
19028.0	4.783008828970324e+17
19029.0	4.782140870186324e+17
19030.0	4.7813242329060685e+17
19031.0	4.7804821403948365e+17
19032.0	4.779631576787626e+17
19033.0	4.778669960593408e+17
19034.0	4.777937320542207e+17
19035.0	4.7770727605425485e+17
19036.0	4.76839676861917e+17
19037.0	4.7754024635596794e+17
19038.0	4.774541004548777e+17
19039.0	4.7737093775250765e+17
19040.0	4.772872453794474e+17
19041.0	4.772022817827498e+17
19042.0	4.768758411995816e+17
19043.0	4.770361663029247e+17
19044.0	4.769503315492864e+17
19045.0	4.76865916777267e+17
19046.0	4.767734745967274e+17
19047.0	4.766981929216682e+17
19048.0	4.7654790366931616e+17
19049.0	4.760393320759289e+17
19050.0	4.7643711749051725e+17
19051.0	4.76210092328004e+17
19052.0	4.7626944354713594e+17
19053.0	4.761936529631914e+17
19054.0	4.761090994296148e+17
19055.0	4.759220001264981e+17
19056.0	4.759159354425342e+17
19057.0	4.7585663434533536e+17
19058.0	4.755253835246246e+17
19059.0	4.7559255551290016e+17
19060.0	4.75602017653009e+17
19061.0	4.7552034987048954e+17
19062.0	4.7543560074253645e+17
19063.0	4.753530462841514e+17
19064.0	4.752518829572095e+17
19065.0	4.7516394867479885e+17
19066.0	4.750035722611373e+17
19067.0	4.750152552153087e+17
19068.0	4.749339665978708e+17
19069.0	4.748501678992042e+17
19070.0	4.7476135099542176e+17
19071.0	4.746810846696789e+17
19072.0	4.745040534437885e+17
19073.0	4.745138918129664e+17
19074.0	4.7443063355037005e+17
19075.0	4.7434765546728096e+17
19076.0	4.742526540622506e+17
19077.0	4.7417769646708045e+17
19078.0	4.7408861476290554e+17
19079.0	4.740118376087551e+17
19080.0	4.739273529316693e+17
19081.0	4.7383805675874976e+17
19082.0	4.737548316311551e+17
19083.0	4.7366819492659194e+17
19084.0	4.7356922759741434e+17
19085.0	4.7350843982916256e+17
19086.0	4.732619884680531e+17
19087.0	4.731187171950588e+17
19088.0	4.731321570732711e+17
19089.0	4.73144097697519e+17
19090.0	4.7309023556403194e+17
19091.0	4.7299211296768e+17
19092.0	4.727271557081775e+17
19093.0	4.728429653349717e+17
19094.0	4.7275955768524794e+17
19095.0	4.7267594213785594e+17
19096.0	4.7259024915169274e+17
19097.0	4.7250945175715834e+17
19098.0	4.723264787404116e+17
19099.0	4.722223164861099e+17
19100.0	4.722545756471295e+17
19101.0	4.7217452700576416e+17
19102.0	4.720722259039572e+17
19103.0	4.720085241430015e+17
19104.0	4.719269649230507e+17
19105.0	4.716264489833819e+17
19106.0	4.717545957359614e+17
19107.0	4.7162242965176314e+17
19108.0	4.715121546887168e+17
19109.0	4.714675569339049e+17
19110.0	4.714273966828203e+17
19111.0	4.712833787538089e+17
19112.0	4.7117961160294374e+17
19113.0	4.711770611165866e+17
19114.0	4.710529475368276e+17
19115.0	4.709887397330942e+17
19116.0	4.7092075817424205e+17
19117.0	4.708402002045611e+17
19118.0	4.707210463193771e+17
19119.0	4.688953026281445e+17
19120.0	4.705727655794005e+17
19121.0	4.7050548684608845e+17
19122.0	4.70430518485538e+17
19123.0	4.7034828747789645e+17
19124.0	4.702618590205268e+17
19125.0	4.701824651100159e+17
19126.0	4.701002400443049e+17
19127.0	4.697468978943313e+17
19128.0	4.6993315896579405e+17
19129.0	4.6984177074394445e+17
19130.0	4.6976785892857165e+17
19131.0	4.696861254352895e+17
19132.0	4.696031355382442e+17
19133.0	4.695154429176489e+17
19134.0	4.6943778747624096e+17
19135.0	4.693549300492971e+17
19136.0	4.6927261263899296e+17
19137.0	4.691653566660607e+17
19138.0	4.6910605354161485e+17
19139.0	4.69025564987665e+17
19140.0	4.689428147251882e+17
19141.0	4.6886020769819296e+17
19142.0	4.68773725344017e+17
19143.0	4.686850645382485e+17
19144.0	4.686084741005311e+17
19145.0	4.685297187728042e+17
19146.0	4.6836473589486944e+17
19147.0	4.6833984318996474e+17
19148.0	4.682018087152299e+17
19149.0	4.6810468051845114e+17
19150.0	4.681167946470741e+17
19151.0	4.6803501655435936e+17
19152.0	4.67952492294963e+17
19153.0	4.676985151640913e+17
19154.0	4.677561698571605e+17
19155.0	4.6770618507810125e+17
19156.0	4.676237095425363e+17
19157.0	4.674878986780673e+17
19158.0	4.673116629019307e+17
19159.0	4.6736851592369485e+17
19160.0	4.672934032790868e+17
19161.0	4.6721227145871354e+17
19162.0	4.670641475857067e+17
19163.0	4.670481836452523e+17
19164.0	4.669657415942143e+17
19165.0	4.666978739770706e+17
19166.0	4.6677877077661e+17
19167.0	4.667064949495124e+17
19168.0	4.666377626801491e+17
19169.0	4.66552910582033e+17
19170.0	4.664736494911487e+17
19171.0	4.6638464104748365e+17
19172.0	4.663092228478292e+17
19173.0	4.662273858950485e+17
19174.0	4.661365435618646e+17
19175.0	4.6606311737698976e+17
19176.0	4.6598135431386445e+17
19177.0	4.658789611470847e+17
19178.0	4.658086797814442e+17
19179.0	4.657168056494762e+17
19180.0	4.6565250172627616e+17
19181.0	4.655441466359807e+17
19182.0	4.654859738764628e+17
19183.0	4.654084142049962e+17
19184.0	4.653234062884864e+17
19185.0	4.6524302986226336e+17
19186.0	4.651629281629525e+17
19187.0	4.650738800831146e+17
19188.0	4.649972877579604e+17
19189.0	4.649180010119166e+17
19190.0	4.6483668785780045e+17
19191.0	4.6474799902010016e+17
19192.0	4.6467292027944954e+17
19193.0	4.6457016808024736e+17
19194.0	4.6447345595842554e+17
19195.0	4.6442775936587085e+17
19196.0	4.6434361820228256e+17
19197.0	4.6426330077593594e+17
19198.0	4.641832457033044e+17
19199.0	4.635846562370899e+17
19200.0	4.636991147387565e+17
19201.0	4.6393698623160314e+17
19202.0	4.6385738575162016e+17
19203.0	4.637745346161321e+17
19204.0	4.6369058918673056e+17
19205.0	4.636117923353941e+17
19206.0	4.635292489919146e+17
19207.0	4.6343708202762234e+17
19208.0	4.633264385949695e+17
19209.0	4.632859362284885e+17
19210.0	4.6320400042994336e+17
19211.0	4.631242195249834e+17
19212.0	4.630435523635882e+17
19213.0	4.6294751874034336e+17
19214.0	4.6286224532439034e+17
19215.0	4.627982932333909e+17
19216.0	4.627189386095274e+17
19217.0	4.626369847754751e+17
19218.0	4.6243928401947283e+17
19219.0	4.624576335402324e+17
19220.0	4.6239065232288416e+17
19221.0	4.622653135170217e+17
19222.0	4.6223154853096083e+17
19223.0	4.62147329982464e+17
19224.0	4.6206374617197216e+17
19225.0	4.619659409446227e+17
19226.0	4.6190427062490445e+17
19227.0	4.61823631495441e+17
19228.0	4.617454716190719e+17
19229.0	4.616634128575146e+17
19230.0	4.615818396565504e+17
19231.0	4.6150088553485645e+17
19232.0	4.614209067286528e+17
19233.0	4.613315517655721e+17
19234.0	4.61255154475554e+17
19235.0	4.611739844171092e+17
19236.0	4.610979451109375e+17
19237.0	4.6101372124965536e+17
19238.0	4.6092155351640736e+17
19239.0	4.6085536131754656e+17
19240.0	4.6077333268507296e+17
19241.0	4.606911718621183e+17
19242.0	4.606100092835157e+17
19243.0	4.605125941963433e+17
19244.0	4.6045085026658976e+17
19245.0	4.6036836634241696e+17
19246.0	4.602872474544811e+17
19247.0	4.602080205471743e+17
19248.0	4.601283726715561e+17
19249.0	4.6004313525671245e+17
19250.0	4.5993091071126176e+17
19251.0	4.5984183236253e+17
19252.0	4.5976916234076154e+17
19253.0	4.5972082326678176e+17
19254.0	4.596447622201344e+17
19255.0	4.595389979514196e+17
19256.0	4.594801938093397e+17
19257.0	4.594028616788651e+17
19258.0	4.593223578157054e+17
19259.0	4.592326456377344e+17
19260.0	4.591336278370985e+17
19261.0	4.5907965665170765e+17
19262.0	4.5899143771586554e+17
19263.0	4.5890989359540896e+17
19264.0	4.587555980137812e+17
19265.0	4.5872598783535776e+17
19266.0	4.586191199054507e+17
19267.0	4.5859876809386656e+17
19268.0	4.585171272947029e+17
19269.0	4.5843782845508256e+17
19270.0	4.583576769134591e+17
19271.0	4.58223533354735e+17
19272.0	4.581918507707049e+17
19273.0	4.580859753529342e+17
19274.0	4.579833662494035e+17
19275.0	4.57956736962833e+17
19276.0	4.5787357181378554e+17
19277.0	4.577945491690836e+17
19278.0	4.5771129552022176e+17
19279.0	4.576322198175743e+17
19280.0	4.575419107901439e+17
19281.0	4.5747322752423245e+17
19282.0	4.5739550238747296e+17
19283.0	4.5730981394513914e+17
19284.0	4.57232098664994e+17
19285.0	4.5712958833732256e+17
19286.0	4.570703980396543e+17
19287.0	4.5699488344091296e+17
19288.0	4.567442428089685e+17
19289.0	4.562664993499807e+17
19290.0	4.5675559588113056e+17
19291.0	4.566435045747371e+17
19292.0	4.56595087626513e+17
19293.0	4.565142724061866e+17
19294.0	4.5643323866262176e+17
19295.0	4.563559537180672e+17
19296.0	4.5617100993768134e+17
19297.0	4.561762145097045e+17
19298.0	4.561121154782549e+17
19299.0	4.559189632352256e+17
19300.0	4.5595321189444256e+17
19301.0	4.5587537700672845e+17
19302.0	4.557954746766677e+17
19303.0	4.557053464237397e+17
19304.0	4.5563270799906125e+17
19305.0	4.555548570331819e+17
19306.0	4.5547651952803834e+17
19307.0	4.553887757369343e+17
19308.0	4.5531374040733e+17
19309.0	4.5521789881330336e+17
19310.0	4.5513466208146765e+17
19311.0	4.55070739140881e+17
19312.0	4.5499179765596154e+17
19313.0	4.5490136098187936e+17
19314.0	4.520995701041804e+17
19315.0	4.5216705729440864e+17
19316.0	4.5452837327121094e+17
19317.0	4.545928764238506e+17
19318.0	4.5451828471179936e+17
19319.0	4.5444178508076365e+17
19320.0	4.5432238652784614e+17
19321.0	4.5419107573213856e+17
19322.0	4.541958352885075e+17
19323.0	4.541182959594155e+17
19324.0	4.540457323331583e+17
19325.0	4.5394816988610554e+17
19326.0	4.538880722206719e+17
19327.0	4.538054744211455e+17
19328.0	4.535332870204077e+17
19329.0	4.536503501149523e+17
19330.0	4.535650330083328e+17
19331.0	4.5348571969836365e+17
19332.0	4.534126037521749e+17
19333.0	4.5333124306261325e+17
19334.0	4.532492421125461e+17
19335.0	4.5277610616640896e+17
19336.0	4.530924003087702e+17
19337.0	4.530158464314026e+17
19338.0	4.5290863736477e+17
19339.0	4.5285697954775034e+17
19340.0	4.5272906746647885e+17
19341.0	4.525495235728727e+17
19342.0	4.5252455530059085e+17
19343.0	4.525416940655955e+17
19344.0	4.5231668433605984e+17
19345.0	4.519637229589838e+17
19346.0	4.522096094871553e+17
19347.0	4.520348608015018e+17
19348.0	4.5214668521035085e+17
19349.0	4.5206359395095885e+17
19350.0	4.519177164772694e+17
19351.0	4.519024158659925e+17
19352.0	4.516260160558417e+17
19353.0	4.5175213479253325e+17
19354.0	4.516735687677268e+17
19355.0	4.515819258817194e+17
19356.0	4.5151526909378554e+17
19357.0	4.514369164891476e+17
19358.0	4.5135773662795085e+17
19359.0	4.5123268694944403e+17
19360.0	4.510417151852543e+17
19361.0	4.5111555639650976e+17
19362.0	4.5104322821051725e+17
19363.0	4.509644898697214e+17
19364.0	4.508859056695978e+17
19365.0	4.508061641910953e+17
19366.0	4.507275549649578e+17
19367.0	4.506497627892393e+17
19368.0	4.505714050815316e+17
19369.0	4.504862100291583e+17
19370.0	4.5041059364863994e+17
19371.0	4.5032833698583885e+17
19372.0	4.5025588325034656e+17
19373.0	4.5017594345117e+17
19374.0	4.500986306843989e+17
19375.0	4.5002081418171725e+17
19376.0	4.4994293154884256e+17
19377.0	4.498629398102015e+17
19378.0	4.4978507898770765e+17
19379.0	4.497070099180202e+17
19380.0	4.496275624602282e+17
19381.0	4.4954832241076896e+17
19382.0	4.494619803560618e+17
19383.0	4.4937863464222714e+17
19384.0	4.493117568144725e+17
19385.0	4.4923583103412896e+17
19386.0	4.4915861655388154e+17
19387.0	4.490799367935317e+17
19388.0	4.489951434156713e+17
19389.0	4.4889610813876896e+17
19390.0	4.4881694232849056e+17
19391.0	4.479997246963699e+17
19392.0	4.4865634347690656e+17
19393.0	4.485787686360404e+17
19394.0	4.4849840332472314e+17
19395.0	4.483609440288769e+17
19396.0	4.483269143822336e+17
19397.0	4.482614080918868e+17
19398.0	4.481300088662698e+17
19399.0	4.479103994429437e+17
19400.0	4.479751781613568e+17
19401.0	4.4794199177953274e+17
19402.0	4.4786344777482234e+17
19403.0	4.4778112512163834e+17
19404.0	4.477030417913172e+17
19405.0	4.476203721992874e+17
19406.0	4.475419993920853e+17
19407.0	4.47393505162035e+17
19408.0	4.472530337966766e+17
19409.0	4.4729996931672736e+17
19410.0	4.4722111514323616e+17
19411.0	4.4713988762282656e+17
19412.0	4.4705728765624314e+17
19413.0	4.469047648671061e+17
19414.0	4.468887989693098e+17
19415.0	4.4681065775759354e+17
19416.0	4.467055006143828e+17
19417.0	4.466368706161323e+17
19418.0	4.4656370196152314e+17
19419.0	4.464793020792831e+17
19420.0	4.4639585346519034e+17
19421.0	4.4631048672597325e+17
19422.0	4.462185491202047e+17
19423.0	4.4613667029428896e+17
19424.0	4.460497012610389e+17
19425.0	4.4596040578717005e+17
19426.0	4.458701730960723e+17
19427.0	4.457784201095849e+17
19428.0	4.456848700036436e+17
19429.0	4.45589184787251e+17
19430.0	4.4548480596705286e+17
19431.0	4.452122087129092e+17
19432.0	4.452831941623808e+17
19433.0	4.45172366180352e+17
19434.0	4.4505524401602554e+17
19435.0	4.4491640185815034e+17
19436.0	4.4470097499477306e+17
19437.0	4.4463126167770445e+17
19438.0	4.4299125337183616e+17
19439.0	4.4416811754236576e+17
19440.0	4.4408689121034234e+17
19441.0	4.438462242837844e+17
19442.0	4.4353951859998714e+17
19443.0	4.43136752099874e+17
19444.0	4.425995065666217e+17
19445.0	4.418336358836906e+17
19446.0	4.4066858762676896e+17
19447.0	4.3872297645943443e+17
19448.0	4.3507467528000864e+17
19449.0	4.270741007280811e+17
19450.0	4.092319686983671e+17
19451.0	3.972048552460289e+17
19452.0	4.145856710879916e+17
19453.0	4.2951924119852416e+17
19454.0	4.35793081750869e+17
19455.0	4.3870049107531085e+17
19456.0	4.402208503584085e+17
19457.0	4.4106481730409805e+17
19458.0	4.31700350022468e+17
19459.0	4.415637210966715e+17
19460.0	4.421973859194197e+17
19461.0	4.423542068215808e+17
19462.0	4.424406647089835e+17
19463.0	4.4249165661033805e+17
19464.0	4.42510765649647e+17
19465.0	4.425158027990355e+17
19466.0	4.4249771500284576e+17
19467.0	4.424786874728447e+17
19468.0	4.4244502979106125e+17
19469.0	4.4222147310824064e+17
19470.0	4.423584233553919e+17
19471.0	4.423098391942485e+17
19472.0	4.4224910329555616e+17
19473.0	4.421894454028969e+17
19474.0	4.419944291412648e+17
19475.0	4.4192393645260774e+17
19476.0	4.4200490022120096e+17
19477.0	4.419446205928787e+17
19478.0	4.4188371894927354e+17
19479.0	4.416779751959207e+17
19480.0	4.41744376341026e+17
19481.0	4.416665626345472e+17
19482.0	4.416056732243285e+17
19483.0	4.415403466599082e+17
19484.0	4.4146676612464634e+17
19485.0	4.413878294631764e+17
19486.0	4.411731290532527e+17
19487.0	4.412517187059712e+17
19488.0	4.411821984666965e+17
19489.0	4.411060636002987e+17
19490.0	4.4078244662258304e+17
19491.0	4.4095749590002336e+17
19492.0	4.4088941731293856e+17
19493.0	4.408155184999082e+17
19494.0	4.4074090840282445e+17
19495.0	4.406656498663423e+17
19496.0	4.4051554054963174e+17
19497.0	4.405136978520746e+17
19498.0	4.4042381923013984e+17
19499.0	4.391269359594139e+17
19500.0	4.4029353841568416e+17
19501.0	4.402436373129898e+17
19502.0	4.4018152931764896e+17
19503.0	4.401061602612564e+17
19504.0	4.400295608057855e+17
19505.0	4.3995002303064736e+17
19506.0	4.398773843263487e+17
19507.0	4.3979584447010125e+17
19508.0	4.397229275436372e+17
19509.0	4.39642485756177e+17
19510.0	4.394939519598591e+17
19511.0	4.352334895251414e+17
19512.0	4.392386160842061e+17
19513.0	4.3893925826177626e+17
19514.0	4.3902774479421414e+17
19515.0	4.3910781971988506e+17
19516.0	4.3909518815395834e+17
19517.0	4.3902237391803725e+17
19518.0	4.389225685669204e+17
19519.0	4.3884455639995725e+17
19520.0	4.38670305018948e+17
19521.0	4.3873496594732365e+17
19522.0	4.386354578325502e+17
19523.0	4.385494088897877e+17
19524.0	4.384022113987245e+17
19525.0	4.384266458759168e+17
19526.0	4.3835488322191354e+17
19527.0	4.382759843790847e+17
19528.0	4.381918076338176e+17
19529.0	4.3811022184994125e+17
19530.0	4.3805095668394656e+17
19531.0	4.3797500951265274e+17
19532.0	4.378986838054227e+17
19533.0	4.3782242450800634e+17
19534.0	4.37747383865617e+17
19535.0	4.376692225911466e+17
19536.0	4.375898407742123e+17
19537.0	4.375182387620521e+17
19538.0	4.373091021662892e+17
19539.0	4.372692173411674e+17
19540.0	4.3728844913377274e+17
19541.0	4.371880207187968e+17
19542.0	4.371276750301866e+17
19543.0	4.369270479082838e+17
19544.0	4.369804234326014e+17
19545.0	4.3685649573041446e+17
19546.0	4.366774620039851e+17
19547.0	4.36762359959825e+17
19548.0	4.366865981767679e+17
19549.0	4.3659810437420365e+17
19550.0	4.365341485782358e+17
19551.0	4.3645967297850016e+17
19552.0	4.3638316817448954e+17
19553.0	4.363055990658387e+17
19554.0	4.3622416581481805e+17
19555.0	4.3614029420516685e+17
19556.0	4.360703885093546e+17
19557.0	4.3600384692497056e+17
19558.0	4.35929614455057e+17
19559.0	4.358550018413908e+17
19560.0	4.3572855084591763e+17
19561.0	4.3570064334520314e+17
19562.0	4.3558020460489376e+17
19563.0	4.3555337140524365e+17
19564.0	4.3547643703459846e+17
19565.0	4.35401967796224e+17
19566.0	4.353221470453759e+17
19567.0	4.352518679166976e+17
19568.0	4.351739673182208e+17
19569.0	4.350979281518592e+17
19570.0	4.3502433384529914e+17
19571.0	4.349492335039828e+17
19572.0	4.34870797013265e+17
19573.0	4.347821568294911e+17
19574.0	4.3470713562071034e+17
19575.0	4.346490816299007e+17
19576.0	4.345657731055615e+17
19577.0	4.344738824060927e+17
19578.0	4.3441688104577696e+17
19579.0	4.3434392560162125e+17
19580.0	4.342700116890965e+17
19581.0	4.3419440013202765e+17
19582.0	4.341229877024085e+17
19583.0	4.340480558323029e+17
19584.0	4.339720494514175e+17
19585.0	4.338825114069674e+17
19586.0	4.3380444422471674e+17
19587.0	4.3374421241146016e+17
19588.0	4.335992319595862e+17
19589.0	4.3359489008599034e+17
19590.0	4.335000772848297e+17
19591.0	4.3344636824343885e+17
19592.0	4.3337127167699616e+17
19593.0	4.332831406118229e+17
19594.0	4.331763455229951e+17
19595.0	4.3314425154764806e+17
19596.0	4.3306875386593274e+17
19597.0	4.329961684991999e+17
19598.0	4.3282378526119226e+17
19599.0	4.328470700796586e+17
19600.0	4.327727100329983e+17
19601.0	4.3268896634961914e+17
19602.0	4.3261795384688634e+17
19603.0	4.324780385763326e+17
19604.0	4.3246967338653005e+17
19605.0	4.323568230509226e+17
19606.0	4.3232276732968954e+17
19607.0	4.322494938174806e+17
19608.0	4.3217181279081805e+17
19609.0	4.3209224390792525e+17
19610.0	4.319596315497813e+17
19611.0	4.318515297255424e+17
19612.0	4.3187635252538016e+17
19613.0	4.3179953503600634e+17
19614.0	4.31722139291921e+17
19615.0	4.316521848722772e+17
19616.0	4.3150656339094195e+17
19617.0	4.314019127099392e+17
19618.0	4.3134104552953146e+17
19619.0	4.312155403496103e+17
19620.0	4.3113765464091283e+17
19621.0	4.310642425768617e+17
19622.0	4.3113034690505376e+17
19623.0	4.3104971364761594e+17
19624.0	4.309622308820308e+17
19625.0	4.309067414284971e+17
19626.0	4.3083129589596154e+17
19627.0	4.307583688332628e+17
19628.0	4.3067238294487046e+17
19629.0	4.302621604402516e+17
19630.0	4.3053162426968736e+17
19631.0	4.3000724294642304e+17
19632.0	4.3038516798204576e+17
19633.0	4.303048634182313e+17
19634.0	4.3023705033058976e+17
19635.0	4.301441609673386e+17
19636.0	4.29927817299012e+17
19637.0	4.298218798754473e+17
19638.0	4.29927593812514e+17
19639.0	4.2986465918976e+17
19640.0	4.2978414931476474e+17
19641.0	4.294531433015989e+17
19642.0	4.2963263840146765e+17
19643.0	4.295577927942143e+17
19644.0	4.294863900114944e+17
19645.0	4.2937690567475194e+17
19646.0	4.291776089161725e+17
19647.0	4.292693845519017e+17
19648.0	4.291984352433493e+17
19649.0	4.291232066262358e+17
19650.0	4.2905051577275725e+17
19651.0	4.2897613272733005e+17
19652.0	4.2890176569016314e+17
19653.0	4.288277499259562e+17
19654.0	4.2875393150375245e+17
19655.0	4.2867834210658976e+17
19656.0	4.286059877761024e+17
