# Flux units: erg / (cm m2 s)
# Wavelength units: Angstrom
wave	flux
19000.0	7.299955179214164e+17
19001.0	7.297969071412563e+17
19002.0	7.297312125965651e+17
19003.0	7.295948972971348e+17
19004.0	7.294626995459412e+17
19005.0	7.293256857550849e+17
19006.0	7.291929237301929e+17
19007.0	7.290590672715775e+17
19008.0	7.28893133754641e+17
19009.0	7.287041475040595e+17
19010.0	7.284460777111551e+17
19011.0	7.285166692455764e+17
19012.0	7.283383087049385e+17
19013.0	7.282702408832339e+17
19014.0	7.280983462816425e+17
19015.0	7.279793179459583e+17
19016.0	7.278529519550463e+17
19017.0	7.277295770621267e+17
19018.0	7.275970652973736e+17
19019.0	7.274642554574164e+17
19020.0	7.27325598617873e+17
19021.0	7.272043330404351e+17
19022.0	7.270679901984084e+17
19023.0	7.269081833013247e+17
19024.0	7.267884026473129e+17
19025.0	7.266615877260628e+17
19026.0	7.265200089945428e+17
19027.0	7.263833396958548e+17
19028.0	7.262619868768938e+17
19029.0	7.261189050466304e+17
19030.0	7.260031482680659e+17
19031.0	7.258722693458602e+17
19032.0	7.257337980343635e+17
19033.0	7.255338499702781e+17
19034.0	7.254419604591956e+17
19035.0	7.252125731345747e+17
19036.0	7.235582712698194e+17
19037.0	7.249828804646228e+17
19038.0	7.249024922943487e+17
19039.0	7.247902416743081e+17
19040.0	7.246624547930111e+17
19041.0	7.245254243647487e+17
19042.0	7.243290353074173e+17
19043.0	7.242601189780138e+17
19044.0	7.241209930754729e+17
19045.0	7.239909272890025e+17
19046.0	7.238213342418262e+17
19047.0	7.236900491711827e+17
19048.0	7.234870473741651e+17
19049.0	7.233883833630719e+17
19050.0	7.232715675227476e+17
19051.0	7.229132839234216e+17
19052.0	7.2294123714205e+17
19053.0	7.229127853604863e+17
19054.0	7.227830474287785e+17
19055.0	7.224806782358874e+17
19056.0	7.22503476515089e+17
19057.0	7.223833912147965e+17
19058.0	7.222389259632637e+17
19059.0	7.2211215955613e+17
19060.0	7.21976618665028e+17
19061.0	7.21851092373777e+17
19062.0	7.217123345913172e+17
19063.0	7.215775941132287e+17
19064.0	7.21378601791215e+17
19065.0	7.211910803314004e+17
19066.0	7.211316826953042e+17
19067.0	7.210353447053993e+17
19068.0	7.209095129290068e+17
19069.0	7.207754640916479e+17
19070.0	7.206247400996863e+17
19071.0	7.20503487664401e+17
19072.0	7.203711639442772e+17
19073.0	7.202353340656298e+17
19074.0	7.201055764206931e+17
19075.0	7.199712583090175e+17
19076.0	7.19828420727057e+17
19077.0	7.19690202751522e+17
19078.0	7.195428567121919e+17
19079.0	7.194310467736916e+17
19080.0	7.192880127584938e+17
19081.0	7.191295046975487e+17
19082.0	7.190107920531453e+17
19083.0	7.188136095733075e+17
19084.0	7.185948683709098e+17
19085.0	7.186127060467711e+17
19086.0	7.182174619609769e+17
19087.0	7.183242022442323e+17
19088.0	7.181532794628776e+17
19089.0	7.179442241667073e+17
19090.0	7.179222151157076e+17
19091.0	7.177976118509568e+17
19092.0	7.176323517994326e+17
19093.0	7.175443101428394e+17
19094.0	7.174117017692842e+17
19095.0	7.172809381904383e+17
19096.0	7.171398478157139e+17
19097.0	7.170094016058708e+17
19098.0	7.16871967126323e+17
19099.0	7.167364792232617e+17
19100.0	7.166019100125866e+17
19101.0	7.164651193587028e+17
19102.0	7.162857124790271e+17
19103.0	7.161988975165437e+17
19104.0	7.16069973140002e+17
19105.0	7.15924565987601e+17
19106.0	7.157938667214164e+17
19107.0	7.156462828650493e+17
19108.0	7.155075636701866e+17
19109.0	7.153033350392488e+17
19110.0	7.152218577480361e+17
19111.0	7.151130570828458e+17
19112.0	7.149836155486207e+17
19113.0	7.148498568172884e+17
19114.0	7.147119075568297e+17
19115.0	7.145519063236607e+17
19116.0	7.144284885090301e+17
19117.0	7.142892137086975e+17
19118.0	7.14074581106688e+17
19119.0	7.118409840634511e+17
19120.0	7.138529991021908e+17
19121.0	7.137559392725674e+17
19122.0	7.136376874423636e+17
19123.0	7.13501626597376e+17
19124.0	7.133525923506857e+17
19125.0	7.132190977206953e+17
19126.0	7.130242416814761e+17
19127.0	7.120756595665578e+17
19128.0	7.127202959895208e+17
19129.0	7.126228820208297e+17
19130.0	7.125481975447552e+17
19131.0	7.124271629336573e+17
19132.0	7.122911974391808e+17
19133.0	7.12121395515665e+17
19134.0	7.120131152237908e+17
19135.0	7.11888746001203e+17
19136.0	7.117514792938153e+17
19137.0	7.115496602905257e+17
19138.0	7.114716600773289e+17
19139.0	7.113531639988224e+17
19140.0	7.11221126050611e+17
19141.0	7.110868143702015e+17
19142.0	7.109336283217917e+17
19143.0	7.107896153560404e+17
19144.0	7.106502438070952e+17
19145.0	7.105450213026474e+17
19146.0	7.100025639971503e+17
19147.0	7.102387817458344e+17
19148.0	7.101392520303956e+17
19149.0	7.100029660910932e+17
19150.0	7.098716902479187e+17
19151.0	7.097358718337023e+17
19152.0	7.096013708503721e+17
19153.0	7.094452100617556e+17
19154.0	7.092758081350314e+17
19155.0	7.091890567861587e+17
19156.0	7.090572707758079e+17
19157.0	7.089077460751699e+17
19158.0	7.087424312180735e+17
19159.0	7.086365857196713e+17
19160.0	7.085070025577811e+17
19161.0	7.083615200477183e+17
19162.0	7.081139183987369e+17
19163.0	7.080668311846911e+17
19164.0	7.079763729099434e+17
19165.0	7.078351971112276e+17
19166.0	7.076525755771561e+17
19167.0	7.075637466497024e+17
19168.0	7.074388626462036e+17
19169.0	7.073068276340051e+17
19170.0	7.071777385611263e+17
19171.0	7.07037498511633e+17
19172.0	7.06904270639377e+17
19173.0	7.067740395973289e+17
19174.0	7.066111059864234e+17
19175.0	7.065014015885311e+17
19176.0	7.063674805376339e+17
19177.0	7.061343918795433e+17
19178.0	7.060951277415084e+17
19179.0	7.059576250346153e+17
19180.0	7.058215722986152e+17
19181.0	7.056355156295679e+17
19182.0	7.055433515313833e+17
19183.0	7.054256697070931e+17
19184.0	7.052886208238931e+17
19185.0	7.051472297175722e+17
19186.0	7.05019676459008e+17
19187.0	7.048320600681129e+17
19188.0	7.047470246090067e+17
19189.0	7.046123202019327e+17
19190.0	7.044760344024403e+17
19191.0	7.043176482559316e+17
19192.0	7.042024600851795e+17
19193.0	7.040584483777193e+17
19194.0	7.039073359932074e+17
19195.0	7.037726170458793e+17
19196.0	7.03608749433378e+17
19197.0	7.034352287001258e+17
19198.0	7.031440971661311e+17
19199.0	7.022086397973844e+17
19200.0	7.022042793989462e+17
19201.0	7.027593454114132e+17
19202.0	7.027576755191807e+17
19203.0	7.026607576667476e+17
19204.0	7.025344815737513e+17
19205.0	7.024096923615231e+17
19206.0	7.022798123128148e+17
19207.0	7.020681875860136e+17
19208.0	7.019206307130024e+17
19209.0	7.018783914852351e+17
19210.0	7.017478560765267e+17
19211.0	7.016229360020138e+17
19212.0	7.014831557880489e+17
19213.0	7.012840978950824e+17
19214.0	7.011553453451945e+17
19215.0	7.010691750472361e+17
19216.0	7.009335725697706e+17
19217.0	7.007592980501846e+17
19218.0	7.002848639669586e+17
19219.0	7.003677417362771e+17
19220.0	7.0036130117277e+17
19221.0	7.001155414523903e+17
19222.0	7.00081837773073e+17
19223.0	6.99966775431441e+17
19224.0	6.998096513510056e+17
19225.0	6.996483992365736e+17
19226.0	6.99556824158481e+17
19227.0	6.994252891772244e+17
19228.0	6.993072715988991e+17
19229.0	6.991701779764563e+17
19230.0	6.990306873791828e+17
19231.0	6.988884237178196e+17
19232.0	6.987416519486121e+17
19233.0	6.985591011584681e+17
19234.0	6.984578150083241e+17
19235.0	6.983052195878227e+17
19236.0	6.981935990920532e+17
19237.0	6.980469410583891e+17
19238.0	6.978623952475476e+17
19239.0	6.977825921826815e+17
19240.0	6.976406918179497e+17
19241.0	6.974907955718825e+17
19242.0	6.97357993910818e+17
19243.0	6.971120425107452e+17
19244.0	6.970935282237439e+17
19245.0	6.969508245099859e+17
19246.0	6.968092018780842e+17
19247.0	6.966683751852713e+17
19248.0	6.965393302923946e+17
19249.0	6.963996796824234e+17
19250.0	6.962472563681961e+17
19251.0	6.960524844247717e+17
19252.0	6.957732368919209e+17
19253.0	6.958287009000106e+17
19254.0	6.957038791120211e+17
19255.0	6.954229432319996e+17
19256.0	6.953939721256959e+17
19257.0	6.952666158596095e+17
19258.0	6.951280752721919e+17
19259.0	6.9493208383488e+17
19260.0	6.94802624684578e+17
19261.0	6.946942578502313e+17
19262.0	6.945179826476372e+17
19263.0	6.943495687591252e+17
19264.0	6.939960893855058e+17
19265.0	6.940166087595347e+17
19266.0	6.938909376249856e+17
19267.0	6.938559270005417e+17
19268.0	6.937107276059988e+17
19269.0	6.935669830757033e+17
19270.0	6.934043513847807e+17
19271.0	6.931148604527959e+17
19272.0	6.930980433210025e+17
19273.0	6.927277247954941e+17
19274.0	6.925136888332282e+17
19275.0	6.927001401163775e+17
19276.0	6.925498833698815e+17
19277.0	6.924092749206867e+17
19278.0	6.922686487855103e+17
19279.0	6.921038439557801e+17
19280.0	6.91937559585314e+17
19281.0	6.918257372037117e+17
19282.0	6.916921671461546e+17
19283.0	6.915309845173588e+17
19284.0	6.91356406050543e+17
19285.0	6.911793621718355e+17
19286.0	6.910620839094953e+17
19287.0	6.909306098854569e+17
19288.0	6.902167846431397e+17
19289.0	6.896251593992863e+17
19290.0	6.904889795936255e+17
19291.0	6.901888791696732e+17
19292.0	6.902215672681812e+17
19293.0	6.900753069244415e+17
19294.0	6.899213181561513e+17
19295.0	6.897814560833535e+17
19296.0	6.896259733039785e+17
19297.0	6.894635369977171e+17
19298.0	6.893118790041599e+17
19299.0	6.891779610290857e+17
19300.0	6.890286426182995e+17
19301.0	6.888775195383124e+17
19302.0	6.887147409768445e+17
19303.0	6.885273936505513e+17
19304.0	6.884058654397782e+17
19305.0	6.882528902949546e+17
19306.0	6.881042208129023e+17
19307.0	6.879241069832873e+17
19308.0	6.877749326468436e+17
19309.0	6.875873913339903e+17
19310.0	6.874059952357373e+17
19311.0	6.872792291082239e+17
19312.0	6.871441406427135e+17
19313.0	6.869884430450687e+17
19314.0	6.853518135306918e+17
19315.0	6.853045282755942e+17
19316.0	6.865025414550868e+17
19317.0	6.863521561531732e+17
19318.0	6.861927755371859e+17
19319.0	6.86042847903744e+17
19320.0	6.858797670028627e+17
19321.0	6.857100878326442e+17
19322.0	6.855186723809961e+17
19323.0	6.853666598988457e+17
19324.0	6.852108949826217e+17
19325.0	6.850194157775529e+17
19326.0	6.84857019666705e+17
19327.0	6.846891705412265e+17
19328.0	6.845230354879827e+17
19329.0	6.843595169114794e+17
19330.0	6.841732211671039e+17
19331.0	6.83985063780898e+17
19332.0	6.83845055886131e+17
19333.0	6.836623761910441e+17
19334.0	6.834970608446121e+17
19335.0	6.833127799739731e+17
19336.0	6.831407506653183e+17
19337.0	6.829320060971689e+17
19338.0	6.826189111601832e+17
19339.0	6.825700747815593e+17
19340.0	6.823367895504212e+17
19341.0	6.821443178332159e+17
19342.0	6.818329709423272e+17
19343.0	6.817994497152339e+17
19344.0	6.815727801597951e+17
19345.0	6.804844762016419e+17
19346.0	6.805822770948774e+17
19347.0	6.809474786394111e+17
19348.0	6.808117274039636e+17
19349.0	6.806021317416276e+17
19350.0	6.804123968077823e+17
19351.0	6.802061675637417e+17
19352.0	6.799830927365459e+17
19353.0	6.798304467047763e+17
19354.0	6.795695368787283e+17
19355.0	6.792937218943661e+17
19356.0	6.791484772013396e+17
19357.0	6.789334202056703e+17
19358.0	6.787126808368468e+17
19359.0	6.784773410957993e+17
19360.0	6.782236087025663e+17
19361.0	6.779444626718717e+17
19362.0	6.777374494425087e+17
19363.0	6.775113133326336e+17
19364.0	6.772809876023978e+17
19365.0	6.770441841890644e+17
19366.0	6.767773399121919e+17
19367.0	6.764829167583232e+17
19368.0	6.762417288293033e+17
19369.0	6.759713577719123e+17
19370.0	6.757285771258538e+17
19371.0	6.754687607548585e+17
19372.0	6.752060350048936e+17
19373.0	6.749035489307306e+17
19374.0	6.746521853405865e+17
19375.0	6.743938493491881e+17
19376.0	6.741182139509417e+17
19377.0	6.738374206073514e+17
19378.0	6.735593248303785e+17
19379.0	6.732762545389567e+17
19380.0	6.729859191537661e+17
19381.0	6.726861572800511e+17
19382.0	6.722836883658068e+17
19383.0	6.719741980136787e+17
19384.0	6.717045806028116e+17
19385.0	6.713918974066687e+17
19386.0	6.710655476301823e+17
19387.0	6.707283224428543e+17
19388.0	6.703816205052585e+17
19389.0	6.699529889207636e+17
19390.0	6.695561690349567e+17
19391.0	6.67907627976839e+17
19392.0	6.68673338716979e+17
19393.0	6.684325517634217e+17
19394.0	6.680404118121129e+17
19395.0	6.675409151546708e+17
19396.0	6.670999254728703e+17
19397.0	6.666751824975188e+17
19398.0	6.662158904109737e+17
19399.0	6.654828725927935e+17
19400.0	6.65187240920132e+17
19401.0	6.647547322608297e+17
19402.0	6.642883948620457e+17
19403.0	6.63774159839778e+17
19404.0	6.632634639013204e+17
19405.0	6.626421863961939e+17
19406.0	6.61965809787426e+17
19407.0	6.613867280990208e+17
19408.0	6.604755298855597e+17
19409.0	6.601428535607295e+17
19410.0	6.595472617635836e+17
19411.0	6.587617611087871e+17
19412.0	6.580434309742591e+17
19413.0	6.572836337134249e+17
19414.0	6.565243867452755e+17
19415.0	6.557441849644372e+17
19416.0	6.548518464389117e+17
19417.0	6.539748137675433e+17
19418.0	6.530079968460799e+17
19419.0	6.520619150256809e+17
19420.0	6.511296918148436e+17
19421.0	6.501355919245311e+17
19422.0	6.490737475933523e+17
19423.0	6.479744019901097e+17
19424.0	6.466821973955924e+17
19425.0	6.45461748744192e+17
19426.0	6.441704702519977e+17
19427.0	6.427869332897792e+17
19428.0	6.412700145243476e+17
19429.0	6.396940185676457e+17
19430.0	6.379680112312319e+17
19431.0	6.360716990742528e+17
19432.0	6.343436600868863e+17
19433.0	6.323557296504832e+17
19434.0	6.301476929754452e+17
19435.0	6.277800856824489e+17
19436.0	6.252043134042112e+17
19437.0	6.225825198942889e+17
19438.0	6.17910577852143e+17
19439.0	6.162278236465834e+17
19440.0	6.128970160406527e+17
19441.0	6.090116883109203e+17
19442.0	6.046513389458775e+17
19443.0	5.998007689063081e+17
19444.0	5.942817125826556e+17
19445.0	5.879651663959383e+17
19446.0	5.805915552874495e+17
19447.0	5.71804860512119e+17
19448.0	5.609705805534553e+17
19449.0	5.4691579926937594e+17
19450.0	5.2643323682925114e+17
19451.0	5.1317528333735296e+17
19452.0	5.379785273726292e+17
19453.0	5.54293434812553e+17
19454.0	5.66263311534216e+17
19455.0	5.757228943758675e+17
19456.0	5.8349482644166e+17
19457.0	5.900612222844924e+17
19458.0	5.930720855851048e+17
19459.0	6.00507005743924e+17
19460.0	6.050306796290044e+17
19461.0	6.089115720919721e+17
19462.0	6.124078940640598e+17
19463.0	6.155467285157203e+17
19464.0	6.183804466451796e+17
19465.0	6.20948884483823e+17
19466.0	6.232845777371133e+17
19467.0	6.254790376598185e+17
19468.0	6.27476383539746e+17
19469.0	6.292565958939987e+17
19470.0	6.310424120481108e+17
19471.0	6.326660403385684e+17
19472.0	6.341114836899156e+17
19473.0	6.35457321758447e+17
19474.0	6.367601881339219e+17
19475.0	6.376094124299602e+17
19476.0	6.390022945112061e+17
19477.0	6.400633872231082e+17
19478.0	6.410834602011306e+17
19479.0	6.420368652064084e+17
19480.0	6.428524856475647e+17
19481.0	6.436273726859946e+17
19482.0	6.443460097037652e+17
19483.0	6.450262086516736e+17
19484.0	6.457645115725139e+17
19485.0	6.464677729708713e+17
19486.0	6.470791254245376e+17
19487.0	6.476437068447743e+17
19488.0	6.481523798704127e+17
19489.0	6.484846259994623e+17
19490.0	6.485837810237437e+17
19491.0	6.49607116960563e+17
19492.0	6.501267771752447e+17
19493.0	6.505021116689065e+17
19494.0	6.508513958297599e+17
19495.0	6.511740463699284e+17
19496.0	6.513327293333501e+17
19497.0	6.519202626841257e+17
19498.0	6.518285645731156e+17
19499.0	6.504739806117883e+17
19500.0	6.527056020679338e+17
19501.0	6.529713465283923e+17
19502.0	6.532963782448467e+17
19503.0	6.534977581744127e+17
19504.0	6.536856076987049e+17
19505.0	6.538637383215785e+17
19506.0	6.540395477467135e+17
19507.0	6.54273263103727e+17
19508.0	6.544647648182271e+17
19509.0	6.545892018487296e+17
19510.0	6.546017679835136e+17
19511.0	6.52185462234588e+17
19512.0	6.54466216327031e+17
19513.0	6.543209778555556e+17
19514.0	6.546679922687996e+17
19515.0	6.551289808814081e+17
19516.0	6.554038040526847e+17
19517.0	6.554737309996371e+17
19518.0	6.555731554380457e+17
19519.0	6.556312882118655e+17
19520.0	6.556972083402068e+17
19521.0	6.55789498966562e+17
19522.0	6.558088510657876e+17
19523.0	6.558689778816339e+17
19524.0	6.558964942635008e+17
19525.0	6.559209177655978e+17
19526.0	6.559494114902015e+17
19527.0	6.559622852771839e+17
19528.0	6.559705008701437e+17
19529.0	6.559867729521321e+17
19530.0	6.560414132688212e+17
19531.0	6.560662480224255e+17
19532.0	6.560612925920595e+17
19533.0	6.560567598776319e+17
19534.0	6.560462125312682e+17
19535.0	6.560262630233427e+17
19536.0	6.560778069650089e+17
19537.0	6.560766364745727e+17
19538.0	6.559514478946986e+17
19539.0	6.557957449143639e+17
19540.0	6.559887102312447e+17
19541.0	6.559954102823593e+17
19542.0	6.56041465487906e+17
19543.0	6.560030197284863e+17
19544.0	6.559594167926783e+17
19545.0	6.556259371887273e+17
19546.0	6.554697474594131e+17
19547.0	6.558448908326227e+17
19548.0	6.558387496026111e+17
19549.0	6.55761727571012e+17
19550.0	6.557856181867859e+17
19551.0	6.557371241332735e+17
19552.0	6.556837271481002e+17
19553.0	6.556168967159808e+17
19554.0	6.555547436318719e+17
19555.0	6.555075975577597e+17
19556.0	6.554736231361193e+17
19557.0	6.554410231878995e+17
19558.0	6.553776953491455e+17
19559.0	6.55314768905284e+17
19560.0	6.552317472014335e+17
19561.0	6.551658118337876e+17
19562.0	6.551104121383594e+17
19563.0	6.550520767796564e+17
19564.0	6.549809454383103e+17
19565.0	6.549079199492777e+17
19566.0	6.548458292903935e+17
19567.0	6.547898879006036e+17
19568.0	6.546953817030655e+17
19569.0	6.546246583276884e+17
19570.0	6.545604065536682e+17
19571.0	6.544815881016659e+17
19572.0	6.543764801017174e+17
19573.0	6.543158352893267e+17
19574.0	6.541753544867837e+17
19575.0	6.541583722392233e+17
19576.0	6.540754018456916e+17
19577.0	6.539788990895444e+17
19578.0	6.539043335219882e+17
19579.0	6.538247188512765e+17
19580.0	6.537405168003753e+17
19581.0	6.536665758345897e+17
19582.0	6.535866816834217e+17
19583.0	6.534982243013971e+17
19584.0	6.534079600132095e+17
19585.0	6.532411626793641e+17
19586.0	6.531333903177047e+17
19587.0	6.531160299536383e+17
19588.0	6.528172754119338e+17
19589.0	6.529177110271316e+17
19590.0	6.528044184720723e+17
19591.0	6.52762481304098e+17
19592.0	6.526747192677716e+17
19593.0	6.525668749737983e+17
19594.0	6.523199089715878e+17
19595.0	6.523818548570794e+17
19596.0	6.522635485708288e+17
19597.0	6.521970455041363e+17
19598.0	6.519132548410025e+17
19599.0	6.520037249996116e+17
19600.0	6.519132958752767e+17
19601.0	6.517744257553748e+17
19602.0	6.516532748222463e+17
19603.0	6.514185083726504e+17
19604.0	6.514644896885418e+17
19605.0	6.51233794300314e+17
19606.0	6.513101276271956e+17
19607.0	6.512139834141353e+17
19608.0	6.511083542719146e+17
19609.0	6.509847848331946e+17
19610.0	6.509109321575081e+17
19611.0	6.508038251522729e+17
19612.0	6.507222172084905e+17
19613.0	6.506206158564009e+17
19614.0	6.504956639750825e+17
19615.0	6.504159065582249e+17
19616.0	6.502970708109994e+17
19617.0	6.501851886605652e+17
19618.0	6.497529212436477e+17
19619.0	6.495633534528168e+17
19620.0	6.495483996405759e+17
19621.0	6.497562363516244e+17
19622.0	6.496831801043626e+17
19623.0	6.495863490041172e+17
19624.0	6.494746331578368e+17
19625.0	6.493764159799295e+17
19626.0	6.49258861732386e+17
19627.0	6.491504737168042e+17
19628.0	6.490065823858688e+17
19629.0	6.488173617435987e+17
19630.0	6.484519000124072e+17
19631.0	6.47719340282129e+17
19632.0	6.48517389525538e+17
19633.0	6.48467908132864e+17
19634.0	6.48411016803123e+17
19635.0	6.482829967185236e+17
19636.0	6.481953333881513e+17
19637.0	6.478319048458244e+17
19638.0	6.479836377776127e+17
19639.0	6.478740292894719e+17
19640.0	6.47682374692591e+17
19641.0	6.47244358492707e+17
19642.0	6.475444403918166e+17
19643.0	6.474345675227135e+17
19644.0	6.472804838233427e+17
19645.0	6.470969827437225e+17
19646.0	6.471100864484691e+17
19647.0	6.470170462300842e+17
19648.0	6.469140728512511e+17
19649.0	6.468035048461652e+17
19650.0	6.466973407903743e+17
19651.0	6.465833495341737e+17
19652.0	6.464704178989737e+17
19653.0	6.46365849915665e+17
19654.0	6.462486006639274e+17
19655.0	6.461338197600937e+17
19656.0	6.460305721436841e+17
19657.0	6.459173089487529e+17
19658.0	6.45810736926993e+17
19659.0	6.45698585432337e+17
19660.0	6.45590950364228e+17
19661.0	6.454761626796032e+17
19662.0	6.453657619573417e+17
19663.0	6.452320033658195e+17
19664.0	6.451342333706239e+17
19665.0	6.450320962661034e+17
