# Flux units: erg / (cm m2 s)
# Wavelength units: Angstrom
wave	flux
19000.0	6.816994084345171e+17
19001.0	6.815675301494783e+17
19002.0	6.814509210184362e+17
19003.0	6.813259843065171e+17
19004.0	6.812011789462185e+17
19005.0	6.810769929448106e+17
19006.0	6.809525324262057e+17
19007.0	6.808262712229887e+17
19008.0	6.807006628631892e+17
19009.0	6.805673803950761e+17
19010.0	6.804379187281919e+17
19011.0	6.803178971114154e+17
19012.0	6.801726452880723e+17
19013.0	6.80078875820032e+17
19014.0	6.799526181120681e+17
19015.0	6.798297764549972e+17
19016.0	6.797074016239615e+17
19017.0	6.795839552880639e+17
19018.0	6.794582905847807e+17
19019.0	6.79334692065553e+17
19020.0	6.792093095690239e+17
19021.0	6.790860542137684e+17
19022.0	6.789609065982634e+17
19023.0	6.788328043053055e+17
19024.0	6.787077061825876e+17
19025.0	6.785785487425536e+17
19026.0	6.784463876915197e+17
19027.0	6.783116962168831e+17
19028.0	6.782039718100991e+17
19029.0	6.780820229106345e+17
19030.0	6.779589860087123e+17
19031.0	6.778312868582739e+17
19032.0	6.776997406223017e+17
19033.0	6.775536974036991e+17
19034.0	6.773882861475156e+17
19035.0	6.769796289571498e+17
19036.0	6.753315471753213e+17
19037.0	6.767954860791123e+17
19038.0	6.768972698135209e+17
19039.0	6.768157121314815e+17
19040.0	6.767056466040147e+17
19041.0	6.765871873654783e+17
19042.0	6.764276895885993e+17
19043.0	6.763442946615977e+17
19044.0	6.762198438597972e+17
19045.0	6.76093689541427e+17
19046.0	6.75969182605858e+17
19047.0	6.758411280580608e+17
19048.0	6.757039043422889e+17
19049.0	6.755075413595476e+17
19050.0	6.754138602515113e+17
19051.0	6.750929718083581e+17
19052.0	6.750499919364095e+17
19053.0	6.750606964293631e+17
19054.0	6.749648557441023e+17
19055.0	6.748231302119424e+17
19056.0	6.747246858425684e+17
19057.0	6.746071634717353e+17
19058.0	6.744491124501161e+17
19059.0	6.743487368134655e+17
19060.0	6.742367999972692e+17
19061.0	6.741138618013012e+17
19062.0	6.73989780447778e+17
19063.0	6.73865299796514e+17
19064.0	6.737370602799101e+17
19065.0	6.736071943520256e+17
19066.0	6.734774706110463e+17
19067.0	6.733692196793002e+17
19068.0	6.732463060200105e+17
19069.0	6.731223288949417e+17
19070.0	6.729971341634217e+17
19071.0	6.728722667973289e+17
19072.0	6.727376116034217e+17
19073.0	6.726262067647828e+17
19074.0	6.725022053127508e+17
19075.0	6.723780417508691e+17
19076.0	6.722534721104553e+17
19077.0	6.721287406398121e+17
19078.0	6.720041417091753e+17
19079.0	6.718812872594772e+17
19080.0	6.717560958134953e+17
19081.0	6.716291066888191e+17
19082.0	6.715068650269353e+17
19083.0	6.713752975398228e+17
19084.0	6.71240483241984e+17
19085.0	6.71129420239121e+17
19086.0	6.709526661868201e+17
19087.0	6.708379796548265e+17
19088.0	6.707221939355647e+17
19089.0	6.706108190861993e+17
19090.0	6.705030811178324e+17
19091.0	6.703811427041279e+17
19092.0	6.702318501582164e+17
19093.0	6.701420718500521e+17
19094.0	6.700205825064959e+17
19095.0	6.698981496542548e+17
19096.0	6.697749268048553e+17
19097.0	6.69651888644642e+17
19098.0	6.69513980977698e+17
19099.0	6.693876057593172e+17
19100.0	6.692751211670185e+17
19101.0	6.691539991745876e+17
19102.0	6.690292969242623e+17
19103.0	6.689085333351081e+17
19104.0	6.687841127322964e+17
19105.0	6.68626026758144e+17
19106.0	6.68529236971793e+17
19107.0	6.683926832261802e+17
19108.0	6.682504587815594e+17
19109.0	6.68103304352017e+17
19110.0	6.680027363366227e+17
19111.0	6.678927200223231e+17
19112.0	6.677780853598889e+17
19113.0	6.676700604312233e+17
19114.0	6.675402788088489e+17
19115.0	6.674181631858004e+17
19116.0	6.672993365961386e+17
19117.0	6.671745039728639e+17
19118.0	6.670294573208916e+17
19119.0	6.666801345025362e+17
19120.0	6.667803515245908e+17
19121.0	6.666687196342953e+17
19122.0	6.665604345189716e+17
19123.0	6.664401159454719e+17
19124.0	6.662957737268563e+17
19125.0	6.66190956671795e+17
19126.0	6.660572140186281e+17
19127.0	6.658911581678249e+17
19128.0	6.657982254634323e+17
19129.0	6.656933467521021e+17
19130.0	6.655780646988457e+17
19131.0	6.654569002740393e+17
19132.0	6.653340331715242e+17
19133.0	6.652071294009343e+17
19134.0	6.65082084266257e+17
19135.0	6.649645691655508e+17
19136.0	6.648409743512916e+17
19137.0	6.647145956376575e+17
19138.0	6.645939918514857e+17
19139.0	6.644726126084095e+17
19140.0	6.643499830433107e+17
19141.0	6.642269680216746e+17
19142.0	6.641010602584745e+17
19143.0	6.639790549456211e+17
19144.0	6.638544716038141e+17
19145.0	6.637339791065087e+17
19146.0	6.635677823969962e+17
19147.0	6.634850863109459e+17
19148.0	6.633529191781718e+17
19149.0	6.632276397916159e+17
19150.0	6.631177392401065e+17
19151.0	6.629941960856916e+17
19152.0	6.628661908209663e+17
19153.0	6.627208670653097e+17
19154.0	6.626154416264532e+17
19155.0	6.624923738963967e+17
19156.0	6.623659647740585e+17
19157.0	6.62225702494754e+17
19158.0	6.620821551666516e+17
19159.0	6.619816183289172e+17
19160.0	6.618551841106601e+17
19161.0	6.617115830255615e+17
19162.0	6.615331178370388e+17
19163.0	6.614478592409597e+17
19164.0	6.613626141365588e+17
19165.0	6.612275679636137e+17
19166.0	6.611301906251775e+17
19167.0	6.610093790811476e+17
19168.0	6.608929201760937e+17
19169.0	6.607744111651497e+17
19170.0	6.606535534837759e+17
19171.0	6.605306661786964e+17
19172.0	6.604073418970452e+17
19173.0	6.602874905690111e+17
19174.0	6.601648194103978e+17
19175.0	6.600434581329236e+17
19176.0	6.59920712245794e+17
19177.0	6.597864236340563e+17
19178.0	6.596714232982185e+17
19179.0	6.595475724916052e+17
19180.0	6.594265064931327e+17
19181.0	6.593011689455615e+17
19182.0	6.591803193032703e+17
19183.0	6.590604819562495e+17
19184.0	6.589372097538729e+17
19185.0	6.588129778248361e+17
19186.0	6.586893226125993e+17
19187.0	6.585585512742911e+17
19188.0	6.584384777879551e+17
19189.0	6.583121046667263e+17
19190.0	6.581838592081919e+17
19191.0	6.580528133526867e+17
19192.0	6.579236331236009e+17
19193.0	6.577838762579284e+17
19194.0	6.576354824115539e+17
19195.0	6.574865684714836e+17
19196.0	6.573068882629972e+17
19197.0	6.570807000039423e+17
19198.0	6.567492022086314e+17
19199.0	6.561806265526954e+17
19200.0	6.561055571793236e+17
19201.0	6.56403923678003e+17
19202.0	6.564794470148778e+17
19203.0	6.564487709939027e+17
19204.0	6.563858263048191e+17
19205.0	6.56295977881873e+17
19206.0	6.561939372463444e+17
19207.0	6.560752603234301e+17
19208.0	6.559642726083241e+17
19209.0	6.5585427789469e+17
19210.0	6.557371312635903e+17
19211.0	6.556181168390143e+17
19212.0	6.554965093558953e+17
19213.0	6.553649806660948e+17
19214.0	6.552441537429503e+17
19215.0	6.551307411608916e+17
19216.0	6.550117400881833e+17
19217.0	6.548869352172201e+17
19218.0	6.547493167475369e+17
19219.0	6.546321754991272e+17
19220.0	6.545236703925588e+17
19221.0	6.543997380067327e+17
19222.0	6.542825204918953e+17
19223.0	6.541625556380329e+17
19224.0	6.540386689002153e+17
19225.0	6.539174948285097e+17
19226.0	6.537969670291455e+17
19227.0	6.536753696123562e+17
19228.0	6.5355536938653e+17
19229.0	6.534330782318591e+17
19230.0	6.533102666339668e+17
19231.0	6.531869211011753e+17
19232.0	6.530650292442452e+17
19233.0	6.52938363150882e+17
19234.0	6.528201680835923e+17
19235.0	6.526958281512275e+17
19236.0	6.525752942002175e+17
19237.0	6.524519530015401e+17
19238.0	6.523241417233748e+17
19239.0	6.522071335742121e+17
19240.0	6.520845799260159e+17
19241.0	6.519596519522303e+17
19242.0	6.51837253493282e+17
19243.0	6.517010863925929e+17
19244.0	6.515895464973652e+17
19245.0	6.514661685286227e+17
19246.0	6.513433431594323e+17
19247.0	6.51220722262562e+17
19248.0	6.510970896995667e+17
19249.0	6.509720864380244e+17
19250.0	6.508448816562176e+17
19251.0	6.507171786610003e+17
19252.0	6.505836254505642e+17
19253.0	6.50481087999727e+17
19254.0	6.503592210989055e+17
19255.0	6.502216104585897e+17
19256.0	6.501113961731411e+17
19257.0	6.499888296624128e+17
19258.0	6.498644147219113e+17
19259.0	6.497291729545897e+17
19260.0	6.495702819536895e+17
19261.0	6.494875219744084e+17
19262.0	6.493636304830463e+17
19263.0	6.492371388727295e+17
19264.0	6.491022123073536e+17
19265.0	6.489872692936704e+17
19266.0	6.488649545110868e+17
19267.0	6.487516455283369e+17
19268.0	6.486279118826154e+17
19269.0	6.485038628252329e+17
19270.0	6.483760877578921e+17
19271.0	6.482426901561343e+17
19272.0	6.481257240898217e+17
19273.0	6.479890391323988e+17
19274.0	6.478516503707647e+17
19275.0	6.477556321266346e+17
19276.0	6.476300828366163e+17
19277.0	6.475055424864255e+17
19278.0	6.473791774741844e+17
19279.0	6.472515405392554e+17
19280.0	6.471267593661097e+17
19281.0	6.470009919023785e+17
19282.0	6.468745718049449e+17
19283.0	6.467446556852223e+17
19284.0	6.466108477407231e+17
19285.0	6.464803484729343e+17
19286.0	6.463347989938176e+17
19287.0	6.46135530197265e+17
19288.0	6.45209085269333e+17
19289.0	6.447408960853327e+17
19290.0	6.457355337553236e+17
19291.0	6.456877428069716e+17
19292.0	6.456039710916607e+17
19293.0	6.454873352568831e+17
19294.0	6.453643582636031e+17
19295.0	6.452417716202154e+17
19296.0	6.450998042864298e+17
19297.0	6.449850409986729e+17
19298.0	6.448620963714388e+17
19299.0	6.44718377706018e+17
19300.0	6.446081958565204e+17
19301.0	6.444795034249897e+17
19302.0	6.443503756946089e+17
19303.0	6.442177232808617e+17
19304.0	6.440931887327914e+17
19305.0	6.439625947436372e+17
19306.0	6.438312063533055e+17
19307.0	6.436962067371348e+17
19308.0	6.435592457246035e+17
19309.0	6.434082864321876e+17
19310.0	6.432665213337599e+17
19311.0	6.431495721844735e+17
19312.0	6.430159424978943e+17
19313.0	6.428184453054463e+17
19314.0	6.397755241704111e+17
19315.0	6.39826354591063e+17
19316.0	6.424071075353939e+17
19317.0	6.423704507165353e+17
19318.0	6.422584333697023e+17
19319.0	6.421359687106559e+17
19320.0	6.420002072690685e+17
19321.0	6.418598178324479e+17
19322.0	6.417381000391338e+17
19323.0	6.416029962644138e+17
19324.0	6.414698080283306e+17
19325.0	6.413346502868991e+17
19326.0	6.412074367669588e+17
19327.0	6.410769462373034e+17
19328.0	6.409130217220778e+17
19329.0	6.408076622736042e+17
19330.0	6.406722338597545e+17
19331.0	6.405343310861652e+17
19332.0	6.404003528529235e+17
19333.0	6.40261887762978e+17
19334.0	6.401255587621546e+17
19335.0	6.399310124722858e+17
19336.0	6.398466866195114e+17
19337.0	6.397086339694592e+17
19338.0	6.395545718008489e+17
19339.0	6.394261055821139e+17
19340.0	6.392795452058282e+17
19341.0	6.391159312089087e+17
19342.0	6.389785255302483e+17
19343.0	6.388515944267775e+17
19344.0	6.386799365936468e+17
19345.0	6.38487061664017e+17
19346.0	6.383585270082217e+17
19347.0	6.382337245140308e+17
19348.0	6.381236498989055e+17
19349.0	6.379755281230506e+17
19350.0	6.378189870508714e+17
19351.0	6.376808835099306e+17
19352.0	6.375013220701523e+17
19353.0	6.373848199637673e+17
19354.0	6.37234170770227e+17
19355.0	6.370754776705706e+17
19356.0	6.369284434777427e+17
19357.0	6.367729978179583e+17
19358.0	6.366141344994644e+17
19359.0	6.364458471391231e+17
19360.0	6.362632913857193e+17
19361.0	6.361259374368084e+17
19362.0	6.359659074726569e+17
19363.0	6.358030851506175e+17
19364.0	6.356385590323882e+17
19365.0	6.354724122350932e+17
19366.0	6.353046153986047e+17
19367.0	6.351339385432746e+17
19368.0	6.349621458632703e+17
19369.0	6.347853030315348e+17
19370.0	6.346098057325225e+17
19371.0	6.344238634281642e+17
19372.0	6.342441872042666e+17
19373.0	6.340609015720617e+17
19374.0	6.338786699684521e+17
19375.0	6.33693079146769e+17
19376.0	6.335057548891476e+17
19377.0	6.333149039209129e+17
19378.0	6.331224830246912e+17
19379.0	6.32924054556945e+17
19380.0	6.327260081203881e+17
19381.0	6.325262734764713e+17
19382.0	6.323103302942719e+17
19383.0	6.321027290234879e+17
19384.0	6.318960488218624e+17
19385.0	6.31681385042193e+17
19386.0	6.314611132683604e+17
19387.0	6.312339481559039e+17
19388.0	6.309979610939391e+17
19389.0	6.30739146252834e+17
19390.0	6.303708930026153e+17
19391.0	6.287527482053965e+17
19392.0	6.295765718663167e+17
19393.0	6.297296470452906e+17
19394.0	6.295088096695636e+17
19395.0	6.292539448142506e+17
19396.0	6.289999265791999e+17
19397.0	6.28732779823104e+17
19398.0	6.284421879562239e+17
19399.0	6.281391962587133e+17
19400.0	6.27857719103761e+17
19401.0	6.275756470566912e+17
19402.0	6.272709043770708e+17
19403.0	6.269572309756585e+17
19404.0	6.266375189648723e+17
19405.0	6.263050732568575e+17
19406.0	6.2595427991552e+17
19407.0	6.255796784463872e+17
19408.0	6.252015009136637e+17
19409.0	6.248428860342271e+17
19410.0	6.244507844607999e+17
19411.0	6.240429051740159e+17
19412.0	6.236205312813738e+17
19413.0	6.231723597627391e+17
19414.0	6.227222655751507e+17
19415.0	6.222446114548393e+17
19416.0	6.217388722050388e+17
19417.0	6.212359932608512e+17
19418.0	6.207118424844969e+17
19419.0	6.201616419345748e+17
19420.0	6.195939582672896e+17
19421.0	6.18995423117312e+17
19422.0	6.183713387140435e+17
19423.0	6.177164175780521e+17
19424.0	6.170212351082496e+17
19425.0	6.162871090151423e+17
19426.0	6.15515076899635e+17
19427.0	6.146991308406784e+17
19428.0	6.138274907160575e+17
19429.0	6.128783134294015e+17
19430.0	6.118013322745171e+17
19431.0	6.107046648741887e+17
19432.0	6.098270533888681e+17
19433.0	6.087081862365183e+17
19434.0	6.074534234248531e+17
19435.0	6.060406326602409e+17
19436.0	6.045310488237396e+17
19437.0	6.028503535321087e+17
19438.0	5.988686966205101e+17
19439.0	5.988003171620179e+17
19440.0	5.975777303243434e+17
19441.0	5.954755612377087e+17
19442.0	5.930392441847808e+17
19443.0	5.903095572376234e+17
19444.0	5.871598065505619e+17
19445.0	5.835163858632705e+17
19446.0	5.79199516540928e+17
19447.0	5.739604657307644e+17
19448.0	5.673448552529922e+17
19449.0	5.5847103003361274e+17
19450.0	5.4462868157890464e+17
19451.0	5.3462809692514995e+17
19452.0	5.525185266450431e+17
19453.0	5.6299828934956397e+17
19454.0	5.703301530823335e+17
19455.0	5.7594339452955296e+17
19456.0	5.804299756677802e+17
19457.0	5.840100701241343e+17
19458.0	5.802375283474501e+17
19459.0	5.889139069157391e+17
19460.0	5.92355628766549e+17
19461.0	5.945258863667881e+17
19462.0	5.9643017560064e+17
19463.0	5.981059006420308e+17
19464.0	5.996151513808895e+17
19465.0	6.00998537138449e+17
19466.0	6.022631667706537e+17
19467.0	6.034166087592618e+17
19468.0	6.044726116133546e+17
19469.0	6.054210481859241e+17
19470.0	6.063073197206186e+17
19471.0	6.071078127053482e+17
19472.0	6.078659172149929e+17
19473.0	6.085773761708032e+17
19474.0	6.092194158302547e+17
19475.0	6.098154929083731e+17
19476.0	6.103968932779347e+17
19477.0	6.109255550981459e+17
19478.0	6.114104473288701e+17
19479.0	6.118409382483284e+17
19480.0	6.122588741479082e+17
19481.0	6.126438695217833e+17
19482.0	6.129960666966697e+17
19483.0	6.133279523252906e+17
19484.0	6.136383295629993e+17
19485.0	6.139259743021738e+17
19486.0	6.141758090685098e+17
19487.0	6.144472820394665e+17
19488.0	6.146788630549844e+17
19489.0	6.148755455737856e+17
19490.0	6.150523606532095e+17
19491.0	6.152689733861376e+17
19492.0	6.154481525850111e+17
19493.0	6.156011874287615e+17
19494.0	6.157329841345876e+17
19495.0	6.158482043218601e+17
19496.0	6.159320309825535e+17
19497.0	6.159483906555903e+17
19498.0	6.151626834313212e+17
19499.0	6.138567657695913e+17
19500.0	6.160925012088148e+17
19501.0	6.163634384273405e+17
19502.0	6.164745614786559e+17
19503.0	6.165514129418921e+17
19504.0	6.166105097065812e+17
19505.0	6.166570592108543e+17
19506.0	6.166961930458452e+17
19507.0	6.167223937444522e+17
19508.0	6.167357442839892e+17
19509.0	6.167310261813247e+17
19510.0	6.165253300333225e+17
19511.0	6.120521504653295e+17
19512.0	6.157770075493716e+17
19513.0	6.158814238386856e+17
19514.0	6.160470435517778e+17
19515.0	6.167058316962473e+17
19516.0	6.167760161734655e+17
19517.0	6.167889017744041e+17
19518.0	6.167769393397759e+17
19519.0	6.167557058155859e+17
19520.0	6.167223357931517e+17
19521.0	6.167251103951529e+17
19522.0	6.166879403332948e+17
19523.0	6.166540440655188e+17
19524.0	6.166114681749504e+17
19525.0	6.165885077858986e+17
19526.0	6.165485183128916e+17
19527.0	6.165045339051347e+17
19528.0	6.164561526084948e+17
19529.0	6.164073822202537e+17
19530.0	6.163608053131946e+17
19531.0	6.163120047958697e+17
19532.0	6.162659971257684e+17
19533.0	6.162101032015188e+17
19534.0	6.16152209433122e+17
19535.0	6.160918499033087e+17
19536.0	6.160281398236499e+17
19537.0	6.159648873425578e+17
19538.0	6.158698073642324e+17
19539.0	6.158180455983785e+17
19540.0	6.157628755410944e+17
19541.0	6.156912250847231e+17
19542.0	6.156235367077204e+17
19543.0	6.155349174954665e+17
19544.0	6.154831451040426e+17
19545.0	6.153884870726995e+17
19546.0	6.153098416357375e+17
19547.0	6.152599524868096e+17
19548.0	6.151858619940863e+17
19549.0	6.151007293669373e+17
19550.0	6.150280290762751e+17
19551.0	6.149472455928489e+17
19552.0	6.148653722195284e+17
19553.0	6.147818888626175e+17
19554.0	6.146984608705194e+17
19555.0	6.146116308784468e+17
19556.0	6.145290691499348e+17
19557.0	6.14447191232785e+17
19558.0	6.143651501572095e+17
19559.0	6.142788496261119e+17
19560.0	6.141813906385578e+17
19561.0	6.141018954356052e+17
19562.0	6.140071923154943e+17
19563.0	6.139265456362836e+17
19564.0	6.138369822861993e+17
19565.0	6.137468074764969e+17
19566.0	6.136549536869034e+17
19567.0	6.135648933817001e+17
19568.0	6.134715246794067e+17
19569.0	6.133801967856298e+17
19570.0	6.132884540751871e+17
19571.0	6.131953101875881e+17
19572.0	6.130996531429375e+17
19573.0	6.130041835836756e+17
19574.0	6.129052689629183e+17
19575.0	6.128183134912511e+17
19576.0	6.127208984739839e+17
19577.0	6.126237260972032e+17
19578.0	6.12532895158545e+17
19579.0	6.124351434085716e+17
19580.0	6.123385172699818e+17
19581.0	6.122427557172564e+17
19582.0	6.121454403846141e+17
19583.0	6.120471719662932e+17
19584.0	6.119469249549652e+17
19585.0	6.118408346490196e+17
19586.0	6.117388853095084e+17
19587.0	6.116478368961875e+17
19588.0	6.115479844290559e+17
19589.0	6.114583713065642e+17
19590.0	6.113570973199017e+17
19591.0	6.112637264505513e+17
19592.0	6.111647110266879e+17
19593.0	6.110604261588991e+17
19594.0	6.109444102422527e+17
19595.0	6.108610601243988e+17
19596.0	6.107352807069012e+17
19597.0	6.106585811473748e+17
19598.0	6.105394682265599e+17
19599.0	6.104547706885462e+17
19600.0	6.103541433936553e+17
19601.0	6.102474065357482e+17
19602.0	6.101399653842944e+17
19603.0	6.100247530263892e+17
19604.0	6.099315846720169e+17
19605.0	6.09824405524753e+17
19606.0	6.09739496034577e+17
19607.0	6.096395759692457e+17
19608.0	6.095360025253203e+17
19609.0	6.094315101093887e+17
19610.0	6.093201060397055e+17
19611.0	6.092120434322089e+17
19612.0	6.091235206190419e+17
19613.0	6.090186800758783e+17
19614.0	6.08911813124642e+17
19615.0	6.088059668572842e+17
19616.0	6.086808746065919e+17
19617.0	6.085793102342825e+17
19618.0	6.084640699143508e+17
19619.0	6.083488192484692e+17
19620.0	6.082533320032255e+17
19621.0	6.081524787751593e+17
19622.0	6.080717874965162e+17
19623.0	6.079638733673812e+17
19624.0	6.078516422508543e+17
19625.0	6.077447758588585e+17
19626.0	6.076273627496447e+17
19627.0	6.074967740732756e+17
19628.0	6.073413906290006e+17
19629.0	6.070849320080724e+17
19630.0	6.067029942818132e+17
19631.0	6.063145602777087e+17
19632.0	6.067359232032767e+17
19633.0	6.067948284280831e+17
19634.0	6.067554294431743e+17
19635.0	6.066724599584084e+17
19636.0	6.065624116275882e+17
19637.0	6.064404108585641e+17
19638.0	6.063860092676777e+17
19639.0	6.062838811110057e+17
19640.0	6.061666951233535e+17
19641.0	6.060387052377428e+17
19642.0	6.059689171921577e+17
19643.0	6.058640830103552e+17
19644.0	6.057570280144896e+17
19645.0	6.056494967554047e+17
19646.0	6.055259647858003e+17
19647.0	6.054465657023146e+17
19648.0	6.053416765751295e+17
19649.0	6.0523594397341e+17
19650.0	6.051301262273193e+17
19651.0	6.050236810133504e+17
19652.0	6.04917529190946e+17
19653.0	6.048108756598783e+17
19654.0	6.047051683637929e+17
19655.0	6.045988914812244e+17
19656.0	6.044931128819711e+17
19657.0	6.043869813320361e+17
19658.0	6.042803970069844e+17
19659.0	6.041742010744831e+17
19660.0	6.040677333510825e+17
19661.0	6.039610604563112e+17
19662.0	6.038538983658836e+17
19663.0	6.037454624653312e+17
19664.0	6.036380067037183e+17
19665.0	6.035343345538388e+17
