# Flux units: erg / (cm m2 s)
# Wavelength units: Angstrom
wave	flux
19000.0	6.971994955666771e+17
19001.0	6.970626977125716e+17
19002.0	6.969429868937216e+17
19003.0	6.968144441289385e+17
19004.0	6.966859103819092e+17
19005.0	6.965576699565396e+17
19006.0	6.964291189429587e+17
19007.0	6.962985473933311e+17
19008.0	6.96166861906466e+17
19009.0	6.960360725326505e+17
19010.0	6.958750079735123e+17
19011.0	6.957824647801513e+17
19012.0	6.956357362122751e+17
19013.0	6.955270016073725e+17
19014.0	6.953933214493353e+17
19015.0	6.953324980294996e+17
19016.0	6.952627125704022e+17
19017.0	6.951378663156393e+17
19018.0	6.950072285659135e+17
19019.0	6.948789916357972e+17
19020.0	6.947484487472467e+17
19021.0	6.94621035438626e+17
19022.0	6.944921334317056e+17
19023.0	6.94359095841041e+17
19024.0	6.9423167190685e+17
19025.0	6.941028240763562e+17
19026.0	6.939712362468691e+17
19027.0	6.938300170371071e+17
19028.0	6.937156217995263e+17
19029.0	6.935859859292159e+17
19030.0	6.934579732545535e+17
19031.0	6.933284544053247e+17
19032.0	6.931988422328319e+17
19033.0	6.930612606730239e+17
19034.0	6.929374496423936e+17
19035.0	6.927986909511679e+17
19036.0	6.916366414118907e+17
19037.0	6.925437562606932e+17
19038.0	6.924183134360916e+17
19039.0	6.922915961722196e+17
19040.0	6.921622017540095e+17
19041.0	6.920319110130345e+17
19042.0	6.918931517625683e+17
19043.0	6.917733904722602e+17
19044.0	6.916425644681897e+17
19045.0	6.915132431706793e+17
19046.0	6.913799083436713e+17
19047.0	6.912527981434195e+17
19048.0	6.911070346149887e+17
19049.0	6.909848291639293e+17
19050.0	6.908600619018921e+17
19051.0	6.905670074193234e+17
19052.0	6.905743095627775e+17
19053.0	6.904741538474666e+17
19054.0	6.903454705734995e+17
19055.0	6.9019320713216e+17
19056.0	6.900831553060863e+17
19057.0	6.899553257127935e+17
19058.0	6.89823234916352e+17
19059.0	6.896954303490729e+17
19060.0	6.895644823606612e+17
19061.0	6.894364598992893e+17
19062.0	6.893061101584383e+17
19063.0	6.891762750586879e+17
19064.0	6.890362885548713e+17
19065.0	6.889011259200852e+17
19066.0	6.887806144086015e+17
19067.0	6.88656609391411e+17
19068.0	6.885266395845972e+17
19069.0	6.883967096236713e+17
19070.0	6.882646397987498e+17
19071.0	6.881361628845398e+17
19072.0	6.880058610286591e+17
19073.0	6.878762731831293e+17
19074.0	6.877466958233597e+17
19075.0	6.876166308757501e+17
19076.0	6.874849001603072e+17
19077.0	6.873553500635133e+17
19078.0	6.872243095207935e+17
19079.0	6.870962999918591e+17
19080.0	6.869650269448873e+17
19081.0	6.868323808925012e+17
19082.0	6.867025506861056e+17
19083.0	6.865663752667135e+17
19084.0	6.864255995346943e+17
19085.0	6.863154675974143e+17
19086.0	6.861498211805866e+17
19087.0	6.860282071962963e+17
19088.0	6.859132162976425e+17
19089.0	6.85765277393442e+17
19090.0	6.856605924589568e+17
19091.0	6.85531985940753e+17
19092.0	6.853932011050324e+17
19093.0	6.852745843703807e+17
19094.0	6.851447903748095e+17
19095.0	6.850147352838143e+17
19096.0	6.848834980282367e+17
19097.0	6.847545470877695e+17
19098.0	6.846238443962367e+17
19099.0	6.844935714111487e+17
19100.0	6.8436221769373e+17
19101.0	6.842334313796948e+17
19102.0	6.840957919384916e+17
19103.0	6.839739942436863e+17
19104.0	6.838437952880639e+17
19105.0	6.837114522042367e+17
19106.0	6.835785440777555e+17
19107.0	6.834508519178239e+17
19108.0	6.833205701946026e+17
19109.0	6.831132263841791e+17
19110.0	6.830548365694292e+17
19111.0	6.82931534237969e+17
19112.0	6.828018152505343e+17
19113.0	6.826724559945727e+17
19114.0	6.825421649739775e+17
19115.0	6.824062288396287e+17
19116.0	6.82279901855744e+17
19117.0	6.821495999299583e+17
19118.0	6.820098522917546e+17
19119.0	6.815430967208612e+17
19120.0	6.817503093893801e+17
19121.0	6.816241591255039e+17
19122.0	6.815009053081599e+17
19123.0	6.813707554258943e+17
19124.0	6.812345457530196e+17
19125.0	6.811097138987007e+17
19126.0	6.809783313803946e+17
19127.0	6.807055796360531e+17
19128.0	6.807042543757993e+17
19129.0	6.805818850672639e+17
19130.0	6.804578583795027e+17
19131.0	6.803289251949225e+17
19132.0	6.801985126793215e+17
19133.0	6.800597201540435e+17
19134.0	6.799309431373823e+17
19135.0	6.798075327326889e+17
19136.0	6.796779007770623e+17
19137.0	6.795345577814697e+17
19138.0	6.794160224163155e+17
19139.0	6.792871881474047e+17
19140.0	6.79157108310016e+17
19141.0	6.790268491661311e+17
19142.0	6.788943938147668e+17
19143.0	6.787617926414336e+17
19144.0	6.785908161030828e+17
19145.0	6.784023516239187e+17
19146.0	6.782213311954944e+17
19147.0	6.781343233649321e+17
19148.0	6.7801038468765e+17
19149.0	6.778801265224361e+17
19150.0	6.777502953373693e+17
19151.0	6.776205710371497e+17
19152.0	6.774888789093034e+17
19153.0	6.773566650100394e+17
19154.0	6.772189095264255e+17
19155.0	6.770986927347028e+17
19156.0	6.769676296825514e+17
19157.0	6.768319075276115e+17
19158.0	6.766575579998889e+17
19159.0	6.765725274341375e+17
19160.0	6.764439520236884e+17
19161.0	6.763122293473279e+17
19162.0	6.760622826629802e+17
19163.0	6.760440108766548e+17
19164.0	6.759240932786175e+17
19165.0	6.757907138521769e+17
19166.0	6.756520083587072e+17
19167.0	6.755218194694143e+17
19168.0	6.754013062103039e+17
19169.0	6.752700996430505e+17
19170.0	6.75141783790114e+17
19171.0	6.750053068701695e+17
19172.0	6.748797087165098e+17
19173.0	6.747502794156714e+17
19174.0	6.746156022016681e+17
19175.0	6.744896620025172e+17
19176.0	6.743590137670314e+17
19177.0	6.742150966411261e+17
19178.0	6.740931567594153e+17
19179.0	6.739574290120703e+17
19180.0	6.738341432481107e+17
19181.0	6.736955547058173e+17
19182.0	6.735732009162068e+17
19183.0	6.734437411367593e+17
19184.0	6.733121291900244e+17
19185.0	6.731815972765695e+17
19186.0	6.730509615540906e+17
19187.0	6.729138131260756e+17
19188.0	6.727888370576042e+17
19189.0	6.726576202842111e+17
19190.0	6.725257217966079e+17
19191.0	6.723917934755839e+17
19192.0	6.722644548255743e+17
19193.0	6.721326367287978e+17
19194.0	6.720000310116352e+17
19195.0	6.718690327614804e+17
19196.0	6.717349045818707e+17
19197.0	6.715988217866921e+17
19198.0	6.714465672232959e+17
19199.0	6.705737963143165e+17
19200.0	6.706357118610092e+17
19201.0	6.710559797237076e+17
19202.0	6.709433643390292e+17
19203.0	6.708144854706857e+17
19204.0	6.706849231405055e+17
19205.0	6.705553188672852e+17
19206.0	6.7042428860061e+17
19207.0	6.702854709794131e+17
19208.0	6.701447118847999e+17
19209.0	6.700297904018772e+17
19210.0	6.698984691903146e+17
19211.0	6.697674119402836e+17
19212.0	6.696352650799785e+17
19213.0	6.694908119220223e+17
19214.0	6.693203968611667e+17
19215.0	6.691769131466751e+17
19216.0	6.690480048482985e+17
19217.0	6.689152806420479e+17
19218.0	6.687169327748435e+17
19219.0	6.686369412459176e+17
19220.0	6.685167236852393e+17
19221.0	6.68360787431697e+17
19222.0	6.682526232521385e+17
19223.0	6.681194078928895e+17
19224.0	6.679844865004884e+17
19225.0	6.678443666877097e+17
19226.0	6.67720941113617e+17
19227.0	6.675878550787412e+17
19228.0	6.674573248430079e+17
19229.0	6.672640153834836e+17
19230.0	6.670556668275369e+17
19231.0	6.669216170115071e+17
19232.0	6.667888359724372e+17
19233.0	6.666501439007401e+17
19234.0	6.665208906907647e+17
19235.0	6.663873230798845e+17
19236.0	6.662555759367508e+17
19237.0	6.661205788371625e+17
19238.0	6.659794129649661e+17
19239.0	6.658542574501887e+17
19240.0	6.657186732179455e+17
19241.0	6.655836778659837e+17
19242.0	6.654504542579369e+17
19243.0	6.653031098963283e+17
19244.0	6.651831623090175e+17
19245.0	6.650480149834409e+17
19246.0	6.649123622442324e+17
19247.0	6.647788880265215e+17
19248.0	6.646440318555476e+17
19249.0	6.645087443004073e+17
19250.0	6.643718819239252e+17
19251.0	6.642291889755476e+17
19252.0	6.64077422699042e+17
19253.0	6.639650067535188e+17
19254.0	6.638310434799615e+17
19255.0	6.636786657438377e+17
19256.0	6.635568544175444e+17
19257.0	6.63422934135603e+17
19258.0	6.632864117074602e+17
19259.0	6.631432752813396e+17
19260.0	6.629926892819795e+17
19261.0	6.628747706193235e+17
19262.0	6.627336547991551e+17
19263.0	6.624850177163263e+17
19264.0	6.622456806637567e+17
19265.0	6.621357258659155e+17
19266.0	6.619982680380756e+17
19267.0	6.618764402840915e+17
19268.0	6.617383248592895e+17
19269.0	6.615999228936191e+17
19270.0	6.614606986346495e+17
19271.0	6.612952803879596e+17
19272.0	6.611800994873343e+17
19273.0	6.609814932510035e+17
19274.0	6.608506982847827e+17
19275.0	6.607647725846527e+17
19276.0	6.606234587933353e+17
19277.0	6.604837568031402e+17
19278.0	6.603436597794131e+17
19279.0	6.602019359948799e+17
19280.0	6.600559126293161e+17
19281.0	6.599199560127827e+17
19282.0	6.597793967767551e+17
19283.0	6.59563779072546e+17
19284.0	6.592534454555988e+17
19285.0	6.590255483671892e+17
19286.0	6.588934305174868e+17
19287.0	6.587524103973545e+17
19288.0	6.583319575658492e+17
19289.0	6.577844900943176e+17
19290.0	6.583209143828479e+17
19291.0	6.581563748428458e+17
19292.0	6.580339634514602e+17
19293.0	6.578883765731327e+17
19294.0	6.577424556184915e+17
19295.0	6.575975209544362e+17
19296.0	6.574502414647295e+17
19297.0	6.571844064073046e+17
19298.0	6.568832929890304e+17
19299.0	6.567373870639785e+17
19300.0	6.565905120449876e+17
19301.0	6.564419365852499e+17
19302.0	6.562925973427539e+17
19303.0	6.561382282909012e+17
19304.0	6.559921636114431e+17
19305.0	6.558431118185812e+17
19306.0	6.556929271442089e+17
19307.0	6.555376820420607e+17
19308.0	6.552583828493652e+17
19309.0	6.550477217639081e+17
19310.0	6.548840279354025e+17
19311.0	6.547111910834176e+17
19312.0	6.544743241962835e+17
19313.0	6.543199106149034e+17
19314.0	6.532619895657809e+17
19315.0	6.531794696405006e+17
19316.0	6.538472911273983e+17
19317.0	6.53694950510865e+17
19318.0	6.535361200477523e+17
19319.0	6.533776641359872e+17
19320.0	6.532178161347242e+17
19321.0	6.530571009611091e+17
19322.0	6.52888698467123e+17
19323.0	6.527245649357482e+17
19324.0	6.52570560438818e+17
19325.0	6.523880424341504e+17
19326.0	6.522433467056127e+17
19327.0	6.518936470290431e+17
19328.0	6.517154020414804e+17
19329.0	6.515487720603648e+17
19330.0	6.513762274814633e+17
19331.0	6.51204887716386e+17
19332.0	6.510371493904383e+17
19333.0	6.508641105128105e+17
19334.0	6.506910958223359e+17
19335.0	6.505134707529044e+17
19336.0	6.503406003464874e+17
19337.0	6.499835268038656e+17
19338.0	6.49703613145634e+17
19339.0	6.495385357560489e+17
19340.0	6.493488887627775e+17
19341.0	6.491684358935891e+17
19342.0	6.489561056848552e+17
19343.0	6.487999980240895e+17
19344.0	6.48578516682888e+17
19345.0	6.479267848956582e+17
19346.0	6.478215077953533e+17
19347.0	6.476852845608959e+17
19348.0	6.474945968209919e+17
19349.0	6.47292192362769e+17
19350.0	6.470127327379457e+17
19351.0	6.464601974986067e+17
19352.0	6.462442313875455e+17
19353.0	6.460384626780842e+17
19354.0	6.458227696162132e+17
19355.0	6.453656873686358e+17
19356.0	6.448587307220991e+17
19357.0	6.446273631267497e+17
19358.0	6.443925279604736e+17
19359.0	6.438305451212803e+17
19360.0	6.432798151802877e+17
19361.0	6.430271195490985e+17
19362.0	6.426933952075091e+17
19363.0	6.421370403553279e+17
19364.0	6.418593770810025e+17
19365.0	6.41578375979554e+17
19366.0	6.412940110462975e+17
19367.0	6.410063431685459e+17
19368.0	6.407153147445247e+17
19369.0	6.404168032627369e+17
19370.0	6.401172621492224e+17
19371.0	6.398178804891647e+17
19372.0	6.395179854462976e+17
19373.0	6.392094782390271e+17
19374.0	6.38900792004881e+17
19375.0	6.3858732971677e+17
19376.0	6.382713871269887e+17
19377.0	6.379521399149908e+17
19378.0	6.376307104066217e+17
19379.0	6.373065230035625e+17
19380.0	6.369790955705683e+17
19381.0	6.366369293533183e+17
19382.0	6.362787908070057e+17
19383.0	6.359190444441599e+17
19384.0	6.3556381849245e+17
19385.0	6.351958094905344e+17
19386.0	6.348225052497236e+17
19387.0	6.344434495695529e+17
19388.0	6.340589895985834e+17
19389.0	6.336694402591402e+17
19390.0	6.332724170893994e+17
19391.0	6.320572356449608e+17
19392.0	6.324502762531497e+17
19393.0	6.320568664063999e+17
19394.0	6.316396121511252e+17
19395.0	6.312078285471744e+17
19396.0	6.307685140703914e+17
19397.0	6.303325091091795e+17
19398.0	6.298862148212052e+17
19399.0	6.293867755558227e+17
19400.0	6.289755903885311e+17
19401.0	6.285178519420927e+17
19402.0	6.280511645286397e+17
19403.0	6.275752280457213e+17
19404.0	6.270946911802707e+17
19405.0	6.266037585226408e+17
19406.0	6.260796043209385e+17
19407.0	6.255544461426688e+17
19408.0	6.249823474111828e+17
19409.0	6.245040700172969e+17
19410.0	6.239667551382185e+17
19411.0	6.233866002672297e+17
19412.0	6.227624778356052e+17
19413.0	6.221811421282304e+17
19414.0	6.215677854263977e+17
19415.0	6.208392189531476e+17
19416.0	6.201997379589459e+17
19417.0	6.194269374469458e+17
19418.0	6.186983631443284e+17
19419.0	6.178523911815165e+17
19420.0	6.169893869890217e+17
19421.0	6.158618693642922e+17
19422.0	6.147099213168635e+17
19423.0	6.133787384960342e+17
19424.0	6.118282334917966e+17
19425.0	6.099982845214723e+17
19426.0	6.078076212128424e+17
19427.0	6.051857556307967e+17
19428.0	6.034636215244116e+17
19429.0	6.020073645583018e+17
19430.0	6.00467509870592e+17
19431.0	5.987720477627734e+17
19432.0	5.972284188306089e+17
19433.0	5.955223479997782e+17
19434.0	5.936674461362857e+17
19435.0	5.916790859235325e+17
19436.0	5.894352538697728e+17
19437.0	5.870679427645439e+17
19438.0	5.83108239609037e+17
19439.0	5.808456000864253e+17
19440.0	5.770256249957038e+17
19441.0	5.7233750866875706e+17
19442.0	5.6679200180578963e+17
19443.0	5.6079677390848e+17
19444.0	5.552071461131602e+17
19445.0	5.485208171533656e+17
19446.0	5.4012779366973446e+17
19447.0	5.294253931145892e+17
19448.0	5.1526780349754086e+17
19449.0	4.952685505675262e+17
19450.0	4.627838377743685e+17
19451.0	4.458112216640183e+17
19452.0	4.8106096093211405e+17
19453.0	5.0623943663069946e+17
19454.0	5.225492553312932e+17
19455.0	5.345559409852415e+17
19456.0	5.4372214875968864e+17
19457.0	5.509909810511867e+17
19458.0	5.551565296719215e+17
19459.0	5.622433204316845e+17
19460.0	5.67956737517159e+17
19461.0	5.728673784485197e+17
19462.0	5.768519990553257e+17
19463.0	5.802141016915968e+17
19464.0	5.830506923600556e+17
19465.0	5.854485349225815e+17
19466.0	5.8751000786589e+17
19467.0	5.893410435803818e+17
19468.0	5.910684065857535e+17
19469.0	5.925764460795218e+17
19470.0	5.940637357222569e+17
19471.0	5.954613058469887e+17
19472.0	5.967805733492052e+17
19473.0	5.98042220831266e+17
19474.0	5.993200300152152e+17
19475.0	6.0129688930659e+17
19476.0	6.034625505787907e+17
19477.0	6.052612368848215e+17
19478.0	6.067399111475196e+17
19479.0	6.07957171638545e+17
19480.0	6.089787852543316e+17
19481.0	6.098049026402986e+17
19482.0	6.104863185655126e+17
19483.0	6.112412289728512e+17
19484.0	6.116868964220927e+17
19485.0	6.122820357237418e+17
19486.0	6.127079208080724e+17
19487.0	6.131477746723497e+17
19488.0	6.135985572850346e+17
19489.0	6.13943840149777e+17
19490.0	6.142072286696787e+17
19491.0	6.146966407522986e+17
19492.0	6.150099981828095e+17
19493.0	6.153092112318463e+17
19494.0	6.15598215275042e+17
19495.0	6.158767404788394e+17
19496.0	6.161501561115987e+17
19497.0	6.164378905389737e+17
19498.0	6.166002895159296e+17
19499.0	6.156222680006644e+17
19500.0	6.171621865117011e+17
19501.0	6.173928702257834e+17
19502.0	6.176148090257407e+17
19503.0	6.178315586327892e+17
19504.0	6.180401471728298e+17
19505.0	6.182426995501738e+17
19506.0	6.184386118549503e+17
19507.0	6.186361970578772e+17
19508.0	6.188218816222548e+17
19509.0	6.189958568782506e+17
19510.0	6.191470895693821e+17
19511.0	6.176975749469513e+17
19512.0	6.192821003004581e+17
19513.0	6.192486523338746e+17
19514.0	6.195104472279718e+17
19515.0	6.198787975763286e+17
19516.0	6.200558532689919e+17
19517.0	6.20182407094818e+17
19518.0	6.203114551334227e+17
19519.0	6.204294008493395e+17
19520.0	6.205402604983636e+17
19521.0	6.206503042154496e+17
19522.0	6.207392306604712e+17
19523.0	6.208255778182484e+17
19524.0	6.209063221548372e+17
19525.0	6.209849370432852e+17
19526.0	6.210614322703017e+17
19527.0	6.211338336468991e+17
19528.0	6.212027967427924e+17
19529.0	6.212695422402559e+17
19530.0	6.213330284838911e+17
19531.0	6.213930286317565e+17
19532.0	6.214496766219604e+17
19533.0	6.215029114972842e+17
19534.0	6.215525329797119e+17
19535.0	6.215980967526399e+17
19536.0	6.216388451849556e+17
19537.0	6.216814303029929e+17
19538.0	6.217086886652586e+17
19539.0	6.21781664661504e+17
19540.0	6.221102656607572e+17
19541.0	6.221260161810431e+17
19542.0	6.221357882103124e+17
19543.0	6.226164174203566e+17
19544.0	6.227125089249962e+17
19545.0	6.22667641266722e+17
19546.0	6.226224730865663e+17
19547.0	6.230765067741861e+17
19548.0	6.231316982224212e+17
19549.0	6.230965697380351e+17
19550.0	6.230751747331412e+17
19551.0	6.230438769765033e+17
19552.0	6.233893541773312e+17
19553.0	6.233566176346111e+17
19554.0	6.233129153637034e+17
19555.0	6.2327057561245e+17
19556.0	6.23225970237986e+17
19557.0	6.231781596463103e+17
19558.0	6.233838374791853e+17
19559.0	6.233840399941631e+17
19560.0	6.233256958274217e+17
19561.0	6.232691218666835e+17
19562.0	6.232130105376767e+17
19563.0	6.231546811209044e+17
19564.0	6.23094697890065e+17
19565.0	6.230334702092287e+17
19566.0	6.231759487587667e+17
19567.0	6.231421063178922e+17
19568.0	6.230728984144553e+17
19569.0	6.230062644854783e+17
19570.0	6.22937801630242e+17
19571.0	6.228674038726655e+17
19572.0	6.227938501110441e+17
19573.0	6.227228838155603e+17
19574.0	6.226431963736746e+17
19575.0	6.2257707366045e+17
19576.0	6.225020877537277e+17
19577.0	6.225920372594003e+17
19578.0	6.225198169369257e+17
19579.0	6.224415943557119e+17
19580.0	6.223620982439935e+17
19581.0	6.222826591049044e+17
19582.0	6.222028527545001e+17
19583.0	6.221209728101033e+17
19584.0	6.220381631283199e+17
19585.0	6.219456583128403e+17
19586.0	6.218589214343167e+17
19587.0	6.217821382683305e+17
19588.0	6.216645548004692e+17
19589.0	6.216132888013482e+17
19590.0	6.215213163828563e+17
19591.0	6.214422617915391e+17
19592.0	6.213549021986815e+17
19593.0	6.212654283969876e+17
19594.0	6.212779047037609e+17
19595.0	6.212091094499327e+17
19596.0	6.212028961477972e+17
19597.0	6.211752348527274e+17
19598.0	6.210570951502505e+17
19599.0	6.209936739882323e+17
19600.0	6.209025033109503e+17
19601.0	6.208043978413395e+17
19602.0	6.20712376279586e+17
19603.0	6.205806407406932e+17
19604.0	6.205241740842324e+17
19605.0	6.204110251141801e+17
19606.0	6.203410976079871e+17
19607.0	6.203173708496896e+17
19608.0	6.203887737023146e+17
19609.0	6.20290326536738e+17
19610.0	6.2019826890397e+17
19611.0	6.201013665704618e+17
19612.0	6.200061778198527e+17
19613.0	6.19908336591394e+17
19614.0	6.198085045365418e+17
19615.0	6.197141666004992e+17
19616.0	6.196079903113215e+17
19617.0	6.195166834589696e+17
19618.0	6.193734494453759e+17
19619.0	6.192780532165289e+17
19620.0	6.191874719787689e+17
19621.0	6.191407293967018e+17
19622.0	6.19161401233681e+17
19623.0	6.191328314523647e+17
19624.0	6.190318363170131e+17
19625.0	6.190033941823488e+17
19626.0	6.18910603944482e+17
19627.0	6.188083635202729e+17
19628.0	6.186886028591101e+17
19629.0	6.18590806020369e+17
19630.0	6.18416414269986e+17
19631.0	6.175845448854185e+17
19632.0	6.182897491552937e+17
19633.0	6.181923798559402e+17
19634.0	6.18095500730914e+17
19635.0	6.179899529581908e+17
19636.0	6.178896260453716e+17
19637.0	6.17754945056495e+17
19638.0	6.176839596070227e+17
19639.0	6.175802386634068e+17
19640.0	6.174703485976575e+17
19641.0	6.173070537173676e+17
19642.0	6.17269147345442e+17
19643.0	6.171648979894272e+17
19644.0	6.170560404215124e+17
19645.0	6.169350474738346e+17
19646.0	6.169828055668052e+17
19647.0	6.168950359108265e+17
19648.0	6.167902445109247e+17
19649.0	6.166850385739775e+17
19650.0	6.16580127007266e+17
19651.0	6.164742996142761e+17
19652.0	6.163692596319572e+17
19653.0	6.162637867974655e+17
19654.0	6.161575187229354e+17
19655.0	6.160521318017705e+17
19656.0	6.159460621178195e+17
19657.0	6.158406324846591e+17
19658.0	6.157345205081428e+17
19659.0	6.156281649823744e+17
19660.0	6.155219755510441e+17
19661.0	6.154155342517588e+17
19662.0	6.153089347573076e+17
19663.0	6.151982554633558e+17
19664.0	6.150920881919316e+17
19665.0	6.149887724879871e+17
