# Flux units: erg / (cm m2 s)
# Wavelength units: Angstrom
wave	flux
19000.0	7.679663121192275e+17
19001.0	7.678206836473855e+17
19002.0	7.676784072633e+17
19003.0	7.675343860487508e+17
19004.0	7.673903361731242e+17
19005.0	7.672463408234493e+17
19006.0	7.671022737511766e+17
19007.0	7.669516112756735e+17
19008.0	7.668129471660032e+17
19009.0	7.666692914151421e+17
19010.0	7.665178486592851e+17
19011.0	7.663810104699561e+17
19012.0	7.662289599594493e+17
19013.0	7.660932313033386e+17
19014.0	7.659480637855059e+17
19015.0	7.658047644106751e+17
19016.0	7.656595479592957e+17
19017.0	7.655140931316393e+17
19018.0	7.653713956394323e+17
19019.0	7.652276603366057e+17
19020.0	7.650826959628969e+17
19021.0	7.649385146657449e+17
19022.0	7.647947314080426e+17
19023.0	7.64650379542528e+17
19024.0	7.645058640991572e+17
19025.0	7.643613206937599e+17
19026.0	7.642160663538344e+17
19027.0	7.640660988745042e+17
19028.0	7.639285828856489e+17
19029.0	7.63784192013107e+17
19030.0	7.636398086903123e+17
19031.0	7.634954127846057e+17
19032.0	7.63351009329152e+17
19033.0	7.632050757915987e+17
19034.0	7.630621650889385e+17
19035.0	7.629169897417386e+17
19036.0	7.622868995844773e+17
19037.0	7.626288377014954e+17
19038.0	7.624845098833236e+17
19039.0	7.62340102373376e+17
19040.0	7.621956818610857e+17
19041.0	7.620512553369599e+17
19042.0	7.61905444692514e+17
19043.0	7.617624380801024e+17
19044.0	7.616179689138858e+17
19045.0	7.614735882474834e+17
19046.0	7.613282793816064e+17
19047.0	7.6118468081309e+17
19048.0	7.610368552250026e+17
19049.0	7.608947738760531e+17
19050.0	7.607507336473258e+17
19051.0	7.605326635335679e+17
19052.0	7.604561908858879e+17
19053.0	7.603165792829439e+17
19054.0	7.601738483761152e+17
19055.0	7.60025101439249e+17
19056.0	7.598850604793853e+17
19057.0	7.597405551023444e+17
19058.0	7.59594656796945e+17
19059.0	7.594518949920768e+17
19060.0	7.593071060800851e+17
19061.0	7.591631497374377e+17
19062.0	7.590187060166656e+17
19063.0	7.588743918998867e+17
19064.0	7.587281243559254e+17
19065.0	7.585825565616809e+17
19066.0	7.584402494193661e+17
19067.0	7.582970386841597e+17
19068.0	7.581527084892157e+17
19069.0	7.580084097515519e+17
19070.0	7.578639075901439e+17
19071.0	7.57719795499008e+17
19072.0	7.575755022139392e+17
19073.0	7.574311207086762e+17
19074.0	7.572869333996883e+17
19075.0	7.571426601074687e+17
19076.0	7.569980122639016e+17
19077.0	7.568539871346688e+17
19078.0	7.567091705402708e+17
19079.0	7.565656558578345e+17
19080.0	7.564213579590312e+17
19081.0	7.56276416234564e+17
19082.0	7.56132123788356e+17
19083.0	7.559870061827411e+17
19084.0	7.558402184052733e+17
19085.0	7.557003583597225e+17
19086.0	7.555492549230591e+17
19087.0	7.55397241741858e+17
19088.0	7.552659811379881e+17
19089.0	7.551128526913533e+17
19090.0	7.549793246467411e+17
19091.0	7.548349274827433e+17
19092.0	7.546869244755968e+17
19093.0	7.545473004295508e+17
19094.0	7.544019012463274e+17
19095.0	7.542574550089727e+17
19096.0	7.541144331572564e+17
19097.0	7.539709521690621e+17
19098.0	7.5382705384762e+17
19099.0	7.536829785265491e+17
19100.0	7.535382089083562e+17
19101.0	7.533949914622633e+17
19102.0	7.532495636179625e+17
19103.0	7.531069895781033e+17
19104.0	7.529629847213396e+17
19105.0	7.528189718953981e+17
19106.0	7.526723363711657e+17
19107.0	7.525307667273044e+17
19108.0	7.523870261116925e+17
19109.0	7.521913917494611e+17
19110.0	7.520984963044691e+17
19111.0	7.519553530975572e+17
19112.0	7.518114954608637e+17
19113.0	7.516676126583466e+17
19114.0	7.515237353084246e+17
19115.0	7.513785594019837e+17
19116.0	7.512359982246569e+17
19117.0	7.510918016882004e+17
19118.0	7.509443902177279e+17
19119.0	7.507651922143912e+17
19120.0	7.5065668417181e+17
19121.0	7.505142303686655e+17
19122.0	7.503730651955199e+17
19123.0	7.502290499928063e+17
19124.0	7.50082456691234e+17
19125.0	7.499409775045288e+17
19126.0	7.497968689086463e+17
19127.0	7.49626160596036e+17
19128.0	7.494712354493778e+17
19129.0	7.493649164140544e+17
19130.0	7.492227562121897e+17
19131.0	7.490782818729981e+17
19132.0	7.48935318741538e+17
19133.0	7.48779344040209e+17
19134.0	7.486295932665855e+17
19135.0	7.485041841362259e+17
19136.0	7.48360677143347e+17
19137.0	7.482142215547561e+17
19138.0	7.480696085239123e+17
19139.0	7.479295769313279e+17
19140.0	7.477861124407293e+17
19141.0	7.476425095380991e+17
19142.0	7.474988739198972e+17
19143.0	7.473543538627923e+17
19144.0	7.472116050602664e+17
19145.0	7.470678694778195e+17
19146.0	7.469134427542868e+17
19147.0	7.467795056252244e+17
19148.0	7.466370076420777e+17
19149.0	7.464935508410365e+17
19150.0	7.46349907812898e+17
19151.0	7.462066438100306e+17
19152.0	7.460623703780008e+17
19153.0	7.459195582414847e+17
19154.0	7.457738636394497e+17
19155.0	7.456324361824936e+17
19156.0	7.454887781946708e+17
19157.0	7.453442651280726e+17
19158.0	7.451664631289172e+17
19159.0	7.450575823525204e+17
19160.0	7.449137645617151e+17
19161.0	7.447670501845674e+17
19162.0	7.445479769331028e+17
19163.0	7.444831411022505e+17
19164.0	7.44340694709043e+17
19165.0	7.441959431263572e+17
19166.0	7.440504614551551e+17
19167.0	7.439026898337792e+17
19168.0	7.43764607054643e+17
19169.0	7.436209851378345e+17
19170.0	7.434796612801876e+17
19171.0	7.433321059450879e+17
19172.0	7.431926008774656e+17
19173.0	7.430491133181952e+17
19174.0	7.429048858836991e+17
19175.0	7.427622938083327e+17
19176.0	7.426187731140605e+17
19177.0	7.424726917971965e+17
19178.0	7.42330229465634e+17
19179.0	7.42182122160128e+17
19180.0	7.420381911231144e+17
19181.0	7.41899169518933e+17
19182.0	7.417564359557117e+17
19183.0	7.416133060307625e+17
19184.0	7.414679954871636e+17
19185.0	7.413268149349032e+17
19186.0	7.411833874939901e+17
19187.0	7.410386441601023e+17
19188.0	7.40895797350673e+17
19189.0	7.4075084961437e+17
19190.0	7.40606860276531e+17
19191.0	7.404644489756671e+17
19192.0	7.403212021694461e+17
19193.0	7.401729981153279e+17
19194.0	7.400321168965632e+17
19195.0	7.398901749383168e+17
19196.0	7.397466919927807e+17
19197.0	7.396025965390506e+17
19198.0	7.394571513582932e+17
19199.0	7.388369526281554e+17
19200.0	7.388570862660266e+17
19201.0	7.39008587182899e+17
19202.0	7.388619446681599e+17
19203.0	7.38717569594163e+17
19204.0	7.38574525792256e+17
19205.0	7.384312185880573e+17
19206.0	7.38287234003763e+17
19207.0	7.381427398115327e+17
19208.0	7.379964345188351e+17
19209.0	7.378558660553386e+17
19210.0	7.37711916982818e+17
19211.0	7.37567893950737e+17
19212.0	7.374239830463828e+17
19213.0	7.372748082905087e+17
19214.0	7.371283773085011e+17
19215.0	7.36990034202897e+17
19216.0	7.368473642532863e+17
19217.0	7.3670365048122e+17
19218.0	7.365459867336703e+17
19219.0	7.364124519781716e+17
19220.0	7.362708884859561e+17
19221.0	7.361209993003007e+17
19222.0	7.35982482550511e+17
19223.0	7.358380803533484e+17
19224.0	7.356925960257536e+17
19225.0	7.355467442771284e+17
19226.0	7.354048280439466e+17
19227.0	7.352603293777919e+17
19228.0	7.351157615056211e+17
19229.0	7.349711297402195e+17
19230.0	7.348248110257492e+17
19231.0	7.346806637024595e+17
19232.0	7.345362782825129e+17
19233.0	7.343908726680232e+17
19234.0	7.342468050365098e+17
19235.0	7.340899531664041e+17
19236.0	7.339413579235327e+17
19237.0	7.33796040529237e+17
19238.0	7.336489545367552e+17
19239.0	7.33506029293841e+17
19240.0	7.333567765239123e+17
19241.0	7.332142898653864e+17
19242.0	7.330700466323455e+17
19243.0	7.329215189177684e+17
19244.0	7.327790121265833e+17
19245.0	7.326334271356927e+17
19246.0	7.324874596242772e+17
19247.0	7.323418568774995e+17
19248.0	7.321960878964735e+17
19249.0	7.320501125556905e+17
19250.0	7.319039821654697e+17
19251.0	7.317562299777023e+17
19252.0	7.316060467713364e+17
19253.0	7.314652196590931e+17
19254.0	7.31318345478963e+17
19255.0	7.311688767023785e+17
19256.0	7.310242280199508e+17
19257.0	7.308789652914175e+17
19258.0	7.307321259240105e+17
19259.0	7.30583823163938e+17
19260.0	7.304314070499327e+17
19261.0	7.302908805294761e+17
19262.0	7.301432206163965e+17
19263.0	7.299954752793257e+17
19264.0	7.298404549219668e+17
19265.0	7.296976518731092e+17
19266.0	7.295506149539837e+17
19267.0	7.29404807385361e+17
19268.0	7.292566287766868e+17
19269.0	7.291082920427519e+17
19270.0	7.289597829229224e+17
19271.0	7.288059088688468e+17
19272.0	7.286617210006185e+17
19273.0	7.284089442795517e+17
19274.0	7.283105607275859e+17
19275.0	7.282148058857472e+17
19276.0	7.280653119433385e+17
19277.0	7.279155930464253e+17
19278.0	7.277656753395027e+17
19279.0	7.276142837541548e+17
19280.0	7.274639231287296e+17
19281.0	7.273146235224064e+17
19282.0	7.271637523103743e+17
19283.0	7.270056580874239e+17
19284.0	7.268470376191316e+17
19285.0	7.266948390496938e+17
19286.0	7.265285954338816e+17
19287.0	7.263771923841023e+17
19288.0	7.261099183308799e+17
19289.0	7.257422249503396e+17
19290.0	7.259198098243583e+17
19291.0	7.25762240029218e+17
19292.0	7.256135000828585e+17
19293.0	7.254597546541055e+17
19294.0	7.253059588937044e+17
19295.0	7.251517168593577e+17
19296.0	7.249971492072105e+17
19297.0	7.248422044871338e+17
19298.0	7.246869626705236e+17
19299.0	7.245313429471232e+17
19300.0	7.243753281202858e+17
19301.0	7.242188166878546e+17
19302.0	7.240620063413587e+17
19303.0	7.239033886692691e+17
19304.0	7.237463852449791e+17
19305.0	7.235893404368893e+17
19306.0	7.234307152150527e+17
19307.0	7.232704252739583e+17
19308.0	7.231119756536489e+17
19309.0	7.229374341666132e+17
19310.0	7.227698760559276e+17
19311.0	7.22629365334016e+17
19312.0	7.224699248792916e+17
19313.0	7.223098749921961e+17
19314.0	7.219548562391036e+17
19315.0	7.218006066550103e+17
19316.0	7.217833510087338e+17
19317.0	7.216203502889641e+17
19318.0	7.214554323528361e+17
19319.0	7.212898334015487e+17
19320.0	7.211231997154644e+17
19321.0	7.209565165365929e+17
19322.0	7.2078594174266e+17
19323.0	7.206125812318208e+17
19324.0	7.204507252774228e+17
19325.0	7.202681051414527e+17
19326.0	7.20109759959313e+17
19327.0	7.199380559189331e+17
19328.0	7.197657409082708e+17
19329.0	7.195922035376125e+17
19330.0	7.194170366798505e+17
19331.0	7.19241501422387e+17
19332.0	7.190433472621225e+17
19333.0	7.188390807426387e+17
19334.0	7.186601397103272e+17
19335.0	7.184809082923689e+17
19336.0	7.183000515816106e+17
19337.0	7.1811792385693e+17
19338.0	7.179312766298794e+17
19339.0	7.177502619336704e+17
19340.0	7.17561341813282e+17
19341.0	7.173500271853565e+17
19342.0	7.171547595451049e+17
19343.0	7.16945765905203e+17
19344.0	7.167181796147199e+17
19345.0	7.164923473821693e+17
19346.0	7.163198437676372e+17
19347.0	7.16132380049408e+17
19348.0	7.159351595412138e+17
19349.0	7.157349157786963e+17
19350.0	7.155322147132756e+17
19351.0	7.152932996076884e+17
19352.0	7.150462321732265e+17
19353.0	7.148393660241236e+17
19354.0	7.146289963728896e+17
19355.0	7.14414974181922e+17
19356.0	7.142012296538794e+17
19357.0	7.139524282941437e+17
19358.0	7.136723244242262e+17
19359.0	7.134454192887123e+17
19360.0	7.132248894952787e+17
19361.0	7.129963498394964e+17
19362.0	7.127447329832957e+17
19363.0	7.124673488399017e+17
19364.0	7.121986312470527e+17
19365.0	7.119576735154175e+17
19366.0	7.117131686608896e+17
19367.0	7.114649698828288e+17
19368.0	7.112129393284436e+17
19369.0	7.109547842513577e+17
19370.0	7.10684548600081e+17
19371.0	7.104309545489748e+17
19372.0	7.101618164072447e+17
19373.0	7.09887882498321e+17
19374.0	7.096091311516329e+17
19375.0	7.09273843942468e+17
19376.0	7.089755555277481e+17
19377.0	7.086801712491178e+17
19378.0	7.083790294493866e+17
19379.0	7.080716167457449e+17
19380.0	7.077576971386879e+17
19381.0	7.074369324275028e+17
19382.0	7.070545539497983e+17
19383.0	7.066906037059583e+17
19384.0	7.063488723681277e+17
19385.0	7.059970138832896e+17
19386.0	7.056366078263293e+17
19387.0	7.051969143242751e+17
19388.0	7.04767693300258e+17
19389.0	7.043780511268863e+17
19390.0	7.039778304993961e+17
19391.0	7.030771498527396e+17
19392.0	7.030109473079293e+17
19393.0	7.025772683679059e+17
19394.0	7.020330749700776e+17
19395.0	7.015047257653245e+17
19396.0	7.010129934636371e+17
19397.0	7.00344124449314e+17
19398.0	6.998349475479551e+17
19399.0	6.990853168605866e+17
19400.0	6.985072872434346e+17
19401.0	6.977124551010985e+17
19402.0	6.969706465110698e+17
19403.0	6.962090433227434e+17
19404.0	6.953949630999209e+17
19405.0	6.947432657758889e+17
19406.0	6.940681134145536e+17
19407.0	6.933680106067284e+17
19408.0	6.926315075316393e+17
19409.0	6.918857309203113e+17
19410.0	6.910783682248704e+17
19411.0	6.902304086512979e+17
19412.0	6.89381779317282e+17
19413.0	6.884998123268778e+17
19414.0	6.875322794377215e+17
19415.0	6.865385017398612e+17
19416.0	6.855248262638249e+17
19417.0	6.843694279819261e+17
19418.0	6.832647335226026e+17
19419.0	6.819741856781652e+17
19420.0	6.806896954572797e+17
19421.0	6.792939439827628e+17
19422.0	6.777526914034346e+17
19423.0	6.760841360353962e+17
19424.0	6.742231129347412e+17
19425.0	6.721994757592404e+17
19426.0	6.698749171946834e+17
19427.0	6.67431049555695e+17
19428.0	6.654398224662527e+17
19429.0	6.634091359939241e+17
19430.0	6.612143083006634e+17
19431.0	6.588735476989953e+17
19432.0	6.564325377791315e+17
19433.0	6.537523134201856e+17
19434.0	6.508410375766015e+17
19435.0	6.476280096620541e+17
19436.0	6.440323451103914e+17
19437.0	6.399748452559526e+17
19438.0	6.348186027993764e+17
19439.0	6.303517098639361e+17
19440.0	6.257559648337919e+17
19441.0	6.206946552053756e+17
19442.0	6.149913887550124e+17
19443.0	6.083483880041126e+17
19444.0	6.006353185909412e+17
19445.0	5.926464614563843e+17
19446.0	5.836553594426708e+17
19447.0	5.731108310919845e+17
19448.0	5.611430088103258e+17
19449.0	5.4643275728595616e+17
19450.0	5.216621849214926e+17
19451.0	5.121426117885955e+17
19452.0	5.353554573262852e+17
19453.0	5.5418919908802605e+17
19454.0	5.6691668951586074e+17
19455.0	5.779222631721641e+17
19456.0	5.874231543857155e+17
19457.0	5.955468444128594e+17
19458.0	6.030656740698796e+17
19459.0	6.101953366982657e+17
19460.0	6.160620095974056e+17
19461.0	6.211724014605654e+17
19462.0	6.257356469960705e+17
19463.0	6.300414911709184e+17
19464.0	6.348081633165313e+17
19465.0	6.389730098806781e+17
19466.0	6.425021714355538e+17
19467.0	6.4562400329728e+17
19468.0	6.484247658015402e+17
19469.0	6.509610201863508e+17
19470.0	6.532946689960617e+17
19471.0	6.554127710552064e+17
19472.0	6.574011706245117e+17
19473.0	6.592406413639679e+17
19474.0	6.60951854481408e+17
19475.0	6.628936498806781e+17
19476.0	6.650759700895063e+17
19477.0	6.670078314195628e+17
19478.0	6.68656364158976e+17
19479.0	6.701268890987178e+17
19480.0	6.714467347158355e+17
19481.0	6.72628429955618e+17
19482.0	6.737474734085459e+17
19483.0	6.747487636641107e+17
19484.0	6.756681474812585e+17
19485.0	6.765388015250089e+17
19486.0	6.773469252070058e+17
19487.0	6.780645629318483e+17
19488.0	6.788082636423165e+17
19489.0	6.794472732666538e+17
19490.0	6.800258457665533e+17
19491.0	6.806091448276308e+17
19492.0	6.811931009264298e+17
19493.0	6.816936449714857e+17
19494.0	6.821650187507028e+17
19495.0	6.826083536076799e+17
19496.0	6.830218221540691e+17
19497.0	6.834199916969983e+17
19498.0	6.838450635057833e+17
19499.0	6.836952238129146e+17
19500.0	6.849345938085204e+17
19501.0	6.853362736343724e+17
19502.0	6.857850192134141e+17
19503.0	6.861627736806739e+17
19504.0	6.865146629237417e+17
19505.0	6.86811331568162e+17
19506.0	6.871442907987967e+17
19507.0	6.873436968889002e+17
19508.0	6.876478679547901e+17
19509.0	6.878540781846527e+17
19510.0	6.880105701834752e+17
19511.0	6.877347505853778e+17
19512.0	6.88336196232806e+17
19513.0	6.883642008316582e+17
19514.0	6.8853504175418e+17
19515.0	6.888159793818284e+17
19516.0	6.889693373967017e+17
19517.0	6.890575950599507e+17
19518.0	6.891362699968511e+17
19519.0	6.892059808672425e+17
19520.0	6.892993164345343e+17
19521.0	6.89398683480883e+17
19522.0	6.894461913137151e+17
19523.0	6.89487288991744e+17
19524.0	6.895219573609812e+17
19525.0	6.89549939380497e+17
19526.0	6.895734953607165e+17
19527.0	6.89591055233843e+17
19528.0	6.896508811083775e+17
19529.0	6.896659785755306e+17
19530.0	6.896682534961151e+17
19531.0	6.896659230709075e+17
19532.0	6.896591928208042e+17
19533.0	6.896482470854656e+17
19534.0	6.89633263493666e+17
19535.0	6.896144151303508e+17
19536.0	6.895911774978045e+17
19537.0	6.895657359682218e+17
19538.0	6.895354078647636e+17
19539.0	6.894945457668096e+17
19540.0	6.895007852833449e+17
19541.0	6.895161468518397e+17
19542.0	6.894742850415274e+17
19543.0	6.894296340190547e+17
19544.0	6.893823303090175e+17
19545.0	6.893293693916499e+17
19546.0	6.893483238009514e+17
19547.0	6.893081824242346e+17
19548.0	6.892512693540179e+17
19549.0	6.891904570490879e+17
19550.0	6.891310562672639e+17
19551.0	6.890678131534505e+17
19552.0	6.890322138584403e+17
19553.0	6.89003344114483e+17
19554.0	6.889341498425343e+17
19555.0	6.888640917536765e+17
19556.0	6.887917155429034e+17
19557.0	6.887176337184084e+17
19558.0	6.886420868235263e+17
19559.0	6.885646735332691e+17
19560.0	6.884859476355752e+17
19561.0	6.884420352999423e+17
19562.0	6.883802851486378e+17
19563.0	6.882976101739177e+17
19564.0	6.882137937193641e+17
19565.0	6.881286971632297e+17
19566.0	6.880420887702185e+17
19567.0	6.879710389381801e+17
19568.0	6.878897705932116e+17
19569.0	6.878005535528276e+17
19570.0	6.87710026211874e+17
19571.0	6.876183485131434e+17
19572.0	6.875252258067796e+17
19573.0	6.874319592357887e+17
19574.0	6.873788678755668e+17
19575.0	6.872859577505108e+17
19576.0	6.871898763122004e+17
19577.0	6.870922706638164e+17
19578.0	6.869945856032767e+17
19579.0	6.868963236162217e+17
19580.0	6.867972093465939e+17
19581.0	6.866973919718057e+17
19582.0	6.865970754748415e+17
19583.0	6.864958054028628e+17
19584.0	6.863938638228137e+17
19585.0	6.862893658144768e+17
19586.0	6.861850387939327e+17
19587.0	6.860809042220372e+17
19588.0	6.859721733221033e+17
19589.0	6.858735655146836e+17
19590.0	6.857686874324991e+17
19591.0	6.856641704798889e+17
19592.0	6.855578023712084e+17
19593.0	6.854510051153236e+17
19594.0	6.853452203644244e+17
19595.0	6.852689057721002e+17
19596.0	6.850660493776212e+17
19597.0	6.850515524648959e+17
19598.0	6.849391805595647e+17
19599.0	6.848337105212755e+17
19600.0	6.847238712765097e+17
19601.0	6.846125092197716e+17
19602.0	6.845023430290089e+17
19603.0	6.843782832062463e+17
19604.0	6.842795263612244e+17
19605.0	6.84164086112802e+17
19606.0	6.840570917246292e+17
19607.0	6.83944972386304e+17
19608.0	6.838323304377001e+17
19609.0	6.837191012865363e+17
19610.0	6.836063651758079e+17
19611.0	6.834928423534591e+17
19612.0	6.833792220135423e+17
19613.0	6.832652432703487e+17
19614.0	6.831502794249556e+17
19615.0	6.83036490404113e+17
19616.0	6.829181674105514e+17
19617.0	6.828068403063466e+17
19618.0	6.826834730330793e+17
19619.0	6.825653145960447e+17
19620.0	6.824503148194474e+17
19621.0	6.823447929115988e+17
19622.0	6.822287590992553e+17
19623.0	6.82112531440162e+17
19624.0	6.819961032933375e+17
19625.0	6.818794150996649e+17
19626.0	6.8176266147485e+17
19627.0	6.816456601763839e+17
19628.0	6.8151769300992e+17
19629.0	6.814095472852991e+17
19630.0	6.812812493979647e+17
19631.0	6.806719331390803e+17
19632.0	6.810577850597375e+17
19633.0	6.809401141406378e+17
19634.0	6.808223929597951e+17
19635.0	6.807034879366484e+17
19636.0	6.805859087329961e+17
19637.0	6.804604237556393e+17
19638.0	6.80348723777809e+17
19639.0	6.802299199072937e+17
19640.0	6.801103937077247e+17
19641.0	6.799831474722132e+17
19642.0	6.798815542291114e+17
19643.0	6.797778827782825e+17
19644.0	6.796577863630847e+17
19645.0	6.795351299544404e+17
19646.0	6.794199012387498e+17
19647.0	6.793002953474047e+17
19648.0	6.791805869053268e+17
19649.0	6.790607446649514e+17
19650.0	6.789408994885632e+17
19651.0	6.788209177875795e+17
19652.0	6.787008542976681e+17
19653.0	6.785806700118015e+17
19654.0	6.784604781761876e+17
19655.0	6.783400974570835e+17
19656.0	6.782196669655722e+17
19657.0	6.780993262321664e+17
19658.0	6.779788064718847e+17
19659.0	6.778581821336234e+17
19660.0	6.777375437444435e+17
19661.0	6.776168135000063e+17
19662.0	6.774960175448063e+17
19663.0	6.773743445606399e+17
19664.0	6.772523012893353e+17
19665.0	6.771332800140627e+17
19666.0	6.770120122695679e+17
