# Flux units: erg / (cm m2 s)
# Wavelength units: Angstrom
wave	flux
19000.0	6.823838876696575e+17
19001.0	6.821898128894633e+17
19002.0	6.821365305485993e+17
19003.0	6.820086413961897e+17
19004.0	6.818844823781375e+17
19005.0	6.817549579365033e+17
19006.0	6.816291320321363e+17
19007.0	6.815007299163475e+17
19008.0	6.813482185217364e+17
19009.0	6.811401229522259e+17
19010.0	6.809642598399997e+17
19011.0	6.809606040147284e+17
19012.0	6.807865361345192e+17
19013.0	6.807493544684201e+17
19014.0	6.805913418945875e+17
19015.0	6.80479320702976e+17
19016.0	6.803753025230164e+17
19017.0	6.802518578648404e+17
19018.0	6.80126777008674e+17
19019.0	6.800047326188884e+17
19020.0	6.798751319807316e+17
19021.0	6.797634093536596e+17
19022.0	6.796353059422208e+17
19023.0	6.794829651858771e+17
19024.0	6.793693976242857e+17
19025.0	6.792456329407146e+17
19026.0	6.791108005374634e+17
19027.0	6.789771431684778e+17
19028.0	6.788712715255807e+17
19029.0	6.787413517707945e+17
19030.0	6.78634847347234e+17
19031.0	6.785085856546815e+17
19032.0	6.783703426531325e+17
19033.0	6.781568035061759e+17
19034.0	6.780149003452415e+17
19035.0	6.774328258112169e+17
19036.0	6.748979315692884e+17
19037.0	6.772983822199465e+17
19038.0	6.77522505413427e+17
19039.0	6.774746024072531e+17
19040.0	6.773755874727252e+17
19041.0	6.77257237775428e+17
19042.0	6.770290849742845e+17
19043.0	6.770182423489194e+17
19044.0	6.768884826767359e+17
19045.0	6.767629338760532e+17
19046.0	6.766127840843094e+17
19047.0	6.764769953098409e+17
19048.0	6.763087354920959e+17
19049.0	6.760825485612371e+17
19050.0	6.760209268954452e+17
19051.0	6.755775537304915e+17
19052.0	6.756165885799081e+17
19053.0	6.757110377349119e+17
19054.0	6.756266088420694e+17
19055.0	6.753295834720945e+17
19056.0	6.753792164189523e+17
19057.0	6.752778420486141e+17
19058.0	6.750978699864746e+17
19059.0	6.750125285528916e+17
19060.0	6.749068797673471e+17
19061.0	6.74787783483938e+17
19062.0	6.746597761220607e+17
19063.0	6.745322217450153e+17
19064.0	6.743633335506262e+17
19065.0	6.7418012006045e+17
19066.0	6.741012373656916e+17
19067.0	6.74034155135522e+17
19068.0	6.739198425257299e+17
19069.0	6.737961394984275e+17
19070.0	6.736576333742079e+17
19071.0	6.735421966210388e+17
19072.0	6.734060555250345e+17
19073.0	6.732985443986089e+17
19074.0	6.731776291154602e+17
19075.0	6.730530519952042e+17
19076.0	6.729239708915028e+17
19077.0	6.727928006748842e+17
19078.0	6.726577477910527e+17
19079.0	6.725528114779476e+17
19080.0	6.724200446995113e+17
19081.0	6.722684945694717e+17
19082.0	6.721701210838356e+17
19083.0	6.719796369074857e+17
19084.0	6.717627397308415e+17
19085.0	6.717881204430164e+17
19086.0	6.713703557409449e+17
19087.0	6.714800658710527e+17
19088.0	6.713293036410195e+17
19089.0	6.711568124695896e+17
19090.0	6.711472909800788e+17
19091.0	6.710345633278634e+17
19092.0	6.708458662046378e+17
19093.0	6.708074598017705e+17
19094.0	6.706875332558847e+17
19095.0	6.705676856328192e+17
19096.0	6.704421171888127e+17
19097.0	6.703203697557503e+17
19098.0	6.701731953333588e+17
19099.0	6.700445324716714e+17
19100.0	6.69936507822626e+17
19101.0	6.698093891638612e+17
19102.0	6.69660105286178e+17
19103.0	6.695691429958996e+17
19104.0	6.694512996210004e+17
19105.0	6.692711477630294e+17
19106.0	6.691898225153364e+17
19107.0	6.690411232537257e+17
19108.0	6.688937902866431e+17
19109.0	6.687310940034388e+17
19110.0	6.686440415734442e+17
19111.0	6.685421908000765e+17
19112.0	6.684327479170388e+17
19113.0	6.683292055808681e+17
19114.0	6.681927920648191e+17
19115.0	6.680514660401151e+17
19116.0	6.679342657219241e+17
19117.0	6.677942775403859e+17
19118.0	6.674711026423124e+17
19119.0	6.65131007816497e+17
19120.0	6.67317223624977e+17
19121.0	6.672957221546666e+17
19122.0	6.672072215014058e+17
19123.0	6.67086824214801e+17
19124.0	6.669242764798633e+17
19125.0	6.668072005926911e+17
19126.0	6.665721611638099e+17
19127.0	6.660100337609385e+17
19128.0	6.662848911157929e+17
19129.0	6.662560666004136e+17
19130.0	6.662111200892244e+17
19131.0	6.661075438490964e+17
19132.0	6.659874414220627e+17
19133.0	6.658367581148499e+17
19134.0	6.657311784654163e+17
19135.0	6.656178907338068e+17
19136.0	6.654896157753343e+17
19137.0	6.653328570886825e+17
19138.0	6.652340487935316e+17
19139.0	6.651283354856106e+17
19140.0	6.650092384332457e+17
19141.0	6.648866619959977e+17
19142.0	6.647427141817684e+17
19143.0	6.646202919550975e+17
19144.0	6.644837498137257e+17
19145.0	6.643875633780052e+17
19146.0	6.638420452791642e+17
19147.0	6.641191610570067e+17
19148.0	6.640001828432553e+17
19149.0	6.638747156916904e+17
19150.0	6.637730816240297e+17
19151.0	6.636463410118655e+17
19152.0	6.635178121581908e+17
19153.0	6.633409248668329e+17
19154.0	6.632380647342079e+17
19155.0	6.631323771513514e+17
19156.0	6.630106467751252e+17
19157.0	6.628600876193108e+17
19158.0	6.627011549549908e+17
19159.0	6.626156431627603e+17
19160.0	6.624851000644948e+17
19161.0	6.623323421846185e+17
19162.0	6.621208495783935e+17
19163.0	6.620585870229501e+17
19164.0	6.619971838104916e+17
19165.0	6.618475519453865e+17
19166.0	6.617338756115113e+17
19167.0	6.616429337335123e+17
19168.0	6.615361665368063e+17
19169.0	6.614201115432275e+17
19170.0	6.613037256889684e+17
19171.0	6.611779116684627e+17
19172.0	6.610532292711764e+17
19173.0	6.609357937923411e+17
19174.0	6.607979018540371e+17
19175.0	6.606872858940756e+17
19176.0	6.605667223033172e+17
19177.0	6.603424870520146e+17
19178.0	6.603185847620948e+17
19179.0	6.601929778703017e+17
19180.0	6.600656123068415e+17
19181.0	6.59904164667938e+17
19182.0	6.598054977208319e+17
19183.0	6.597059392744105e+17
19184.0	6.595802443721386e+17
19185.0	6.594499061656233e+17
19186.0	6.593317643659945e+17
19187.0	6.591540384934569e+17
19188.0	6.590767240489641e+17
19189.0	6.589487153588905e+17
19190.0	6.588185890346323e+17
19191.0	6.586638728342185e+17
19192.0	6.585490587254784e+17
19193.0	6.583952101168467e+17
19194.0	6.582266972427604e+17
19195.0	6.580709121938772e+17
19196.0	6.578534898903722e+17
19197.0	6.575726045517139e+17
19198.0	6.571153195794431e+17
19199.0	6.562546581853523e+17
19200.0	6.56227409469986e+17
19201.0	6.567833323787604e+17
19202.0	6.569770409962154e+17
19203.0	6.569992019509247e+17
19204.0	6.569627724633428e+17
19205.0	6.568860876537855e+17
19206.0	6.567945038375593e+17
19207.0	6.566024817497427e+17
19208.0	6.56517901722146e+17
19209.0	6.564636473513299e+17
19210.0	6.563580045776212e+17
19211.0	6.562508235429204e+17
19212.0	6.561249728921599e+17
19213.0	6.559343120657065e+17
19214.0	6.558382567019862e+17
19215.0	6.55750880891153e+17
19216.0	6.556244758233087e+17
19217.0	6.554481848221695e+17
19218.0	6.551726507862697e+17
19219.0	6.550850907755858e+17
19220.0	6.551006291339946e+17
19221.0	6.549463708816724e+17
19222.0	6.548693895348223e+17
19223.0	6.547681384071168e+17
19224.0	6.546293381922813e+17
19225.0	6.545162096345087e+17
19226.0	6.544086202144084e+17
19227.0	6.542954188854612e+17
19228.0	6.541932510926164e+17
19229.0	6.540717453912746e+17
19230.0	6.539474956364457e+17
19231.0	6.538183886678698e+17
19232.0	6.537015862493184e+17
19233.0	6.53538468368657e+17
19234.0	6.534522564072788e+17
19235.0	6.533093558408534e+17
19236.0	6.532132579748522e+17
19237.0	6.530806228975615e+17
19238.0	6.52912223199778e+17
19239.0	6.528424933851135e+17
19240.0	6.527200266988201e+17
19241.0	6.525843652214784e+17
19242.0	6.524647113752576e+17
19243.0	6.52233724552806e+17
19244.0	6.522308039890259e+17
19245.0	6.521029153259519e+17
19246.0	6.51980158603537e+17
19247.0	6.518514804326399e+17
19248.0	6.517364531134464e+17
19249.0	6.516105547874303e+17
19250.0	6.514701098461866e+17
19251.0	6.512958097413455e+17
19252.0	6.510255915663359e+17
19253.0	6.511069052097876e+17
19254.0	6.509966645002239e+17
19255.0	6.507314388052648e+17
19256.0	6.507385015937706e+17
19257.0	6.506238519716521e+17
19258.0	6.505002009537193e+17
19259.0	6.503098883943082e+17
19260.0	6.501651703660543e+17
19261.0	6.501047943386452e+17
19262.0	6.499421207745876e+17
19263.0	6.497808717359785e+17
19264.0	6.495328092028927e+17
19265.0	6.494985477510483e+17
19266.0	6.493883583518036e+17
19267.0	6.493689649386835e+17
19268.0	6.492453883696468e+17
19269.0	6.491169056533161e+17
19270.0	6.489620785135615e+17
19271.0	6.487600902701055e+17
19272.0	6.487138763800575e+17
19273.0	6.484665466617855e+17
19274.0	6.482183997532836e+17
19275.0	6.483760162450089e+17
19276.0	6.482435158747816e+17
19277.0	6.481215459338921e+17
19278.0	6.479958754983936e+17
19279.0	6.478485435798867e+17
19280.0	6.477160351006719e+17
19281.0	6.476070974914559e+17
19282.0	6.47490160295936e+17
19283.0	6.473559903130964e+17
19284.0	6.471997219405823e+17
19285.0	6.470535633087145e+17
19286.0	6.469011185336319e+17
19287.0	6.466878507581439e+17
19288.0	6.452841734471675e+17
19289.0	6.446259437043703e+17
19290.0	6.462796603239081e+17
19291.0	6.461254381426012e+17
19292.0	6.462160290971647e+17
19293.0	6.461057089754452e+17
19294.0	6.459777578871465e+17
19295.0	6.458641467047935e+17
19296.0	6.4570996031488e+17
19297.0	6.455856866525183e+17
19298.0	6.454626315752788e+17
19299.0	6.453272608331092e+17
19300.0	6.45225975521826e+17
19301.0	6.45099200586274e+17
19302.0	6.449582529576959e+17
19303.0	6.447968593554089e+17
19304.0	6.44702067106338e+17
19305.0	6.445649820123135e+17
19306.0	6.444363230653097e+17
19307.0	6.442804850982911e+17
19308.0	6.44144045367842e+17
19309.0	6.439915494222505e+17
19310.0	6.43831147003904e+17
19311.0	6.437168090884777e+17
19312.0	6.435932596426068e+17
19313.0	6.433694935941119e+17
19314.0	6.387236758443359e+17
19315.0	6.388663125191366e+17
19316.0	6.429471808684031e+17
19317.0	6.4295260913664e+17
19318.0	6.428505076137983e+17
19319.0	6.427409448435711e+17
19320.0	6.426027211358207e+17
19321.0	6.4245345026048e+17
19322.0	6.423295888982015e+17
19323.0	6.421945435641172e+17
19324.0	6.420674822974122e+17
19325.0	6.419322490585087e+17
19326.0	6.418046279920297e+17
19327.0	6.416743743706452e+17
19328.0	6.415039372896938e+17
19329.0	6.414131529777151e+17
19330.0	6.412701527266644e+17
19331.0	6.411110616574633e+17
19332.0	6.41004538499345e+17
19333.0	6.408568010615465e+17
19334.0	6.40727946240546e+17
19335.0	6.405032659735892e+17
19336.0	6.40445824770594e+17
19337.0	6.403063580109481e+17
19338.0	6.40026326492774e+17
19339.0	6.400122411111763e+17
19340.0	6.398115912701267e+17
19341.0	6.39628914790673e+17
19342.0	6.394470861897727e+17
19343.0	6.393772060093098e+17
19344.0	6.39114200359458e+17
19345.0	6.383917217087485e+17
19346.0	6.383872039540051e+17
19347.0	6.386920953916073e+17
19348.0	6.386728187199487e+17
19349.0	6.385264916168703e+17
19350.0	6.383789222308521e+17
19351.0	6.382405765387604e+17
19352.0	6.38036131202116e+17
19353.0	6.379747363083604e+17
19354.0	6.378267680440319e+17
19355.0	6.376054923635373e+17
19356.0	6.375188237123583e+17
19357.0	6.373566764635476e+17
19358.0	6.371879576491348e+17
19359.0	6.370084422068905e+17
19360.0	6.368182933651455e+17
19361.0	6.367026768161449e+17
19362.0	6.365518109868031e+17
19363.0	6.363897664984404e+17
19364.0	6.362252598138196e+17
19365.0	6.360540338541908e+17
19366.0	6.35888340181538e+17
19367.0	6.357155349266431e+17
19368.0	6.355414946589353e+17
19369.0	6.353379894056276e+17
19370.0	6.351627952149844e+17
19371.0	6.349626428183891e+17
19372.0	6.348220210173268e+17
19373.0	6.34625136402978e+17
19374.0	6.344505860379988e+17
19375.0	6.342671995327827e+17
19376.0	6.340784415222441e+17
19377.0	6.338801771915946e+17
19378.0	6.336839680699049e+17
19379.0	6.334899685075626e+17
19380.0	6.332826965595476e+17
19381.0	6.330721903837183e+17
19382.0	6.328115826174634e+17
19383.0	6.326256250038952e+17
19384.0	6.324451722046122e+17
19385.0	6.322354611290111e+17
19386.0	6.320138679397034e+17
19387.0	6.317808580646227e+17
19388.0	6.315350546535763e+17
19389.0	6.312616049071444e+17
19390.0	6.308151415887188e+17
19391.0	6.283648826692938e+17
19392.0	6.298101911737684e+17
19393.0	6.302062869828948e+17
19394.0	6.300259194677929e+17
19395.0	6.297710731373226e+17
19396.0	6.295232994519721e+17
19397.0	6.292501838517588e+17
19398.0	6.2891463540736e+17
19399.0	6.284487399484074e+17
19400.0	6.282540488851455e+17
19401.0	6.280671231563092e+17
19402.0	6.27781695456324e+17
19403.0	6.274601018108585e+17
19404.0	6.271479416444244e+17
19405.0	6.267885435486207e+17
19406.0	6.264371588803242e+17
19407.0	6.260374955360255e+17
19408.0	6.254808163243348e+17
19409.0	6.252429541288617e+17
19410.0	6.249271403042132e+17
19411.0	6.24529232625664e+17
19412.0	6.241035864768512e+17
19413.0	6.236512760889343e+17
19414.0	6.231919960260607e+17
19415.0	6.227048203463337e+17
19416.0	6.22123117986884e+17
19417.0	6.216940669020842e+17
19418.0	6.211632734666751e+17
19419.0	6.206106779691689e+17
19420.0	6.200420692481364e+17
19421.0	6.194438494399146e+17
19422.0	6.187907099743572e+17
19423.0	6.181450896375807e+17
19424.0	6.174473667477503e+17
19425.0	6.167053640313514e+17
19426.0	6.159169093981524e+17
19427.0	6.150877951120726e+17
19428.0	6.142019717387604e+17
19429.0	6.132296964199763e+17
19430.0	6.120743291759274e+17
19431.0	6.108926301612716e+17
19432.0	6.101236749871786e+17
19433.0	6.090084914823168e+17
19434.0	6.077310465736704e+17
19435.0	6.062546526142461e+17
19436.0	6.046759614676991e+17
19437.0	6.029204418199551e+17
19438.0	5.97584513702298e+17
19439.0	5.984954231379282e+17
19440.0	5.976911904418474e+17
19441.0	5.956164722360317e+17
19442.0	5.931680531480576e+17
19443.0	5.904299915040083e+17
19444.0	5.872545763601064e+17
19445.0	5.835876656829782e+17
19446.0	5.79248168509986e+17
19447.0	5.7399570389620006e+17
19448.0	5.673690565967874e+17
19449.0	5.585367505829887e+17
19450.0	5.449006083735543e+17
19451.0	5.351299735704918e+17
19452.0	5.526671655086761e+17
19453.0	5.630507691802627e+17
19454.0	5.7036166397951955e+17
19455.0	5.759762489322154e+17
19456.0	5.804501241255255e+17
19457.0	5.839935944086868e+17
19458.0	5.767154339151976e+17
19459.0	5.884285995887299e+17
19460.0	5.924596542865405e+17
19461.0	5.94697326305826e+17
19462.0	5.966352188353194e+17
19463.0	5.983347796170067e+17
19464.0	5.998607078872403e+17
19465.0	6.012747226895699e+17
19466.0	6.025357163495421e+17
19467.0	6.037183929166506e+17
19468.0	6.047786450900308e+17
19469.0	6.056861869189801e+17
19470.0	6.066179759494484e+17
19471.0	6.074630821380095e+17
19472.0	6.082236076698282e+17
19473.0	6.08929606340881e+17
19474.0	6.095462994717354e+17
19475.0	6.099116976592211e+17
19476.0	6.107048873820156e+17
19477.0	6.113184075917993e+17
19478.0	6.1182651676317e+17
19479.0	6.122556175504724e+17
19480.0	6.126739091969363e+17
19481.0	6.130702391880361e+17
19482.0	6.134327700094976e+17
19483.0	6.137715424056659e+17
19484.0	6.140791738422612e+17
19485.0	6.143601841711786e+17
19486.0	6.146045195059199e+17
19487.0	6.148901989340499e+17
19488.0	6.151043960274943e+17
19489.0	6.151283174714026e+17
19490.0	6.15117293232674e+17
19491.0	6.156528173536595e+17
19492.0	6.159038464480596e+17
19493.0	6.160695422178644e+17
19494.0	6.162022966930089e+17
19495.0	6.162995778420733e+17
19496.0	6.162390049619965e+17
19497.0	6.162982143437482e+17
19498.0	6.150502646895953e+17
19499.0	6.129269842728276e+17
19500.0	6.164315168746153e+17
19501.0	6.168158727569408e+17
19502.0	6.169550578690729e+17
19503.0	6.170442238088532e+17
19504.0	6.171067324301311e+17
19505.0	6.17155948113647e+17
19506.0	6.172009670464852e+17
19507.0	6.172139909895508e+17
19508.0	6.172284910480042e+17
19509.0	6.171663663453524e+17
19510.0	6.167901792894973e+17
19511.0	6.098807706091494e+17
19512.0	6.156423351588179e+17
19513.0	6.157265548257957e+17
19514.0	6.160086707732475e+17
19515.0	6.1703517124253e+17
19516.0	6.172390432877225e+17
19517.0	6.172782271048362e+17
19518.0	6.17296944116531e+17
19519.0	6.172819049502036e+17
19520.0	6.172306556583933e+17
19521.0	6.172518629681833e+17
19522.0	6.171972548777299e+17
19523.0	6.171949107511296e+17
19524.0	6.17142598832401e+17
19525.0	6.171295466476884e+17
19526.0	6.170982279894358e+17
19527.0	6.170468338543273e+17
19528.0	6.170002493276159e+17
19529.0	6.169485497772714e+17
19530.0	6.169094412479145e+17
19531.0	6.168622089808553e+17
19532.0	6.168072324207956e+17
19533.0	6.167561529982975e+17
19534.0	6.167058537163433e+17
19535.0	6.166291352824489e+17
19536.0	6.165548644346538e+17
19537.0	6.164957243288234e+17
19538.0	6.163012333338623e+17
19539.0	6.162097544451412e+17
19540.0	6.162715394091689e+17
19541.0	6.162315159622996e+17
19542.0	6.161634041703081e+17
19543.0	6.160517672468479e+17
19544.0	6.159754806864553e+17
19545.0	6.156718435554644e+17
19546.0	6.155597355417599e+17
19547.0	6.157629485219839e+17
19548.0	6.157293429893802e+17
19549.0	6.155901219460435e+17
19550.0	6.155891022408361e+17
19551.0	6.155109655030442e+17
19552.0	6.154278192982697e+17
19553.0	6.153372416955731e+17
19554.0	6.15250472870434e+17
19555.0	6.151670399849812e+17
19556.0	6.150947448640852e+17
19557.0	6.150138919649279e+17
19558.0	6.14927593181457e+17
19559.0	6.148420508407124e+17
19560.0	6.147310372607316e+17
19561.0	6.146552805807446e+17
19562.0	6.145689364987903e+17
19563.0	6.144984092770303e+17
19564.0	6.144077431046144e+17
19565.0	6.14317161447424e+17
19566.0	6.142150662859433e+17
19567.0	6.141354263795027e+17
19568.0	6.140257463784787e+17
19569.0	6.139410567397375e+17
19570.0	6.138600721394346e+17
19571.0	6.13767997100305e+17
19572.0	6.13648390300194e+17
19573.0	6.135718801833983e+17
19574.0	6.134156847917737e+17
19575.0	6.133891344979283e+17
19576.0	6.132902760808447e+17
19577.0	6.131768032406186e+17
19578.0	6.130902921554601e+17
19579.0	6.129854356040361e+17
19580.0	6.128948121436159e+17
19581.0	6.128131437319508e+17
19582.0	6.127198860389034e+17
19583.0	6.126212875288573e+17
19584.0	6.125192422096895e+17
19585.0	6.123381416001533e+17
19586.0	6.122185446566573e+17
19587.0	6.121813534135636e+17
19588.0	6.119750109233152e+17
19589.0	6.119766431367168e+17
19590.0	6.118710910298793e+17
19591.0	6.118261612959059e+17
19592.0	6.117358968679082e+17
19593.0	6.11618913465139e+17
19594.0	6.113595198100818e+17
19595.0	6.114169060676948e+17
19596.0	6.112849575280639e+17
19597.0	6.112107091897002e+17
19598.0	6.10930410983697e+17
19599.0	6.110020647955114e+17
19600.0	6.109147741989546e+17
19601.0	6.107751019184128e+17
19602.0	6.106405348048895e+17
19603.0	6.104690997592063e+17
19604.0	6.104343786815487e+17
19605.0	6.102392066015237e+17
19606.0	6.102938745307135e+17
19607.0	6.102005540629162e+17
19608.0	6.100953437219497e+17
19609.0	6.09974941192465e+17
19610.0	6.098819002750292e+17
19611.0	6.097689189373268e+17
19612.0	6.096950687782227e+17
19613.0	6.095822421404329e+17
19614.0	6.094535159447551e+17
19615.0	6.093650783458644e+17
19616.0	6.092190507160916e+17
19617.0	6.090821264037204e+17
19618.0	6.08740472660514e+17
19619.0	6.085520378210985e+17
19620.0	6.085671547218601e+17
19621.0	6.086426857482921e+17
19622.0	6.086174997916329e+17
19623.0	6.085204762427391e+17
19624.0	6.084029500970324e+17
19625.0	6.083029681657172e+17
19626.0	6.081713169323348e+17
19627.0	6.080342621771092e+17
19628.0	6.078423289386324e+17
19629.0	6.074580228287144e+17
19630.0	6.069577511337983e+17
19631.0	6.06371120816674e+17
19632.0	6.071340638754131e+17
19633.0	6.072668951762259e+17
19634.0	6.072915444017833e+17
19635.0	6.071966675675817e+17
19636.0	6.071002050767529e+17
19637.0	6.067517731285679e+17
19638.0	6.069391121361577e+17
19639.0	6.068324946061994e+17
19640.0	6.06591613280802e+17
19641.0	6.062470310745432e+17
19642.0	6.065092254061908e+17
19643.0	6.064085328898729e+17
19644.0	6.062643699777533e+17
19645.0	6.061376507565395e+17
19646.0	6.060672296506708e+17
19647.0	6.060146314706944e+17
19648.0	6.059098236431018e+17
19649.0	6.058054632079359e+17
19650.0	6.057033832158548e+17
19651.0	6.055934233848489e+17
19652.0	6.054857321130666e+17
19653.0	6.053848561658537e+17
19654.0	6.052725912152746e+17
19655.0	6.05162685281075e+17
19656.0	6.050648908890112e+17
19657.0	6.049546230562815e+17
19658.0	6.048526494597119e+17
19659.0	6.047457961399638e+17
19660.0	6.046423706151593e+17
19661.0	6.045318051266559e+17
19662.0	6.044247400644608e+17
19663.0	6.043049895395327e+17
19664.0	6.042022061626708e+17
19665.0	6.041064279026346e+17
