# Flux units: erg / (cm m2 s)
# Wavelength units: Angstrom
wave	flux
19000.0	4.5315674407785805e+17
19001.0	4.5307765362524154e+17
19002.0	4.530009765751465e+17
19003.0	4.5292265913275725e+17
19004.0	4.5284401138892806e+17
19005.0	4.527663181987839e+17
19006.0	4.5268751645409274e+17
19007.0	4.5261073999899296e+17
19008.0	4.525325369911978e+17
19009.0	4.5245459990227616e+17
19010.0	4.523715652659882e+17
19011.0	4.522983255179263e+17
19012.0	4.5221865023952205e+17
19013.0	4.5214375821530445e+17
19014.0	4.5206475402554016e+17
19015.0	4.5198712305090554e+17
19016.0	4.519090627892565e+17
19017.0	4.5183248738112845e+17
19018.0	4.517544016041302e+17
19019.0	4.516766236890452e+17
19020.0	4.515990176705194e+17
19021.0	4.515212919046144e+17
19022.0	4.514437383148885e+17
19023.0	4.513652691785045e+17
19024.0	4.5128727903163725e+17
19025.0	4.5121032676529485e+17
19026.0	4.5113249998656845e+17
19027.0	4.510542298699093e+17
19028.0	4.509773656839508e+17
19029.0	4.508994782975317e+17
19030.0	4.508215313519957e+17
19031.0	4.5074467380701856e+17
19032.0	4.506673014112255e+17
19033.0	4.5058845555643725e+17
19034.0	4.5051217123300685e+17
19035.0	4.5043466874388474e+17
19036.0	4.5031613904104096e+17
19037.0	4.5027952493417805e+17
19038.0	4.502019576430591e+17
19039.0	4.5012483515787936e+17
19040.0	4.5004702340874234e+17
19041.0	4.49969705329186e+17
19042.0	4.49856233607441e+17
19043.0	4.4981515466397005e+17
19044.0	4.497381611536383e+17
19045.0	4.4966031074699936e+17
19046.0	4.4958264314210976e+17
19047.0	4.495057790959615e+17
19048.0	4.494217880884564e+17
19049.0	4.492761831047166e+17
19050.0	4.492735564917418e+17
19051.0	4.491850273871189e+17
19052.0	4.491192512632148e+17
19053.0	4.4904234800032416e+17
19054.0	4.4896492485345274e+17
19055.0	4.488749323561642e+17
19056.0	4.48807690113297e+17
19057.0	4.487337963334314e+17
19058.0	4.4861847876840096e+17
19059.0	4.4856395596212896e+17
19060.0	4.4850236260788883e+17
19061.0	4.4842491604282016e+17
19062.0	4.483473012861611e+17
19063.0	4.4827115159988896e+17
19064.0	4.481932288415062e+17
19065.0	4.4811570020788896e+17
19066.0	4.4802586590576634e+17
19067.0	4.4796182594409805e+17
19068.0	4.478863912468479e+17
19069.0	4.478092956052137e+17
19070.0	4.4773144792487245e+17
19071.0	4.476548379137364e+17
19072.0	4.475641987945812e+17
19073.0	4.4750174567792634e+17
19074.0	4.474237775511551e+17
19075.0	4.4734793404907514e+17
19076.0	4.472702582652927e+17
19077.0	4.471941804414292e+17
19078.0	4.471170779490987e+17
19079.0	4.4704004564145485e+17
19080.0	4.469639228686336e+17
19081.0	4.468864851815082e+17
19082.0	4.468100674792106e+17
19083.0	4.4673290046450336e+17
19084.0	4.4665508333267616e+17
19085.0	4.4658012566760096e+17
19086.0	4.464814001400489e+17
19087.0	4.4639393799645856e+17
19088.0	4.463308073598974e+17
19089.0	4.462711615608149e+17
19090.0	4.461970393311914e+17
19091.0	4.461183178375168e+17
19092.0	4.460135413273941e+17
19093.0	4.459669949688491e+17
19094.0	4.45890742592034e+17
19095.0	4.4581375774993056e+17
19096.0	4.457372747563007e+17
19097.0	4.4566090654679034e+17
19098.0	4.455695100761428e+17
19099.0	4.45489708339473e+17
19100.0	4.454314684011859e+17
19101.0	4.453550912438272e+17
19102.0	4.4527739350985376e+17
19103.0	4.4520198509690874e+17
19104.0	4.4512623407923194e+17
19105.0	4.450161990303744e+17
19106.0	4.4497266229466445e+17
19107.0	4.448889684535978e+17
19108.0	4.4480749591592954e+17
19109.0	4.447418017207636e+17
19110.0	4.446675661750272e+17
19111.0	4.4458130325285536e+17
19112.0	4.445031015732565e+17
19113.0	4.4443917877247994e+17
19114.0	4.443559978248874e+17
19115.0	4.442852320171349e+17
19116.0	4.44209720144691e+17
19117.0	4.4413410194664096e+17
19118.0	4.440572519514111e+17
19119.0	4.438601151195816e+17
19120.0	4.439055181108564e+17
19121.0	4.4382881708332365e+17
19122.0	4.4375380943612576e+17
19123.0	4.436778264035327e+17
19124.0	4.436012454029994e+17
19125.0	4.4352545579772576e+17
19126.0	4.43449445781777e+17
19127.0	4.4335479096606714e+17
19128.0	4.432971171889151e+17
19129.0	4.4322081944371194e+17
19130.0	4.431456350765055e+17
19131.0	4.4306967916707846e+17
19132.0	4.4299340994314234e+17
19133.0	4.429173392495957e+17
19134.0	4.4284169630515194e+17
19135.0	4.427658564381353e+17
19136.0	4.4268987445411846e+17
19137.0	4.4261167738825376e+17
19138.0	4.425381307569493e+17
19139.0	4.4246243622256634e+17
19140.0	4.423865329516543e+17
19141.0	4.4231071398625274e+17
19142.0	4.4223469110777165e+17
19143.0	4.421584950045355e+17
19144.0	4.4208309141504e+17
19145.0	4.4200743120404474e+17
19146.0	4.419263061644629e+17
19147.0	4.4185451974273696e+17
19148.0	4.417684168332629e+17
19149.0	4.4169004346682016e+17
19150.0	4.416292859674623e+17
19151.0	4.4155346511462394e+17
19152.0	4.4147795778600954e+17
19153.0	4.413759042879487e+17
19154.0	4.4132332498234016e+17
19155.0	4.4125117799028045e+17
19156.0	4.411755325292543e+17
19157.0	4.410921669623807e+17
19158.0	4.4100437920098976e+17
19159.0	4.4094766221448525e+17
19160.0	4.408733430622891e+17
19161.0	4.407976423063551e+17
19162.0	4.40718827908847e+17
19163.0	4.406470563069951e+17
19164.0	4.405713025630207e+17
19165.0	4.404677235965951e+17
19166.0	4.404187453106859e+17
19167.0	4.4034463622321485e+17
19168.0	4.4026991204106234e+17
19169.0	4.401942925148159e+17
19170.0	4.401190225139029e+17
19171.0	4.4004304367561376e+17
19172.0	4.399685092857173e+17
19173.0	4.3989326018641914e+17
19174.0	4.398173202852521e+17
19175.0	4.3974265852832416e+17
19176.0	4.3966752316456954e+17
19177.0	4.395908552021332e+17
19178.0	4.3951637149341005e+17
19179.0	4.3944051107430394e+17
19180.0	4.3936631097043616e+17
19181.0	4.3928939456539296e+17
19182.0	4.392152564673194e+17
19183.0	4.3914086964701856e+17
19184.0	4.390657474254166e+17
19185.0	4.389907060140713e+17
19186.0	4.3891548194078714e+17
19187.0	4.388402531139583e+17
19188.0	4.3876561442570234e+17
19189.0	4.386905636470783e+17
19190.0	4.386155195793407e+17
19191.0	4.3854063531458554e+17
19192.0	4.3846552015339514e+17
19193.0	4.3838717747527674e+17
19194.0	4.383102877040638e+17
19195.0	4.3824069350522874e+17
19196.0	4.3816550697096525e+17
19197.0	4.380901516159659e+17
19198.0	4.3801494830448634e+17
19199.0	4.3790216165239456e+17
19200.0	4.378422056845312e+17
19201.0	4.377907545068885e+17
19202.0	4.3771606359954765e+17
19203.0	4.3764117108599456e+17
19204.0	4.375664035627007e+17
19205.0	4.3749175361972883e+17
19206.0	4.3741685355642874e+17
19207.0	4.3734054294869325e+17
19208.0	4.3726448651578016e+17
19209.0	4.3719267031449594e+17
19210.0	4.3711756494001485e+17
19211.0	4.3704311800135674e+17
19212.0	4.369684235288575e+17
19213.0	4.368932987207679e+17
19214.0	4.3681815042457594e+17
19215.0	4.3674435549047456e+17
19216.0	4.366699267970387e+17
19217.0	4.3659540925426336e+17
19218.0	4.3651227654116685e+17
19219.0	4.364443366457344e+17
19220.0	4.3637143111379616e+17
19221.0	4.3629363760988154e+17
19222.0	4.362218121811285e+17
19223.0	4.361475397255168e+17
19224.0	4.3607251697882445e+17
19225.0	4.359973988117161e+17
19226.0	4.3592448349306874e+17
19227.0	4.358497132434772e+17
19228.0	4.3577536787688096e+17
19229.0	4.356998213315242e+17
19230.0	4.3562629469306874e+17
19231.0	4.35552272917026e+17
19232.0	4.3547784331482464e+17
19233.0	4.354027619177813e+17
19234.0	4.3532842060567885e+17
19235.0	4.3525418680756896e+17
19236.0	4.35180321968401e+17
19237.0	4.351053099870891e+17
19238.0	4.3503058307863885e+17
19239.0	4.34957512221218e+17
19240.0	4.3488242579101005e+17
19241.0	4.3480885699979936e+17
19242.0	4.3473376092269216e+17
19243.0	4.346590175865514e+17
19244.0	4.345859396687189e+17
19245.0	4.345118911190357e+17
19246.0	4.344378012554581e+17
19247.0	4.34363628065041e+17
19248.0	4.342891903538517e+17
19249.0	4.3421397711585274e+17
19250.0	4.341355316772864e+17
19251.0	4.34061390713105e+17
19252.0	4.33990424207906e+17
19253.0	4.339184479939242e+17
19254.0	4.3384490730455034e+17
19255.0	4.337689601332564e+17
19256.0	4.3369644012776096e+17
19257.0	4.336224765826389e+17
19258.0	4.335483131789311e+17
19259.0	4.334741750808576e+17
19260.0	4.3339839085827405e+17
19261.0	4.3332667867572896e+17
19262.0	4.3325230849283405e+17
19263.0	4.3317771545258656e+17
19264.0	4.3309933160038394e+17
19265.0	4.330284231163902e+17
19266.0	4.32953198973201e+17
19267.0	4.3288312732276045e+17
19268.0	4.328089426679125e+17
19269.0	4.3273546922721274e+17
19270.0	4.326615352519337e+17
19271.0	4.325836684875093e+17
19272.0	4.325136160609621e+17
19273.0	4.3243891571643725e+17
19274.0	4.3236303397628576e+17
19275.0	4.322929196837547e+17
19276.0	4.3221873398033056e+17
19277.0	4.32145438937361e+17
19278.0	4.320711269154815e+17
19279.0	4.319979643426132e+17
19280.0	4.319235789204139e+17
19281.0	4.318506518577151e+17
19282.0	4.3177683707057485e+17
19283.0	4.3170305143384736e+17
19284.0	4.3162952968874656e+17
19285.0	4.315541435755179e+17
19286.0	4.314816896303104e+17
19287.0	4.314081302063785e+17
19288.0	4.3132721837725005e+17
19289.0	4.312310673134931e+17
19290.0	4.311880461975551e+17
19291.0	4.3111237431241376e+17
19292.0	4.310407749566463e+17
19293.0	4.3096713947600205e+17
19294.0	4.30893711823121e+17
19295.0	4.308200411802281e+17
19296.0	4.307303958315008e+17
19297.0	4.3067082552989e+17
19298.0	4.305996552514218e+17
19299.0	4.3050820551311354e+17
19300.0	4.304529316468054e+17
19301.0	4.3037954069408416e+17
19302.0	4.3030616980411725e+17
19303.0	4.302317566296063e+17
19304.0	4.301591862225579e+17
19305.0	4.300860331567786e+17
19306.0	4.300130661083819e+17
19307.0	4.2993889529473696e+17
19308.0	4.2986573209272314e+17
19309.0	4.297913319904596e+17
19310.0	4.29718054633472e+17
19311.0	4.296455804857002e+17
19312.0	4.295726814549333e+17
19313.0	4.2950004421864096e+17
19314.0	4.292143687750989e+17
19315.0	4.2915762767134765e+17
19316.0	4.29259629928994e+17
19317.0	4.2920669256963405e+17
19318.0	4.29134071341602e+17
19319.0	4.2906034931848525e+17
19320.0	4.289814399199914e+17
19321.0	4.2889984574750714e+17
19322.0	4.2884082538905594e+17
19323.0	4.287679810240512e+17
19324.0	4.286951335133183e+17
19325.0	4.286207636100438e+17
19326.0	4.2854881668628474e+17
19327.0	4.2847571968436896e+17
19328.0	4.283723109367808e+17
19329.0	4.2832952658930336e+17
19330.0	4.2825640148555085e+17
19331.0	4.2818341542297594e+17
19332.0	4.2811063250452474e+17
19333.0	4.2803774829363194e+17
19334.0	4.2796345787241805e+17
19335.0	4.278298494369792e+17
19336.0	4.278180895173291e+17
19337.0	4.2774565731259725e+17
19338.0	4.2767056480064845e+17
19339.0	4.275992410805589e+17
19340.0	4.2752293354864634e+17
19341.0	4.274308984253098e+17
19342.0	4.2737127226955085e+17
19343.0	4.2730804404551674e+17
19344.0	4.272125400230571e+17
19345.0	4.2712710841193805e+17
19346.0	4.270836398336683e+17
19347.0	4.269877699979946e+17
19348.0	4.269436905892523e+17
19349.0	4.2687061092379296e+17
19350.0	4.2678673637812896e+17
19351.0	4.2672461747759776e+17
19352.0	4.266212676599806e+17
19353.0	4.2657900634221216e+17
19354.0	4.2650650556061005e+17
19355.0	4.264328876960427e+17
19356.0	4.263604415102975e+17
19357.0	4.2628801231148365e+17
19358.0	4.2621508797508256e+17
19359.0	4.26135841354547e+17
19360.0	4.2604519209915725e+17
19361.0	4.2599611860254714e+17
19362.0	4.25923644035345e+17
19363.0	4.258508773348693e+17
19364.0	4.2577818025984e+17
19365.0	4.257051751131818e+17
19366.0	4.256316846855508e+17
19367.0	4.2555944374108154e+17
19368.0	4.2548667941737805e+17
19369.0	4.2541372655970976e+17
19370.0	4.2534110183642445e+17
19371.0	4.2526754996223994e+17
19372.0	4.2519513180842656e+17
19373.0	4.251222622775978e+17
19374.0	4.250490239975423e+17
19375.0	4.2497669546202445e+17
19376.0	4.249037724538197e+17
19377.0	4.248308444823551e+17
19378.0	4.247580391942827e+17
19379.0	4.2468507053806925e+17
19380.0	4.246112519061504e+17
19381.0	4.2453830527003296e+17
19382.0	4.244650855148202e+17
19383.0	4.24391868416e+17
19384.0	4.243187047945557e+17
19385.0	4.2424650803008845e+17
19386.0	4.24173506798114e+17
19387.0	4.2410024216384845e+17
19388.0	4.2402673125403315e+17
19389.0	4.239537836392447e+17
19390.0	4.2388060072400205e+17
19391.0	4.2376831620000416e+17
19392.0	4.237333485671764e+17
19393.0	4.236601322373119e+17
19394.0	4.2358687067886925e+17
19395.0	4.2350438493716474e+17
19396.0	4.234373698857642e+17
19397.0	4.2336520010465274e+17
19398.0	4.2328382983809696e+17
19399.0	4.2319849637369165e+17
19400.0	4.231367578266282e+17
19401.0	4.2306921058795514e+17
19402.0	4.229952617928021e+17
19403.0	4.229207801812308e+17
19404.0	4.2284549361281696e+17
19405.0	4.2277051259944954e+17
19406.0	4.2269622182871034e+17
19407.0	4.2261015526987085e+17
19408.0	4.225367479593642e+17
19409.0	4.2246997631740576e+17
19410.0	4.223939625964885e+17
19411.0	4.223176062009344e+17
19412.0	4.2224094082498554e+17
19413.0	4.2215329420192416e+17
19414.0	4.220867344422229e+17
19415.0	4.2200932870171296e+17
19416.0	4.219292582499668e+17
19417.0	4.21852242509824e+17
19418.0	4.217730624389118e+17
19419.0	4.2169298562580474e+17
19420.0	4.2161219913646074e+17
19421.0	4.215303133200383e+17
19422.0	4.214470558263978e+17
19423.0	4.213638648124757e+17
19424.0	4.2127895441353376e+17
19425.0	4.2119238355954336e+17
19426.0	4.211042635393706e+17
19427.0	4.210144218273109e+17
19428.0	4.2092209387165005e+17
19429.0	4.2082804918736205e+17
19430.0	4.2073011806098765e+17
19431.0	4.2061664983449594e+17
19432.0	4.2052481855433376e+17
19433.0	4.204154840940543e+17
19434.0	4.2030061580888736e+17
19435.0	4.2017792137188685e+17
19436.0	4.200425142091776e+17
19437.0	4.1991128408391674e+17
19438.0	4.196719591948286e+17
19439.0	4.195983188208298e+17
19440.0	4.1941845035799885e+17
19441.0	4.192198794936318e+17
19442.0	4.189980489766228e+17
19443.0	4.187486140672682e+17
19444.0	4.1846753103708154e+17
19445.0	4.1815197977586336e+17
19446.0	4.1780133854795085e+17
19447.0	4.1742173607034874e+17
19448.0	4.170284451321174e+17
19449.0	4.166554032450218e+17
19450.0	4.163339970150399e+17
19451.0	4.161542536123734e+17
19452.0	4.1625257921303885e+17
19453.0	4.1644814954222925e+17
19454.0	4.1668743136979616e+17
19455.0	4.1693626838111565e+17
19456.0	4.1716206440284154e+17
19457.0	4.1733583315927034e+17
19458.0	4.169595266356567e+17
19459.0	4.175061039360683e+17
19460.0	4.1774674681528314e+17
19461.0	4.1783351731814394e+17
19462.0	4.1788828381347834e+17
19463.0	4.1792292058562554e+17
19464.0	4.1794048570163194e+17
19465.0	4.1794568810659834e+17
19466.0	4.1793939567192736e+17
19467.0	4.179246478699178e+17
19468.0	4.1790238974716576e+17
19469.0	4.178491600448169e+17
19470.0	4.178394514893483e+17
19471.0	4.1780071017130675e+17
19472.0	4.1775799719690234e+17
19473.0	4.177122039256406e+17
19474.0	4.176417508731562e+17
19475.0	4.176024946343934e+17
19476.0	4.1756021625978874e+17
19477.0	4.17505557558067e+17
19478.0	4.1744998226111136e+17
19479.0	4.1737126300439885e+17
19480.0	4.173335579590655e+17
19481.0	4.17272945442816e+17
19482.0	4.1721258402556576e+17
19483.0	4.1715162471028045e+17
19484.0	4.170888853323776e+17
19485.0	4.170254694831444e+17
19486.0	4.169396675848874e+17
19487.0	4.168984581985621e+17
19488.0	4.168343923720191e+17
19489.0	4.167693362703018e+17
19490.0	4.1668647171304096e+17
19491.0	4.1663755263672314e+17
19492.0	4.165719945467221e+17
19493.0	4.1650563073092256e+17
19494.0	4.164388241364309e+17
19495.0	4.163723883184127e+17
19496.0	4.162997719138302e+17
19497.0	4.1623795262641485e+17
19498.0	4.1617041524435616e+17
19499.0	4.1603766342560416e+17
19500.0	4.1603551237679776e+17
19501.0	4.1600504516225696e+17
19502.0	4.1595824602699085e+17
19503.0	4.158881787106644e+17
19504.0	4.158176498111827e+17
19505.0	4.157466309470891e+17
19506.0	4.1567731818605216e+17
19507.0	4.1560696712506016e+17
19508.0	4.155369763547818e+17
19509.0	4.154667892211711e+17
19510.0	4.153919174694229e+17
19511.0	4.150104201450832e+17
19512.0	4.152499115480404e+17
19513.0	4.1516296844957e+17
19514.0	4.15102418358545e+17
19515.0	4.150401221787648e+17
19516.0	4.1497231908754765e+17
19517.0	4.1490398982089376e+17
19518.0	4.1482900531227296e+17
19519.0	4.1475887256480416e+17
19520.0	4.1467354762881696e+17
19521.0	4.1462541477478394e+17
19522.0	4.1455228030375245e+17
19523.0	4.144803330304683e+17
19524.0	4.1439868915548154e+17
19525.0	4.143448774235476e+17
19526.0	4.1427504953207456e+17
19527.0	4.142053024508587e+17
19528.0	4.1413368848493216e+17
19529.0	4.140630471781034e+17
19530.0	4.139957257327957e+17
19531.0	4.139255727128575e+17
19532.0	4.138556209496063e+17
19533.0	4.137852210249727e+17
19534.0	4.1371612280258554e+17
19535.0	4.1364652203267405e+17
19536.0	4.135760512942079e+17
19537.0	4.135066639444649e+17
19538.0	4.134168318093995e+17
19539.0	4.13360389689617e+17
19540.0	4.1329736272226976e+17
19541.0	4.132230718117204e+17
19542.0	4.1315589814572365e+17
19543.0	4.130666083341653e+17
19544.0	4.130168817145172e+17
19545.0	4.1294547459768314e+17
19546.0	4.12867741421841e+17
19547.0	4.12809702740241e+17
19548.0	4.1274005918842874e+17
19549.0	4.1266921774339405e+17
19550.0	4.1260009708148045e+17
19551.0	4.1253114593935354e+17
19552.0	4.124610969381546e+17
19553.0	4.1239192881070074e+17
19554.0	4.123213829242879e+17
19555.0	4.1224997133352954e+17
19556.0	4.121813756586665e+17
19557.0	4.121135054585856e+17
19558.0	4.120441636869461e+17
19559.0	4.119746633706153e+17
19560.0	4.1189749111302816e+17
19561.0	4.118357855611562e+17
19562.0	4.117591172491946e+17
19563.0	4.1169715199999994e+17
19564.0	4.116263661294933e+17
19565.0	4.115578567873876e+17
19566.0	4.1148786391995725e+17
19567.0	4.1141940134434125e+17
19568.0	4.113501196910591e+17
19569.0	4.112807718376788e+17
19570.0	4.112113562462889e+17
19571.0	4.111420555788287e+17
19572.0	4.1107245117385376e+17
19573.0	4.1100097548014925e+17
19574.0	4.1093266851321165e+17
19575.0	4.1086514420340045e+17
19576.0	4.10794651165218e+17
19577.0	4.107229765915989e+17
19578.0	4.106568649233749e+17
19579.0	4.1058804876793165e+17
19580.0	4.105185640404309e+17
19581.0	4.1044871916202656e+17
19582.0	4.103804890906623e+17
19583.0	4.103116154732543e+17
19584.0	4.102420019107157e+17
19585.0	4.1017231746443936e+17
19586.0	4.1010308670204576e+17
19587.0	4.1003492674546336e+17
19588.0	4.09960894763281e+17
19589.0	4.098969784636757e+17
19590.0	4.098266183849301e+17
19591.0	4.0975878201890125e+17
19592.0	4.0968986478073165e+17
19593.0	4.0961881760508576e+17
19594.0	4.09547928764416e+17
19595.0	4.0948269915832314e+17
19596.0	4.094133131367765e+17
19597.0	4.093450025347755e+17
19598.0	4.092688896185684e+17
19599.0	4.092071781946709e+17
19600.0	4.0913779706647885e+17
19601.0	4.090686118122836e+17
19602.0	4.0899982375867725e+17
19603.0	4.089267904402772e+17
19604.0	4.08862529159168e+17
19605.0	4.0879089436153165e+17
19606.0	4.08724764168465e+17
19607.0	4.0865637702041594e+17
19608.0	4.085867611510099e+17
19609.0	4.085183534508714e+17
19610.0	4.0844005061864096e+17
19611.0	4.083655745295701e+17
19612.0	4.0831271294730234e+17
19613.0	4.0824318299122336e+17
19614.0	4.081749399874217e+17
19615.0	4.081066112101034e+17
19616.0	4.080275255809364e+17
19617.0	4.079537668576596e+17
19618.0	4.0789396216436045e+17
19619.0	4.078207730275668e+17
19620.0	4.077505608679423e+17
19621.0	4.0767170865179296e+17
19622.0	4.076260505769301e+17
19623.0	4.0755660136120314e+17
19624.0	4.074861241215657e+17
19625.0	4.074203970710186e+17
19626.0	4.0735144040639136e+17
19627.0	4.0728347191978656e+17
19628.0	4.072141841148587e+17
19629.0	4.0709360192935245e+17
19630.0	4.070777374638079e+17
19631.0	4.069847198946644e+17
19632.0	4.0694096016179194e+17
19633.0	4.06872403284241e+17
19634.0	4.0680411798787405e+17
19635.0	4.067332123699882e+17
19636.0	4.066419455033344e+17
19637.0	4.065717226482346e+17
19638.0	4.065288012868265e+17
19639.0	4.06461881585937e+17
19640.0	4.063934922708308e+17
19641.0	4.063080382201856e+17
19642.0	4.0625581060696736e+17
19643.0	4.0618756809250125e+17
19644.0	4.0611999575790925e+17
19645.0	4.060494779733332e+17
19646.0	4.0595745221727565e+17
19647.0	4.059146640949247e+17
19648.0	4.058477815835306e+17
19649.0	4.0577929398190074e+17
19650.0	4.0571116205725e+17
19651.0	4.056431165352618e+17
19652.0	4.0557493616639994e+17
19653.0	4.0550659662370125e+17
19654.0	4.0543868448058016e+17
