# Flux units: erg / (cm m2 s)
# Wavelength units: Angstrom
wave	flux
19000.0	7.291234055181651e+17
19001.0	7.289846446598825e+17
19002.0	7.288469743206399e+17
19003.0	7.287087629161811e+17
19004.0	7.28570560319761e+17
19005.0	7.284323992469504e+17
19006.0	7.282942293661011e+17
19007.0	7.281494679967059e+17
19008.0	7.280174922640041e+17
19009.0	7.278796621217791e+17
19010.0	7.277391199425875e+17
19011.0	7.276033690566655e+17
19012.0	7.274593574890153e+17
19013.0	7.273274185263785e+17
19014.0	7.271890526317225e+17
19015.0	7.27051303719185e+17
19016.0	7.269129657865556e+17
19017.0	7.267728919713106e+17
19018.0	7.266367612212564e+17
19019.0	7.264992589337939e+17
19020.0	7.263609106552148e+17
19021.0	7.26223051432482e+17
19022.0	7.260853981500756e+17
19023.0	7.259474701407572e+17
19024.0	7.258094976718163e+17
19025.0	7.256711893789353e+17
19026.0	7.255329989459965e+17
19027.0	7.253918892774739e+17
19028.0	7.252581270508884e+17
19029.0	7.251203076740436e+17
19030.0	7.2498251052701e+17
19031.0	7.248447288989011e+17
19032.0	7.24706962789717e+17
19033.0	7.245687306933587e+17
19034.0	7.244314645452118e+17
19035.0	7.242935432467795e+17
19036.0	7.237734168352082e+17
19037.0	7.240183957858986e+17
19038.0	7.238807787143168e+17
19039.0	7.237427552146772e+17
19040.0	7.236041487067817e+17
19041.0	7.234665568010239e+17
19042.0	7.233285534340436e+17
19043.0	7.231914690390697e+17
19044.0	7.230539115266045e+17
19045.0	7.229161828865364e+17
19046.0	7.227784416635561e+17
19047.0	7.22641473310993e+17
19048.0	7.225029463550633e+17
19049.0	7.22366253568273e+17
19050.0	7.222289774936063e+17
19051.0	7.220467414160723e+17
19052.0	7.21951480942865e+17
19053.0	7.218154694508543e+17
19054.0	7.216798228632918e+17
19055.0	7.21541145891089e+17
19056.0	7.214052543561728e+17
19057.0	7.212678994285908e+17
19058.0	7.211291310205612e+17
19059.0	7.209935670607872e+17
19060.0	7.208562503013716e+17
19061.0	7.207192198731092e+17
19062.0	7.205820405470547e+17
19063.0	7.204449564317012e+17
19064.0	7.203072505806847e+17
19065.0	7.201697808689833e+17
19066.0	7.200333848991062e+17
19067.0	7.198966930909864e+17
19068.0	7.197596797195604e+17
19069.0	7.19622748975923e+17
19070.0	7.194856542349994e+17
19071.0	7.193486238067369e+17
19072.0	7.19211889496337e+17
19073.0	7.190750121601705e+17
19074.0	7.189381827788799e+17
19075.0	7.188013408146772e+17
19076.0	7.186643962298365e+17
19077.0	7.18527684428868e+17
19078.0	7.183904672142676e+17
19079.0	7.182542053223081e+17
19080.0	7.181174690545663e+17
19081.0	7.179805176190292e+17
19082.0	7.178436450364074e+17
19083.0	7.177068865388543e+17
19084.0	7.175694233982292e+17
19085.0	7.174342050491049e+17
19086.0	7.17295083201058e+17
19087.0	7.171517242671104e+17
19088.0	7.170240098074623e+17
19089.0	7.168821395718143e+17
19090.0	7.167514668695551e+17
19091.0	7.166148881678335e+17
19092.0	7.164760821508777e+17
19093.0	7.163422015051092e+17
19094.0	7.162038104446292e+17
19095.0	7.160668982957398e+17
19096.0	7.159316970034516e+17
19097.0	7.157965554100905e+17
19098.0	7.15660478906368e+17
19099.0	7.155241708770644e+17
19100.0	7.153873754696361e+17
19101.0	7.152515471289e+17
19102.0	7.151151353604778e+17
19103.0	7.149794069839871e+17
19104.0	7.148432555420329e+17
19105.0	7.147071221355862e+17
19106.0	7.145693424648191e+17
19107.0	7.144348578392745e+17
19108.0	7.142988674585939e+17
19109.0	7.141203167761747e+17
19110.0	7.140266207783594e+17
19111.0	7.138908768829437e+17
19112.0	7.137549297035944e+17
19113.0	7.136190046142463e+17
19114.0	7.134830971409748e+17
19115.0	7.133465248705194e+17
19116.0	7.132113539170301e+17
19117.0	7.130754204390739e+17
19118.0	7.129375739390633e+17
19119.0	7.127923530137599e+17
19120.0	7.126657384404308e+17
19121.0	7.125309040099327e+17
19122.0	7.123966899169961e+17
19123.0	7.122607926498644e+17
19124.0	7.121235793499476e+17
19125.0	7.119889300280662e+17
19126.0	7.118516731073876e+17
19127.0	7.117096278294527e+17
19128.0	7.115429541576701e+17
19129.0	7.114468278403072e+17
19130.0	7.113118220025853e+17
19131.0	7.111750373605375e+17
19132.0	7.110408296988672e+17
19133.0	7.10897057206545e+17
19134.0	7.107506253856768e+17
19135.0	7.106344617596244e+17
19136.0	7.104991735054335e+17
19137.0	7.103628744239786e+17
19138.0	7.102203824526675e+17
19139.0	7.100930510727849e+17
19140.0	7.099578756453718e+17
19141.0	7.098226255593471e+17
19142.0	7.096873810657279e+17
19143.0	7.095517751629139e+17
19144.0	7.094166746737321e+17
19145.0	7.092815978124627e+17
19146.0	7.091421436357289e+17
19147.0	7.090110688395264e+17
19148.0	7.088761288523775e+17
19149.0	7.087411423084543e+17
19150.0	7.086057090711551e+17
19151.0	7.084712177347241e+17
19152.0	7.083355557680467e+17
19153.0	7.082012171042815e+17
19154.0	7.080655624077311e+17
19155.0	7.079312867983359e+17
19156.0	7.077963191287807e+17
19157.0	7.076609722941437e+17
19158.0	7.074968266691923e+17
19159.0	7.073914780560041e+17
19160.0	7.072559807856639e+17
19161.0	7.071177979024723e+17
19162.0	7.069219219483305e+17
19163.0	7.068521148885674e+17
19164.0	7.06717699469039e+17
19165.0	7.065821675257855e+17
19166.0	7.064467066060799e+17
19167.0	7.063073852489727e+17
19168.0	7.061777690918911e+17
19169.0	7.060429259931647e+17
19170.0	7.059096017917267e+17
19171.0	7.057722430892713e+17
19172.0	7.056401622193491e+17
19173.0	7.055057403685545e+17
19174.0	7.053710358216701e+17
19175.0	7.052367908306943e+17
19176.0	7.051022769848319e+17
19177.0	7.049669691572223e+17
19178.0	7.048327019364351e+17
19179.0	7.046947448466089e+17
19180.0	7.045501418820947e+17
19181.0	7.044292384129023e+17
19182.0	7.042944144681641e+17
19183.0	7.041596022674772e+17
19184.0	7.040251300850345e+17
19185.0	7.038924662068564e+17
19186.0	7.037581950713853e+17
19187.0	7.036235113562111e+17
19188.0	7.034891690573823e+17
19189.0	7.033535068110847e+17
19190.0	7.032189153705983e+17
19191.0	7.030859727110143e+17
19192.0	7.029511048658943e+17
19193.0	7.028026111251795e+17
19194.0	7.026774298154323e+17
19195.0	7.025485606638932e+17
19196.0	7.024157497753599e+17
19197.0	7.022814949277693e+17
19198.0	7.021468990832639e+17
19199.0	7.016186282420905e+17
19200.0	7.016299309126998e+17
19201.0	7.017447030783997e+17
19202.0	7.016110933147647e+17
19203.0	7.014763651399679e+17
19204.0	7.013430210854911e+17
19205.0	7.012091521138687e+17
19206.0	7.010750912528383e+17
19207.0	7.009409102249983e+17
19208.0	7.008060092448767e+17
19209.0	7.006732077236223e+17
19210.0	7.005392152297471e+17
19211.0	7.004051772276736e+17
19212.0	7.002713388744703e+17
19213.0	7.001336602165247e+17
19214.0	6.999977992301226e+17
19215.0	6.998681492389887e+17
19216.0	6.997351993791828e+17
19217.0	6.996017701104297e+17
19218.0	6.994635295555583e+17
19219.0	6.993331080222036e+17
19220.0	6.991999075527338e+17
19221.0	6.990641886833322e+17
19222.0	6.989324609039016e+17
19223.0	6.987985921419946e+17
19224.0	6.986640014005587e+17
19225.0	6.985299720667136e+17
19226.0	6.983971045550762e+17
19227.0	6.982632901793108e+17
19228.0	6.981294653177855e+17
19229.0	6.979956491244884e+17
19230.0	6.978602118326953e+17
19231.0	6.977268184252415e+17
19232.0	6.975935154749437e+17
19233.0	6.974599984753321e+17
19234.0	6.973264561001812e+17
19235.0	6.971927946067968e+17
19236.0	6.970589784834047e+17
19237.0	6.969250887499775e+17
19238.0	6.96790279205683e+17
19239.0	6.966575647861417e+17
19240.0	6.965215635002708e+17
19241.0	6.963893302373033e+17
19242.0	6.962561107536553e+17
19243.0	6.961212622023338e+17
19244.0	6.959884031492095e+17
19245.0	6.958545931075583e+17
19246.0	6.957206742237183e+17
19247.0	6.955867990305449e+17
19248.0	6.954530429556051e+17
19249.0	6.953190335447039e+17
19250.0	6.951852476203008e+17
19251.0	6.950509084671999e+17
19252.0	6.949154003615744e+17
19253.0	6.947834974699519e+17
19254.0	6.946492740796416e+17
19255.0	6.945144831999999e+17
19256.0	6.943803952857087e+17
19257.0	6.942476308840447e+17
19258.0	6.941136333570047e+17
19259.0	6.939792043758931e+17
19260.0	6.938417364118185e+17
19261.0	6.937115310948351e+17
19262.0	6.935774341627904e+17
19263.0	6.934431908495359e+17
19264.0	6.933066624794623e+17
19265.0	6.931740143998294e+17
19266.0	6.930401189341866e+17
19267.0	6.929065510436863e+17
19268.0	6.927722884366335e+17
19269.0	6.926379838865407e+17
19270.0	6.925034081746941e+17
19271.0	6.923673787170815e+17
19272.0	6.922346753425407e+17
19273.0	6.920439792140287e+17
19274.0	6.919382783492093e+17
19275.0	6.91831380779554e+17
19276.0	6.916967997549225e+17
19277.0	6.915621719638015e+17
19278.0	6.91427492442931e+17
19279.0	6.912914413846527e+17
19280.0	6.911575588514474e+17
19281.0	6.910231171476138e+17
19282.0	6.908881863879338e+17
19283.0	6.907470175098195e+17
19284.0	6.906036679431507e+17
19285.0	6.904819687445844e+17
19286.0	6.903478349026644e+17
19287.0	6.90211776364544e+17
19288.0	6.899912386718378e+17
19289.0	6.896740126250318e+17
19290.0	6.898043020378111e+17
19291.0	6.896662067456681e+17
19292.0	6.895320629073236e+17
19293.0	6.893963159360851e+17
19294.0	6.892605452670291e+17
19295.0	6.89124665336354e+17
19296.0	6.889886962767187e+17
19297.0	6.888524304700755e+17
19298.0	6.887164099603113e+17
19299.0	6.885801028397738e+17
19300.0	6.884436778592938e+17
19301.0	6.883070934952617e+17
19302.0	6.881704323754666e+17
19303.0	6.880330833898153e+17
19304.0	6.878963325119146e+17
19305.0	6.877596893577215e+17
19306.0	6.876223182820692e+17
19307.0	6.874845342771881e+17
19308.0	6.873472766574592e+17
19309.0	6.871984496792916e+17
19310.0	6.870537873653759e+17
19311.0	6.869330019658409e+17
19312.0	6.867958547961171e+17
19313.0	6.866560570359807e+17
19314.0	6.864106836109992e+17
19315.0	6.862797433820503e+17
19316.0	6.862407327896916e+17
19317.0	6.861022742708223e+17
19318.0	6.859629009742505e+17
19319.0	6.858233039115603e+17
19320.0	6.856830789615615e+17
19321.0	6.855433642486442e+17
19322.0	6.85401748537344e+17
19323.0	6.85255818285329e+17
19324.0	6.851213187700052e+17
19325.0	6.849721199667881e+17
19326.0	6.84838814430003e+17
19327.0	6.846970280105299e+17
19328.0	6.845550307573759e+17
19329.0	6.844126086911316e+17
19330.0	6.842696130538153e+17
19331.0	6.841264667710804e+17
19332.0	6.839831910940671e+17
19333.0	6.838391371639466e+17
19334.0	6.836945351781033e+17
19335.0	6.83550303269683e+17
19336.0	6.834049684690259e+17
19337.0	6.832594774305449e+17
19338.0	6.83112328733218e+17
19339.0	6.829668952965119e+17
19340.0	6.828195834407593e+17
19341.0	6.826718040599209e+17
19342.0	6.82520621420817e+17
19343.0	6.823744879547734e+17
19344.0	6.822251493414227e+17
19345.0	6.820642535331155e+17
19346.0	6.819219146539005e+17
19347.0	6.817728432177151e+17
19348.0	6.816212042383359e+17
19349.0	6.814684037163689e+17
19350.0	6.813146957567316e+17
19351.0	6.811603676692479e+17
19352.0	6.810049130616148e+17
19353.0	6.808492355966291e+17
19354.0	6.806921899496787e+17
19355.0	6.805320638660607e+17
19356.0	6.803739941797887e+17
19357.0	6.80213797352243e+17
19358.0	6.800518089976489e+17
19359.0	6.798870259782995e+17
19360.0	6.797262344683519e+17
19361.0	6.79558787436817e+17
19362.0	6.793917185217875e+17
19363.0	6.792241974607871e+17
19364.0	6.790551851149993e+17
19365.0	6.788838323475795e+17
19366.0	6.787110025560063e+17
19367.0	6.785372019228671e+17
19368.0	6.783616277282815e+17
19369.0	6.781831909212159e+17
19370.0	6.779977685008383e+17
19371.0	6.778229761944233e+17
19372.0	6.776396247815508e+17
19373.0	6.774536760459263e+17
19374.0	6.772636899431764e+17
19375.0	6.77071066042641e+17
19376.0	6.768775328869033e+17
19377.0	6.766811379575465e+17
19378.0	6.764817946421929e+17
19379.0	6.762792845574144e+17
19380.0	6.760734411893417e+17
19381.0	6.758640781710675e+17
19382.0	6.756504873642665e+17
19383.0	6.754333660719785e+17
19384.0	6.752115593226921e+17
19385.0	6.749829340332031e+17
19386.0	6.747527170752511e+17
19387.0	6.745123419324415e+17
19388.0	6.742710143330986e+17
19389.0	6.740249649960276e+17
19390.0	6.737722796408831e+17
19391.0	6.731752549995854e+17
19392.0	6.73243779441186e+17
19393.0	6.729711366788436e+17
19394.0	6.726901149554004e+17
19395.0	6.724016635816617e+17
19396.0	6.720983943610368e+17
19397.0	6.71788236415522e+17
19398.0	6.714693197146794e+17
19399.0	6.711365200773119e+17
19400.0	6.707980955986601e+17
19401.0	6.704474666740393e+17
19402.0	6.700799789542058e+17
19403.0	6.696884661911551e+17
19404.0	6.692909506800297e+17
19405.0	6.688756062311763e+17
19406.0	6.684512542348628e+17
19407.0	6.679935345928874e+17
19408.0	6.675237464702973e+17
19409.0	6.670438341367124e+17
19410.0	6.665234657837055e+17
19411.0	6.659879878699689e+17
19412.0	6.654225904478889e+17
19413.0	6.648146611055274e+17
19414.0	6.641758014974633e+17
19415.0	6.635093705621504e+17
19416.0	6.627877079831891e+17
19417.0	6.620281188297385e+17
19418.0	6.612144642588671e+17
19419.0	6.603445657490772e+17
19420.0	6.594217481251498e+17
19421.0	6.584308232530602e+17
19422.0	6.574402349738666e+17
19423.0	6.563790745938601e+17
19424.0	6.552546750147242e+17
19425.0	6.540210150746793e+17
19426.0	6.526993292765865e+17
19427.0	6.512644550120788e+17
19428.0	6.496985159477926e+17
19429.0	6.479755155079167e+17
19430.0	6.460577992583852e+17
19431.0	6.438836903084033e+17
19432.0	6.417585282569555e+17
19433.0	6.396082594512896e+17
19434.0	6.372521574137853e+17
19435.0	6.346581464842237e+17
19436.0	6.317760917274623e+17
19437.0	6.28584878318114e+17
19438.0	6.245965495970474e+17
19439.0	6.207122479338838e+17
19440.0	6.164411693662207e+17
19441.0	6.120037774174888e+17
19442.0	6.070146289019562e+17
19443.0	6.012129409411753e+17
19444.0	5.944013400746662e+17
19445.0	5.872998445045079e+17
19446.0	5.792117130876244e+17
19447.0	5.696362143634768e+17
19448.0	5.586983214645251e+17
19449.0	5.439672702468094e+17
19450.0	5.118434165653474e+17
19451.0	4.99031088369937e+17
19452.0	5.303618820724058e+17
19453.0	5.5209130511564864e+17
19454.0	5.640142950410917e+17
19455.0	5.738866610798592e+17
19456.0	5.825237513229656e+17
19457.0	5.897331994001404e+17
19458.0	5.964198750191616e+17
19459.0	6.026042030424067e+17
19460.0	6.077131136172028e+17
19461.0	6.121685775635795e+17
19462.0	6.161732714801836e+17
19463.0	6.203060212727805e+17
19464.0	6.23972307697664e+17
19465.0	6.2713056722944e+17
19466.0	6.298938016180905e+17
19467.0	6.323729746711891e+17
19468.0	6.345806036598784e+17
19469.0	6.365694506915155e+17
19470.0	6.384596512582314e+17
19471.0	6.404081620877315e+17
19472.0	6.421522780520445e+17
19473.0	6.437082757769897e+17
19474.0	6.450887775311188e+17
19475.0	6.463241140742825e+17
19476.0	6.474510009455956e+17
19477.0	6.484616508604416e+17
19478.0	6.493769546683732e+17
19479.0	6.502231643783167e+17
19480.0	6.509767965715114e+17
19481.0	6.517087928669523e+17
19482.0	6.524166654132224e+17
19483.0	6.530481250806442e+17
19484.0	6.536395114588841e+17
19485.0	6.541718997084841e+17
19486.0	6.546443723254442e+17
19487.0	6.550708739724628e+17
19488.0	6.554747908303529e+17
19489.0	6.558335373410304e+17
19490.0	6.561637564328616e+17
19491.0	6.564567603740671e+17
19492.0	6.567297681806676e+17
19493.0	6.569745114114729e+17
19494.0	6.571897496709802e+17
19495.0	6.573939487320746e+17
19496.0	6.575788858015743e+17
19497.0	6.577406071188137e+17
19498.0	6.578767452788052e+17
19499.0	6.574681568051192e+17
19500.0	6.581530785393321e+17
19501.0	6.582556735919444e+17
19502.0	6.583434782004564e+17
19503.0	6.584250890103465e+17
19504.0	6.584924997943296e+17
19505.0	6.585508431921151e+17
19506.0	6.586026806651562e+17
19507.0	6.586448441857364e+17
19508.0	6.586742945611775e+17
19509.0	6.586952426629801e+17
19510.0	6.587094178026835e+17
19511.0	6.583552188263078e+17
19512.0	6.586575163665062e+17
19513.0	6.585685958634152e+17
19514.0	6.586051690758141e+17
19515.0	6.586811893678079e+17
19516.0	6.586691412295679e+17
19517.0	6.586470124311892e+17
19518.0	6.586167929602047e+17
19519.0	6.585841890273961e+17
19520.0	6.585467576603988e+17
19521.0	6.585041937235967e+17
19522.0	6.584579373312682e+17
19523.0	6.584084641174868e+17
19524.0	6.583557417861119e+17
19525.0	6.582996359097002e+17
19526.0	6.582413919169193e+17
19527.0	6.581801807336788e+17
19528.0	6.581164594692095e+17
19529.0	6.580502674101588e+17
19530.0	6.579817810668201e+17
19531.0	6.579134838865919e+17
19532.0	6.578415031986858e+17
19533.0	6.577668473137834e+17
19534.0	6.576903125904041e+17
19535.0	6.57612015140864e+17
19536.0	6.575318111005353e+17
19537.0	6.574504372688212e+17
19538.0	6.573671554482176e+17
19539.0	6.57279799070993e+17
19540.0	6.571967791846739e+17
19541.0	6.571095125655551e+17
19542.0	6.57020974932514e+17
19543.0	6.569312326953641e+17
19544.0	6.568403485589503e+17
19545.0	6.56746643333666e+17
19546.0	6.566504349477545e+17
19547.0	6.565612730624682e+17
19548.0	6.564674916406612e+17
19549.0	6.563727339945983e+17
19550.0	6.562785883673939e+17
19551.0	6.561810012438527e+17
19552.0	6.560826018933418e+17
19553.0	6.55983348023296e+17
19554.0	6.558833566547967e+17
19555.0	6.557829620039679e+17
19556.0	6.556816954971476e+17
19557.0	6.555797600687444e+17
19558.0	6.55479450562287e+17
19559.0	6.55376276066577e+17
19560.0	6.552728035655679e+17
19561.0	6.551685792355667e+17
19562.0	6.550638225784832e+17
19563.0	6.549584906027008e+17
19564.0	6.548528516038655e+17
19565.0	6.547466714699092e+17
19566.0	6.546399365693439e+17
19567.0	6.545329091160746e+17
19568.0	6.544255141718697e+17
19569.0	6.543176099692543e+17
19570.0	6.542094075516244e+17
19571.0	6.541007934630569e+17
19572.0	6.539916624964265e+17
19573.0	6.538824753261225e+17
19574.0	6.537723512182099e+17
19575.0	6.536629750246057e+17
19576.0	6.535527914274815e+17
19577.0	6.534416109841065e+17
19578.0	6.533312617818796e+17
19579.0	6.532202744162986e+17
19580.0	6.531089938688682e+17
19581.0	6.529974506881023e+17
19582.0	6.528857370088788e+17
19583.0	6.527737007876777e+17
19584.0	6.526614280077311e+17
19585.0	6.525481957807444e+17
19586.0	6.524331426665811e+17
19587.0	6.523180335584595e+17
19588.0	6.522072928179539e+17
19589.0	6.52091580359202e+17
19590.0	6.519829046842708e+17
19591.0	6.518703429866836e+17
19592.0	6.517570061817172e+17
19593.0	6.516429768272553e+17
19594.0	6.515269264474111e+17
19595.0	6.514148651302911e+17
19596.0	6.512040399077376e+17
19597.0	6.511857338679295e+17
19598.0	6.51070237975074e+17
19599.0	6.509567189275988e+17
19600.0	6.508418499433812e+17
19601.0	6.507266540830719e+17
19602.0	6.506115422486528e+17
19603.0	6.504882766872575e+17
19604.0	6.503806905526954e+17
19605.0	6.50264179778082e+17
19606.0	6.501501587423232e+17
19607.0	6.50034678927633e+17
19608.0	6.499189506703359e+17
19609.0	6.498030449939796e+17
19610.0	6.496873041537706e+17
19611.0	6.495713179467775e+17
19612.0	6.494553090905428e+17
19613.0	6.493391653874346e+17
19614.0	6.492227733116243e+17
19615.0	6.491067369127935e+17
19616.0	6.489875715631785e+17
19617.0	6.488739444424703e+17
19618.0	6.487550960424276e+17
19619.0	6.486375859748863e+17
19620.0	6.485212733112319e+17
19621.0	6.484078905786367e+17
19622.0	6.482912123813887e+17
19623.0	6.481744965053098e+17
19624.0	6.480577175049556e+17
19625.0	6.479407888378538e+17
19626.0	6.478240008896511e+17
19627.0	6.477070934037844e+17
19628.0	6.475813725667327e+17
19629.0	6.474726285246463e+17
19630.0	6.473505673576447e+17
19631.0	6.46827724714803e+17
19632.0	6.471216766386176e+17
19633.0	6.470046096293887e+17
19634.0	6.468876317491197e+17
19635.0	6.467702000451583e+17
19636.0	6.466532175511551e+17
19637.0	6.465337030257321e+17
19638.0	6.464186388665684e+17
19639.0	6.463012974100479e+17
19640.0	6.461837707750057e+17
19641.0	6.460639144138068e+17
19642.0	6.459493103697919e+17
19643.0	6.45831778701585e+17
19644.0	6.45714164195874e+17
19645.0	6.455957118779391e+17
19646.0	6.454796038963199e+17
19647.0	6.453621493334013e+17
19648.0	6.452446652006399e+17
19649.0	6.451271558321492e+17
19650.0	6.450096565299882e+17
19651.0	6.448921375145983e+17
19652.0	6.447746036793343e+17
19653.0	6.446570501308415e+17
19654.0	6.445395066486783e+17
19655.0	6.444219203147091e+17
19656.0	6.44304334819601e+17
19657.0	6.44186790638387e+17
19658.0	6.440690835783679e+17
19659.0	6.439516113993728e+17
19660.0	6.438340284907519e+17
19661.0	6.437164271271936e+17
19662.0	6.435988234567679e+17
19663.0	6.434809284919295e+17
19664.0	6.433619897745407e+17
19665.0	6.432459998625791e+17
