# Flux units: erg / (cm m2 s)
# Wavelength units: Angstrom
wave	flux
19000.0	7.162006230532096e+17
19001.0	7.160515155460096e+17
19002.0	7.159290510966783e+17
19003.0	7.157921515307007e+17
19004.0	7.156560135105194e+17
19005.0	7.155197546943828e+17
19006.0	7.153836439371775e+17
19007.0	7.152190938415104e+17
19008.0	7.150934538846207e+17
19009.0	7.149705695854591e+17
19010.0	7.147773511423316e+17
19011.0	7.147008418643968e+17
19012.0	7.14534189863185e+17
19013.0	7.144313616072701e+17
19014.0	7.142870455331497e+17
19015.0	7.141550183503187e+17
19016.0	7.140187812047529e+17
19017.0	7.136788911663784e+17
19018.0	7.137490987821738e+17
19019.0	7.136148040187904e+17
19020.0	7.134643140689919e+17
19021.0	7.133366570713087e+17
19022.0	7.132100560595625e+17
19023.0	7.130681026368851e+17
19024.0	7.12936294396723e+17
19025.0	7.12797025468416e+17
19026.0	7.12662201663488e+17
19027.0	7.125251343253501e+17
19028.0	7.123965864574975e+17
19029.0	7.122588374051497e+17
19030.0	7.121272720151892e+17
19031.0	7.119927427902121e+17
19032.0	7.118569688356182e+17
19033.0	7.117091475816445e+17
19034.0	7.11580773917218e+17
19035.0	7.114456611247444e+17
19036.0	7.09870701650465e+17
19037.0	7.111783147896832e+17
19038.0	7.110421514638676e+17
19039.0	7.109093335149225e+17
19040.0	7.107750353960959e+17
19041.0	7.106386633337513e+17
19042.0	7.10492450595362e+17
19043.0	7.103688426389501e+17
19044.0	7.102324217828692e+17
19045.0	7.100991021951658e+17
19046.0	7.099496956340905e+17
19047.0	7.098290738823168e+17
19048.0	7.09667138655573e+17
19049.0	7.095493370139987e+17
19050.0	7.094184202032467e+17
19051.0	7.091855184713042e+17
19052.0	7.091471155636906e+17
19053.0	7.090103959333545e+17
19054.0	7.088847270357674e+17
19055.0	7.087166180731562e+17
19056.0	7.086113439787689e+17
19057.0	7.084798928136874e+17
19058.0	7.083340532285437e+17
19059.0	7.082113394977449e+17
19060.0	7.080741797451092e+17
19061.0	7.079427653500927e+17
19062.0	7.078072357836116e+17
19063.0	7.076729112406697e+17
19064.0	7.075215652334252e+17
19065.0	7.073784811661993e+17
19066.0	7.072611408980649e+17
19067.0	7.071343052849151e+17
19068.0	7.07001181011968e+17
19069.0	7.06867052622643e+17
19070.0	7.067268643028991e+17
19071.0	7.065970059946666e+17
19072.0	7.064644931114323e+17
19073.0	7.063292124069887e+17
19074.0	7.061963379747497e+17
19075.0	7.060621742134611e+17
19076.0	7.059249588163923e+17
19077.0	7.057926465606995e+17
19078.0	7.056211217569106e+17
19079.0	7.055239050603178e+17
19080.0	7.053895329819305e+17
19081.0	7.052490951010986e+17
19082.0	7.051002419085311e+17
19083.0	7.049719939334143e+17
19084.0	7.048201920053247e+17
19085.0	7.047190175634772e+17
19086.0	7.045311442015572e+17
19087.0	7.044322391577939e+17
19088.0	7.043090096674131e+17
19089.0	7.041488967259476e+17
19090.0	7.040475468223828e+17
19091.0	7.039091772926633e+17
19092.0	7.037710325776383e+17
19093.0	7.036505517544787e+17
19094.0	7.035070105081172e+17
19095.0	7.033714840873641e+17
19096.0	7.032364758728704e+17
19097.0	7.031153475190783e+17
19098.0	7.029825005595306e+17
19099.0	7.028432600126804e+17
19100.0	7.027126284845055e+17
19101.0	7.025820283437055e+17
19102.0	7.024384671743999e+17
19103.0	7.023149972105897e+17
19104.0	7.021827631087615e+17
19105.0	7.020485635560787e+17
19106.0	7.019110911879849e+17
19107.0	7.017798454738943e+17
19108.0	7.016494358943059e+17
19109.0	7.01342540068727e+17
19110.0	7.013820903981055e+17
19111.0	7.01248785490466e+17
19112.0	7.011158551341737e+17
19113.0	7.009829497339903e+17
19114.0	7.008496920122707e+17
19115.0	7.007083278194004e+17
19116.0	7.005809468069204e+17
19117.0	7.004482528695636e+17
19118.0	7.002949522467498e+17
19119.0	6.999387184037883e+17
19120.0	7.000446228321619e+17
19121.0	6.999160746846889e+17
19122.0	6.997862199416148e+17
19123.0	6.996352965804031e+17
19124.0	6.995132854654292e+17
19125.0	6.99383094059554e+17
19126.0	6.99234594726434e+17
19127.0	6.989089843358374e+17
19128.0	6.988139990089724e+17
19129.0	6.988439412364627e+17
19130.0	6.987221669598548e+17
19131.0	6.985846785135956e+17
19132.0	6.984568092841299e+17
19133.0	6.98180432682462e+17
19134.0	6.981082362675201e+17
19135.0	6.980607237510484e+17
19136.0	6.979293182339753e+17
19137.0	6.977754174761641e+17
19138.0	6.976029869124266e+17
19139.0	6.975314868218538e+17
19140.0	6.973993808560127e+17
19141.0	6.972671698228563e+17
19142.0	6.971307613399722e+17
19143.0	6.969922618567337e+17
19144.0	6.968594376862377e+17
19145.0	6.967365877803689e+17
19146.0	6.965229353872044e+17
19147.0	6.964624042404522e+17
19148.0	6.963395704826537e+17
19149.0	6.9620766605312e+17
19150.0	6.960634247075155e+17
19151.0	6.959442049717587e+17
19152.0	6.957886095753215e+17
19153.0	6.956774507326121e+17
19154.0	6.955324851006121e+17
19155.0	6.954169083275946e+17
19156.0	6.952849169361578e+17
19157.0	6.951513098289151e+17
19158.0	6.94897016797047e+17
19159.0	6.948870214210899e+17
19160.0	6.947271317564072e+17
19161.0	6.946050830325078e+17
19162.0	6.94225406315725e+17
19163.0	6.943611274919935e+17
19164.0	6.942308786940585e+17
19165.0	6.940962822903123e+17
19166.0	6.939528201065812e+17
19167.0	6.938105516217684e+17
19168.0	6.936686929204563e+17
19169.0	6.935532407182676e+17
19170.0	6.934407442421075e+17
19171.0	6.933019534644564e+17
19172.0	6.931766092759039e+17
19173.0	6.930463135716691e+17
19174.0	6.929077353753257e+17
19175.0	6.92783333507072e+17
19176.0	6.926508692078591e+17
19177.0	6.925006642610175e+17
19178.0	6.923878767001599e+17
19179.0	6.922476115547476e+17
19180.0	6.920196317686444e+17
19181.0	6.919825460122963e+17
19182.0	6.917568048660481e+17
19183.0	6.917204440951465e+17
19184.0	6.915661517291517e+17
19185.0	6.914668376009385e+17
19186.0	6.913395357209939e+17
19187.0	6.911955152754003e+17
19188.0	6.910747864989693e+17
19189.0	6.909383762684585e+17
19190.0	6.908061087520083e+17
19191.0	6.906763928403967e+17
19192.0	6.905266524826281e+17
19193.0	6.901424530478418e+17
19194.0	6.901729873712467e+17
19195.0	6.901417052034388e+17
19196.0	6.900266445395284e+17
19197.0	6.898969791692799e+17
19198.0	6.897661995821738e+17
19199.0	6.88052871067511e+17
19200.0	6.884965406998533e+17
19201.0	6.893740653630804e+17
19202.0	6.892443386860884e+17
19203.0	6.891113287079252e+17
19204.0	6.889794570638676e+17
19205.0	6.888504783011839e+17
19206.0	6.88719524930082e+17
19207.0	6.885798323071657e+17
19208.0	6.884263078483284e+17
19209.0	6.88325956468736e+17
19210.0	6.8819477884218e+17
19211.0	6.880595157538132e+17
19212.0	6.879382461917865e+17
19213.0	6.877825124532223e+17
19214.0	6.876435266404351e+17
19215.0	6.875415620616191e+17
19216.0	6.873702606045183e+17
19217.0	6.872826006994943e+17
19218.0	6.870501338469715e+17
19219.0	6.870026769050281e+17
19220.0	6.868908284488362e+17
19221.0	6.867192965147306e+17
19222.0	6.866344455350953e+17
19223.0	6.865009126670335e+17
19224.0	6.862942709830995e+17
19225.0	6.862046877100713e+17
19226.0	6.861096947635539e+17
19227.0	6.859791072755711e+17
19228.0	6.858531024841385e+17
19229.0	6.857222196472489e+17
19230.0	6.855808743986516e+17
19231.0	6.854435112222719e+17
19232.0	6.852686828448425e+17
19233.0	6.851923753129299e+17
19234.0	6.850689581973501e+17
19235.0	6.849372037141844e+17
19236.0	6.848115636174847e+17
19237.0	6.846801750174377e+17
19238.0	6.845385407113898e+17
19239.0	6.844224528624297e+17
19240.0	6.842235101031081e+17
19241.0	6.841398836505257e+17
19242.0	6.840140386620755e+17
19243.0	6.83873751216947e+17
19244.0	6.837698813755392e+17
19245.0	6.836409826541567e+17
19246.0	6.835106866003968e+17
19247.0	6.833698333436585e+17
19248.0	6.832536591619412e+17
19249.0	6.831229305356287e+17
19250.0	6.829914097451007e+17
19251.0	6.828512464513704e+17
19252.0	6.8266092934813e+17
19253.0	6.826020225155071e+17
19254.0	6.824642073329663e+17
19255.0	6.823163283374079e+17
19256.0	6.822081613616468e+17
19257.0	6.82084790243601e+17
19258.0	6.819501238648832e+17
19259.0	6.818130709271892e+17
19260.0	6.816847495517523e+17
19261.0	6.815636516066644e+17
19262.0	6.814260499841023e+17
19263.0	6.812985313285459e+17
19264.0	6.810997048912552e+17
19265.0	6.810230579003391e+17
19266.0	6.809024134294185e+17
19267.0	6.807878154671444e+17
19268.0	6.806553691335338e+17
19269.0	6.805270723646804e+17
19270.0	6.803949499711487e+17
19271.0	6.802232697683969e+17
19272.0	6.801340732101971e+17
19273.0	6.78314941629506e+17
19274.0	6.790672409427956e+17
19275.0	6.797504158892031e+17
19276.0	6.796182313500672e+17
19277.0	6.7948751880192e+17
19278.0	6.793589236083369e+17
19279.0	6.791911500502355e+17
19280.0	6.790883777183743e+17
19281.0	6.789700668882943e+17
19282.0	6.788420156260351e+17
19283.0	6.786851478175743e+17
19284.0	6.785139331825661e+17
19285.0	6.784174264418303e+17
19286.0	6.783192240837972e+17
19287.0	6.781946914231635e+17
19288.0	6.777316415198547e+17
19289.0	6.76931003552015e+17
19290.0	6.778056059737428e+17
19291.0	6.776391324401664e+17
19292.0	6.775455751340032e+17
19293.0	6.774154173524649e+17
19294.0	6.772844842538323e+17
19295.0	6.771565532282879e+17
19296.0	6.770253779785044e+17
19297.0	6.768924809669289e+17
19298.0	6.767630572584959e+17
19299.0	6.7663714858653e+17
19300.0	6.765072066718377e+17
19301.0	6.763756745566889e+17
19302.0	6.762439695663103e+17
19303.0	6.761010481681747e+17
19304.0	6.759747036381183e+17
19305.0	6.758541497641642e+17
19306.0	6.757239879980372e+17
19307.0	6.755846259561812e+17
19308.0	6.754599144084819e+17
19309.0	6.752922336843091e+17
19310.0	6.751272714982739e+17
19311.0	6.750664263379625e+17
19312.0	6.749279406260223e+17
19313.0	6.746647003747675e+17
19314.0	6.744729402911398e+17
19315.0	6.74358771895501e+17
19316.0	6.744217884469929e+17
19317.0	6.742904860398931e+17
19318.0	6.741589359591423e+17
19319.0	6.7403040962205e+17
19320.0	6.73863101981218e+17
19321.0	6.737683161634131e+17
19322.0	6.736100228508329e+17
19323.0	6.734779187025236e+17
19324.0	6.733738576707583e+17
19325.0	6.732250558584148e+17
19326.0	6.731114623620436e+17
19327.0	6.729765328606548e+17
19328.0	6.728488488097107e+17
19329.0	6.727168719585279e+17
19330.0	6.725791000472233e+17
19331.0	6.724470474888531e+17
19332.0	6.723187894474068e+17
19333.0	6.721847227143508e+17
19334.0	6.720086965136041e+17
19335.0	6.719220360413183e+17
19336.0	6.717887841916243e+17
19337.0	6.716526181395114e+17
19338.0	6.714951771095037e+17
19339.0	6.713891328709972e+17
19340.0	6.712498128420864e+17
19341.0	6.71121168015906e+17
19342.0	6.709124243565226e+17
19343.0	6.708536155308031e+17
19344.0	6.707168408851795e+17
19345.0	6.703189490051747e+17
19346.0	6.703794730216106e+17
19347.0	6.703024846842538e+17
19348.0	6.701769915280042e+17
19349.0	6.700372426315092e+17
19350.0	6.699015044683091e+17
19351.0	6.697644792829267e+17
19352.0	6.696232565779114e+17
19353.0	6.694968508809215e+17
19354.0	6.69354023854626e+17
19355.0	6.692061519194793e+17
19356.0	6.690815654319444e+17
19357.0	6.689409070006271e+17
19358.0	6.687863248781312e+17
19359.0	6.68564710297873e+17
19360.0	6.685164779689299e+17
19361.0	6.683617614888959e+17
19362.0	6.68242041512482e+17
19363.0	6.680990634912425e+17
19364.0	6.679534396331348e+17
19365.0	6.678107334027945e+17
19366.0	6.6766995718144e+17
19367.0	6.675248810994346e+17
19368.0	6.673799100847444e+17
19369.0	6.671995334819839e+17
19370.0	6.668668008136701e+17
19371.0	6.669314144862207e+17
19372.0	6.667902616862719e+17
19373.0	6.666356174181716e+17
19374.0	6.664877108101119e+17
19375.0	6.663353718713001e+17
19376.0	6.661798965018623e+17
19377.0	6.660277924440745e+17
19378.0	6.658725978133844e+17
19379.0	6.657137951724884e+17
19380.0	6.655565658150227e+17
19381.0	6.653951364912467e+17
19382.0	6.652207826993151e+17
19383.0	6.650551209732778e+17
19384.0	6.6490432763549e+17
19385.0	6.647357916228265e+17
19386.0	6.64566083162385e+17
19387.0	6.643924863724202e+17
19388.0	6.642173239186772e+17
19389.0	6.640398161499476e+17
19390.0	6.638518427538772e+17
19391.0	6.623738755110208e+17
19392.0	6.634846886909267e+17
19393.0	6.632964082718036e+17
19394.0	6.631009922930004e+17
19395.0	6.629024498799956e+17
19396.0	6.626958483215699e+17
19397.0	6.624938062512128e+17
19398.0	6.622775354938708e+17
19399.0	6.619728139954856e+17
19400.0	6.618304925226323e+17
19401.0	6.616048519697747e+17
19402.0	6.613677800510803e+17
19403.0	6.611193162629119e+17
19404.0	6.608685648314367e+17
19405.0	6.606022439337981e+17
19406.0	6.603289337178793e+17
19407.0	6.600481581301759e+17
19408.0	6.596606712698199e+17
19409.0	6.594197813460992e+17
19410.0	6.591205631240873e+17
19411.0	6.587823577978195e+17
19412.0	6.584244191100927e+17
19413.0	6.580533967803732e+17
19414.0	6.576539655908009e+17
19415.0	6.572373361470122e+17
19416.0	6.567674149950803e+17
19417.0	6.56294434517811e+17
19418.0	6.558198384645462e+17
19419.0	6.552755008525652e+17
19420.0	6.547085941101908e+17
19421.0	6.540913686522538e+17
19422.0	6.534216240070655e+17
19423.0	6.527036654179668e+17
19424.0	6.519279205045588e+17
19425.0	6.510854296742569e+17
19426.0	6.501449536110591e+17
19427.0	6.491105075920895e+17
19428.0	6.480596889676458e+17
19429.0	6.468533031884115e+17
19430.0	6.45463563759343e+17
19431.0	6.437310152660315e+17
19432.0	6.424447004530003e+17
19433.0	6.406617930487126e+17
19434.0	6.386840449144148e+17
19435.0	6.364749739939155e+17
19436.0	6.339331363613352e+17
19437.0	6.313562270072831e+17
19438.0	6.265964737156435e+17
19439.0	6.24926270615279e+17
19440.0	6.211197603588777e+17
19441.0	6.169115385397245e+17
19442.0	6.121065057091587e+17
19443.0	6.066526510994772e+17
19444.0	6.007436859845288e+17
19445.0	5.937952340661591e+17
19446.0	5.860151598077267e+17
19447.0	5.769369451058511e+17
19448.0	5.661765496995845e+17
19449.0	5.501384584243884e+17
19450.0	5.095808642143547e+17
19451.0	4.946144752129362e+17
19452.0	5.329283318109533e+17
19453.0	5.594623010755933e+17
19454.0	5.713191214514171e+17
19455.0	5.810452488170152e+17
19456.0	5.890080010229079e+17
19457.0	5.962578033377275e+17
19458.0	6.020510250958853e+17
19459.0	6.077675382767617e+17
19460.0	6.12675415651123e+17
19461.0	6.169085510767956e+17
19462.0	6.206699646659242e+17
19463.0	6.240093989066067e+17
19464.0	6.269546689549652e+17
19465.0	6.29573173571311e+17
19466.0	6.318130006239912e+17
19467.0	6.33935523619362e+17
19468.0	6.357638690373632e+17
19469.0	6.371050051513001e+17
19470.0	6.388144810579284e+17
19471.0	6.40091790770176e+17
19472.0	6.412339443488084e+17
19473.0	6.422507259166719e+17
19474.0	6.431516333353641e+17
19475.0	6.438389797967187e+17
19476.0	6.446483202463059e+17
19477.0	6.452788149441876e+17
19478.0	6.458344016095913e+17
19479.0	6.463283640926207e+17
19480.0	6.46765738074658e+17
19481.0	6.471575003288916e+17
19482.0	6.474989082858836e+17
19483.0	6.478069125961044e+17
19484.0	6.480712374244691e+17
19485.0	6.483004402696191e+17
19486.0	6.485103730141865e+17
19487.0	6.486929839925929e+17
19488.0	6.488502418713257e+17
19489.0	6.489822752058025e+17
19490.0	6.48926185617271e+17
19491.0	6.491885907826003e+17
19492.0	6.492753626136575e+17
19493.0	6.493385494538921e+17
19494.0	6.493929364346195e+17
19495.0	6.493722803961852e+17
19496.0	6.493812736830121e+17
19497.0	6.494767609282559e+17
19498.0	6.494232929195351e+17
19499.0	6.473168369046845e+17
19500.0	6.494837883447977e+17
19501.0	6.494627938959359e+17
19502.0	6.494472622484138e+17
19503.0	6.494212516915881e+17
19504.0	6.493682417707689e+17
19505.0	6.493516594500948e+17
19506.0	6.49309822525986e+17
19507.0	6.492604826211667e+17
19508.0	6.492121121598122e+17
19509.0	6.491557414830079e+17
19510.0	6.490727887754579e+17
19511.0	6.479071991037947e+17
19512.0	6.487104678789107e+17
19513.0	6.48287877280562e+17
19514.0	6.484347594997755e+17
19515.0	6.486737310187521e+17
19516.0	6.486800734355456e+17
19517.0	6.485920554767702e+17
19518.0	6.48522400670242e+17
19519.0	6.484398888539475e+17
19520.0	6.483522790708566e+17
19521.0	6.482703315282602e+17
19522.0	6.481755743715327e+17
19523.0	6.48094349857041e+17
19524.0	6.480034409043284e+17
19525.0	6.47898885993267e+17
19526.0	6.478162663134548e+17
19527.0	6.477212546323795e+17
19528.0	6.476273989014867e+17
19529.0	6.475295042655571e+17
19530.0	6.474335191564288e+17
19531.0	6.473368250002089e+17
19532.0	6.472365185695743e+17
19533.0	6.471372981840554e+17
19534.0	6.470363109479764e+17
19535.0	6.469311398237523e+17
19536.0	6.46826640417314e+17
19537.0	6.467286144996691e+17
19538.0	6.466201287568042e+17
19539.0	6.464490696605699e+17
19540.0	6.46411522810402e+17
19541.0	6.463097484432723e+17
19542.0	6.46202866742067e+17
19543.0	6.46096052359441e+17
19544.0	6.459895542273364e+17
19545.0	6.458390019222182e+17
19546.0	6.456558068170751e+17
19547.0	6.45646581235712e+17
19548.0	6.455564485088596e+17
19549.0	6.454326711724714e+17
19550.0	6.453382464842409e+17
19551.0	6.452299011107497e+17
19552.0	6.45119137091857e+17
19553.0	6.450067967137108e+17
19554.0	6.448930988490751e+17
19555.0	6.447854816766633e+17
19556.0	6.446756243963903e+17
19557.0	6.445631423206739e+17
19558.0	6.444520332503722e+17
19559.0	6.443311375406419e+17
19560.0	6.442244284350463e+17
19561.0	6.441108345891497e+17
19562.0	6.440001250263039e+17
19563.0	6.438791550074879e+17
19564.0	6.437756771237887e+17
19565.0	6.436622920843263e+17
19566.0	6.435468038810282e+17
19567.0	6.434304126440788e+17
19568.0	6.433181332930559e+17
19569.0	6.432052154990591e+17
19570.0	6.430957775093759e+17
19571.0	6.429810326066516e+17
19572.0	6.428621405159424e+17
19573.0	6.427513839069866e+17
19574.0	6.426214118632105e+17
19575.0	6.425194516884137e+17
19576.0	6.424070827190953e+17
19577.0	6.422511122819753e+17
19578.0	6.421729410809855e+17
19579.0	6.420606878045523e+17
19580.0	6.419461273812992e+17
19581.0	6.418322086166528e+17
19582.0	6.417195978457087e+17
19583.0	6.416041146755753e+17
19584.0	6.414878905816404e+17
19585.0	6.413564388573183e+17
19586.0	6.412011818014036e+17
19587.0	6.410759142288041e+17
19588.0	6.409553423892479e+17
19589.0	6.408231898666323e+17
19590.0	6.407813279165097e+17
19591.0	6.406777918717951e+17
19592.0	6.405619548422144e+17
19593.0	6.404406711593642e+17
19594.0	6.402933532218707e+17
19595.0	6.402113119365801e+17
19596.0	6.396659348362584e+17
19597.0	6.399791158263807e+17
19598.0	6.398363347976191e+17
19599.0	6.397497528986282e+17
19600.0	6.396339664803156e+17
19601.0	6.395095258846548e+17
19602.0	6.393969533517823e+17
19603.0	6.392123222567593e+17
19604.0	6.391598869555882e+17
19605.0	6.390119207884116e+17
19606.0	6.389255733510143e+17
19607.0	6.388195142227284e+17
19608.0	6.387012170940415e+17
19609.0	6.385791041972905e+17
19610.0	6.384706686462634e+17
19611.0	6.383534553956351e+17
19612.0	6.382386266068308e+17
19613.0	6.381185283041962e+17
19614.0	6.37999666901811e+17
19615.0	6.378887824364884e+17
19616.0	6.377617335429802e+17
19617.0	6.376540566017363e+17
19618.0	6.374777488932863e+17
19619.0	6.373385805583699e+17
19620.0	6.372264804439379e+17
19621.0	6.371879874286931e+17
19622.0	6.370728770622804e+17
19623.0	6.369566709339476e+17
19624.0	6.368385907905876e+17
19625.0	6.367223615236778e+17
19626.0	6.366051369484287e+17
19627.0	6.364901244491092e+17
19628.0	6.363363644101972e+17
19629.0	6.362449847167657e+17
19630.0	6.361174427828224e+17
19631.0	6.343860240951969e+17
19632.0	6.359054978908159e+17
19633.0	6.357833980663124e+17
19634.0	6.356731909111807e+17
19635.0	6.355513996476415e+17
19636.0	6.354392028545023e+17
19637.0	6.352657413308416e+17
19638.0	6.352053713152681e+17
19639.0	6.350847622862163e+17
19640.0	6.349654416774484e+17
19641.0	6.347961771840855e+17
19642.0	6.347390813820244e+17
19643.0	6.346181742777684e+17
19644.0	6.345003396410025e+17
19645.0	6.343595195891711e+17
19646.0	6.342756356762282e+17
19647.0	6.341593323099476e+17
19648.0	6.340420728520703e+17
19649.0	6.339251818637994e+17
19650.0	6.338098316531027e+17
19651.0	6.336922418937855e+17
19652.0	6.335754858921983e+17
19653.0	6.334597745519273e+17
19654.0	6.333424486143316e+17
19655.0	6.332250150928383e+17
19656.0	6.331088537037482e+17
19657.0	6.32992775152162e+17
19658.0	6.328766529099091e+17
19659.0	6.3276153058973e+17
19660.0	6.32645968077346e+17
19661.0	6.325290438142633e+17
19662.0	6.324133785414314e+17
19663.0	6.322908773919402e+17
19664.0	6.321717365090986e+17
19665.0	6.320645098962943e+17
