# Flux units: erg / (cm m2 s)
# Wavelength units: Angstrom
wave	flux
19000.0	5.982701221838847e+17
19001.0	5.981473068111188e+17
19002.0	5.980467498407254e+17
19003.0	5.97934451335714e+17
19004.0	5.978228500638378e+17
19005.0	5.977104976620201e+17
19006.0	5.975997770541737e+17
19007.0	5.97484844945681e+17
19008.0	5.973687437448532e+17
19009.0	5.972548145643519e+17
19010.0	5.970970414153725e+17
19011.0	5.970365487863123e+17
19012.0	5.968982027446953e+17
19013.0	5.968165594289492e+17
19014.0	5.96699048452642e+17
19015.0	5.965890402473299e+17
19016.0	5.964755987245737e+17
19017.0	5.96370169860369e+17
19018.0	5.96256640536849e+17
19019.0	5.961464098237098e+17
19020.0	5.960331139132074e+17
19021.0	5.959236631308969e+17
19022.0	5.95811689964066e+17
19023.0	5.95696451461666e+17
19024.0	5.955866747819348e+17
19025.0	5.954760015697236e+17
19026.0	5.953609770467327e+17
19027.0	5.952334281222825e+17
19028.0	5.951429062339242e+17
19029.0	5.950302077321213e+17
19030.0	5.949213180777812e+17
19031.0	5.948098556373673e+17
19032.0	5.94697791803665e+17
19033.0	5.945767114746537e+17
19034.0	5.944736953838249e+17
19035.0	5.943573838386516e+17
19036.0	5.927003943337979e+17
19037.0	5.941380750071124e+17
19038.0	5.940270553453908e+17
19039.0	5.939186235692372e+17
19040.0	5.938073895086762e+17
19041.0	5.936951615378772e+17
19042.0	5.935689302540287e+17
19043.0	5.934736325913257e+17
19044.0	5.933609483501567e+17
19045.0	5.93250276745762e+17
19046.0	5.93133951918626e+17
19047.0	5.930269429202943e+17
19048.0	5.928911807097514e+17
19049.0	5.927873507841363e+17
19050.0	5.926890402829652e+17
19051.0	5.923517653931345e+17
19052.0	5.924363370321236e+17
19053.0	5.923606854893567e+17
19054.0	5.922504932240042e+17
19055.0	5.921094556276052e+17
19056.0	5.920244943377748e+17
19057.0	5.919164719256915e+17
19058.0	5.917992662248106e+17
19059.0	5.916925357282644e+17
19060.0	5.915815165558783e+17
19061.0	5.914733744663209e+17
19062.0	5.913618196114089e+17
19063.0	5.912511000521386e+17
19064.0	5.911258422662484e+17
19065.0	5.910103257513983e+17
19066.0	5.909101408856745e+17
19067.0	5.908061860397055e+17
19068.0	5.906967408498004e+17
19069.0	5.905860633733802e+17
19070.0	5.904718275892563e+17
19071.0	5.903630848753663e+17
19072.0	5.902512492817066e+17
19073.0	5.901422861571412e+17
19074.0	5.900321291239423e+17
19075.0	5.89921381323025e+17
19076.0	5.898082764630698e+17
19077.0	5.896982565137065e+17
19078.0	5.895852315552425e+17
19079.0	5.894783797035007e+17
19080.0	5.893661696283988e+17
19081.0	5.892524737211049e+17
19082.0	5.89141596176384e+17
19083.0	5.890250110227796e+17
19084.0	5.88900951200017e+17
19085.0	5.888140150221481e+17
19086.0	5.886599279673344e+17
19087.0	5.88548591985186e+17
19088.0	5.884698807675561e+17
19089.0	5.883321254936575e+17
19090.0	5.882585116136787e+17
19091.0	5.881481011746132e+17
19092.0	5.880226164069716e+17
19093.0	5.879308704109908e+17
19094.0	5.87820578251298e+17
19095.0	5.877102077280255e+17
19096.0	5.875979472513706e+17
19097.0	5.874892903109971e+17
19098.0	5.873767470683476e+17
19099.0	5.87266017862178e+17
19100.0	5.871552465032532e+17
19101.0	5.8704731322013e+17
19102.0	5.869250589054292e+17
19103.0	5.868275155424596e+17
19104.0	5.867176906981376e+17
19105.0	5.866019745344169e+17
19106.0	5.864898795929599e+17
19107.0	5.863838416459092e+17
19108.0	5.862744386087593e+17
19109.0	5.860559016689661e+17
19110.0	5.86053145591808e+17
19111.0	5.859444483162111e+17
19112.0	5.85834673733632e+17
19113.0	5.857262180499455e+17
19114.0	5.856152822743039e+17
19115.0	5.854981845767508e+17
19116.0	5.853941239644159e+17
19117.0	5.852842229934762e+17
19118.0	5.851612105583274e+17
19119.0	5.843745902340768e+17
19120.0	5.849426220985002e+17
19121.0	5.84837625946658e+17
19122.0	5.847370120036351e+17
19123.0	5.846271370373801e+17
19124.0	5.845101592969215e+17
19125.0	5.844066649156265e+17
19126.0	5.84296737940002e+17
19127.0	5.839856885650771e+17
19128.0	5.840593111831892e+17
19129.0	5.839594043299156e+17
19130.0	5.838565720894121e+17
19131.0	5.837485484190377e+17
19132.0	5.836387220368042e+17
19133.0	5.835172602358441e+17
19134.0	5.83410181612066e+17
19135.0	5.83309226672128e+17
19136.0	5.83200622579985e+17
19137.0	5.830725090323114e+17
19138.0	5.829793524918954e+17
19139.0	5.828717667767636e+17
19140.0	5.827623784196777e+17
19141.0	5.826528394870783e+17
19142.0	5.825405002973181e+17
19143.0	5.82427174117922e+17
19144.0	5.823200647359145e+17
19145.0	5.822148506200745e+17
19146.0	5.820382263115776e+17
19147.0	5.819846502995283e+17
19148.0	5.81883932058146e+17
19149.0	5.817737050499754e+17
19150.0	5.816667839922175e+17
19151.0	5.815577366320468e+17
19152.0	5.814470996306601e+17
19153.0	5.813335589126143e+17
19154.0	5.81215468003874e+17
19155.0	5.811209830574761e+17
19156.0	5.810112618823679e+17
19157.0	5.808984118263807e+17
19158.0	5.807168948622675e+17
19159.0	5.806808019675817e+17
19160.0	5.805719046236842e+17
19161.0	5.804629711388671e+17
19162.0	5.801842406937942e+17
19163.0	5.802419211119274e+17
19164.0	5.80137683919394e+17
19165.0	5.800200411021312e+17
19166.0	5.799015343980543e+17
19167.0	5.797943279878144e+17
19168.0	5.796999209156607e+17
19169.0	5.795882196795391e+17
19170.0	5.794832145798484e+17
19171.0	5.793636216908457e+17
19172.0	5.792642574406995e+17
19173.0	5.791558415329961e+17
19174.0	5.790409678651391e+17
19175.0	5.789383160496127e+17
19176.0	5.788291142691497e+17
19177.0	5.787036601898324e+17
19178.0	5.78607257817361e+17
19179.0	5.784874743671466e+17
19180.0	5.783916743666345e+17
19181.0	5.782701372080127e+17
19182.0	5.781740854094505e+17
19183.0	5.78067220275746e+17
19184.0	5.779571331476137e+17
19185.0	5.778482912384339e+17
19186.0	5.777405203447807e+17
19187.0	5.776245077136724e+17
19188.0	5.775227087399593e+17
19189.0	5.774137442172925e+17
19190.0	5.773041035728212e+17
19191.0	5.77191614157073e+17
19192.0	5.770879294242815e+17
19193.0	5.769775342245204e+17
19194.0	5.768678812068522e+17
19195.0	5.767612415868927e+17
19196.0	5.766500993815892e+17
19197.0	5.765411550614868e+17
19198.0	5.7642760749274445e+17
19199.0	5.75303803225156e+17
19200.0	5.755173581706584e+17
19201.0	5.7610270754734074e+17
19202.0	5.759991613663913e+17
19203.0	5.758888566936916e+17
19204.0	5.757800879751167e+17
19205.0	5.756739444714154e+17
19206.0	5.755652088878421e+17
19207.0	5.75445993206579e+17
19208.0	5.7532363927715834e+17
19209.0	5.7523990719802016e+17
19210.0	5.75131233690146e+17
19211.0	5.75024207704883e+17
19212.0	5.749156574396415e+17
19213.0	5.747902882250751e+17
19214.0	5.74676493541922e+17
19215.0	5.7458599933597e+17
19216.0	5.744814414189909e+17
19217.0	5.7437223754137594e+17
19218.0	5.7417181461217254e+17
19219.0	5.741395214073855e+17
19220.0	5.740444910616575e+17
19221.0	5.739022203398827e+17
19222.0	5.7382989970363725e+17
19223.0	5.7371971282097485e+17
19224.0	5.7360859494263456e+17
19225.0	5.7348828252078074e+17
19226.0	5.7339425342532256e+17
19227.0	5.732856517798569e+17
19228.0	5.7318001760447136e+17
19229.0	5.7307147013543245e+17
19230.0	5.729625774751743e+17
19231.0	5.728531160672937e+17
19232.0	5.7274517740148045e+17
19233.0	5.7262994931493536e+17
19234.0	5.725264552132607e+17
19235.0	5.724174424560981e+17
19236.0	5.723121950654462e+17
19237.0	5.7220194911300256e+17
19238.0	5.7197331494557e+17
19239.0	5.7184995829787296e+17
19240.0	5.717391692529663e+17
19241.0	5.716300131904171e+17
19242.0	5.715227660255231e+17
19243.0	5.7139851745908045e+17
19244.0	5.7130779920738976e+17
19245.0	5.7119868795398816e+17
19246.0	5.710887812508329e+17
19247.0	5.7098176673000096e+17
19248.0	5.708738803531775e+17
19249.0	5.707644456490324e+17
19250.0	5.706536568138409e+17
19251.0	5.7053401303394963e+17
19252.0	5.7040945227147936e+17
19253.0	5.703283291193344e+17
19254.0	5.7022230256680954e+17
19255.0	5.700939998560255e+17
19256.0	5.7000160164577274e+17
19257.0	5.6989689860587514e+17
19258.0	5.6978818727936e+17
19259.0	5.6967180443101856e+17
19260.0	5.6953893719900154e+17
19261.0	5.6946057599604045e+17
19262.0	5.693470425481215e+17
19263.0	5.692377358401536e+17
19264.0	5.690733084278781e+17
19265.0	5.6900414023051936e+17
19266.0	5.688903912652798e+17
19267.0	5.688096428741972e+17
19268.0	5.6869999712665594e+17
19269.0	5.6859145168486394e+17
19270.0	5.684826791215103e+17
19271.0	5.6833522067483315e+17
19272.0	5.6826093311972685e+17
19273.0	5.6806603478794214e+17
19274.0	5.679757001752574e+17
19275.0	5.679377761173503e+17
19276.0	5.678264741789696e+17
19277.0	5.677179012644864e+17
19278.0	5.6760900720612685e+17
19279.0	5.674980730383017e+17
19280.0	5.673809260576768e+17
19281.0	5.672803237888e+17
19282.0	5.6717273234145286e+17
19283.0	5.670483613712383e+17
19284.0	5.6694547963794765e+17
19285.0	5.668239137483434e+17
19286.0	5.667305400128852e+17
19287.0	5.666244755019092e+17
19288.0	5.660931068876112e+17
19289.0	5.653842662260717e+17
19290.0	5.6629506633018016e+17
19291.0	5.661577750861141e+17
19292.0	5.660759507861503e+17
19293.0	5.6596509078760096e+17
19294.0	5.658546263119187e+17
19295.0	5.6574562068507296e+17
19296.0	5.656320898236415e+17
19297.0	5.6552161346409805e+17
19298.0	5.6541142846887245e+17
19299.0	5.6530096713891834e+17
19300.0	5.6519247566383776e+17
19301.0	5.650817010193747e+17
19302.0	5.64969845502771e+17
19303.0	5.64852038897937e+17
19304.0	5.6474543290231456e+17
19305.0	5.6463596660107936e+17
19306.0	5.6452532987931296e+17
19307.0	5.644086214131711e+17
19308.0	5.641412737499137e+17
19309.0	5.639785592913919e+17
19310.0	5.638537446337193e+17
19311.0	5.6378524193259514e+17
19312.0	5.6367947682501965e+17
19313.0	5.635681223879338e+17
19314.0	5.6150007340509894e+17
19315.0	5.6153530891414426e+17
19316.0	5.6322342078382074e+17
19317.0	5.631166998642687e+17
19318.0	5.630033842405375e+17
19319.0	5.6289217877114874e+17
19320.0	5.627774695899135e+17
19321.0	5.6266273020968954e+17
19322.0	5.6254080836348576e+17
19323.0	5.624205622815402e+17
19324.0	5.6232110296050336e+17
19325.0	5.621727823746389e+17
19326.0	5.6209248144588794e+17
19327.0	5.619763896822441e+17
19328.0	5.6185831876635296e+17
19329.0	5.6174765680885754e+17
19330.0	5.61627394089506e+17
19331.0	5.6151067506769914e+17
19332.0	5.613990071762942e+17
19333.0	5.611984391241726e+17
19334.0	5.6092581984993274e+17
19335.0	5.607863398083241e+17
19336.0	5.6067664393885005e+17
19337.0	5.6055866410926074e+17
19338.0	5.604171536749908e+17
19339.0	5.6032094004619936e+17
19340.0	5.6018656496189434e+17
19341.0	5.60074134266402e+17
19342.0	5.5991628638890643e+17
19343.0	5.598399676721834e+17
19344.0	5.597152359219199e+17
19345.0	5.5936622257329434e+17
19346.0	5.593783847266985e+17
19347.0	5.5930611092684794e+17
19348.0	5.589567016359252e+17
19349.0	5.588280884068351e+17
19350.0	5.5870193338941434e+17
19351.0	5.5857695298682874e+17
19352.0	5.5844171814010874e+17
19353.0	5.583278290851156e+17
19354.0	5.582002896677545e+17
19355.0	5.58061023465745e+17
19356.0	5.5794215234655565e+17
19357.0	5.575793956618239e+17
19358.0	5.573490540631379e+17
19359.0	5.5720984881834656e+17
19360.0	5.5707525311365114e+17
19361.0	5.569445543368021e+17
19362.0	5.568132782839124e+17
19363.0	5.5667642129012045e+17
19364.0	5.561858114540883e+17
19365.0	5.560040133317973e+17
19366.0	5.5586213344925e+17
19367.0	5.5571907140212045e+17
19368.0	5.555747369429674e+17
19369.0	5.552670534270977e+17
19370.0	5.550395684290558e+17
19371.0	5.548938718696789e+17
19372.0	5.5474812518836896e+17
19373.0	5.5459269672523085e+17
19374.0	5.544393400385534e+17
19375.0	5.542828948761258e+17
19376.0	5.541245603894613e+17
19377.0	5.539626587171498e+17
19378.0	5.538003132874751e+17
19379.0	5.536356874846207e+17
19380.0	5.5345555673797965e+17
19381.0	5.5323765229922976e+17
19382.0	5.53057655980032e+17
19383.0	5.528782431584255e+17
19384.0	5.5271208580546554e+17
19385.0	5.525318268529321e+17
19386.0	5.5234906655730336e+17
19387.0	5.5216281303558816e+17
19388.0	5.519733705146368e+17
19389.0	5.5178052550437536e+17
19390.0	5.515835650430292e+17
19391.0	5.5001350996841606e+17
19392.0	5.5116207915444883e+17
19393.0	5.5093433487851514e+17
19394.0	5.506621870440448e+17
19395.0	5.504418926209705e+17
19396.0	5.5022213150365005e+17
19397.0	5.499995194479956e+17
19398.0	5.4976453664221856e+17
19399.0	5.494495539888126e+17
19400.0	5.491806085753515e+17
19401.0	5.488985938504361e+17
19402.0	5.486462368393898e+17
19403.0	5.4838506878402554e+17
19404.0	5.4803634092769286e+17
19405.0	5.4764333757890554e+17
19406.0	5.47361639244322e+17
19407.0	5.469900938149887e+17
19408.0	5.464179994176172e+17
19409.0	5.4618950415155194e+17
19410.0	5.4555139791039155e+17
19411.0	5.4515542569342246e+17
19412.0	5.444131896339113e+17
19413.0	5.437769516755629e+17
19414.0	5.430301241813668e+17
19415.0	5.4208584612140397e+17
19416.0	5.4089158383807155e+17
19417.0	5.3952569734594515e+17
19418.0	5.3856246921079456e+17
19419.0	5.379062085539156e+17
19420.0	5.372189847060478e+17
19421.0	5.365033661191509e+17
19422.0	5.357511257358334e+17
19423.0	5.349678565206698e+17
19424.0	5.3414792028050765e+17
19425.0	5.3328192568907085e+17
19426.0	5.323731437442387e+17
19427.0	5.314091473524053e+17
19428.0	5.304001613179561e+17
19429.0	5.293606784991232e+17
19430.0	5.283081014826326e+17
19431.0	5.2707150427149677e+17
19432.0	5.262311161156947e+17
19433.0	5.2510359814143994e+17
19434.0	5.2391780653465594e+17
19435.0	5.227120049520639e+17
19436.0	5.213589003916627e+17
19437.0	5.20049468182801e+17
19438.0	5.161193807282182e+17
19439.0	5.159888177769128e+17
19440.0	5.121560109121517e+17
19441.0	5.062172530267474e+17
19442.0	5.026993497527637e+17
19443.0	4.990931544222379e+17
19444.0	4.951430112739324e+17
19445.0	4.907367498689191e+17
19446.0	4.845731695995565e+17
19447.0	4.728020169042584e+17
19448.0	4.614938205093891e+17
19449.0	4.438128142756517e+17
19450.0	3.9873002238990086e+17
19451.0	3.7909701454725165e+17
19452.0	4.2553632921135763e+17
19453.0	4.543867006571866e+17
19454.0	4.6669558968920704e+17
19455.0	4.788342814146553e+17
19456.0	4.872688161346906e+17
19457.0	4.9205530657641766e+17
19458.0	4.9130649279966586e+17
19459.0	4.994663270318095e+17
19460.0	5.0278857706919226e+17
19461.0	5.073559543436628e+17
19462.0	5.124751768245589e+17
19463.0	5.151631650499243e+17
19464.0	5.169010931575467e+17
19465.0	5.1820865715350195e+17
19466.0	5.1931219391501645e+17
19467.0	5.203743781945343e+17
19468.0	5.213443932727979e+17
19469.0	5.2228418209928525e+17
19470.0	5.232167279919103e+17
19471.0	5.2406102992267936e+17
19472.0	5.248921128752468e+17
19473.0	5.257212888175957e+17
19474.0	5.265531784746325e+17
19475.0	5.272561249506644e+17
19476.0	5.280657297812138e+17
19477.0	5.287553362034688e+17
19478.0	5.293960489249449e+17
19479.0	5.299919522889726e+17
19480.0	5.3055455057237325e+17
19481.0	5.310801780233556e+17
19482.0	5.315797770218153e+17
19483.0	5.320487968178175e+17
19484.0	5.326327359995902e+17
19485.0	5.336494844324526e+17
19486.0	5.346768513750351e+17
19487.0	5.354618687062019e+17
19488.0	5.360700243312641e+17
19489.0	5.367274464608258e+17
19490.0	5.369135732446549e+17
19491.0	5.374490046715221e+17
19492.0	5.377573097133395e+17
19493.0	5.3802651587269965e+17
19494.0	5.381630819216041e+17
19495.0	5.384789775351807e+17
19496.0	5.385146202412372e+17
19497.0	5.3863295057483085e+17
19498.0	5.387503298499927e+17
19499.0	5.367495256266055e+17
19500.0	5.390055862435839e+17
19501.0	5.390529381182121e+17
19502.0	5.3917146320732154e+17
19503.0	5.3926735855834445e+17
19504.0	5.392956631198377e+17
19505.0	5.3931897729843194e+17
19506.0	5.393388786417662e+17
19507.0	5.3935069231841274e+17
19508.0	5.3936352856637434e+17
19509.0	5.3942573100346003e+17
19510.0	5.394395299140949e+17
19511.0	5.3601441876541235e+17
19512.0	5.39120439569066e+17
19513.0	5.388108928734538e+17
19514.0	5.389838721919652e+17
19515.0	5.393469635122518e+17
19516.0	5.393912587878399e+17
19517.0	5.3936356400824314e+17
19518.0	5.393451446523221e+17
19519.0	5.3931577585609376e+17
19520.0	5.3928064310749856e+17
19521.0	5.392544268200617e+17
19522.0	5.3921500329847456e+17
19523.0	5.3923091082554016e+17
19524.0	5.3919446309273594e+17
19525.0	5.391528834192723e+17
19526.0	5.3910951941898234e+17
19527.0	5.3906233454755834e+17
19528.0	5.390129728323584e+17
19529.0	5.389622504150357e+17
19530.0	5.389124190775978e+17
19531.0	5.3885884851814394e+17
19532.0	5.388037104773802e+17
19533.0	5.3874707388170234e+17
19534.0	5.388993306121557e+17
19535.0	5.3884338859322003e+17
19536.0	5.3877840337524045e+17
19537.0	5.387198796922879e+17
19538.0	5.386412436226048e+17
19539.0	5.386717559259138e+17
19540.0	5.388860416589823e+17
19541.0	5.388191684449621e+17
19542.0	5.3874927155718816e+17
19543.0	5.386754190213119e+17
19544.0	5.3860677182641485e+17
19545.0	5.384809016022356e+17
19546.0	5.3835850447148365e+17
19547.0	5.3868731322859514e+17
19548.0	5.386158131380223e+17
19549.0	5.3852875993907194e+17
19550.0	5.38461666873617e+17
19551.0	5.383838553341951e+17
19552.0	5.383050289829205e+17
19553.0	5.3822312037744634e+17
19554.0	5.381413664019795e+17
19555.0	5.3806336800631456e+17
19556.0	5.3798424099334816e+17
19557.0	5.379860362952701e+17
19558.0	5.380695972468052e+17
19559.0	5.3798662391726086e+17
19560.0	5.37898969534737e+17
19561.0	5.378161354560852e+17
19562.0	5.3773370633748474e+17
19563.0	5.376502602399743e+17
19564.0	5.375651311779839e+17
19565.0	5.374796352542036e+17
19566.0	5.3739031195811834e+17
19567.0	5.373074871069353e+17
19568.0	5.372182416151894e+17
19569.0	5.371317257065813e+17
19570.0	5.3704705843746125e+17
19571.0	5.3695917770233165e+17
19572.0	5.368680670035967e+17
19573.0	5.367810419763883e+17
19574.0	5.367083109974015e+17
19575.0	5.3680543912427514e+17
19576.0	5.367159475666943e+17
19577.0	5.366241510293503e+17
19578.0	5.365327226819925e+17
19579.0	5.3644455855172256e+17
19580.0	5.363547106181119e+17
19581.0	5.3626562052532896e+17
19582.0	5.36177239269922e+17
19583.0	5.3608668795153043e+17
19584.0	5.359949043466239e+17
19585.0	5.3589275305137485e+17
19586.0	5.357982386749439e+17
19587.0	5.357162309440852e+17
19588.0	5.35578205557009e+17
19589.0	5.355371206017024e+17
19590.0	5.3544232814291616e+17
19591.0	5.353829003777365e+17
19592.0	5.352956786376704e+17
19593.0	5.3520204513498445e+17
19594.0	5.3508515610405536e+17
19595.0	5.350159292563455e+17
19596.0	5.3488424705501856e+17
19597.0	5.348324346778965e+17
19598.0	5.346933662373203e+17
19599.0	5.346485050802175e+17
19600.0	5.345565416794794e+17
19601.0	5.344558882400938e+17
19602.0	5.3436476880322554e+17
19603.0	5.342147833582931e+17
19604.0	5.341770160974506e+17
19605.0	5.340569887484586e+17
19606.0	5.3399606878972576e+17
19607.0	5.3390342856813216e+17
19608.0	5.3380773342522016e+17
19609.0	5.337100380187305e+17
19610.0	5.3362042916044794e+17
19611.0	5.3359409053914445e+17
19612.0	5.335870159366826e+17
19613.0	5.3349175210803194e+17
19614.0	5.333942856406356e+17
19615.0	5.333041571080874e+17
19616.0	5.3319618279069005e+17
19617.0	5.331122210035028e+17
19618.0	5.329553653585234e+17
19619.0	5.328446035765928e+17
19620.0	5.3275418598659405e+17
19621.0	5.327344002662398e+17
19622.0	5.3264326817655456e+17
19623.0	5.325486435598334e+17
19624.0	5.324529003222357e+17
19625.0	5.323591552510634e+17
19626.0	5.322643408420862e+17
19627.0	5.321691848070485e+17
19628.0	5.320492587504982e+17
19629.0	5.319601065121108e+17
19630.0	5.3182279590434125e+17
19631.0	5.3065606328483834e+17
19632.0	5.3169155144854176e+17
19633.0	5.315937757910357e+17
19634.0	5.3150478713050445e+17
19635.0	5.314053790498815e+17
19636.0	5.313104970427049e+17
19637.0	5.3117826454869325e+17
19638.0	5.311233323783508e+17
19639.0	5.3102821877568845e+17
19640.0	5.309232257695743e+17
19641.0	5.3072197768096454e+17
19642.0	5.307431757632852e+17
19643.0	5.3064760770778445e+17
19644.0	5.305466413034153e+17
19645.0	5.304266644258815e+17
19646.0	5.3035917800461645e+17
19647.0	5.3026791896733e+17
19648.0	5.301728041063764e+17
19649.0	5.3007667226651296e+17
19650.0	5.299821908852734e+17
19651.0	5.298861938922836e+17
19652.0	5.297905859209898e+17
19653.0	5.2969540856490656e+17
19654.0	5.2959991328058016e+17
19655.0	5.2950413488073376e+17
19656.0	5.2940927559270394e+17
19657.0	5.293146868372821e+17
19658.0	5.2921915030896634e+17
19659.0	5.2912370605533856e+17
