# Flux units: erg / (cm m2 s)
# Wavelength units: Angstrom
wave	flux
19000.0	5.403725955508905e+17
19001.0	5.40268961149747e+17
19002.0	5.401822718066687e+17
19003.0	5.400857596133374e+17
19004.0	5.399906776776703e+17
19005.0	5.398931958311594e+17
19006.0	5.397974967735637e+17
19007.0	5.397016024711167e+17
19008.0	5.3960400150637216e+17
19009.0	5.3950341818176845e+17
19010.0	5.394079591082666e+17
19011.0	5.3931535083328845e+17
19012.0	5.392153219956735e+17
19013.0	5.3912881964864845e+17
19014.0	5.3903024777243296e+17
19015.0	5.389352020475903e+17
19016.0	5.388436398320298e+17
19017.0	5.387488952582143e+17
19018.0	5.386526287811924e+17
19019.0	5.385575316062207e+17
19020.0	5.3846156236554234e+17
19021.0	5.383672848973823e+17
19022.0	5.382715405413034e+17
19023.0	5.3817254518019405e+17
19024.0	5.3807703360798714e+17
19025.0	5.379842579103743e+17
19026.0	5.3788898513387514e+17
19027.0	5.3779417792512e+17
19028.0	5.376980277002239e+17
19029.0	5.376012028215296e+17
19030.0	5.3750708075233254e+17
19031.0	5.374116606858581e+17
19032.0	5.3731395248674125e+17
19033.0	5.37207196754466e+17
19034.0	5.3710897496282445e+17
19035.0	5.369858406831444e+17
19036.0	5.368458329281876e+17
19037.0	5.3680094422848845e+17
19038.0	5.367290100973567e+17
19039.0	5.36644143878417e+17
19040.0	5.365527781659989e+17
19041.0	5.364590365900799e+17
19042.0	5.362898774436521e+17
19043.0	5.3627163998071456e+17
19044.0	5.361758468308991e+17
19045.0	5.3608027451118925e+17
19046.0	5.359835953845589e+17
19047.0	5.3588836790654285e+17
19048.0	5.357813510788437e+17
19049.0	5.35547966932036e+17
19050.0	5.3559524274995194e+17
19051.0	5.354951720392019e+17
19052.0	5.3540639602988365e+17
19053.0	5.3531718430228474e+17
19054.0	5.3522535344155296e+17
19055.0	5.350923094196224e+17
19056.0	5.3503037583742285e+17
19057.0	5.3494418198145696e+17
19058.0	5.347762588265129e+17
19059.0	5.3472762244628474e+17
19060.0	5.3466117495412045e+17
19061.0	5.345663490108074e+17
19062.0	5.344713091579904e+17
19063.0	5.343768758015317e+17
19064.0	5.342800869239467e+17
19065.0	5.3417885425117856e+17
19066.0	5.3406287293754016e+17
19067.0	5.339976172568575e+17
19068.0	5.3390505700666016e+17
19069.0	5.3381066321646925e+17
19070.0	5.337140190423722e+17
19071.0	5.3362085376382285e+17
19072.0	5.3350025354280954e+17
19073.0	5.334329833379157e+17
19074.0	5.3333789441174176e+17
19075.0	5.332440056856575e+17
19076.0	5.3314909550673914e+17
19077.0	5.3305445089716896e+17
19078.0	5.3295859623089485e+17
19079.0	5.3286558152785914e+17
19080.0	5.327710672213332e+17
19081.0	5.3267347974826656e+17
19082.0	5.3258323188776954e+17
19083.0	5.32482585858321e+17
19084.0	5.323782188520788e+17
19085.0	5.322991657287679e+17
19086.0	5.321400048943102e+17
19087.0	5.3204969460858854e+17
19088.0	5.3197478965193376e+17
19089.0	5.3191008048906234e+17
19090.0	5.318274708755796e+17
19091.0	5.3173012219822074e+17
19092.0	5.3158029208234675e+17
19093.0	5.315474419438931e+17
19094.0	5.3145364514297165e+17
19095.0	5.313591525769215e+17
19096.0	5.312653243886251e+17
19097.0	5.3117153919194445e+17
19098.0	5.310470323262804e+17
19099.0	5.3094643257398605e+17
19100.0	5.308871793617578e+17
19101.0	5.3079347777153696e+17
19102.0	5.306988284783274e+17
19103.0	5.3060579448149325e+17
19104.0	5.305134284275711e+17
19105.0	5.303532618689196e+17
19106.0	5.303249920502442e+17
19107.0	5.3021474400064845e+17
19108.0	5.301115935522815e+17
19109.0	5.30042655482402e+17
19110.0	5.299489393519274e+17
19111.0	5.298361517211647e+17
19112.0	5.297381313260202e+17
19113.0	5.296669451791017e+17
19114.0	5.2955815290251936e+17
19115.0	5.294718298619904e+17
19116.0	5.293761816253779e+17
19117.0	5.292699262036649e+17
19118.0	5.290989470089215e+17
19119.0	5.2874263682962746e+17
19120.0	5.289458512079531e+17
19121.0	5.288991319741781e+17
19122.0	5.2881623365277e+17
19123.0	5.28725519036143e+17
19124.0	5.286290270453759e+17
19125.0	5.285351760680276e+17
19126.0	5.2843461672086176e+17
19127.0	5.283303254218068e+17
19128.0	5.282471373438975e+17
19129.0	5.281566127991465e+17
19130.0	5.280728512200703e+17
19131.0	5.279828626374655e+17
19132.0	5.2789086833868794e+17
19133.0	5.2779562114744314e+17
19134.0	5.277049437902164e+17
19135.0	5.2761184128641696e+17
19136.0	5.275186599996074e+17
19137.0	5.2742432052565325e+17
19138.0	5.273320322760703e+17
19139.0	5.272398384682325e+17
19140.0	5.271471335145471e+17
19141.0	5.27053945377041e+17
19142.0	5.269588538643796e+17
19143.0	5.268671513493504e+17
19144.0	5.2677190234057376e+17
19145.0	5.2668118213154125e+17
19146.0	5.265397029448362e+17
19147.0	5.264943267971071e+17
19148.0	5.263791036039167e+17
19149.0	5.262814272116053e+17
19150.0	5.2621688057801376e+17
19151.0	5.261233879340373e+17
19152.0	5.2603006746623994e+17
19153.0	5.258855861365417e+17
19154.0	5.258394577403904e+17
19155.0	5.2575113177989114e+17
19156.0	5.2565838355496954e+17
19157.0	5.255497538775722e+17
19158.0	5.254367589083819e+17
19159.0	5.2537888757951136e+17
19160.0	5.252857041256447e+17
19161.0	5.2519282105384954e+17
19162.0	5.250995133087743e+17
19163.0	5.250072642060287e+17
19164.0	5.2491484201833805e+17
19165.0	5.2476715085769363e+17
19166.0	5.24727685882402e+17
19167.0	5.246367783277909e+17
19168.0	5.2454527392372045e+17
19169.0	5.244528013344767e+17
19170.0	5.2436061228018336e+17
19171.0	5.2426688160945485e+17
19172.0	5.2417540076339194e+17
19173.0	5.24082957394466e+17
19174.0	5.239898045590185e+17
19175.0	5.2389744822190074e+17
19176.0	5.238049908719615e+17
19177.0	5.2370102015754234e+17
19178.0	5.236198895255551e+17
19179.0	5.2352737827880954e+17
19180.0	5.234329110183935e+17
19181.0	5.23339349168401e+17
19182.0	5.2324721387110394e+17
19183.0	5.231567219021141e+17
19184.0	5.2306488789565434e+17
19185.0	5.2297176239308794e+17
19186.0	5.2287963282800634e+17
19187.0	5.2278265674465274e+17
19188.0	5.2269425843240954e+17
19189.0	5.226010584809471e+17
19190.0	5.225081947029504e+17
19191.0	5.224125938619732e+17
19192.0	5.223209178409643e+17
19193.0	5.222198388894377e+17
19194.0	5.2212063094702086e+17
19195.0	5.220375297611093e+17
19196.0	5.2194116359946234e+17
19197.0	5.2184545286772045e+17
19198.0	5.2174781967674016e+17
19199.0	5.216466580275198e+17
19200.0	5.215569909383167e+17
19201.0	5.214716567748607e+17
19202.0	5.213850680950783e+17
19203.0	5.2129663098552314e+17
19204.0	5.212088041472e+17
19205.0	5.211178753414485e+17
19206.0	5.210279087090345e+17
19207.0	5.209288362426367e+17
19208.0	5.2084463761708365e+17
19209.0	5.207557420701013e+17
19210.0	5.2066599990285645e+17
19211.0	5.205762589239978e+17
19212.0	5.204845463426389e+17
19213.0	5.203861612527615e+17
19214.0	5.2029976089722874e+17
19215.0	5.202087727420756e+17
19216.0	5.2011613454772896e+17
19217.0	5.200217157315242e+17
19218.0	5.19926674620416e+17
19219.0	5.198267972670804e+17
19220.0	5.1974642216905376e+17
19221.0	5.1965649510290765e+17
19222.0	5.195669904031743e+17
19223.0	5.194755740095828e+17
19224.0	5.1938285605355514e+17
19225.0	5.1929491079604896e+17
19226.0	5.1920310041750176e+17
19227.0	5.191123326031189e+17
19228.0	5.1902341216993274e+17
19229.0	5.18931463798784e+17
19230.0	5.188404706803711e+17
19231.0	5.1874869616312314e+17
19232.0	5.186583919591423e+17
19233.0	5.1856336706600954e+17
19234.0	5.184755748306943e+17
19235.0	5.183815419603625e+17
19236.0	5.1829319481862816e+17
19237.0	5.182009945795242e+17
19238.0	5.181058988026538e+17
19239.0	5.1801947663674016e+17
19240.0	5.179272271145642e+17
19241.0	5.1783583826356896e+17
19242.0	5.1774459502482765e+17
19243.0	5.17642584798003e+17
19244.0	5.17563708674321e+17
19245.0	5.1747225781753165e+17
19246.0	5.1738140548792314e+17
19247.0	5.17289631809536e+17
19248.0	5.1719907727551136e+17
19249.0	5.17105693893154e+17
19250.0	5.170046824699222e+17
19251.0	5.1690949302026214e+17
19252.0	5.168106117442217e+17
19253.0	5.1674217538300576e+17
19254.0	5.1665260986586445e+17
19255.0	5.1654581918105594e+17
19256.0	5.164694908174336e+17
19257.0	5.163788939209385e+17
19258.0	5.16287366308386e+17
19259.0	5.1618930473915725e+17
19260.0	5.160988842131455e+17
19261.0	5.160107600685738e+17
19262.0	5.159142649320789e+17
19263.0	5.1582191663404365e+17
19264.0	5.157279705158996e+17
19265.0	5.1563767959388154e+17
19266.0	5.155461036070228e+17
19267.0	5.154649414478506e+17
19268.0	5.1537547107150496e+17
19269.0	5.1528524075717965e+17
19270.0	5.151928294047743e+17
19271.0	5.151004854408533e+17
19272.0	5.150126150516735e+17
19273.0	5.149113998551722e+17
19274.0	5.1480288482208403e+17
19275.0	5.1474344664104954e+17
19276.0	5.1465121487476045e+17
19277.0	5.1456125935725216e+17
19278.0	5.1446908148776954e+17
19279.0	5.1437834499085645e+17
19280.0	5.1428805008424954e+17
19281.0	5.1419736259078816e+17
19282.0	5.141077664552276e+17
19283.0	5.1401629469682336e+17
19284.0	5.1392306377741645e+17
19285.0	5.1382956882657274e+17
19286.0	5.1373262930356896e+17
19287.0	5.13631835005474e+17
19288.0	5.1350104325488634e+17
19289.0	5.1340389219915085e+17
19290.0	5.1335842706227194e+17
19291.0	5.132634852862635e+17
19292.0	5.1319818207013536e+17
19293.0	5.131109311796564e+17
19294.0	5.130205460955135e+17
19295.0	5.129325301639851e+17
19296.0	5.1280893297295366e+17
19297.0	5.1274552991634765e+17
19298.0	5.1265973102400845e+17
19299.0	5.12534790607121e+17
19300.0	5.124807314112511e+17
19301.0	5.123911900113578e+17
19302.0	5.122997251036501e+17
19303.0	5.122062452523007e+17
19304.0	5.1211917870148256e+17
19305.0	5.120274352919892e+17
19306.0	5.119369919070207e+17
19307.0	5.118430000709632e+17
19308.0	5.1175242694219085e+17
19309.0	5.116610122263211e+17
19310.0	5.115665818757802e+17
19311.0	5.1146922984297805e+17
19312.0	5.113647535751167e+17
19313.0	5.112168403260756e+17
19314.0	5.104964618332843e+17
19315.0	5.104286285430784e+17
19316.0	5.109060786804053e+17
19317.0	5.1091318439062176e+17
19318.0	5.1084114337464314e+17
19319.0	5.1075876367892474e+17
19320.0	5.1065927338994336e+17
19321.0	5.105539733607764e+17
19322.0	5.10494670725666e+17
19323.0	5.1040504732712954e+17
19324.0	5.103154497235626e+17
19325.0	5.1022644058084685e+17
19326.0	5.1013675734357325e+17
19327.0	5.100466829874515e+17
19328.0	5.098973504558422e+17
19329.0	5.098669631427924e+17
19330.0	5.097769915471188e+17
19331.0	5.0968390288452256e+17
19332.0	5.0959716670504954e+17
19333.0	5.095059409425749e+17
19334.0	5.0941537704127136e+17
19335.0	5.092062587606358e+17
19336.0	5.09235554156544e+17
19337.0	5.091455541095081e+17
19338.0	5.0903910393227936e+17
19339.0	5.0896183143082656e+17
19340.0	5.0886249675052365e+17
19341.0	5.08729104531456e+17
19342.0	5.086694890711722e+17
19343.0	5.0859060211220474e+17
19344.0	5.084468197632683e+17
19345.0	5.083618396689749e+17
19346.0	5.0829250628594336e+17
19347.0	5.0816750001848314e+17
19348.0	5.0814311489426765e+17
19349.0	5.080555939605162e+17
19350.0	5.0794546628744525e+17
19351.0	5.0787830003138554e+17
19352.0	5.077288992724307e+17
19353.0	5.0770385927755085e+17
19354.0	5.076142829950292e+17
19355.0	5.0751656822483616e+17
19356.0	5.0743396811844256e+17
19357.0	5.073438998440617e+17
19358.0	5.072533823597226e+17
19359.0	5.071489657907881e+17
19360.0	5.0702338015013536e+17
19361.0	5.069815591643817e+17
19362.0	5.068911091384319e+17
19363.0	5.0680071070242125e+17
19364.0	5.06710092484881e+17
19365.0	5.0661935256261965e+17
19366.0	5.065280208240639e+17
19367.0	5.064376707623593e+17
19368.0	5.0634662933954554e+17
19369.0	5.062544598586709e+17
19370.0	5.061635713182377e+17
19371.0	5.060689135665151e+17
19372.0	5.059810933691732e+17
19373.0	5.0588943755072845e+17
19374.0	5.0579831643613856e+17
19375.0	5.0570758329466874e+17
19376.0	5.056158298188458e+17
19377.0	5.0552331465741645e+17
19378.0	5.0543123759103994e+17
19379.0	5.0533912487307936e+17
19380.0	5.0524597042981536e+17
19381.0	5.051528403135147e+17
19382.0	5.0505410653716474e+17
19383.0	5.0496465140012365e+17
19384.0	5.048726981356202e+17
19385.0	5.047791892736681e+17
19386.0	5.046858736992256e+17
19387.0	5.045902560810324e+17
19388.0	5.0449265910087674e+17
19389.0	5.043909544990036e+17
19390.0	5.042777524710058e+17
19391.0	5.0413235811123194e+17
19392.0	5.040676105704789e+17
19393.0	5.0400346910665376e+17
19394.0	5.039178806984703e+17
19395.0	5.0380803753902074e+17
19396.0	5.0372570502922234e+17
19397.0	5.036310953022804e+17
19398.0	5.035130171861674e+17
19399.0	5.034057607938048e+17
19400.0	5.0331350253349536e+17
19401.0	5.0323282027260576e+17
19402.0	5.03135025041681e+17
19403.0	5.030326269815466e+17
19404.0	5.029301756537513e+17
19405.0	5.0282432610085536e+17
19406.0	5.027192443852117e+17
19407.0	5.0259060661944314e+17
19408.0	5.024977722714793e+17
19409.0	5.023925427066196e+17
19410.0	5.022874062553088e+17
19411.0	5.0217729137486496e+17
19412.0	5.020635997317802e+17
19413.0	5.019271959325354e+17
19414.0	5.018288577489577e+17
19415.0	5.017078980061866e+17
19416.0	5.015739661899093e+17
19417.0	5.014582256992255e+17
19418.0	5.013284405116928e+17
19419.0	5.01195217113361e+17
19420.0	5.0105873830597965e+17
19421.0	5.009157079258453e+17
19422.0	5.0076393011500365e+17
19423.0	5.0061185933202765e+17
19424.0	5.0045170172122445e+17
19425.0	5.002864000761854e+17
19426.0	5.0010880240954016e+17
19427.0	4.9992329799051936e+17
19428.0	4.997267467534335e+17
19429.0	4.995168670668115e+17
19430.0	4.992895956287487e+17
19431.0	4.990462239353514e+17
19432.0	4.988086804370772e+17
19433.0	4.9853214696843936e+17
19434.0	4.9823077252464634e+17
19435.0	4.978976325195092e+17
19436.0	4.9752024113916576e+17
19437.0	4.9710997102919674e+17
19438.0	4.965715250861396e+17
19439.0	4.9614176257747616e+17
19440.0	4.956536909245098e+17
19441.0	4.9507901968657056e+17
19442.0	4.94373287563537e+17
19443.0	4.935468480550228e+17
19444.0	4.92620712457011e+17
19445.0	4.9146529201520634e+17
19446.0	4.901264743727102e+17
19447.0	4.884119775346687e+17
19448.0	4.862241453113345e+17
19449.0	4.8319434416892576e+17
19450.0	4.7790014713910566e+17
19451.0	4.731546448341675e+17
19452.0	4.809285077478057e+17
19453.0	4.8452299397966496e+17
19454.0	4.8688193353373e+17
19455.0	4.886011584009557e+17
19456.0	4.8989724908803405e+17
19457.0	4.908019889821013e+17
19458.0	4.899141455620784e+17
19459.0	4.9181301994946586e+17
19460.0	4.9305682870708896e+17
19461.0	4.936145383893674e+17
19462.0	4.940443664689834e+17
19463.0	4.944008477059753e+17
19464.0	4.946939037963604e+17
19465.0	4.9492285078896634e+17
19466.0	4.9511878916833274e+17
19467.0	4.952890657472511e+17
19468.0	4.954234244038656e+17
19469.0	4.954921898082303e+17
19470.0	4.956176985533098e+17
19471.0	4.956837238887764e+17
19472.0	4.957359579332608e+17
19473.0	4.9577486408744954e+17
19474.0	4.957536937574398e+17
19475.0	4.957928427618304e+17
19476.0	4.958121020970323e+17
19477.0	4.958129641663146e+17
19478.0	4.95803640647953e+17
19479.0	4.957461899378687e+17
19480.0	4.9576153955259725e+17
19481.0	4.9573135076993683e+17
19482.0	4.956989148889088e+17
19483.0	4.956588241933653e+17
19484.0	4.9561386523907405e+17
19485.0	4.955656371743402e+17
19486.0	4.9547148819169286e+17
19487.0	4.954596918515027e+17
19488.0	4.9540071923821216e+17
19489.0	4.953330119868415e+17
19490.0	4.952676200611839e+17
19491.0	4.952147442182825e+17
19492.0	4.9516001659016525e+17
19493.0	4.950958689047893e+17
19494.0	4.950267081872725e+17
19495.0	4.9495223517402445e+17
19496.0	4.9486831456092154e+17
19497.0	4.9478394047365114e+17
19498.0	4.9466053041848314e+17
19499.0	4.945491613013332e+17
19500.0	4.9455855255770445e+17
19501.0	4.9451315362092365e+17
19502.0	4.944499170781866e+17
19503.0	4.943797441353045e+17
19504.0	4.9430478863728646e+17
19505.0	4.9422683728773114e+17
19506.0	4.941528196360874e+17
19507.0	4.940697666147668e+17
19508.0	4.9398247832507725e+17
19509.0	4.9387755375602336e+17
19510.0	4.9367926565765114e+17
19511.0	4.929013864027475e+17
19512.0	4.9344290096851616e+17
19513.0	4.934864988012543e+17
19514.0	4.9343954971962016e+17
19515.0	4.934068461021866e+17
19516.0	4.9333930899974816e+17
19517.0	4.932732599664639e+17
19518.0	4.931855944690346e+17
19519.0	4.931070752806228e+17
19520.0	4.929958854699689e+17
19521.0	4.9296116949538125e+17
19522.0	4.9287056358113274e+17
19523.0	4.92787213533184e+17
19524.0	4.926829975218858e+17
19525.0	4.9263327789274445e+17
19526.0	4.9255230049266336e+17
19527.0	4.924689440134485e+17
19528.0	4.9238274148925434e+17
19529.0	4.9229791169085434e+17
19530.0	4.92221384097792e+17
19531.0	4.921379057041407e+17
19532.0	4.920544682049534e+17
19533.0	4.919705035516587e+17
19534.0	4.9188726346437965e+17
19535.0	4.918014754073258e+17
19536.0	4.91714910425361e+17
19537.0	4.916318212631211e+17
19538.0	4.91503498629393e+17
19539.0	4.9145899049287674e+17
19540.0	4.913775968081237e+17
19541.0	4.912869727884628e+17
19542.0	4.912082770198528e+17
19543.0	4.910829697411755e+17
19544.0	4.910363211115177e+17
19545.0	4.909462042531158e+17
19546.0	4.9086275654778874e+17
19547.0	4.907880155185151e+17
19548.0	4.9070865977617056e+17
19549.0	4.906187624895827e+17
19550.0	4.905438933942271e+17
19551.0	4.9046088497233914e+17
19552.0	4.9037701273354234e+17
19553.0	4.902932403191807e+17
19554.0	4.902084809850879e+17
19555.0	4.9011857649827834e+17
19556.0	4.9003766166323194e+17
19557.0	4.8995677933404154e+17
19558.0	4.898732017451008e+17
19559.0	4.8978932552171514e+17
19560.0	4.896871828247891e+17
19561.0	4.8961876380002976e+17
19562.0	4.8952035969597434e+17
19563.0	4.8945241630528845e+17
19564.0	4.8936713261329056e+17
19565.0	4.892832446458539e+17
19566.0	4.891979573187925e+17
19567.0	4.891148608864255e+17
19568.0	4.890287613323945e+17
19569.0	4.8894512677082445e+17
19570.0	4.8886133890744314e+17
19571.0	4.887770545083732e+17
19572.0	4.886904136095061e+17
19573.0	4.886028738712915e+17
19574.0	4.885148667478014e+17
19575.0	4.88439837569843e+17
19576.0	4.8835226385776634e+17
19577.0	4.8826082677227514e+17
19578.0	4.881860897275903e+17
19579.0	4.880998783254527e+17
19580.0	4.8801577630870176e+17
19581.0	4.879327935419732e+17
19582.0	4.878490440564736e+17
19583.0	4.87764676190754e+17
19584.0	4.876796459745279e+17
19585.0	4.875859492776617e+17
19586.0	4.8749924588366496e+17
19587.0	4.8742319644125856e+17
19588.0	4.8733558875531936e+17
19589.0	4.872522478649343e+17
19590.0	4.871665405482325e+17
19591.0	4.8708731301178016e+17
19592.0	4.8700486781501434e+17
19593.0	4.869153377397419e+17
19594.0	4.868128715920725e+17
19595.0	4.867508295172095e+17
19596.0	4.8666599216906234e+17
19597.0	4.865788011872255e+17
19598.0	4.864790665800362e+17
19599.0	4.864088732248745e+17
19600.0	4.863283729967787e+17
19601.0	4.86241778864401e+17
19602.0	4.861574175697578e+17
19603.0	4.8607204691585696e+17
19604.0	4.859875533608276e+17
19605.0	4.858940472950784e+17
19606.0	4.8582419521645235e+17
19607.0	4.857418722137429e+17
19608.0	4.856566465429504e+17
19609.0	4.8557196571224736e+17
19610.0	4.8546969418028365e+17
19611.0	4.853749278659925e+17
19612.0	4.853218313327956e+17
19613.0	4.8523584376668154e+17
19614.0	4.851491944093012e+17
19615.0	4.85066403811601e+17
19616.0	4.849589422478677e+17
19617.0	4.8485844364820474e+17
19618.0	4.847926235540139e+17
19619.0	4.84701773041937e+17
19620.0	4.8461836888746656e+17
19621.0	4.8450974710934176e+17
19622.0	4.84475365630498e+17
19623.0	4.8439121279276365e+17
19624.0	4.8430289962489165e+17
19625.0	4.8422658307522554e+17
19626.0	4.8414113412765005e+17
19627.0	4.84056303210769e+17
19628.0	4.839689508181332e+17
19629.0	4.837711260505428e+17
19630.0	4.837922586318164e+17
19631.0	4.837008751635115e+17
19632.0	4.836289106935807e+17
19633.0	4.8354701830608205e+17
19634.0	4.8346987065507834e+17
19635.0	4.8338111400946336e+17
19636.0	4.832562246931796e+17
19637.0	4.831493423628288e+17
19638.0	4.8313538043357856e+17
19639.0	4.830512440235348e+17
19640.0	4.829460985544702e+17
19641.0	4.8284895204256416e+17
19642.0	4.827941078127956e+17
19643.0	4.8271601336756896e+17
19644.0	4.8263470021345274e+17
19645.0	4.825536406050132e+17
19646.0	4.8242037498402125e+17
19647.0	4.8238886569465165e+17
19648.0	4.82307829015074e+17
19649.0	4.822245319551657e+17
19650.0	4.821418379662677e+17
19651.0	4.820583760003071e+17
19652.0	4.8197509271169696e+17
19653.0	4.8189206821164365e+17
19654.0	4.818084172922879e+17
19655.0	4.817247558172671e+17
