# Flux units: erg / (cm m2 s)
# Wavelength units: Angstrom
wave	flux
19000.0	8.639401493353812e+17
19001.0	8.637603216272042e+17
19002.0	8.636661023200596e+17
19003.0	8.636681129295872e+17
19004.0	8.635230372670118e+17
19005.0	8.633750864090451e+17
19006.0	8.632279995777024e+17
19007.0	8.630736753349972e+17
19008.0	8.629142636811603e+17
19009.0	8.627545785587028e+17
19010.0	8.624973034465961e+17
19011.0	8.6248039411002e+17
19012.0	8.622966433295016e+17
19013.0	8.621913365195432e+17
19014.0	8.62019484000802e+17
19015.0	8.618808876990463e+17
19016.0	8.617312722616319e+17
19017.0	8.615837998339411e+17
19018.0	8.614407108733608e+17
19019.0	8.6129116198557e+17
19020.0	8.61133795893794e+17
19021.0	8.60992204579362e+17
19022.0	8.608417028855127e+17
19023.0	8.606754222200147e+17
19024.0	8.60533257544226e+17
19025.0	8.603857119958356e+17
19026.0	8.602271529041919e+17
19027.0	8.600651473529514e+17
19028.0	8.599303907966975e+17
19029.0	8.597725275400873e+17
19030.0	8.596293376365906e+17
19031.0	8.594784627894953e+17
19032.0	8.593250141776553e+17
19033.0	8.591380790815398e+17
19034.0	8.590086866206719e+17
19035.0	8.58836121629491e+17
19036.0	8.57218893637222e+17
19037.0	8.58539671298594e+17
19038.0	8.583897319211007e+17
19039.0	8.582434340383401e+17
19040.0	8.58091067556932e+17
19041.0	8.579332269495634e+17
19042.0	8.577479627243519e+17
19043.0	8.576260059256148e+17
19044.0	8.574654797053948e+17
19045.0	8.573131550272168e+17
19046.0	8.571366775892649e+17
19047.0	8.569932156152489e+17
19048.0	8.567786291505832e+17
19049.0	8.566618773433e+17
19050.0	8.565111511143764e+17
19051.0	8.561150237081595e+17
19052.0	8.561606816432125e+17
19053.0	8.560562917081085e+17
19054.0	8.559015638335485e+17
19055.0	8.556539410732372e+17
19056.0	8.555776570294272e+17
19057.0	8.55426485784849e+17
19058.0	8.552637565763581e+17
19059.0	8.551113589172906e+17
19060.0	8.549477704357203e+17
19061.0	8.547969448017919e+17
19062.0	8.546356629078013e+17
19063.0	8.544779205869567e+17
19064.0	8.542752167253331e+17
19065.0	8.540919083040764e+17
19066.0	8.539768785382056e+17
19067.0	8.538362189185024e+17
19068.0	8.536818366545917e+17
19069.0	8.535219267174397e+17
19070.0	8.533514133001555e+17
19071.0	8.531989741174781e+17
19072.0	8.530417748191913e+17
19073.0	8.528783878040234e+17
19074.0	8.527211016836436e+17
19075.0	8.525602944450557e+17
19076.0	8.523928838340608e+17
19077.0	8.522339645915135e+17
19078.0	8.520625656168448e+17
19079.0	8.519142615984812e+17
19080.0	8.517478742578515e+17
19081.0	8.515757461733373e+17
19082.0	8.514159599681535e+17
19083.0	8.512195326028458e+17
19084.0	8.510116413658451e+17
19085.0	8.509379512194387e+17
19086.0	8.506283700606294e+17
19087.0	8.505853725726038e+17
19088.0	8.504157768690345e+17
19089.0	8.502050976781654e+17
19090.0	8.501141658664957e+17
19091.0	8.499553281332564e+17
19092.0	8.497755181809663e+17
19093.0	8.496396150418089e+17
19094.0	8.494774169720147e+17
19095.0	8.493140102436179e+17
19096.0	8.491468898784593e+17
19097.0	8.490104869180756e+17
19098.0	8.488939090345983e+17
19099.0	8.487292593941162e+17
19100.0	8.485635079099731e+17
19101.0	8.484005045338111e+17
19102.0	8.482090159614633e+17
19103.0	8.480699792577875e+17
19104.0	8.479076922687484e+17
19105.0	8.477403834395306e+17
19106.0	8.475707291555156e+17
19107.0	8.474029967015936e+17
19108.0	8.472397727050412e+17
19109.0	8.469462971143507e+17
19110.0	8.468926294567594e+17
19111.0	8.467467735138301e+17
19112.0	8.465826933200212e+17
19113.0	8.464170893355689e+17
19114.0	8.462486407741437e+17
19115.0	8.460659189962068e+17
19116.0	8.45908536267025e+17
19117.0	8.457405780197373e+17
19118.0	8.455504997122045e+17
19119.0	8.447041771055775e+17
19120.0	8.452285694039377e+17
19121.0	8.450720669193555e+17
19122.0	8.449156832733866e+17
19123.0	8.447475778060288e+17
19124.0	8.445699487520084e+17
19125.0	8.444094296621055e+17
19126.0	8.442359061326505e+17
19127.0	8.435296349716476e+17
19128.0	8.438355686238889e+17
19129.0	8.43705730028885e+17
19130.0	8.435643619912362e+17
19131.0	8.434002261529939e+17
19132.0	8.432309673918461e+17
19133.0	8.430021337153535e+17
19134.0	8.428651376803839e+17
19135.0	8.427252475756543e+17
19136.0	8.425575857258495e+17
19137.0	8.423382479536128e+17
19138.0	8.422134128836608e+17
19139.0	8.420492543961772e+17
19140.0	8.41880292172322e+17
19141.0	8.417103228960765e+17
19142.0	8.415312104565417e+17
19143.0	8.41351107322402e+17
19144.0	8.411834130366461e+17
19145.0	8.410262622524755e+17
19146.0	8.406478687830017e+17
19147.0	8.406577688783526e+17
19148.0	8.405130919542783e+17
19149.0	8.403406126667094e+17
19150.0	8.401699662899881e+17
19151.0	8.399976645612883e+17
19152.0	8.398246646207827e+17
19153.0	8.39647910778197e+17
19154.0	8.394424329437181e+17
19155.0	8.393087894159357e+17
19156.0	8.391340941377535e+17
19157.0	8.389480798311766e+17
19158.0	8.387185919830698e+17
19159.0	8.386026502356991e+17
19160.0	8.384351082031786e+17
19161.0	8.382544957407231e+17
19162.0	8.378869062391124e+17
19163.0	8.37890959754308e+17
19164.0	8.377136483489108e+17
19165.0	8.374154675879933e+17
19166.0	8.372118503467689e+17
19167.0	8.370518249264467e+17
19168.0	8.368825468715007e+17
19169.0	8.367125858440531e+17
19170.0	8.365457843858089e+17
19171.0	8.363629892075519e+17
19172.0	8.361917511543466e+17
19173.0	8.36019821879842e+17
19174.0	8.358256606969853e+17
19175.0	8.356681729703936e+17
19176.0	8.354893625207466e+17
19177.0	8.35261379728725e+17
19178.0	8.351309536515412e+17
19179.0	8.3494856308381e+17
19180.0	8.34775501067605e+17
19181.0	8.345747365123412e+17
19182.0	8.344191155306493e+17
19183.0	8.342483610806953e+17
19184.0	8.340596944360787e+17
19185.0	8.33886254932514e+17
19186.0	8.337122034799953e+17
19187.0	8.335020959727615e+17
19188.0	8.333520215386792e+17
19189.0	8.331714440287572e+17
19190.0	8.329899465681577e+17
19191.0	8.327996617610579e+17
19192.0	8.326309725863936e+17
19193.0	8.32444682853854e+17
19194.0	8.322591865438207e+17
19195.0	8.320793877763414e+17
19196.0	8.318848018502996e+17
19197.0	8.316880962628268e+17
19198.0	8.314323457802237e+17
19199.0	8.300817116648786e+17
19200.0	8.301553790222337e+17
19201.0	8.308968982751913e+17
19202.0	8.30780631888691e+17
19203.0	8.30612717961216e+17
19204.0	8.304322374795263e+17
19205.0	8.302544304472063e+17
19206.0	8.300636525297663e+17
19207.0	8.296478632050684e+17
19208.0	8.294409131698856e+17
19209.0	8.293089714110463e+17
19210.0	8.291245752669523e+17
19211.0	8.289436289378988e+17
19212.0	8.28755382981973e+17
19213.0	8.285345808383999e+17
19214.0	8.283386197398868e+17
19215.0	8.281888249260713e+17
19216.0	8.280043922915327e+17
19217.0	8.278111806991016e+17
19218.0	8.273719299757393e+17
19219.0	8.273718123954173e+17
19220.0	8.272391265670484e+17
19221.0	8.269589913796607e+17
19222.0	8.268614669609641e+17
19223.0	8.266687770001408e+17
19224.0	8.264663063418194e+17
19225.0	8.262470848916136e+17
19226.0	8.260914446161236e+17
19227.0	8.258983332675583e+17
19228.0	8.257161514363562e+17
19229.0	8.25523050573551e+17
19230.0	8.253233352933375e+17
19231.0	8.249580062419624e+17
19232.0	8.246584879174996e+17
19233.0	8.244405820806483e+17
19234.0	8.24260968142165e+17
19235.0	8.240572917612543e+17
19236.0	8.23873487573265e+17
19237.0	8.236688754431318e+17
19238.0	8.234440540378454e+17
19239.0	8.232763709369e+17
19240.0	8.23056913347379e+17
19241.0	8.228590315372543e+17
19242.0	8.226670017598803e+17
19243.0	8.224055818365609e+17
19244.0	8.222692342409897e+17
19245.0	8.220628937779881e+17
19246.0	8.218547820604073e+17
19247.0	8.215626020902227e+17
19248.0	8.210932390603434e+17
19249.0	8.208845214056447e+17
19250.0	8.20669385487155e+17
19251.0	8.204238025566889e+17
19252.0	8.201504684332374e+17
19253.0	8.200395392985769e+17
19254.0	8.198331690560169e+17
19255.0	8.195550879591078e+17
19256.0	8.193988119669418e+17
19257.0	8.191976112040616e+17
19258.0	8.189844973595304e+17
19259.0	8.187324406606506e+17
19260.0	8.180928850777427e+17
19261.0	8.178984885944319e+17
19262.0	8.176636660110676e+17
19263.0	8.174434130416979e+17
19264.0	8.170867470456146e+17
19265.0	8.169668160957098e+17
19266.0	8.167629003598505e+17
19267.0	8.165802237405864e+17
19268.0	8.163542024847357e+17
19269.0	8.161301338172072e+17
19270.0	8.154879001711956e+17
19271.0	8.150545176985601e+17
19272.0	8.149076066085548e+17
19273.0	8.141120166253903e+17
19274.0	8.140703242649595e+17
19275.0	8.142294073649833e+17
19276.0	8.139941310977364e+17
19277.0	8.137627216991572e+17
19278.0	8.135302694567935e+17
19279.0	8.130391049939625e+17
19280.0	8.127233899451731e+17
19281.0	8.12507056972322e+17
19282.0	8.12272669617903e+17
19283.0	8.120217491559763e+17
19284.0	8.117571790307325e+17
19285.0	8.115018321799849e+17
19286.0	8.112894183647913e+17
19287.0	8.11054662610671e+17
19288.0	8.104103364263931e+17
19289.0	8.096655317751108e+17
19290.0	8.103023491765587e+17
19291.0	8.099611580650838e+17
19292.0	8.097967122677757e+17
19293.0	8.095386795245565e+17
19294.0	8.092784598712319e+17
19295.0	8.090233610436604e+17
19296.0	8.08760223273233e+17
19297.0	8.084911191053651e+17
19298.0	8.082257073231186e+17
19299.0	8.079703603325609e+17
19300.0	8.077034953637885e+17
19301.0	8.074332437741567e+17
19302.0	8.071595590068905e+17
19303.0	8.068683567289683e+17
19304.0	8.066076379534675e+17
19305.0	8.063370965374292e+17
19306.0	8.060627106223444e+17
19307.0	8.057696381042688e+17
19308.0	8.054943484564819e+17
19309.0	8.051826748992169e+17
19310.0	8.048727512055804e+17
19311.0	8.046366113311402e+17
19312.0	8.04362246247765e+17
19313.0	8.0407514068637e+17
19314.0	8.032176612311039e+17
19315.0	8.029597210421938e+17
19316.0	8.031967231257257e+17
19317.0	8.02902699619123e+17
19318.0	8.026038555989332e+17
19319.0	8.023092872522409e+17
19320.0	8.019952430743551e+17
19321.0	8.016775334942034e+17
19322.0	8.013421654747817e+17
19323.0	8.010420779832658e+17
19324.0	8.007419498070015e+17
19325.0	8.004114257892692e+17
19326.0	8.001114607714305e+17
19327.0	7.997930592709289e+17
19328.0	7.994764181198164e+17
19329.0	7.991528683907754e+17
19330.0	7.988153470156797e+17
19331.0	7.9848194193053e+17
19332.0	7.981633512669183e+17
19333.0	7.978236263443114e+17
19334.0	7.974893853343743e+17
19335.0	7.971494848102399e+17
19336.0	7.968059276918784e+17
19337.0	7.964577284576595e+17
19338.0	7.960447523924649e+17
19339.0	7.957547407376383e+17
19340.0	7.953845191704575e+17
19341.0	7.950303620672169e+17
19342.0	7.945619399595346e+17
19343.0	7.942502925467647e+17
19344.0	7.938726533529597e+17
19345.0	7.929934970355703e+17
19346.0	7.928875188573523e+17
19347.0	7.927249470750719e+17
19348.0	7.92357813634116e+17
19349.0	7.91957413909845e+17
19350.0	7.915663034504532e+17
19351.0	7.911650092209491e+17
19352.0	7.907529199714303e+17
19353.0	7.903713008025597e+17
19354.0	7.899621917458433e+17
19355.0	7.894380997596499e+17
19356.0	7.890391107196244e+17
19357.0	7.886154147124564e+17
19358.0	7.881812080590845e+17
19359.0	7.877281137557503e+17
19360.0	7.873045578383356e+17
19361.0	7.868661673667241e+17
19362.0	7.864291496908115e+17
19363.0	7.859752377778173e+17
19364.0	7.854120516627112e+17
19365.0	7.848978232814249e+17
19366.0	7.844179869346473e+17
19367.0	7.839324776518994e+17
19368.0	7.834405907901098e+17
19369.0	7.82916201427763e+17
19370.0	7.822969736790012e+17
19371.0	7.816981854726825e+17
19372.0	7.81187074158319e+17
19373.0	7.806441424770387e+17
19374.0	7.801031405950292e+17
19375.0	7.794520516547926e+17
19376.0	7.787235965403135e+17
19377.0	7.781415942182227e+17
19378.0	7.775524494158504e+17
19379.0	7.76913130811119e+17
19380.0	7.76008189031219e+17
19381.0	7.753767318104745e+17
19382.0	7.747126487766358e+17
19383.0	7.738560664829947e+17
19384.0	7.730013112281769e+17
19385.0	7.723023296277161e+17
19386.0	7.714592831919446e+17
19387.0	7.70386798261043e+17
19388.0	7.696430543492436e+17
19389.0	7.686694804739407e+17
19390.0	7.675630079792468e+17
19391.0	7.658648398462963e+17
19392.0	7.654532592260436e+17
19393.0	7.645167555881641e+17
19394.0	7.63415217132885e+17
19395.0	7.621400005181439e+17
19396.0	7.612164762938021e+17
19397.0	7.600189050541395e+17
19398.0	7.591041618848425e+17
19399.0	7.580325882363901e+17
19400.0	7.571973088127658e+17
19401.0	7.562254628509012e+17
19402.0	7.551844205199357e+17
19403.0	7.54152449909282e+17
19404.0	7.531021455764136e+17
19405.0	7.520148730675199e+17
19406.0	7.509012192253268e+17
19407.0	7.497087363754666e+17
19408.0	7.483318111043583e+17
19409.0	7.472188647014399e+17
19410.0	7.459485661877587e+17
19411.0	7.445954918263464e+17
19412.0	7.431698189560489e+17
19413.0	7.417897163598505e+17
19414.0	7.403604175137449e+17
19415.0	7.387623681163263e+17
19416.0	7.372244268701011e+17
19417.0	7.35584050234436e+17
19418.0	7.337646879670272e+17
19419.0	7.320064051118079e+17
19420.0	7.300128331268091e+17
19421.0	7.280224202915839e+17
19422.0	7.259004466801321e+17
19423.0	7.2366961997469e+17
19424.0	7.214432072149676e+17
19425.0	7.189786585115305e+17
19426.0	7.166138109307558e+17
19427.0	7.139432844318038e+17
19428.0	7.113322437891411e+17
19429.0	7.083063101445458e+17
19430.0	7.054034436707668e+17
19431.0	7.021324069939882e+17
19432.0	6.990097320771581e+17
19433.0	6.957092237737985e+17
19434.0	6.919678428796246e+17
19435.0	6.88155232846916e+17
19436.0	6.841560103998804e+17
19437.0	6.799592004430505e+17
19438.0	6.748450626469885e+17
19439.0	6.705308546804396e+17
19440.0	6.653616242120019e+17
19441.0	6.598095632596988e+17
19442.0	6.538772944519169e+17
19443.0	6.475045201248255e+17
19444.0	6.406729659056124e+17
19445.0	6.333366170637655e+17
19446.0	6.254545167100585e+17
19447.0	6.169715934232571e+17
19448.0	6.077782739473752e+17
19449.0	5.976004359793321e+17
19450.0	5.852828402712563e+17
19451.0	5.783320892451503e+17
19452.0	5.917934411754154e+17
19453.0	6.025630777518766e+17
19454.0	6.119571616432123e+17
19455.0	6.205428097264298e+17
19456.0	6.284762311644504e+17
19457.0	6.358346591720786e+17
19458.0	6.424214785490948e+17
19459.0	6.490110611335853e+17
19460.0	6.549180649919826e+17
19461.0	6.60384490070562e+17
19462.0	6.655166654010711e+17
19463.0	6.702429280840358e+17
19464.0	6.746773599726249e+17
19465.0	6.788402071120556e+17
19466.0	6.826448939646973e+17
19467.0	6.862643600730793e+17
19468.0	6.897816439182678e+17
19469.0	6.929754458423293e+17
19470.0	6.959686110674943e+17
19471.0	6.989696771031043e+17
19472.0	7.016859071851176e+17
19473.0	7.043646969522857e+17
19474.0	7.069064088955562e+17
19475.0	7.091589539867305e+17
19476.0	7.114961827747155e+17
19477.0	7.13601115488256e+17
19478.0	7.157072255429289e+17
19479.0	7.175810537837908e+17
19480.0	7.195554064891904e+17
19481.0	7.212540004838057e+17
19482.0	7.23022495210974e+17
19483.0	7.245749329504938e+17
19484.0	7.260653193177769e+17
19485.0	7.275468905163434e+17
19486.0	7.288268411021993e+17
19487.0	7.300931780957526e+17
19488.0	7.313165736651433e+17
19489.0	7.324046089781247e+17
19490.0	7.332894301224956e+17
19491.0	7.346464009923241e+17
19492.0	7.35660489187874e+17
19493.0	7.36629278061363e+17
19494.0	7.375611365075625e+17
19495.0	7.385219914356051e+17
19496.0	7.39294028724087e+17
19497.0	7.40159986545459e+17
19498.0	7.40833067200239e+17
19499.0	7.403485281998157e+17
19500.0	7.424260648381098e+17
19501.0	7.431559179141119e+17
19502.0	7.438300418321064e+17
19503.0	7.444833208980819e+17
19504.0	7.451123623395328e+17
19505.0	7.45874944967748e+17
19506.0	7.46658417606656e+17
19507.0	7.473834916926811e+17
19508.0	7.484324250473812e+17
19509.0	7.48958426001135e+17
19510.0	7.499407571637592e+17
19511.0	7.49402308913834e+17
19512.0	7.509384927466833e+17
19513.0	7.515693620658167e+17
19514.0	7.521860440118609e+17
19515.0	7.52990068880179e+17
19516.0	7.538206839581354e+17
19517.0	7.542193266884605e+17
19518.0	7.546696948340054e+17
19519.0	7.553679698340522e+17
19520.0	7.557107391223126e+17
19521.0	7.560551118929919e+17
19522.0	7.565126012676777e+17
19523.0	7.569979268399103e+17
19524.0	7.572934169548115e+17
19525.0	7.57572331180305e+17
19526.0	7.578994369800872e+17
19527.0	7.583532352274432e+17
19528.0	7.586022654563668e+17
19529.0	7.588412296353106e+17
19530.0	7.590752072062292e+17
19531.0	7.593234911286614e+17
19532.0	7.596974590481748e+17
19533.0	7.59901826650385e+17
19534.0	7.600953016451071e+17
19535.0	7.602762300784639e+17
19536.0	7.604535414838611e+17
19537.0	7.606388237445802e+17
19538.0	7.608778164447912e+17
19539.0	7.609594006907565e+17
19540.0	7.612338386152106e+17
19541.0	7.61385681088239e+17
19542.0	7.615223154343933e+17
19543.0	7.616541884066472e+17
19544.0	7.617826758765224e+17
19545.0	7.61779591525171e+17
19546.0	7.617984492557654e+17
19547.0	7.621843007569919e+17
19548.0	7.623336676119892e+17
19549.0	7.624061839125161e+17
19550.0	7.625398207294118e+17
19551.0	7.626374451123539e+17
19552.0	7.627300635934717e+17
19553.0	7.628130216138068e+17
19554.0	7.628939983847424e+17
19555.0	7.629821184748202e+17
19556.0	7.630625824221866e+17
19557.0	7.63135534371089e+17
19558.0	7.632057159821994e+17
19559.0	7.632796261897558e+17
19560.0	7.633750689753768e+17
19561.0	7.634342507446271e+17
19562.0	7.634956181656915e+17
19563.0	7.635490912075775e+17
19564.0	7.635963331914409e+17
19565.0	7.636408114085887e+17
19566.0	7.636740845426003e+17
19567.0	7.637213255477928e+17
19568.0	7.637461772184234e+17
19569.0	7.63783063745331e+17
19570.0	7.638189625136466e+17
19571.0	7.638456381472765e+17
19572.0	7.638585708642303e+17
19573.0	7.638865489690621e+17
19574.0	7.638801330820436e+17
19575.0	7.639270107206994e+17
19576.0	7.6394098865821e+17
19577.0	7.639464734097408e+17
19578.0	7.639505125244927e+17
19579.0	7.639595042734079e+17
19580.0	7.639646534806185e+17
19581.0	7.63971967787554e+17
19582.0	7.639762756173821e+17
19583.0	7.639856001144148e+17
19584.0	7.639864199610368e+17
19585.0	7.639438035954345e+17
19586.0	7.639246598133076e+17
19587.0	7.639516586879658e+17
19588.0	7.638157621198848e+17
19589.0	7.6392141174429e+17
19590.0	7.638925078167551e+17
19591.0	7.638943955331752e+17
19592.0	7.638768049018195e+17
19593.0	7.638480474953044e+17
19594.0	7.637537289229651e+17
19595.0	7.637946007377236e+17
19596.0	7.636428397740032e+17
19597.0	7.637428867869353e+17
19598.0	7.636413914808317e+17
19599.0	7.636850241262931e+17
19600.0	7.636533098752684e+17
19601.0	7.635968897755817e+17
19602.0	7.635622203577682e+17
19603.0	7.634137254985725e+17
19604.0	7.634799746700628e+17
19605.0	7.63362760650479e+17
19606.0	7.634149814130004e+17
19607.0	7.633722631258111e+17
19608.0	7.633220384325632e+17
19609.0	7.632628257652736e+17
19610.0	7.63231021756143e+17
19611.0	7.631789047327402e+17
19612.0	7.631307492294653e+17
19613.0	7.630741722628093e+17
19614.0	7.630092500292948e+17
19615.0	7.629680889473706e+17
19616.0	7.629009066830506e+17
19617.0	7.628493315637245e+17
19618.0	7.62622453830997e+17
19619.0	7.625197617501521e+17
19620.0	7.62466696254805e+17
19621.0	7.62589403554338e+17
19622.0	7.626389609338199e+17
19623.0	7.627306790376787e+17
19624.0	7.62657147855394e+17
19625.0	7.625898372453714e+17
19626.0	7.625139200633513e+17
19627.0	7.624427873239037e+17
19628.0	7.62335794823168e+17
19629.0	7.622536244931241e+17
19630.0	7.620212070634836e+17
19631.0	7.612360934730412e+17
19632.0	7.624935188288851e+17
19633.0	7.624230300549117e+17
19634.0	7.623638076009128e+17
19635.0	7.622692646333097e+17
19636.0	7.621994726730409e+17
19637.0	7.619735922059948e+17
19638.0	7.620350906291539e+17
19639.0	7.619485531897853e+17
19640.0	7.618403518906365e+17
19641.0	7.616469981113006e+17
19642.0	7.620637712799059e+17
19643.0	7.61973352431616e+17
19644.0	7.618669300766034e+17
19645.0	7.617186779277994e+17
19646.0	7.617081595920383e+17
19647.0	7.616171876548607e+17
19648.0	7.615232788660224e+17
19649.0	7.614296187994111e+17
19650.0	7.613386425281193e+17
19651.0	7.612420962211155e+17
19652.0	7.611462068819283e+17
19653.0	7.61053799653922e+17
19654.0	7.611979230696791e+17
19655.0	7.611496938864639e+17
19656.0	7.610541610631168e+17
19657.0	7.609550031028224e+17
19658.0	7.608573053195603e+17
19659.0	7.607560451741012e+17
19660.0	7.606559988602196e+17
19661.0	7.605528279296684e+17
19662.0	7.604509192050004e+17
19663.0	7.603318935257088e+17
19664.0	7.602365762895871e+17
19665.0	7.601400105489747e+17
19666.0	7.60030778429713e+17
