# Flux units: erg / (cm m2 s)
# Wavelength units: Angstrom
wave	flux
19000.0	6.794081520844799e+17
19001.0	6.792748864634879e+17
19002.0	6.791564764381183e+17
19003.0	6.790304097107968e+17
19004.0	6.789043641647103e+17
19005.0	6.787786015244287e+17
19006.0	6.786525859676159e+17
19007.0	6.785247194644479e+17
19008.0	6.783959231539881e+17
19009.0	6.782682175722835e+17
19010.0	6.781134155284479e+17
19011.0	6.780194722065065e+17
19012.0	6.77882422764066e+17
19013.0	6.777688815566847e+17
19014.0	6.776384825327616e+17
19015.0	6.775138483699711e+17
19016.0	6.773866734376276e+17
19017.0	6.772640792444927e+17
19018.0	6.77136912421137e+17
19019.0	6.770111603365203e+17
19020.0	6.768834281908905e+17
19021.0	6.767587176218624e+17
19022.0	6.766334194308436e+17
19023.0	6.765039483267753e+17
19024.0	6.763786224533503e+17
19025.0	6.762532943429631e+17
19026.0	6.76124757729826e+17
19027.0	6.75992558440721e+17
19028.0	6.758742701899775e+17
19029.0	6.757475611749033e+17
19030.0	6.756223568663891e+17
19031.0	6.754959192227839e+17
19032.0	6.753694556443987e+17
19033.0	6.752362056821417e+17
19034.0	6.751153631002623e+17
19035.0	6.749949897211903e+17
19036.0	6.74271934493491e+17
19037.0	6.747477097054207e+17
19038.0	6.746200183144447e+17
19039.0	6.744954172866559e+17
19040.0	6.743688967356415e+17
19041.0	6.742423236859219e+17
19042.0	6.741084546443945e+17
19043.0	6.739892904132607e+17
19044.0	6.738625561624575e+17
19045.0	6.737361647960061e+17
19046.0	6.73605802262528e+17
19047.0	6.734819083943936e+17
19048.0	6.733410515025917e+17
19049.0	6.732241758235306e+17
19050.0	6.730999674525011e+17
19051.0	6.72881283642163e+17
19052.0	6.728346255054163e+17
19053.0	6.727228749163177e+17
19054.0	6.7259688026112e+17
19055.0	6.724512294895615e+17
19056.0	6.723421253664765e+17
19057.0	6.722165105754111e+17
19058.0	6.720892700721151e+17
19059.0	6.7196392847005e+17
19060.0	6.718356646963882e+17
19061.0	6.717108637401087e+17
19062.0	6.715839097077759e+17
19063.0	6.714574696873983e+17
19064.0	6.713224648283478e+17
19065.0	6.711912838463487e+17
19066.0	6.710734067772073e+17
19067.0	6.709512148178259e+17
19068.0	6.708247157276671e+17
19069.0	6.706982128626346e+17
19070.0	6.705698196247892e+17
19071.0	6.704451117121536e+17
19072.0	6.703185453034153e+17
19073.0	6.70191590711842e+17
19074.0	6.700654395391999e+17
19075.0	6.699388876008104e+17
19076.0	6.698107750318079e+17
19077.0	6.696847843611988e+17
19078.0	6.695572575267498e+17
19079.0	6.694325815607296e+17
19080.0	6.693049197395968e+17
19081.0	6.691767395024895e+17
19082.0	6.690497538031615e+17
19083.0	6.689183820502355e+17
19084.0	6.687826096335529e+17
19085.0	6.686735076775252e+17
19086.0	6.685190010525012e+17
19087.0	6.684033802392916e+17
19088.0	6.682876024193023e+17
19089.0	6.681450938105855e+17
19090.0	6.680384855080959e+17
19091.0	6.679124138175146e+17
19092.0	6.677807437796691e+17
19093.0	6.676615970947071e+17
19094.0	6.67534888149538e+17
19095.0	6.674083710937769e+17
19096.0	6.672810655088639e+17
19097.0	6.671557090170195e+17
19098.0	6.670292734705663e+17
19099.0	6.669027976587945e+17
19100.0	6.667752360116224e+17
19101.0	6.666500271592788e+17
19102.0	6.6651639803194e+17
19103.0	6.663973957009408e+17
19104.0	6.662709835726847e+17
19105.0	6.661440505118719e+17
19106.0	6.660150152658943e+17
19107.0	6.658905788645375e+17
19108.0	6.657651396050943e+17
19109.0	6.655894553100287e+17
19110.0	6.655106988638207e+17
19111.0	6.65386248830976e+17
19112.0	6.652599797284863e+17
19113.0	6.651336535834623e+17
19114.0	6.650071688937472e+17
19115.0	6.648765540728832e+17
19116.0	6.647529208108372e+17
19117.0	6.646266585590441e+17
19118.0	6.644934422910292e+17
19119.0	6.640670793356623e+17
19120.0	6.642432373773652e+17
19121.0	6.641192383021053e+17
19122.0	6.639967887425536e+17
19123.0	6.638704454008831e+17
19124.0	6.637410978889727e+17
19125.0	6.636174954550612e+17
19126.0	6.634910243269289e+17
19127.0	6.632359897421139e+17
19128.0	6.632263345941161e+17
19129.0	6.631066183925759e+17
19130.0	6.629850827019604e+17
19131.0	6.628600934214314e+17
19132.0	6.627337638510591e+17
19133.0	6.625968204546047e+17
19134.0	6.624748161903274e+17
19135.0	6.623548199490899e+17
19136.0	6.622291791533396e+17
19137.0	6.620909573330262e+17
19138.0	6.619753207911763e+17
19139.0	6.61850443358754e+17
19140.0	6.617243545414314e+17
19141.0	6.615981403144192e+17
19142.0	6.614700727642793e+17
19143.0	6.61341723566626e+17
19144.0	6.612167147126783e+17
19145.0	6.610933069643775e+17
19146.0	6.6092367099549e+17
19147.0	6.608340103375529e+17
19148.0	6.607144142329172e+17
19149.0	6.605883003895808e+17
19150.0	6.60461650514193e+17
19151.0	6.603361256210431e+17
19152.0	6.602095542490452e+17
19153.0	6.600821840718505e+17
19154.0	6.599480508590761e+17
19155.0	6.598312745850196e+17
19156.0	6.597047908040701e+17
19157.0	6.595773608580436e+17
19158.0	6.594194793562111e+17
19159.0	6.593245073812138e+17
19160.0	6.59199385211153e+17
19161.0	6.590723674253994e+17
19162.0	6.58870766735633e+17
19163.0	6.588188707520511e+17
19164.0	6.586953842906452e+17
19165.0	6.585677142207145e+17
19166.0	6.584329782864553e+17
19167.0	6.583095929077759e+17
19168.0	6.581888820270419e+17
19169.0	6.580620088049663e+17
19170.0	6.579380820814506e+17
19171.0	6.578074648139092e+17
19172.0	6.576855847010303e+17
19173.0	6.57559436534306e+17
19174.0	6.574291601238698e+17
19175.0	6.573072016474112e+17
19176.0	6.571809505804287e+17
19177.0	6.57043372376064e+17
19178.0	6.569262115542356e+17
19179.0	6.56795805749521e+17
19180.0	6.566746934738943e+17
19181.0	6.565410040883882e+17
19182.0	6.564216073530025e+17
19183.0	6.562967796230825e+17
19184.0	6.561690803328339e+17
19185.0	6.560437254488063e+17
19186.0	6.559176696965801e+17
19187.0	6.557859565972138e+17
19188.0	6.55664786510097e+17
19189.0	6.555382256937642e+17
19190.0	6.5541137512093e+17
19191.0	6.552827750339924e+17
19192.0	6.551593366672723e+17
19193.0	6.550323835437055e+17
19194.0	6.549052286042111e+17
19195.0	6.547796421246975e+17
19196.0	6.546520263010985e+17
19197.0	6.545248706625535e+17
19198.0	6.543950090687828e+17
19199.0	6.538125524336637e+17
19200.0	6.538257073788244e+17
19201.0	6.540158594362025e+17
19202.0	6.538923461312511e+17
19203.0	6.537652914356223e+17
19204.0	6.536381731962879e+17
19205.0	6.535126088766804e+17
19206.0	6.533858372965716e+17
19207.0	6.532527310591316e+17
19208.0	6.531178596488532e+17
19209.0	6.530057587654655e+17
19210.0	6.528799594949289e+17
19211.0	6.527530845951316e+17
19212.0	6.526261866266623e+17
19213.0	6.524906920127146e+17
19214.0	6.523602671239167e+17
19215.0	6.522434724648276e+17
19216.0	6.521181392513706e+17
19217.0	6.518407065938598e+17
19218.0	6.515509581316093e+17
19219.0	6.514723861648723e+17
19220.0	6.513548888200532e+17
19221.0	6.512057164409514e+17
19222.0	6.511014270992383e+17
19223.0	6.509736262369279e+17
19224.0	6.508434557326676e+17
19225.0	6.507089242008233e+17
19226.0	6.505902516120233e+17
19227.0	6.504624302675284e+17
19228.0	6.503368413413375e+17
19229.0	6.50209061310737e+17
19230.0	6.500810006112938e+17
19231.0	6.499524414188202e+17
19232.0	6.498247756830036e+17
19233.0	6.496923194927785e+17
19234.0	6.495678010228733e+17
19235.0	6.494398198753964e+17
19236.0	6.493132956893183e+17
19237.0	6.491839101490516e+17
19238.0	6.490495642151593e+17
19239.0	6.489285689606143e+17
19240.0	6.487971858830675e+17
19241.0	6.486690447927978e+17
19242.0	6.485417468275369e+17
19243.0	6.484020066691753e+17
19244.0	6.482857673359359e+17
19245.0	6.481569464887977e+17
19246.0	6.480268822402388e+17
19247.0	6.478989902916265e+17
19248.0	6.477699962896383e+17
19249.0	6.476406260585812e+17
19250.0	6.475100388502186e+17
19251.0	6.473731557818365e+17
19252.0	6.472319014098259e+17
19253.0	6.471213771653119e+17
19254.0	6.469930722175657e+17
19255.0	6.468501035636051e+17
19256.0	6.467310948712447e+17
19257.0	6.466039250419711e+17
19258.0	6.464737579630591e+17
19259.0	6.463382518147753e+17
19260.0	6.462014486478847e+17
19261.0	6.460824182150483e+17
19262.0	6.459485102363988e+17
19263.0	6.458168818619732e+17
19264.0	6.456511168861523e+17
19265.0	6.455451794625876e+17
19266.0	6.454142717394943e+17
19267.0	6.452971624377001e+17
19268.0	6.451657346209108e+17
19269.0	6.450341407096831e+17
19270.0	6.449021907020457e+17
19271.0	6.447459263141204e+17
19272.0	6.443363537169065e+17
19273.0	6.440999890976765e+17
19274.0	6.439976661155837e+17
19275.0	6.439292600232617e+17
19276.0	6.437945398875476e+17
19277.0	6.436613496941225e+17
19278.0	6.435278944206847e+17
19279.0	6.4339360364189e+17
19280.0	6.432541907790505e+17
19281.0	6.431248062174548e+17
19282.0	6.429914324533245e+17
19283.0	6.428499734691839e+17
19284.0	6.427154178200915e+17
19285.0	6.425720795081385e+17
19286.0	6.424478442935636e+17
19287.0	6.42314599014946e+17
19288.0	6.420128077272402e+17
19289.0	6.416546236028238e+17
19290.0	6.419054867425961e+17
19291.0	6.417496642945023e+17
19292.0	6.416315610824701e+17
19293.0	6.414934606872576e+17
19294.0	6.413553464508415e+17
19295.0	6.412180377305087e+17
19296.0	6.410794934381225e+17
19297.0	6.409002904016215e+17
19298.0	6.404235766442666e+17
19299.0	6.402842208239615e+17
19300.0	6.401429612090707e+17
19301.0	6.400010453953193e+17
19302.0	6.398584057845076e+17
19303.0	6.397117027319807e+17
19304.0	6.395717062317396e+17
19305.0	6.394297398067199e+17
19306.0	6.392866151246505e+17
19307.0	6.391391391318015e+17
19308.0	6.389959963443199e+17
19309.0	6.3883665997824e+17
19310.0	6.386852602839039e+17
19311.0	6.385573444976639e+17
19312.0	6.384138743447552e+17
19313.0	6.38188589468877e+17
19314.0	6.371709133258753e+17
19315.0	6.370527977406468e+17
19316.0	6.373662175264768e+17
19317.0	6.372155467322707e+17
19318.0	6.370625017522858e+17
19319.0	6.36910625165585e+17
19320.0	6.367565366427647e+17
19321.0	6.366018686768467e+17
19322.0	6.36439654179362e+17
19323.0	6.362830843762004e+17
19324.0	6.360965334783315e+17
19325.0	6.356948852495699e+17
19326.0	6.355482369327103e+17
19327.0	6.353860896139946e+17
19328.0	6.352247764724394e+17
19329.0	6.350614014110378e+17
19330.0	6.348940688140969e+17
19331.0	6.347280172974079e+17
19332.0	6.345642708303871e+17
19333.0	6.343967111118847e+17
19334.0	6.342277612612265e+17
19335.0	6.340576538525695e+17
19336.0	6.338866832561491e+17
19337.0	6.337139383293267e+17
19338.0	6.335254517601619e+17
19339.0	6.333651234411859e+17
19340.0	6.331829050496339e+17
19341.0	6.330089376230058e+17
19342.0	6.328038386040831e+17
19343.0	6.326499523865257e+17
19344.0	6.324670731823785e+17
19345.0	6.321450166954664e+17
19346.0	6.320370537026899e+17
19347.0	6.319051389971113e+17
19348.0	6.317208552603647e+17
19349.0	6.31527746708002e+17
19350.0	6.313343999890771e+17
19351.0	6.311392409113939e+17
19352.0	6.309382253270356e+17
19353.0	6.307446214273706e+17
19354.0	6.305432693899263e+17
19355.0	6.303326549311487e+17
19356.0	6.301333707554816e+17
19357.0	6.299251545997311e+17
19358.0	6.297142248691027e+17
19359.0	6.294970257724756e+17
19360.0	6.29284293190178e+17
19361.0	6.290673431653034e+17
19362.0	6.288498444555604e+17
19363.0	6.286266490421247e+17
19364.0	6.284004434466131e+17
19365.0	6.281713557351081e+17
19366.0	6.279391497682943e+17
19367.0	6.277038518304768e+17
19368.0	6.274653205736106e+17
19369.0	6.272189543568724e+17
19370.0	6.269680811507711e+17
19371.0	6.267252079504042e+17
19372.0	6.264762997757268e+17
19373.0	6.262185967747072e+17
19374.0	6.25959666450432e+17
19375.0	6.256951983865855e+17
19376.0	6.254270401041748e+17
19377.0	6.251556443783167e+17
19378.0	6.248816219695785e+17
19379.0	6.246030172138153e+17
19380.0	6.243198900895744e+17
19381.0	6.24017267630626e+17
19382.0	6.237109297173844e+17
19383.0	6.23410776375296e+17
19384.0	6.231160462682793e+17
19385.0	6.228082952940202e+17
19386.0	6.224958187372543e+17
19387.0	6.221777931162964e+17
19388.0	6.218541876030121e+17
19389.0	6.21524959765026e+17
19390.0	6.211897495912447e+17
19391.0	6.203516912315044e+17
19392.0	6.204925928625492e+17
19393.0	6.201428435533823e+17
19394.0	6.197796065509376e+17
19395.0	6.19412172378385e+17
19396.0	6.190404793095508e+17
19397.0	6.186657007708842e+17
19398.0	6.182839913545727e+17
19399.0	6.178043239683411e+17
19400.0	6.174524786256553e+17
19401.0	6.170636040099156e+17
19402.0	6.166657995112447e+17
19403.0	6.162618100219903e+17
19404.0	6.158501866198356e+17
19405.0	6.154213927856809e+17
19406.0	6.149230021662038e+17
19407.0	6.1444461180573e+17
19408.0	6.139395490272598e+17
19409.0	6.135254932783104e+17
19410.0	6.129950862082047e+17
19411.0	6.124189157163008e+17
19412.0	6.119206366653097e+17
19413.0	6.113133806485504e+17
19414.0	6.106652993738067e+17
19415.0	6.100367137832959e+17
19416.0	6.092611499240105e+17
19417.0	6.084619897492822e+17
19418.0	6.076163500452525e+17
19419.0	6.065876876918783e+17
19420.0	6.053607431820626e+17
19421.0	6.039399902303571e+17
19422.0	6.021467163241133e+17
19423.0	6.000742506692603e+17
19424.0	5.980970878500867e+17
19425.0	5.968918134915071e+17
19426.0	5.956423592706045e+17
19427.0	5.943267053709993e+17
19428.0	5.929911980130303e+17
19429.0	5.916192536876371e+17
19430.0	5.902097947383126e+17
19431.0	5.886194792180396e+17
19432.0	5.870951929479167e+17
19433.0	5.854341985118892e+17
19434.0	5.836509198417919e+17
19435.0	5.816965456549202e+17
19436.0	5.794666200257879e+17
19437.0	5.768709569598806e+17
19438.0	5.727414006404432e+17
19439.0	5.6858440574348e+17
19440.0	5.629395867096404e+17
19441.0	5.589692539994108e+17
19442.0	5.5479337592640864e+17
19443.0	5.5009758828735136e+17
19444.0	5.44672722609766e+17
19445.0	5.375860083261441e+17
19446.0	5.27330328899312e+17
19447.0	5.159406776527525e+17
19448.0	5.0214875402950054e+17
19449.0	4.807917015749972e+17
19450.0	4.428443812189502e+17
19451.0	4.293547504522562e+17
19452.0	4.635914540154895e+17
19453.0	4.928316581259958e+17
19454.0	5.0936102738984915e+17
19455.0	5.210123707001516e+17
19456.0	5.321534163211619e+17
19457.0	5.4039149997806874e+17
19458.0	5.453300969242639e+17
19459.0	5.510093605612206e+17
19460.0	5.552180220832424e+17
19461.0	5.5902109391912954e+17
19462.0	5.6354859356869984e+17
19463.0	5.688382898307077e+17
19464.0	5.726488443049305e+17
19465.0	5.7545961239128826e+17
19466.0	5.775886493504855e+17
19467.0	5.794138361080489e+17
19468.0	5.810286942486528e+17
19469.0	5.825361625481213e+17
19470.0	5.839405633765375e+17
19471.0	5.853119560810495e+17
19472.0	5.865175683607209e+17
19473.0	5.87677938290961e+17
19474.0	5.888098020534954e+17
19475.0	5.898575093432317e+17
19476.0	5.909617968152575e+17
19477.0	5.919431328792576e+17
19478.0	5.931461425932974e+17
19479.0	5.952519147268777e+17
19480.0	5.968705020930732e+17
19481.0	5.981772198182913e+17
19482.0	5.992370650043734e+17
19483.0	6.000809630935727e+17
19484.0	6.007789119864831e+17
19485.0	6.014844151704232e+17
19486.0	6.019216466859348e+17
19487.0	6.024615391046313e+17
19488.0	6.027801337528319e+17
19489.0	6.032626793403732e+17
19490.0	6.034512896415059e+17
19491.0	6.038130025736874e+17
19492.0	6.042000604266495e+17
19493.0	6.044376862730922e+17
19494.0	6.04665651868467e+17
19495.0	6.048842891220308e+17
19496.0	6.051401815818237e+17
19497.0	6.05384707547682e+17
19498.0	6.055194918562474e+17
19499.0	6.049518192339621e+17
19500.0	6.0591859316381e+17
19501.0	6.060827002011647e+17
19502.0	6.062409094878548e+17
19503.0	6.064160231478612e+17
19504.0	6.065963671049558e+17
19505.0	6.067411270762495e+17
19506.0	6.068811231570601e+17
19507.0	6.070149169108308e+17
19508.0	6.071470098743295e+17
19509.0	6.072727820217002e+17
19510.0	6.073779223876947e+17
19511.0	6.06553049311914e+17
19512.0	6.074796058782374e+17
19513.0	6.074609087195814e+17
19514.0	6.07626739266355e+17
19515.0	6.078408963041962e+17
19516.0	6.079564364469588e+17
19517.0	6.080282420925779e+17
19518.0	6.081022407300436e+17
19519.0	6.081665123571028e+17
19520.0	6.082241501331456e+17
19521.0	6.082809013731328e+17
19522.0	6.08342364913664e+17
19523.0	6.083973028861268e+17
19524.0	6.084379201066324e+17
19525.0	6.08473421324834e+17
19526.0	6.085084462099114e+17
19527.0	6.085385318126931e+17
19528.0	6.085642796662783e+17
19529.0	6.085869438675625e+17
19530.0	6.086057783197695e+17
19531.0	6.08620498788898e+17
19532.0	6.086316086613331e+17
19533.0	6.086392099285674e+17
19534.0	6.086431827034112e+17
19535.0	6.086434543545001e+17
19536.0	6.086391135294803e+17
19537.0	6.086365835952127e+17
19538.0	6.086209702985727e+17
19539.0	6.085785739941204e+17
19540.0	6.086004583344809e+17
19541.0	6.085852605535572e+17
19542.0	6.085653198536704e+17
19543.0	6.085432004225705e+17
19544.0	6.085184643749206e+17
19545.0	6.08459095679522e+17
19546.0	6.08400914391586e+17
19547.0	6.084325091049471e+17
19548.0	6.083991797672618e+17
19549.0	6.083569503262036e+17
19550.0	6.083263438607699e+17
19551.0	6.08286964519185e+17
19552.0	6.082453684879359e+17
19553.0	6.082003054450004e+17
19554.0	6.081540342327978e+17
19555.0	6.081086209654783e+17
19556.0	6.080609064932694e+17
19557.0	6.080101089979049e+17
19558.0	6.079581215784959e+17
19559.0	6.079043867421353e+17
19560.0	6.078473693036544e+17
19561.0	6.077905940862292e+17
19562.0	6.077346247344127e+17
19563.0	6.076751152502099e+17
19564.0	6.076142960945834e+17
19565.0	6.075521500708863e+17
19566.0	6.074865160639827e+17
19567.0	6.074240172993193e+17
19568.0	6.07356372263458e+17
19569.0	6.072908030585514e+17
19570.0	6.072236217729023e+17
19571.0	6.071543905211731e+17
19572.0	6.070825622263124e+17
19573.0	6.07012141539874e+17
19574.0	6.069350717631145e+17
19575.0	6.068686930575359e+17
19576.0	6.067948111615316e+17
19577.0	6.067191422823082e+17
19578.0	6.06641277964561e+17
19579.0	6.065655204457129e+17
19580.0	6.065587396542463e+17
19581.0	6.066491022988628e+17
19582.0	6.065699588582057e+17
19583.0	6.064888749927081e+17
19584.0	6.064066828522835e+17
19585.0	6.063166417010687e+17
19586.0	6.062311884892841e+17
19587.0	6.061547793154047e+17
19588.0	6.060399664649556e+17
19589.0	6.059867270458025e+17
19590.0	6.05896222703616e+17
19591.0	6.058162747954516e+17
19592.0	6.057293701447679e+17
19593.0	6.058112062586875e+17
19594.0	6.059373952499711e+17
19595.0	6.058615395145044e+17
19596.0	6.057427414461098e+17
19597.0	6.056810330980351e+17
19598.0	6.055659713855487e+17
19599.0	6.054990636384255e+17
19600.0	6.054074550059007e+17
19601.0	6.053098515245737e+17
19602.0	6.052181176920746e+17
19603.0	6.050928445270697e+17
19604.0	6.050302732708522e+17
19605.0	6.049189203716778e+17
19606.0	6.048459048790697e+17
19607.0	6.047513895239679e+17
19608.0	6.046555281468074e+17
19609.0	6.045568693785939e+17
19610.0	6.044650299195391e+17
19611.0	6.043685049335807e+17
19612.0	6.042726185304063e+17
19613.0	6.043220868508328e+17
19614.0	6.044053871962793e+17
19615.0	6.043101156780714e+17
19616.0	6.04207268897314e+17
19617.0	6.041127057970516e+17
19618.0	6.039730583328084e+17
19619.0	6.038641377105235e+17
19620.0	6.037673581303124e+17
19621.0	6.037161307886932e+17
19622.0	6.036164304349865e+17
19623.0	6.035164601079124e+17
19624.0	6.034155437555712e+17
19625.0	6.033158531186687e+17
19626.0	6.032152684658687e+17
19627.0	6.031143396704255e+17
19628.0	6.030025442721791e+17
19629.0	6.029053056253951e+17
19630.0	6.027804248375296e+17
19631.0	6.022142335735124e+17
19632.0	6.02606567301666e+17
19633.0	6.025029986112852e+17
19634.0	6.024043548726611e+17
19635.0	6.022995339029161e+17
19636.0	6.022002674499584e+17
19637.0	6.02070575096354e+17
19638.0	6.019948092588031e+17
19639.0	6.018982080064169e+17
19640.0	6.017960970463913e+17
19641.0	6.016421128219306e+17
19642.0	6.015972423674538e+17
19643.0	6.01493259419648e+17
19644.0	6.013862098763775e+17
19645.0	6.012674393505791e+17
19646.0	6.011840031795882e+17
19647.0	6.010804274287956e+17
19648.0	6.009767097008127e+17
19649.0	6.008726899829418e+17
19650.0	6.008336817673553e+17
19651.0	6.0092881829888e+17
19652.0	6.008242645762047e+17
19653.0	6.007194789085183e+17
19654.0	6.006148964548607e+17
19655.0	6.005097431564287e+17
19656.0	6.004046854881279e+17
19657.0	6.003002299121663e+17
19658.0	6.001951879026004e+17
19659.0	6.000899542133418e+17
19660.0	5.999848870379519e+17
19661.0	5.998796281828692e+17
19662.0	5.997742883078143e+17
19663.0	5.996655812455082e+17
19664.0	5.995616238130516e+17
19665.0	5.994579247497215e+17
