# Flux units: erg / (cm m2 s)
# Wavelength units: Angstrom
wave	flux
19000.0	8.793788909267624e+17
19001.0	8.792257603829759e+17
19002.0	8.79077448954675e+17
19003.0	8.789262057078783e+17
19004.0	8.787747246440445e+17
19005.0	8.786230479858345e+17
19006.0	8.78471026975266e+17
19007.0	8.783152885530621e+17
19008.0	8.781646470490794e+17
19009.0	8.780114315007315e+17
19010.0	8.778596979397972e+17
19011.0	8.778869192523773e+17
19012.0	8.777261254355625e+17
19013.0	8.775801443625641e+17
19014.0	8.77424377279283e+17
19015.0	8.772713859863892e+17
19016.0	8.771152927260671e+17
19017.0	8.769601066937001e+17
19018.0	8.768061428815188e+17
19019.0	8.766510555551059e+17
19020.0	8.764949803302911e+17
19021.0	8.763392171616936e+17
19022.0	8.76183578563925e+17
19023.0	8.760402699616255e+17
19024.0	8.75886488601668e+17
19025.0	8.757295889164969e+17
19026.0	8.755716304491859e+17
19027.0	8.754091731714045e+17
19028.0	8.752587033542656e+17
19029.0	8.751012598076755e+17
19030.0	8.749436912708265e+17
19031.0	8.747858178080767e+17
19032.0	8.746277399429119e+17
19033.0	8.744671467536381e+17
19034.0	8.743108611145729e+17
19035.0	8.741498219309737e+17
19036.0	8.735596140123474e+17
19037.0	8.738335375753216e+17
19038.0	8.736754546769919e+17
19039.0	8.73516308522598e+17
19040.0	8.733569073545216e+17
19041.0	8.731972949333331e+17
19042.0	8.730354347846313e+17
19043.0	8.72877609975808e+17
19044.0	8.727174482406056e+17
19045.0	8.72557225268565e+17
19046.0	8.723956072710144e+17
19047.0	8.722358234426024e+17
19048.0	8.720707136869718e+17
19049.0	8.719127834613076e+17
19050.0	8.717521813241855e+17
19051.0	8.715226009217704e+17
19052.0	8.714181031930537e+17
19053.0	8.712683064218964e+17
19054.0	8.711079496515583e+17
19055.0	8.709396375448233e+17
19056.0	8.707843796500479e+17
19057.0	8.706223584400723e+17
19058.0	8.704601937849e+17
19059.0	8.702978350732628e+17
19060.0	8.70134865670963e+17
19061.0	8.699728675296596e+17
19062.0	8.698100491223039e+17
19063.0	8.696472458144426e+17
19064.0	8.69481470562577e+17
19065.0	8.693163680770728e+17
19066.0	8.69156265201937e+17
19067.0	8.68994637697297e+17
19068.0	8.68831183713075e+17
19069.0	8.68667603899733e+17
19070.0	8.6850363471517e+17
19071.0	8.683400281980927e+17
19072.0	8.681760555182761e+17
19073.0	8.680118383105364e+17
19074.0	8.678477495883092e+17
19075.0	8.676834138215762e+17
19076.0	8.675184490490537e+17
19077.0	8.673540991614973e+17
19078.0	8.671889301263698e+17
19079.0	8.670248757974356e+17
19080.0	8.668597782052863e+17
19081.0	8.666937419279017e+17
19082.0	8.66528622944802e+17
19083.0	8.663613652860927e+17
19084.0	8.661920993946282e+17
19085.0	8.660332734054399e+17
19086.0	8.658562750349311e+17
19087.0	8.656914644729855e+17
19088.0	8.655312589772118e+17
19089.0	8.653596989412691e+17
19090.0	8.652030718858582e+17
19091.0	8.650369205447337e+17
19092.0	8.648680536713896e+17
19093.0	8.647053402614441e+17
19094.0	8.645368757616637e+17
19095.0	8.643699090478419e+17
19096.0	8.64205555385412e+17
19097.0	8.640392020186451e+17
19098.0	8.638724107665404e+17
19099.0	8.637053816973992e+17
19100.0	8.635382853795837e+17
19101.0	8.633710026948604e+17
19102.0	8.632017482678271e+17
19103.0	8.630362318045183e+17
19104.0	8.628686274166781e+17
19105.0	8.627007197806591e+17
19106.0	8.62531097932595e+17
19107.0	8.62364412097331e+17
19108.0	8.621961043247101e+17
19109.0	8.619852018570578e+17
19110.0	8.618561734617769e+17
19111.0	8.616922190970879e+17
19112.0	8.615241469045416e+17
19113.0	8.613556987625471e+17
19114.0	8.611870656517459e+17
19115.0	8.610168925323263e+17
19116.0	8.60849392582656e+17
19117.0	8.606796302254079e+17
19118.0	8.605075203162112e+17
19119.0	8.602941162258428e+17
19120.0	8.601689485475837e+17
19121.0	8.600005651376808e+17
19122.0	8.598339113189375e+17
19123.0	8.596641595872596e+17
19124.0	8.594916380770303e+17
19125.0	8.593242499754666e+17
19126.0	8.591542236566867e+17
19127.0	8.589443341134505e+17
19128.0	8.587916663412051e+17
19129.0	8.586415096987647e+17
19130.0	8.584732508596906e+17
19131.0	8.58290547536691e+17
19132.0	8.58116856095266e+17
19133.0	8.579364494333268e+17
19134.0	8.577637238003027e+17
19135.0	8.576042047722836e+17
19136.0	8.574330842994003e+17
19137.0	8.57257915064866e+17
19138.0	8.570893791221076e+17
19139.0	8.569187121932969e+17
19140.0	8.567472034676735e+17
19141.0	8.565754405672275e+17
19142.0	8.564034918591144e+17
19143.0	8.562302431963817e+17
19144.0	8.560590384179881e+17
19145.0	8.558867468954282e+17
19146.0	8.556990722037078e+17
19147.0	8.554235079688192e+17
19148.0	8.551965343263401e+17
19149.0	8.550236456747007e+17
19150.0	8.54850579604002e+17
19151.0	8.546775461090643e+17
19152.0	8.545040779444221e+17
19153.0	8.543306424953513e+17
19154.0	8.54153857475106e+17
19155.0	8.539828970848253e+17
19156.0	8.538083618892458e+17
19157.0	8.536309278703613e+17
19158.0	8.534355415313066e+17
19159.0	8.532834647364947e+17
19160.0	8.531103624549715e+17
19161.0	8.529328610476031e+17
19162.0	8.526944344386218e+17
19163.0	8.525807548192083e+17
19164.0	8.524117597399721e+17
19165.0	8.522360785207295e+17
19166.0	8.520582204577107e+17
19167.0	8.518795593252863e+17
19168.0	8.517082428385962e+17
19169.0	8.515327675596799e+17
19170.0	8.51357979447569e+17
19171.0	8.511795112531284e+17
19172.0	8.510050842705919e+17
19173.0	8.508288383582207e+17
19174.0	8.506509503758333e+17
19175.0	8.504752358817791e+17
19176.0	8.502979703341055e+17
19177.0	8.501165473923068e+17
19178.0	8.499408342963539e+17
19179.0	8.4976131389085e+17
19180.0	8.495854471435604e+17
19181.0	8.494065131017556e+17
19182.0	8.492297198327123e+17
19183.0	8.490518742127955e+17
19184.0	8.488719399692968e+17
19185.0	8.486939950841852e+17
19186.0	8.4851495548573e+17
19187.0	8.4833359364096e+17
19188.0	8.481557260708522e+17
19189.0	8.479748390212947e+17
19190.0	8.477757074483882e+17
19191.0	8.473984587442856e+17
19192.0	8.4721784614202e+17
19193.0	8.470351482716157e+17
19194.0	8.468544351458642e+17
19195.0	8.4667296410938e+17
19196.0	8.464894746340012e+17
19197.0	8.463038761227604e+17
19198.0	8.461070230355967e+17
19199.0	8.455400901487272e+17
19200.0	8.454509944635391e+17
19201.0	8.455608899818833e+17
19202.0	8.453904502445395e+17
19203.0	8.452092784017408e+17
19204.0	8.450271162837672e+17
19205.0	8.448441798972756e+17
19206.0	8.446597805375485e+17
19207.0	8.444739681168041e+17
19208.0	8.442862658824876e+17
19209.0	8.441053146600786e+17
19210.0	8.439196419096573e+17
19211.0	8.437335649681407e+17
19212.0	8.435470768450216e+17
19213.0	8.433559246558546e+17
19214.0	8.431670948528127e+17
19215.0	8.429032172071592e+17
19216.0	8.425319473435987e+17
19217.0	8.423436876862804e+17
19218.0	8.421358740439037e+17
19219.0	8.419615120730792e+17
19220.0	8.417768237258068e+17
19221.0	8.415796940941992e+17
19222.0	8.413967735062525e+17
19223.0	8.412065749620051e+17
19224.0	8.410153899174569e+17
19225.0	8.408210985713663e+17
19226.0	8.406328917622784e+17
19227.0	8.404408758261075e+17
19228.0	8.402483863530153e+17
19229.0	8.400554324306601e+17
19230.0	8.398609603100672e+17
19231.0	8.396683227780436e+17
19232.0	8.394735686604115e+17
19233.0	8.39180096844595e+17
19234.0	8.389224347380392e+17
19235.0	8.387270307829076e+17
19236.0	8.385305551831039e+17
19237.0	8.383332314950313e+17
19238.0	8.38133363961583e+17
19239.0	8.379382024372224e+17
19240.0	8.377371055532713e+17
19241.0	8.375397670453247e+17
19242.0	8.373412376346621e+17
19243.0	8.371366470352895e+17
19244.0	8.369406044274685e+17
19245.0	8.367394753871871e+17
19246.0	8.36537450443571e+17
19247.0	8.36335498900275e+17
19248.0	8.361327322639016e+17
19249.0	8.3592924378781e+17
19250.0	8.357250408819372e+17
19251.0	8.355173915164671e+17
19252.0	8.353073526560084e+17
19253.0	8.351089650128211e+17
19254.0	8.349021248684033e+17
19255.0	8.34690238976273e+17
19256.0	8.344863749701631e+17
19257.0	8.342785706950655e+17
19258.0	8.340691520323583e+17
19259.0	8.338570821500927e+17
19260.0	8.336419038691327e+17
19261.0	8.334366006575101e+17
19262.0	8.332242461218131e+17
19263.0	8.33010377302562e+17
19264.0	8.32786025239893e+17
19265.0	8.325783117015721e+17
19266.0	8.323640312812883e+17
19267.0	8.321496673943552e+17
19268.0	8.31931708289843e+17
19269.0	8.317128994193408e+17
19270.0	8.314931757711357e+17
19271.0	8.312655331371693e+17
19272.0	8.310503933039956e+17
19273.0	8.307552219561981e+17
19274.0	8.305622729271978e+17
19275.0	8.303822588521128e+17
19276.0	8.301484167572137e+17
19277.0	8.298994975375357e+17
19278.0	8.296728180555775e+17
19279.0	8.294450111447039e+17
19280.0	8.292148032744105e+17
19281.0	8.289867619019433e+17
19282.0	8.28755772772625e+17
19283.0	8.285202891669501e+17
19284.0	8.282822020169727e+17
19285.0	8.280546580889599e+17
19286.0	8.278235083177981e+17
19287.0	8.275878713404073e+17
19288.0	8.272385204901201e+17
19289.0	8.268467283165178e+17
19290.0	8.268750215533908e+17
19291.0	8.266287929797289e+17
19292.0	8.26394644840448e+17
19293.0	8.261523747110912e+17
19294.0	8.259092061618175e+17
19295.0	8.256646483192488e+17
19296.0	8.254188400148479e+17
19297.0	8.251717079881043e+17
19298.0	8.249233572364285e+17
19299.0	8.246736417980416e+17
19300.0	8.244225422393343e+17
19301.0	8.24169982923025e+17
19302.0	8.239159346287955e+17
19303.0	8.23658736412262e+17
19304.0	8.234011766467242e+17
19305.0	8.231414394781696e+17
19306.0	8.228788849956178e+17
19307.0	8.22612971294993e+17
19308.0	8.22347826410291e+17
19309.0	8.220659173119314e+17
19310.0	8.217332574147923e+17
19311.0	8.214778006732797e+17
19312.0	8.212074646383272e+17
19313.0	8.209314296627199e+17
19314.0	8.205084448697002e+17
19315.0	8.202372846540115e+17
19316.0	8.200922321999187e+17
19317.0	8.198103881132713e+17
19318.0	8.195248664608764e+17
19319.0	8.192347281380692e+17
19320.0	8.189429443898026e+17
19321.0	8.186506791354365e+17
19322.0	8.183528845301075e+17
19323.0	8.180543812272127e+17
19324.0	8.177595307436716e+17
19325.0	8.174515664890536e+17
19326.0	8.171548559714986e+17
19327.0	8.167830019812009e+17
19328.0	8.16446479549508e+17
19329.0	8.161344012419071e+17
19330.0	8.15818522894882e+17
19331.0	8.155003014698323e+17
19332.0	8.151802310557693e+17
19333.0	8.148561391430313e+17
19334.0	8.145285560314536e+17
19335.0	8.141978035639636e+17
19336.0	8.138633752084476e+17
19337.0	8.13525425594914e+17
19338.0	8.131253569410386e+17
19339.0	8.127019956393298e+17
19340.0	8.123518271793833e+17
19341.0	8.119989029218986e+17
19342.0	8.116343273073322e+17
19343.0	8.112806961698131e+17
19344.0	8.109151291615913e+17
19345.0	8.105064900067327e+17
19346.0	8.100875485227693e+17
19347.0	8.0960284538525e+17
19348.0	8.092188365815808e+17
19349.0	8.088276408380072e+17
19350.0	8.084318417059837e+17
19351.0	8.080318524642644e+17
19352.0	8.075101285821096e+17
19353.0	8.069726260079276e+17
19354.0	8.065562180233896e+17
19355.0	8.061325137674237e+17
19356.0	8.057067404612947e+17
19357.0	8.05092760346078e+17
19358.0	8.045228946620416e+17
19359.0	8.040725771277651e+17
19360.0	8.036208347884202e+17
19361.0	8.030374865141756e+17
19362.0	8.023151671072084e+17
19363.0	8.018386167179945e+17
19364.0	8.01354994033186e+17
19365.0	8.006736900259844e+17
19366.0	7.999164431116969e+17
19367.0	7.994086281008467e+17
19368.0	7.988838717368998e+17
19369.0	7.978974311350272e+17
19370.0	7.972736630521853e+17
19371.0	7.966709660341581e+17
19372.0	7.955686464596649e+17
19373.0	7.949967480761e+17
19374.0	7.942187151698598e+17
19375.0	7.934803087895208e+17
19376.0	7.928773692009128e+17
19377.0	7.922702958460927e+17
19378.0	7.916453031662931e+17
19379.0	7.910092028510208e+17
19380.0	7.903621657482579e+17
19381.0	7.897030926707369e+17
19382.0	7.890101268206932e+17
19383.0	7.883034310563156e+17
19384.0	7.876082268460372e+17
19385.0	7.868972740029097e+17
19386.0	7.861724942172157e+17
19387.0	7.85433418985199e+17
19388.0	7.846748452727468e+17
19389.0	7.838932054048765e+17
19390.0	7.830356012389714e+17
19391.0	7.819623065277775e+17
19392.0	7.814047374245888e+17
19393.0	7.805713143999144e+17
19394.0	7.797056531158358e+17
19395.0	7.787264675414015e+17
19396.0	7.77832673382673e+17
19397.0	7.769189810263379e+17
19398.0	7.759821609981267e+17
19399.0	7.748581118530899e+17
19400.0	7.738818439763283e+17
19401.0	7.728648386423466e+17
19402.0	7.71670268706816e+17
19403.0	7.705270973104127e+17
19404.0	7.69370945661611e+17
19405.0	7.679972384003412e+17
19406.0	7.66802057634338e+17
19407.0	7.652864528744448e+17
19408.0	7.639849463622313e+17
19409.0	7.623245799533226e+17
19410.0	7.608604932702207e+17
19411.0	7.59111014818338e+17
19412.0	7.573526939347626e+17
19413.0	7.555896734733658e+17
19414.0	7.535879811760127e+17
19415.0	7.515266172147035e+17
19416.0	7.496266242064383e+17
19417.0	7.478410841074342e+17
19418.0	7.461217927604905e+17
19419.0	7.442722770823849e+17
19420.0	7.423807650966185e+17
19421.0	7.404170297125548e+17
19422.0	7.383131111817215e+17
19423.0	7.361334359709011e+17
19424.0	7.338385992930646e+17
19425.0	7.314295596864851e+17
19426.0	7.289530425365844e+17
19427.0	7.263520012544684e+17
19428.0	7.236129283637245e+17
19429.0	7.207135554655571e+17
19430.0	7.175960854702762e+17
19431.0	7.142278701951658e+17
19432.0	7.107872268397224e+17
19433.0	7.071707438601556e+17
19434.0	7.033998417767081e+17
19435.0	6.99343037477683e+17
19436.0	6.950560209043455e+17
19437.0	6.906224584250706e+17
19438.0	6.859077146290856e+17
19439.0	6.811060332571308e+17
19440.0	6.758907340914687e+17
19441.0	6.703085115495762e+17
19442.0	6.643606181205335e+17
19443.0	6.580145595525801e+17
19444.0	6.512695192846332e+17
19445.0	6.440908406915073e+17
19446.0	6.36469816468002e+17
19447.0	6.283751332686501e+17
19448.0	6.197460473653934e+17
19449.0	6.103207730216959e+17
19450.0	5.986648384165192e+17
19451.0	5.919633752894129e+17
19452.0	6.048217623953404e+17
19453.0	6.148679303255384e+17
19454.0	6.235912307124902e+17
19455.0	6.317058532136276e+17
19456.0	6.393200346398723e+17
19457.0	6.46473119659895e+17
19458.0	6.531359349320362e+17
19459.0	6.594791440296621e+17
19460.0	6.653555194724348e+17
19461.0	6.708797201099434e+17
19462.0	6.759901371389271e+17
19463.0	6.808058948747261e+17
19464.0	6.852898560409599e+17
19465.0	6.895065404276736e+17
19466.0	6.936121654465874e+17
19467.0	6.975185366985385e+17
19468.0	7.011430133923839e+17
19469.0	7.045602652542291e+17
19470.0	7.078395610049194e+17
19471.0	7.109493024358399e+17
19472.0	7.138721712657747e+17
19473.0	7.166194299000147e+17
19474.0	7.1915543738013e+17
19475.0	7.2149364651677e+17
19476.0	7.237908777227603e+17
19477.0	7.259109272671574e+17
19478.0	7.2800299660957e+17
19479.0	7.299322599877289e+17
19480.0	7.317969960959999e+17
19481.0	7.335291769585663e+17
19482.0	7.351623118487551e+17
19483.0	7.367503596486655e+17
19484.0	7.382370326588072e+17
19485.0	7.39635729024068e+17
19486.0	7.412738823989932e+17
19487.0	7.429834312166058e+17
19488.0	7.446333732421633e+17
19489.0	7.461749436798292e+17
19490.0	7.477681539689125e+17
19491.0	7.491040460843685e+17
19492.0	7.50474065993182e+17
19493.0	7.517131437856086e+17
19494.0	7.528593563320319e+17
19495.0	7.539924511926953e+17
19496.0	7.550111651463164e+17
19497.0	7.559929910351187e+17
19498.0	7.569491020655274e+17
19499.0	7.573746073556303e+17
19500.0	7.587065910788097e+17
19501.0	7.594702336076458e+17
19502.0	7.601666440997544e+17
19503.0	7.609219064091987e+17
19504.0	7.616323467083775e+17
19505.0	7.622546590881108e+17
19506.0	7.628550531536212e+17
19507.0	7.634860660577622e+17
19508.0	7.641058966678185e+17
19509.0	7.646483262909097e+17
19510.0	7.651700108864169e+17
19511.0	7.653575126330024e+17
19512.0	7.661362784239615e+17
19513.0	7.665965908448593e+17
19514.0	7.670921048009385e+17
19515.0	7.676124557475837e+17
19516.0	7.68049702851925e+17
19517.0	7.6846061350202e+17
19518.0	7.688589588561917e+17
19519.0	7.69242742006306e+17
19520.0	7.696520739203752e+17
19521.0	7.700109115872595e+17
19522.0	7.703564348555263e+17
19523.0	7.706903541623464e+17
19524.0	7.71013041123055e+17
19525.0	7.713241526435839e+17
19526.0	7.716252552964778e+17
19527.0	7.719271294216873e+17
19528.0	7.72519772413406e+17
19529.0	7.727879089553408e+17
19530.0	7.733562200905046e+17
19531.0	7.738615331990186e+17
19532.0	7.741000505447763e+17
19533.0	7.746856276721664e+17
19534.0	7.7504621604154e+17
19535.0	7.75252948951586e+17
19536.0	7.755121562397349e+17
19537.0	7.760554395435007e+17
19538.0	7.76231067914513e+17
19539.0	7.763930800368297e+17
19540.0	7.766564693256876e+17
19541.0	7.770747123182249e+17
19542.0	7.772221490943315e+17
19543.0	7.773630826020861e+17
19544.0	7.774974850192726e+17
19545.0	7.77885029061973e+17
19546.0	7.780156837287254e+17
19547.0	7.781472047988736e+17
19548.0	7.782559134689962e+17
19549.0	7.783604085413203e+17
19550.0	7.786838253109247e+17
19551.0	7.7877514090141e+17
19552.0	7.788621451668134e+17
19553.0	7.789445264703488e+17
19554.0	7.790221573051732e+17
19555.0	7.791025484114602e+17
19556.0	7.79333579763439e+17
19557.0	7.793949085969064e+17
19558.0	7.794519621763071e+17
19559.0	7.795045716109994e+17
19560.0	7.795525997472424e+17
19561.0	7.795978701286057e+17
19562.0	7.796385023087956e+17
19563.0	7.796752751700649e+17
19564.0	7.798148822990847e+17
19565.0	7.798618572455935e+17
19566.0	7.798868041269247e+17
19567.0	7.799091224379391e+17
19568.0	7.799268134529706e+17
19569.0	7.79942505742336e+17
19570.0	7.799545754113364e+17
19571.0	7.79963318298214e+17
19572.0	7.799684856807424e+17
19573.0	7.799717253611519e+17
19574.0	7.79969970044928e+17
19575.0	7.79987795137877e+17
19576.0	7.800485627734696e+17
19577.0	7.800399651493204e+17
19578.0	7.80028719800866e+17
19579.0	7.800160282563926e+17
19580.0	7.800007254780586e+17
19581.0	7.799833301614591e+17
19582.0	7.799642260854102e+17
19583.0	7.799425141309439e+17
19584.0	7.799184687453522e+17
19585.0	7.798897584548522e+17
19586.0	7.798603464572927e+17
19587.0	7.79832721932288e+17
19588.0	7.797943390175232e+17
19589.0	7.797694249915731e+17
19590.0	7.797322349368659e+17
19591.0	7.796955855279442e+17
19592.0	7.796554765172736e+17
19593.0	7.796136054794922e+17
19594.0	7.796147847779668e+17
19595.0	7.795756284335444e+17
19596.0	7.794691577042259e+17
19597.0	7.794784833197395e+17
19598.0	7.79423595958545e+17
19599.0	7.79375246119185e+17
19600.0	7.7931947781434e+17
19601.0	7.792613425239379e+17
19602.0	7.792024139508394e+17
19603.0	7.791292872392703e+17
19604.0	7.790801340508842e+17
19605.0	7.79012791004911e+17
19606.0	7.789560964579327e+17
19607.0	7.788911543713791e+17
19608.0	7.788247677665279e+17
19609.0	7.787567894233084e+17
19610.0	7.7868865449274e+17
19611.0	7.786187007721471e+17
19612.0	7.785479190959444e+17
19613.0	7.784758905929725e+17
19614.0	7.784016544879955e+17
19615.0	7.783285479090858e+17
19616.0	7.782505973284863e+17
19617.0	7.781775224864767e+17
19618.0	7.780885365522428e+17
19619.0	7.780074282199721e+17
19620.0	7.779289734840317e+17
19621.0	7.778631280842068e+17
19622.0	7.77782120555042e+17
19623.0	7.777001268051967e+17
19624.0	7.776171830454954e+17
19625.0	7.775332673257471e+17
19626.0	7.774484046719658e+17
19627.0	7.773622753383763e+17
19628.0	7.772661231561386e+17
19629.0	7.771843333892777e+17
19630.0	7.770600062495402e+17
19631.0	7.76608946323456e+17
19632.0	7.769441376228692e+17
19633.0	7.768572334615209e+17
19634.0	7.767665552654336e+17
19635.0	7.766734392000511e+17
19636.0	7.765814480470015e+17
19637.0	7.764761773080573e+17
19638.0	7.763916288076458e+17
19639.0	7.762953974928722e+17
19640.0	7.761973434733908e+17
19641.0	7.760903084703743e+17
19642.0	7.760032979135148e+17
19643.0	7.759042044056918e+17
19644.0	7.758031871104339e+17
19645.0	7.75698495185442e+17
19646.0	7.756035221618687e+17
19647.0	7.755019301071528e+17
19648.0	7.753996929684819e+17
19649.0	7.752967560800936e+17
19650.0	7.751933364273152e+17
19651.0	7.750892473636182e+17
19652.0	7.749845617300819e+17
19653.0	7.748792497471488e+17
19654.0	7.747734394809e+17
19655.0	7.74666944983859e+17
19656.0	7.745599306727424e+17
19657.0	7.74452587947622e+17
19658.0	7.743446450175999e+17
19659.0	7.742361509560317e+17
19660.0	7.74127206426214e+17
19661.0	7.740177233477632e+17
19662.0	7.739077363935914e+17
19663.0	7.737959983174995e+17
19664.0	7.73684800327953e+17
19665.0	7.735749554208765e+17
19666.0	7.734627939997012e+17
19667.0	7.733507763033427e+17
