# Flux units: erg / (cm m2 s)
# Wavelength units: Angstrom
wave	flux
19000.0	7.464794895766867e+17
19001.0	7.463374939313492e+17
19002.0	7.462000682598399e+17
19003.0	7.46060266934545e+17
19004.0	7.459204488320339e+17
19005.0	7.4578072174592e+17
19006.0	7.456408927382186e+17
19007.0	7.454994422125906e+17
19008.0	7.453596657734995e+17
19009.0	7.452200613008723e+17
19010.0	7.450706564175187e+17
19011.0	7.449407023393449e+17
19012.0	7.447973982109693e+17
19013.0	7.446615200978259e+17
19014.0	7.44520299839488e+17
19015.0	7.44381540798737e+17
19016.0	7.442402191780522e+17
19017.0	7.440995932525908e+17
19018.0	7.439613010378751e+17
19019.0	7.438214211392854e+17
19020.0	7.436800008126461e+17
19021.0	7.435407296473769e+17
19022.0	7.434012445726035e+17
19023.0	7.432611399991293e+17
19024.0	7.431208152246953e+17
19025.0	7.429809279161684e+17
19026.0	7.428400645931007e+17
19027.0	7.42698257551633e+17
19028.0	7.42560599515682e+17
19029.0	7.424204618072061e+17
19030.0	7.422803329067689e+17
19031.0	7.421401889068372e+17
19032.0	7.420000398737407e+17
19033.0	7.418578121435817e+17
19034.0	7.417197095114067e+17
19035.0	7.415786468190889e+17
19036.0	7.412684576260093e+17
19037.0	7.412991932061012e+17
19038.0	7.411584698329769e+17
19039.0	7.410189045071871e+17
19040.0	7.408787377182036e+17
19041.0	7.407385675737769e+17
19042.0	7.405965041205247e+17
19043.0	7.404582344152403e+17
19044.0	7.403180048515071e+17
19045.0	7.401778960837289e+17
19046.0	7.400365822924116e+17
19047.0	7.398974075961343e+17
19048.0	7.397526775442089e+17
19049.0	7.396157069546836e+17
19050.0	7.394760692072445e+17
19051.0	7.393098764823208e+17
19052.0	7.391938363086164e+17
19053.0	7.390565737955327e+17
19054.0	7.389164423785129e+17
19055.0	7.387703667938644e+17
19056.0	7.38636164444979e+17
19057.0	7.384960254782122e+17
19058.0	7.383558935019517e+17
19059.0	7.382157490825897e+17
19060.0	7.380750677923155e+17
19061.0	7.379355227389951e+17
19062.0	7.377953072960851e+17
19063.0	7.376552499784361e+17
19064.0	7.37512523964962e+17
19065.0	7.373708364611583e+17
19066.0	7.37233498870033e+17
19067.0	7.370949067625811e+17
19068.0	7.369548463691092e+17
19069.0	7.368148119803219e+17
19070.0	7.366745037034836e+17
19071.0	7.365346986033151e+17
19072.0	7.363946531695274e+17
19073.0	7.36254487778645e+17
19074.0	7.361145919417002e+17
19075.0	7.359745669201919e+17
19076.0	7.358340487883434e+17
19077.0	7.356943261761533e+17
19078.0	7.355537227601235e+17
19079.0	7.354145695946068e+17
19080.0	7.352744787225258e+17
19081.0	7.351336093876223e+17
19082.0	7.349935371102888e+17
19083.0	7.348523253803689e+17
19084.0	7.347089372261034e+17
19085.0	7.3457482086045e+17
19086.0	7.34425693360401e+17
19087.0	7.342897116479487e+17
19088.0	7.341532334697129e+17
19089.0	7.340082229586602e+17
19090.0	7.338747123903145e+17
19091.0	7.337347646838099e+17
19092.0	7.335931572912127e+17
19093.0	7.334557035178664e+17
19094.0	7.333147238727676e+17
19095.0	7.331746199983444e+17
19096.0	7.330357085645481e+17
19097.0	7.328963337999702e+17
19098.0	7.327565769342973e+17
19099.0	7.326167634455208e+17
19100.0	7.324770212599126e+17
19101.0	7.323372439819603e+17
19102.0	7.321954895091028e+17
19103.0	7.320577586320723e+17
19104.0	7.319180080578557e+17
19105.0	7.317782587419305e+17
19106.0	7.316375782905172e+17
19107.0	7.314984807694335e+17
19108.0	7.313591101991593e+17
19109.0	7.312020613365757e+17
19110.0	7.310794594538836e+17
19111.0	7.309401017461417e+17
19112.0	7.30797261647599e+17
19113.0	7.306232951996416e+17
19114.0	7.304836826180266e+17
19115.0	7.303432718603603e+17
19116.0	7.302044671016957e+17
19117.0	7.300644355091113e+17
19118.0	7.299226246927699e+17
19119.0	7.297266943524861e+17
19120.0	7.296447752612522e+17
19121.0	7.295056366359891e+17
19122.0	7.293671061848063e+17
19123.0	7.292274206223017e+17
19124.0	7.290870734782461e+17
19125.0	7.289483881174356e+17
19126.0	7.288087523273385e+17
19127.0	7.286313213842772e+17
19128.0	7.285201507975168e+17
19129.0	7.283885015214761e+17
19130.0	7.282510305514836e+17
19131.0	7.281116524314623e+17
19132.0	7.27972140932574e+17
19133.0	7.278226911701672e+17
19134.0	7.276888031144617e+17
19135.0	7.275539440773802e+17
19136.0	7.274145932203348e+17
19137.0	7.272714997858301e+17
19138.0	7.271346487339689e+17
19139.0	7.269963703604564e+17
19140.0	7.268570543161343e+17
19141.0	7.26717692973329e+17
19142.0	7.265783015713449e+17
19143.0	7.264377522618368e+17
19144.0	7.262994854925651e+17
19145.0	7.261603017086292e+17
19146.0	7.260077408911357e+17
19147.0	7.258796701952681e+17
19148.0	7.257422178200233e+17
19149.0	7.256029392448169e+17
19150.0	7.254634496961193e+17
19151.0	7.25324407120418e+17
19152.0	7.251848441714004e+17
19153.0	7.250453273597268e+17
19154.0	7.249036173464914e+17
19155.0	7.247672486395904e+17
19156.0	7.246278839413417e+17
19157.0	7.244883124639059e+17
19158.0	7.243374738276352e+17
19159.0	7.242096090720938e+17
19160.0	7.240704236104361e+17
19161.0	7.239303858662057e+17
19162.0	7.23765404176657e+17
19163.0	7.236527056049492e+17
19164.0	7.235138861662207e+17
19165.0	7.233741645327017e+17
19166.0	7.232325797893462e+17
19167.0	7.230936336826368e+17
19168.0	7.229546687015593e+17
19169.0	7.228160598168918e+17
19170.0	7.226783961885353e+17
19171.0	7.225377244053504e+17
19172.0	7.223999166327464e+17
19173.0	7.222606746877951e+17
19174.0	7.2212023359133e+17
19175.0	7.219822577669459e+17
19176.0	7.218430050566143e+17
19177.0	7.21700300853521e+17
19178.0	7.215639464072531e+17
19179.0	7.214231440414036e+17
19180.0	7.2128428783261e+17
19181.0	7.211443624957268e+17
19182.0	7.210062605626025e+17
19183.0	7.208679753383935e+17
19184.0	7.20726891954176e+17
19185.0	7.205893768041812e+17
19186.0	7.204502405556906e+17
19187.0	7.203093840833193e+17
19188.0	7.20171598680337e+17
19189.0	7.20031908643908e+17
19190.0	7.198923675052714e+17
19191.0	7.197533867256489e+17
19192.0	7.196142264298153e+17
19193.0	7.194738518829738e+17
19194.0	7.193351428942505e+17
19195.0	7.191961600174762e+17
19196.0	7.19056476971554e+17
19197.0	7.189169667309565e+17
19198.0	7.187771356261033e+17
19199.0	7.18476812694323e+17
19200.0	7.183913192172202e+17
19201.0	7.183589046572372e+17
19202.0	7.182199726713513e+17
19203.0	7.180806047574697e+17
19204.0	7.179405439445672e+17
19205.0	7.178016091624787e+17
19206.0	7.17661783789841e+17
19207.0	7.175211937955839e+17
19208.0	7.173783753676116e+17
19209.0	7.172432846651391e+17
19210.0	7.171036062329513e+17
19211.0	7.169638679620266e+17
19212.0	7.168242530036393e+17
19213.0	7.166816261155497e+17
19214.0	7.165410147303423e+17
19215.0	7.164043694789972e+17
19216.0	7.162647705987753e+17
19217.0	7.161253182395731e+17
19218.0	7.159669224461651e+17
19219.0	7.158416998225236e+17
19220.0	7.157050250712403e+17
19221.0	7.155582328198483e+17
19222.0	7.154255732757844e+17
19223.0	7.152854814250323e+17
19224.0	7.151441851099817e+17
19225.0	7.15001892647731e+17
19226.0	7.148651559605587e+17
19227.0	7.147249838587904e+17
19228.0	7.145847224183466e+17
19229.0	7.144443954069504e+17
19230.0	7.143039492773203e+17
19231.0	7.14163665047825e+17
19232.0	7.140224891092991e+17
19233.0	7.138809827994281e+17
19234.0	7.137415581226323e+17
19235.0	7.1360152876701e+17
19236.0	7.134608437018624e+17
19237.0	7.133197496920745e+17
19238.0	7.131770661808808e+17
19239.0	7.130385295780521e+17
19240.0	7.128932879608489e+17
19241.0	7.127553311506432e+17
19242.0	7.126155899437055e+17
19243.0	7.12470389011251e+17
19244.0	7.12333282246656e+17
19245.0	7.12192051782178e+17
19246.0	7.120503603636905e+17
19247.0	7.119092399297875e+17
19248.0	7.117678391765674e+17
19249.0	7.116262324830207e+17
19250.0	7.114844571784532e+17
19251.0	7.113402814737065e+17
19252.0	7.111937192099839e+17
19253.0	7.110588706586623e+17
19254.0	7.109164077678591e+17
19255.0	7.107703121903615e+17
19256.0	7.106320758996992e+17
19257.0	7.104904195735551e+17
19258.0	7.103479440998399e+17
19259.0	7.102036487176191e+17
19260.0	7.100602012838569e+17
19261.0	7.099200270849364e+17
19262.0	7.097764567580671e+17
19263.0	7.096329487865172e+17
19264.0	7.094798748658345e+17
19265.0	7.093435581683028e+17
19266.0	7.092011267347795e+17
19267.0	7.090608239105364e+17
19268.0	7.089171508232191e+17
19269.0	7.087733327527935e+17
19270.0	7.086293460713471e+17
19271.0	7.084779969882794e+17
19272.0	7.083401324527615e+17
19273.0	7.080809359299922e+17
19274.0	7.079915420297897e+17
19275.0	7.079071297044479e+17
19276.0	7.077622174799187e+17
19277.0	7.076171039287977e+17
19278.0	7.074398095802365e+17
19279.0	7.072779909551444e+17
19280.0	7.071307513113257e+17
19281.0	7.069865802203135e+17
19282.0	7.068405091095892e+17
19283.0	7.066918155801939e+17
19284.0	7.065440366886911e+17
19285.0	7.063963634936489e+17
19286.0	7.062532538411689e+17
19287.0	7.061067744848553e+17
19288.0	7.059166101940905e+17
19289.0	7.056976254424402e+17
19290.0	7.056636602482688e+17
19291.0	7.055092249963177e+17
19292.0	7.053669033137492e+17
19293.0	7.052179118489599e+17
19294.0	7.050690122394281e+17
19295.0	7.049196272091135e+17
19296.0	7.047699048169471e+17
19297.0	7.046198011625471e+17
19298.0	7.044694995369983e+17
19299.0	7.04318813713203e+17
19300.0	7.041677415940093e+17
19301.0	7.040161846132736e+17
19302.0	7.038642981000531e+17
19303.0	7.037114743696041e+17
19304.0	7.035630362733226e+17
19305.0	7.034113028521983e+17
19306.0	7.032579481228627e+17
19307.0	7.031026917659987e+17
19308.0	7.029490235124394e+17
19309.0	7.027899041316863e+17
19310.0	7.026321798463487e+17
19311.0	7.024830825452884e+17
19312.0	7.023282042350249e+17
19313.0	7.021703151834452e+17
19314.0	7.019353360127316e+17
19315.0	7.017824806851926e+17
19316.0	7.016471306349225e+17
19317.0	7.014764162405715e+17
19318.0	7.013169606164479e+17
19319.0	7.011569193276756e+17
19320.0	7.009958885326847e+17
19321.0	7.008348313135785e+17
19322.0	7.00669910721058e+17
19323.0	7.005074818247337e+17
19324.0	7.003464620048383e+17
19325.0	7.001777761157119e+17
19326.0	7.000172396194474e+17
19327.0	6.99851172094498e+17
19328.0	6.996849235853311e+17
19329.0	6.99517463831074e+17
19330.0	6.993481772477097e+17
19331.0	6.991497171129683e+17
19332.0	6.989790599009619e+17
19333.0	6.988078882575699e+17
19334.0	6.986259486474239e+17
19335.0	6.983814272953002e+17
19336.0	6.982070403683667e+17
19337.0	6.980314817626111e+17
19338.0	6.978502521083219e+17
19339.0	6.976772883786409e+17
19340.0	6.974971433713661e+17
19341.0	6.973176461743444e+17
19342.0	6.971279532534442e+17
19343.0	6.969532572762111e+17
19344.0	6.967688265291091e+17
19345.0	6.96539201946692e+17
19346.0	6.963438004382378e+17
19347.0	6.961036513684137e+17
19348.0	6.959145459296938e+17
19349.0	6.957215366425257e+17
19350.0	6.955273449111551e+17
19351.0	6.953313255118163e+17
19352.0	6.951322869126484e+17
19353.0	6.949341134585855e+17
19354.0	6.947228506303145e+17
19355.0	6.944024245392724e+17
19356.0	6.94197937119778e+17
19357.0	6.93989270495778e+17
19358.0	6.937772606619645e+17
19359.0	6.935587390313812e+17
19360.0	6.933477667285674e+17
19361.0	6.930048920234666e+17
19362.0	6.927598495989759e+17
19363.0	6.925353437451604e+17
19364.0	6.923077794747731e+17
19365.0	6.920737997367977e+17
19366.0	6.916367869542397e+17
19367.0	6.913792290761385e+17
19368.0	6.911383285967529e+17
19369.0	6.908912031410858e+17
19370.0	6.90546618278434e+17
19371.0	6.90289218036258e+17
19372.0	6.900338318988628e+17
19373.0	6.897728667080019e+17
19374.0	6.89507401728e+17
19375.0	6.892371338504873e+17
19376.0	6.889620401466025e+17
19377.0	6.886816676315135e+17
19378.0	6.883960650290516e+17
19379.0	6.880571554791423e+17
19380.0	6.877310719710548e+17
19381.0	6.874273258580649e+17
19382.0	6.871154225927508e+17
19383.0	6.867981188814163e+17
19384.0	6.864770040157523e+17
19385.0	6.861458952421375e+17
19386.0	6.858071811467946e+17
19387.0	6.853635480048979e+17
19388.0	6.849983481380863e+17
19389.0	6.84633108914722e+17
19390.0	6.842584245381801e+17
19391.0	6.837320663695357e+17
19392.0	6.833771744941395e+17
19393.0	6.829328604768937e+17
19394.0	6.825138808946687e+17
19395.0	6.820828027027455e+17
19396.0	6.814778852900861e+17
19397.0	6.810048686019924e+17
19398.0	6.805318549897215e+17
19399.0	6.798324666116776e+17
19400.0	6.793209825634986e+17
19401.0	6.786733351895037e+17
19402.0	6.779963237029204e+17
19403.0	6.77287856124723e+17
19404.0	6.765408870028627e+17
19405.0	6.756422738684588e+17
19406.0	6.748083492050262e+17
19407.0	6.738455827229353e+17
19408.0	6.7270455328768e+17
19409.0	6.717660824513194e+17
19410.0	6.709531207794687e+17
19411.0	6.701693879539027e+17
19412.0	6.693515273349802e+17
19413.0	6.685012306952191e+17
19414.0	6.676160038917459e+17
19415.0	6.666471925088256e+17
19416.0	6.656805141392041e+17
19417.0	6.646849407898964e+17
19418.0	6.63648298213922e+17
19419.0	6.625121338916863e+17
19420.0	6.61344163742788e+17
19421.0	6.601561098682367e+17
19422.0	6.588020129355094e+17
19423.0	6.574786002725546e+17
19424.0	6.559346513149952e+17
19425.0	6.543699239152297e+17
19426.0	6.526721081038167e+17
19427.0	6.507779198025728e+17
19428.0	6.486932917846016e+17
19429.0	6.462693026299898e+17
19430.0	6.434759526492846e+17
19431.0	6.402287058550781e+17
19432.0	6.375296959075667e+17
19433.0	6.349987281633279e+17
19434.0	6.323497015967744e+17
19435.0	6.294198200303612e+17
19436.0	6.262862264314537e+17
19437.0	6.228863137524393e+17
19438.0	6.189586452228776e+17
19439.0	6.147790226150743e+17
19440.0	6.096211805907629e+17
19441.0	6.033581598048252e+17
19442.0	5.976194096125271e+17
19443.0	5.915635273957376e+17
19444.0	5.845395687778981e+17
19445.0	5.761540211518126e+17
19446.0	5.6631953499095014e+17
19447.0	5.556053151667535e+17
19448.0	5.4260188161856915e+17
19449.0	5.265049220983466e+17
19450.0	5.0237444561305165e+17
19451.0	4.94656349466351e+17
19452.0	5.150312841783982e+17
19453.0	5.350322161582086e+17
19454.0	5.4903038748043866e+17
19455.0	5.605651979261267e+17
19456.0	5.704917928902656e+17
19457.0	5.794407416594424e+17
19458.0	5.867841798537215e+17
19459.0	5.931123884425217e+17
19460.0	5.985836556353533e+17
19461.0	6.045496782443862e+17
19462.0	6.100331375798957e+17
19463.0	6.144662199511721e+17
19464.0	6.182361059644755e+17
19465.0	6.215828395524095e+17
19466.0	6.24608274564164e+17
19467.0	6.273789026719059e+17
19468.0	6.299076905664511e+17
19469.0	6.322313328153939e+17
19470.0	6.345238699660626e+17
19471.0	6.373590108034392e+17
19472.0	6.401534150224548e+17
19473.0	6.424461276348416e+17
19474.0	6.444439081145686e+17
19475.0	6.461572062205266e+17
19476.0	6.476949437633875e+17
19477.0	6.49100928360994e+17
19478.0	6.503593477668863e+17
19479.0	6.51527954820847e+17
19480.0	6.526202020539049e+17
19481.0	6.53625243415347e+17
19482.0	6.545287783557801e+17
19483.0	6.554563942634836e+17
19484.0	6.562672718555818e+17
19485.0	6.570250703208447e+17
19486.0	6.577446393828694e+17
19487.0	6.584536648034985e+17
19488.0	6.591204979725652e+17
19489.0	6.597271667867647e+17
19490.0	6.602764237580969e+17
19491.0	6.608425167355903e+17
19492.0	6.613508491138388e+17
19493.0	6.620192161398779e+17
19494.0	6.627757410746367e+17
19495.0	6.634848611467265e+17
19496.0	6.64171733651729e+17
19497.0	6.64802504404719e+17
19498.0	6.65238663017267e+17
19499.0	6.656256883643729e+17
19500.0	6.661451325723988e+17
19501.0	6.666528346166611e+17
19502.0	6.669195203488425e+17
19503.0	6.672625383593299e+17
19504.0	6.675817320939519e+17
19505.0	6.677856902621865e+17
19506.0	6.680523466342399e+17
19507.0	6.683196925498708e+17
19508.0	6.684832116157097e+17
19509.0	6.686346701701119e+17
19510.0	6.688442064131412e+17
19511.0	6.688455434174461e+17
19512.0	6.691214425675091e+17
19513.0	6.691925493721769e+17
19514.0	6.693157028757501e+17
19515.0	6.694611530197673e+17
19516.0	6.696326118331734e+17
19517.0	6.697051609191763e+17
19518.0	6.697724150459049e+17
19519.0	6.698312107294719e+17
19520.0	6.698828365299711e+17
19521.0	6.699289206762153e+17
19522.0	6.69968301695522e+17
19523.0	6.700122709338793e+17
19524.0	6.701007505457151e+17
19525.0	6.70121815319074e+17
19526.0	6.701391332507648e+17
19527.0	6.701508951277567e+17
19528.0	6.701578824187903e+17
19529.0	6.701602208131753e+17
19530.0	6.701581462405119e+17
19531.0	6.701518740084052e+17
19532.0	6.701525526467923e+17
19533.0	6.702229320892415e+17
19534.0	6.702049675356842e+17
19535.0	6.701834351673343e+17
19536.0	6.701575603661481e+17
19537.0	6.702697161250131e+17
19538.0	6.702897773412351e+17
19539.0	6.702622148919295e+17
19540.0	6.702359138795519e+17
19541.0	6.701962503738708e+17
19542.0	6.702402464557738e+17
19543.0	6.702445702938623e+17
19544.0	6.701963367765331e+17
19545.0	6.701367648671059e+17
19546.0	6.7007311001245e+17
19547.0	6.700374468242089e+17
19548.0	6.699801822014121e+17
19549.0	6.700255687649961e+17
19550.0	6.699728265805823e+17
19551.0	6.699095849347753e+17
19552.0	6.698444254434644e+17
19553.0	6.697770960289791e+17
19554.0	6.697083010547711e+17
19555.0	6.696389008424959e+17
19556.0	6.695670842217812e+17
19557.0	6.69493643636463e+17
19558.0	6.694944808195412e+17
19559.0	6.694339062617427e+17
19560.0	6.693559639299412e+17
19561.0	6.692777097516372e+17
19562.0	6.69197493477922e+17
19563.0	6.691159952850943e+17
19564.0	6.690334338362025e+17
19565.0	6.689496778495316e+17
19566.0	6.688643707393363e+17
19567.0	6.687788241343828e+17
19568.0	6.686912444104701e+17
19569.0	6.686038182679892e+17
19570.0	6.685150918912681e+17
19571.0	6.684464930706772e+17
19572.0	6.684059833641641e+17
19573.0	6.683146403708927e+17
19574.0	6.682203174644393e+17
19575.0	6.68129297502481e+17
19576.0	6.680352668691113e+17
19577.0	6.679396681951914e+17
19578.0	6.678439460689235e+17
19579.0	6.677479951433727e+17
19580.0	6.676511251060052e+17
19581.0	6.67553645146931e+17
19582.0	6.674617821997738e+17
19583.0	6.673836335082153e+17
19584.0	6.672840378023935e+17
19585.0	6.671814039524691e+17
19586.0	6.670798702684842e+17
19587.0	6.669807838210729e+17
19588.0	6.668697182317225e+17
19589.0	6.667772947857408e+17
19590.0	6.666735692982953e+17
19591.0	6.665719927625044e+17
19592.0	6.664682400819882e+17
19593.0	6.663635897505108e+17
19594.0	6.662540209684479e+17
19595.0	6.661869032265044e+17
19596.0	6.66075171791394e+17
19597.0	6.65997340189218e+17
19598.0	6.65886036992546e+17
19599.0	6.657851430098259e+17
19600.0	6.65678123246114e+17
19601.0	6.655691979401897e+17
19602.0	6.654620428402687e+17
19603.0	6.653439041164627e+17
19604.0	6.652453082628095e+17
19605.0	6.651309946044415e+17
19606.0	6.650287573958655e+17
19607.0	6.64919629365248e+17
19608.0	6.648099430727679e+17
19609.0	6.646995917733887e+17
19610.0	6.645900459201876e+17
19611.0	6.644795237728255e+17
19612.0	6.643689928174249e+17
19613.0	6.642580856329556e+17
19614.0	6.641459417579519e+17
19615.0	6.640355380996777e+17
19616.0	6.63922668540177e+17
19617.0	6.638121057779711e+17
19618.0	6.636884806948179e+17
19619.0	6.635728294029993e+17
19620.0	6.634610744098815e+17
19621.0	6.633626862441811e+17
19622.0	6.632498438078463e+17
19623.0	6.631368102510591e+17
19624.0	6.630235973877759e+17
19625.0	6.629101766967295e+17
19626.0	6.627966240948223e+17
19627.0	6.626828808617983e+17
19628.0	6.625653241675775e+17
19629.0	6.624528813086035e+17
19630.0	6.623352721156778e+17
19631.0	6.620552091402239e+17
19632.0	6.621117099103572e+17
19633.0	6.619972053412521e+17
19634.0	6.61882501472802e+17
19635.0	6.617666301198335e+17
19636.0	6.616526053092009e+17
19637.0	6.615280585976489e+17
19638.0	6.614220084871168e+17
19639.0	6.613064928810324e+17
19640.0	6.611899588280319e+17
19641.0	6.610623811725994e+17
19642.0	6.609599452239187e+17
19643.0	6.608438401084074e+17
19644.0	6.607267638717098e+17
19645.0	6.606062233496233e+17
19646.0	6.604960268200617e+17
19647.0	6.603798078291968e+17
19648.0	6.602634950956371e+17
19649.0	6.601470346526719e+17
19650.0	6.600306117487274e+17
19651.0	6.599140439315795e+17
19652.0	6.597973948148393e+17
19653.0	6.596806215467007e+17
19654.0	6.595638627489108e+17
19655.0	6.594468820724393e+17
19656.0	6.593298749019476e+17
19657.0	6.592130088697855e+17
19658.0	6.59095928438784e+17
19659.0	6.589787389558783e+17
19660.0	6.588615595393023e+17
19661.0	6.587442821857279e+17
19662.0	6.586269421273087e+17
19663.0	6.585085583163391e+17
19664.0	6.584160279855104e+17
19665.0	6.583138971025407e+17
