# Flux units: erg / (cm m2 s)
# Wavelength units: Angstrom
wave	flux
19000.0	7.596347314143232e+17
19001.0	7.594905622806525e+17
19002.0	7.593499310424063e+17
19003.0	7.592074564075517e+17
19004.0	7.590649343770621e+17
19005.0	7.589224932966397e+17
19006.0	7.587799603609599e+17
19007.0	7.586365558489087e+17
19008.0	7.584936602457428e+17
19009.0	7.583512662813353e+17
19010.0	7.582014875456851e+17
19011.0	7.58066460317013e+17
19012.0	7.5792192124573e+17
19013.0	7.577816761630717e+17
19014.0	7.576379935686653e+17
19015.0	7.574962789416957e+17
19016.0	7.573525478331732e+17
19017.0	7.572087223528106e+17
19018.0	7.570679826219007e+17
19019.0	7.569253175656447e+17
19020.0	7.567818656579583e+17
19021.0	7.566392077320191e+17
19022.0	7.564969725919232e+17
19023.0	7.563541376663551e+17
19024.0	7.562111542624255e+17
19025.0	7.560684925616127e+17
19026.0	7.559250737889279e+17
19027.0	7.557816776654847e+17
19028.0	7.55639984848896e+17
19029.0	7.554971193049087e+17
19030.0	7.553542587940863e+17
19031.0	7.552113857003519e+17
19032.0	7.550685071540221e+17
19033.0	7.549240054120445e+17
19034.0	7.547827201419944e+17
19035.0	7.546391412867071e+17
19036.0	7.544147184801106e+17
19037.0	7.543540263419903e+17
19038.0	7.542111406653439e+17
19039.0	7.540682361143296e+17
19040.0	7.539253331012264e+17
19041.0	7.537824161071103e+17
19042.0	7.536380483032403e+17
19043.0	7.534966065856511e+17
19044.0	7.533536500252671e+17
19045.0	7.53210787836723e+17
19046.0	7.53066996609843e+17
19047.0	7.529248369672191e+17
19048.0	7.527784519827453e+17
19049.0	7.526379545427968e+17
19050.0	7.524954815856637e+17
19051.0	7.523403841929215e+17
19052.0	7.522089946841088e+17
19053.0	7.520675157770239e+17
19054.0	7.519246376501247e+17
19055.0	7.517771520802816e+17
19056.0	7.516388629413888e+17
19057.0	7.514959822979072e+17
19058.0	7.51353097040691e+17
19059.0	7.512102087076521e+17
19060.0	7.510669005247827e+17
19061.0	7.509244765011965e+17
19062.0	7.507815329431551e+17
19063.0	7.506387215056893e+17
19064.0	7.504938389209087e+17
19065.0	7.503497238937597e+17
19066.0	7.502090339352575e+17
19067.0	7.500673708982272e+17
19068.0	7.499245418446845e+17
19069.0	7.49781748023296e+17
19070.0	7.496387436478461e+17
19071.0	7.494961276649471e+17
19072.0	7.493533292298236e+17
19073.0	7.492104425745064e+17
19074.0	7.490677522126164e+17
19075.0	7.489249783840765e+17
19076.0	7.487818112696317e+17
19077.0	7.486392710638249e+17
19078.0	7.484959687529811e+17
19079.0	7.483539560508074e+17
19080.0	7.482111117579603e+17
19081.0	7.480676995563517e+17
19082.0	7.479248986046463e+17
19083.0	7.477811568705533e+17
19084.0	7.476357755830271e+17
19085.0	7.474976596688893e+17
19086.0	7.473477928528553e+17
19087.0	7.472097833342292e+17
19088.0	7.470682608063828e+17
19089.0	7.469224992352938e+17
19090.0	7.467842827976701e+17
19091.0	7.466411704887978e+17
19092.0	7.464975884178772e+17
19093.0	7.463564319129599e+17
19094.0	7.462124838191103e+17
19095.0	7.460695486496765e+17
19096.0	7.459282844909568e+17
19097.0	7.457860476731391e+17
19098.0	7.45643532353536e+17
19099.0	7.45500937761587e+17
19100.0	7.453584190865407e+17
19101.0	7.452158857314301e+17
19102.0	7.450718600429568e+17
19103.0	7.449308504784893e+17
19104.0	7.447883443863552e+17
19105.0	7.446458483605503e+17
19106.0	7.445028972527616e+17
19107.0	7.443606084255743e+17
19108.0	7.442183976124415e+17
19109.0	7.4406733807616e+17
19110.0	7.439333493571583e+17
19111.0	7.437910785654783e+17
19112.0	7.436486613925887e+17
19113.0	7.435062421225472e+17
19114.0	7.433638392102911e+17
19115.0	7.432209363369981e+17
19116.0	7.430790484852736e+17
19117.0	7.429363175784447e+17
19118.0	7.42792477418018e+17
19119.0	7.426097694812842e+17
19120.0	7.425089502969853e+17
19121.0	7.423667868794879e+17
19122.0	7.422249436271956e+17
19123.0	7.420824682932906e+17
19124.0	7.419402773331968e+17
19125.0	7.417979474018303e+17
19126.0	7.416555218403327e+17
19127.0	7.41484054917939e+17
19128.0	7.41367352603443e+17
19129.0	7.412272599138303e+17
19130.0	7.410865426923517e+17
19131.0	7.409443671113727e+17
19132.0	7.408020694761472e+17
19133.0	7.406513646381738e+17
19134.0	7.405162312936106e+17
19135.0	7.403754926811817e+17
19136.0	7.402333180788735e+17
19137.0	7.400882800252244e+17
19138.0	7.399481589541545e+17
19139.0	7.398067145801728e+17
19140.0	7.396645827597651e+17
19141.0	7.395224228375208e+17
19142.0	7.393802327162879e+17
19143.0	7.392371712983039e+17
19144.0	7.390958438055935e+17
19145.0	7.389538234138623e+17
19146.0	7.388014847546708e+17
19147.0	7.386680364018345e+17
19148.0	7.385273920214356e+17
19149.0	7.383852954331817e+17
19150.0	7.382430256201725e+17
19151.0	7.381011163774975e+17
19152.0	7.379587918987263e+17
19153.0	7.378169254379519e+17
19154.0	7.376725650440191e+17
19155.0	7.375327400908116e+17
19156.0	7.373905919126186e+17
19157.0	7.372483760663209e+17
19158.0	7.37100499447535e+17
19159.0	7.369640376270847e+17
19160.0	7.368219875956051e+17
19161.0	7.366802405326847e+17
19162.0	7.36524839751953e+17
19163.0	7.363959280981332e+17
19164.0	7.362540970093225e+17
19165.0	7.361117932224511e+17
19166.0	7.359679961235455e+17
19167.0	7.358266642967208e+17
19168.0	7.356837864494419e+17
19169.0	7.355424953073661e+17
19170.0	7.354017118158847e+17
19171.0	7.352587640635391e+17
19172.0	7.351173744951296e+17
19173.0	7.349753155158015e+17
19174.0	7.34832296460288e+17
19175.0	7.346912072040447e+17
19176.0	7.345491331252223e+17
19177.0	7.344043851775999e+17
19178.0	7.342646954207914e+17
19179.0	7.341218825852246e+17
19180.0	7.339797110587391e+17
19181.0	7.338369481353898e+17
19182.0	7.336954295222272e+17
19183.0	7.335543525692756e+17
19184.0	7.334105252713812e+17
19185.0	7.33270052438016e+17
19186.0	7.331280696552105e+17
19187.0	7.329846943634772e+17
19188.0	7.328437524671144e+17
19189.0	7.32701683561267e+17
19190.0	7.325594650585769e+17
19191.0	7.324171677029716e+17
19192.0	7.322750209228797e+17
19193.0	7.321321198671187e+17
19194.0	7.319903605009066e+17
19195.0	7.318484040024063e+17
19196.0	7.317059478224896e+17
19197.0	7.315612061663232e+17
19198.0	7.313956309827583e+17
19199.0	7.31172919452194e+17
19200.0	7.310571959484416e+17
19201.0	7.309688176290474e+17
19202.0	7.308267663392768e+17
19203.0	7.306844808675327e+17
19204.0	7.305416933375999e+17
19205.0	7.303997488627711e+17
19206.0	7.302571084130985e+17
19207.0	7.30113873211119e+17
19208.0	7.299690225030484e+17
19209.0	7.298299713989288e+17
19210.0	7.296874188898301e+17
19211.0	7.295448121343999e+17
19212.0	7.294023001702399e+17
19213.0	7.292578730868735e+17
19214.0	7.291146924108458e+17
19215.0	7.289741239473492e+17
19216.0	7.288313291472893e+17
19217.0	7.286890034102271e+17
19218.0	7.285319500737194e+17
19219.0	7.284004606006611e+17
19220.0	7.282606412398592e+17
19221.0	7.281120553642666e+17
19222.0	7.279748071118164e+17
19223.0	7.278318395064319e+17
19224.0	7.276882269569024e+17
19225.0	7.275431535312893e+17
19226.0	7.274027714347007e+17
19227.0	7.272596768817151e+17
19228.0	7.271165030563837e+17
19229.0	7.269732572288339e+17
19230.0	7.268299076621654e+17
19231.0	7.26686664630818e+17
19232.0	7.265425624662015e+17
19233.0	7.263984937162067e+17
19234.0	7.262558829062825e+17
19235.0	7.261127774481066e+17
19236.0	7.259691484009812e+17
19237.0	7.258251817123837e+17
19238.0	7.256800459314516e+17
19239.0	7.25537954795793e+17
19240.0	7.253900545490943e+17
19241.0	7.252488860205055e+17
19242.0	7.251060982109523e+17
19243.0	7.249588430482089e+17
19244.0	7.24817850680388e+17
19245.0	7.246735860563965e+17
19246.0	7.245289741440339e+17
19247.0	7.243797627579049e+17
19248.0	7.242215059357696e+17
19249.0	7.240768940234067e+17
19250.0	7.239321285995177e+17
19251.0	7.237854206536361e+17
19252.0	7.236368974129834e+17
19253.0	7.234974774897321e+17
19254.0	7.233519642214399e+17
19255.0	7.232038248994131e+17
19256.0	7.230615794133674e+17
19257.0	7.229167317811199e+17
19258.0	7.227712122213716e+17
19259.0	7.226242253542739e+17
19260.0	7.224786490316116e+17
19261.0	7.223340298491219e+17
19262.0	7.221880392690345e+17
19263.0	7.220414756072105e+17
19264.0	7.218871373834922e+17
19265.0	7.217460762290858e+17
19266.0	7.216003728190122e+17
19267.0	7.214560401074858e+17
19268.0	7.213092141618514e+17
19269.0	7.21162226316083e+17
19270.0	7.210150522432169e+17
19271.0	7.208622091490646e+17
19272.0	7.207196265807871e+17
19273.0	7.204670957857449e+17
19274.0	7.203700407096659e+17
19275.0	7.202767600877565e+17
19276.0	7.201285965785769e+17
19277.0	7.199802011243859e+17
19278.0	7.198316146895529e+17
19279.0	7.196825945636861e+17
19280.0	7.195324519022591e+17
19281.0	7.193845393522687e+17
19282.0	7.192351168528381e+17
19283.0	7.190683299348479e+17
19284.0	7.188999967167828e+17
19285.0	7.187483127884458e+17
19286.0	7.1860099233437e+17
19287.0	7.184509513149097e+17
19288.0	7.182792555233279e+17
19289.0	7.180945400528893e+17
19290.0	7.179974763085824e+17
19291.0	7.178409545302015e+17
19292.0	7.176937491398655e+17
19293.0	7.175413711940266e+17
19294.0	7.173888879711572e+17
19295.0	7.172359239412394e+17
19296.0	7.170826403053568e+17
19297.0	7.16928979182114e+17
19298.0	7.16775024038161e+17
19299.0	7.166206791035561e+17
19300.0	7.164659331934889e+17
19301.0	7.16310715424222e+17
19302.0	7.161551052079104e+17
19303.0	7.159977698743636e+17
19304.0	7.158420268384255e+17
19305.0	7.156863012787539e+17
19306.0	7.155291345562281e+17
19307.0	7.153703749768531e+17
19308.0	7.15213130240273e+17
19309.0	7.150520871419901e+17
19310.0	7.148915532322131e+17
19311.0	7.147350441765544e+17
19312.0	7.145756616032255e+17
19313.0	7.144136615045802e+17
19314.0	7.141797128743594e+17
19315.0	7.140208217336492e+17
19316.0	7.1389015993658e+17
19317.0	7.137272829487786e+17
19318.0	7.135635469675178e+17
19319.0	7.133991716345172e+17
19320.0	7.132337538771625e+17
19321.0	7.13068278657843e+17
19322.0	7.128994438010194e+17
19323.0	7.127332236733097e+17
19324.0	7.125663874023423e+17
19325.0	7.12395408137694e+17
19326.0	7.12227829055488e+17
19327.0	7.120570375558483e+17
19328.0	7.118858738816339e+17
19329.0	7.117135138521087e+17
19330.0	7.11539496653073e+17
19331.0	7.113139711639552e+17
19332.0	7.111352959107071e+17
19333.0	7.109590604840959e+17
19334.0	7.10781300707601e+17
19335.0	7.106032153133055e+17
19336.0	7.104235104982356e+17
19337.0	7.102425417995603e+17
19338.0	7.100568462600874e+17
19339.0	7.098771808714751e+17
19340.0	7.096916679240361e+17
19341.0	7.09506113872418e+17
19342.0	7.092393719365632e+17
19343.0	7.090295230780755e+17
19344.0	7.088390342879914e+17
19345.0	7.086138409877501e+17
19346.0	7.084414359393619e+17
19347.0	7.082565795403092e+17
19348.0	7.080605063140692e+17
19349.0	7.078614130491391e+17
19350.0	7.075997084723881e+17
19351.0	7.073733585229139e+17
19352.0	7.071675911416489e+17
19353.0	7.069619136582995e+17
19354.0	7.067526483673087e+17
19355.0	7.06539656716834e+17
19356.0	7.062724626350079e+17
19357.0	7.060104967531177e+17
19358.0	7.05790788763648e+17
19359.0	7.055650483863551e+17
19360.0	7.053456359555071e+17
19361.0	7.050848323152553e+17
19362.0	7.048298931508564e+17
19363.0	7.045967635283965e+17
19364.0	7.043272465012054e+17
19365.0	7.040722266663593e+17
19366.0	7.038288741269504e+17
19367.0	7.035818514317311e+17
19368.0	7.033310061177513e+17
19369.0	7.030738590717268e+17
19370.0	7.028049547624447e+17
19371.0	7.0255280942394e+17
19372.0	7.022858688877906e+17
19373.0	7.020132404559871e+17
19374.0	7.017358658196819e+17
19375.0	7.01413094134033e+17
19376.0	7.010964828323839e+17
19377.0	7.008026296844287e+17
19378.0	7.005029846220797e+17
19379.0	7.001971021403476e+17
19380.0	6.998847622479871e+17
19381.0	6.995656433117865e+17
19382.0	6.991916185594536e+17
19383.0	6.988117831581696e+17
19384.0	6.98471938138658e+17
19385.0	6.981219144521044e+17
19386.0	6.977634400818516e+17
19387.0	6.973339687277908e+17
19388.0	6.969004962174292e+17
19389.0	6.965081891231059e+17
19390.0	6.960977546663252e+17
19391.0	6.955167137486163e+17
19392.0	6.951208393288362e+17
19393.0	6.946884862083071e+17
19394.0	6.941257492332545e+17
19395.0	6.936040707194879e+17
19396.0	6.930943503761404e+17
19397.0	6.924268640840362e+17
19398.0	6.919115028911446e+17
19399.0	6.911370540875773e+17
19400.0	6.905369058082813e+17
19401.0	6.897560164412073e+17
19402.0	6.889621759022418e+17
19403.0	6.881982398420307e+17
19404.0	6.874325997759146e+17
19405.0	6.867608248778751e+17
19406.0	6.860732333293568e+17
19407.0	6.853759885202772e+17
19408.0	6.846421886741161e+17
19409.0	6.839014078982828e+17
19410.0	6.831224367961428e+17
19411.0	6.822848421167103e+17
19412.0	6.81404188922129e+17
19413.0	6.805289588927146e+17
19414.0	6.796170985384617e+17
19415.0	6.785986268758015e+17
19416.0	6.775793292847785e+17
19417.0	6.765126486414676e+17
19418.0	6.753249288432298e+17
19419.0	6.741352170302121e+17
19420.0	6.728260724107945e+17
19421.0	6.714138256474111e+17
19422.0	6.699350614168916e+17
19423.0	6.68297273925086e+17
19424.0	6.665046386016255e+17
19425.0	6.644969757824339e+17
19426.0	6.621910943836844e+17
19427.0	6.596465932282541e+17
19428.0	6.574780557819903e+17
19429.0	6.554646933230931e+17
19430.0	6.53327653072623e+17
19431.0	6.510144592543743e+17
19432.0	6.486062455761576e+17
19433.0	6.459496875775316e+17
19434.0	6.430988201274025e+17
19435.0	6.399627488133117e+17
19436.0	6.364875609604099e+17
19437.0	6.325537554650452e+17
19438.0	6.278813823183529e+17
19439.0	6.227545982063958e+17
19440.0	6.18126285873698e+17
19441.0	6.131386517116243e+17
19442.0	6.075370778394624e+17
19443.0	6.010697807473321e+17
19444.0	5.934092320593231e+17
19445.0	5.85239694724301e+17
19446.0	5.763072433411411e+17
19447.0	5.657627858741927e+17
19448.0	5.536852846400858e+17
19449.0	5.389435359199232e+17
19450.0	5.170074009381505e+17
19451.0	5.100654663390552e+17
19452.0	5.284623370158081e+17
19453.0	5.467035224681137e+17
19454.0	5.5951006671830976e+17
19455.0	5.706133068404053e+17
19456.0	5.800554914294446e+17
19457.0	5.882151263622478e+17
19458.0	5.960124597622098e+17
19459.0	6.028303369852246e+17
19460.0	6.085742402295122e+17
19461.0	6.136038314125994e+17
19462.0	6.181110786555905e+17
19463.0	6.227160175301966e+17
19464.0	6.275298906953046e+17
19465.0	6.315015224513876e+17
19466.0	6.349389081608191e+17
19467.0	6.37973085430306e+17
19468.0	6.406999095552684e+17
19469.0	6.431746455939753e+17
19470.0	6.454753226304169e+17
19471.0	6.475722122767018e+17
19472.0	6.495348198124201e+17
19473.0	6.513506426464938e+17
19474.0	6.531159052429993e+17
19475.0	6.552679176907424e+17
19476.0	6.574774031482879e+17
19477.0	6.593041277474135e+17
19478.0	6.609571240651433e+17
19479.0	6.624069061443583e+17
19480.0	6.637237969442134e+17
19481.0	6.648823564730367e+17
19482.0	6.659383679254527e+17
19483.0	6.669653701033984e+17
19484.0	6.67852180955682e+17
19485.0	6.687392386427561e+17
19486.0	6.694931959644159e+17
19487.0	6.702675502563325e+17
19488.0	6.709560462366036e+17
19489.0	6.715832057637546e+17
19490.0	6.721615093388628e+17
19491.0	6.727994853468842e+17
19492.0	6.733297595973632e+17
19493.0	6.738286215867049e+17
19494.0	6.742991256769876e+17
19495.0	6.747432083783679e+17
19496.0	6.751569343851178e+17
19497.0	6.755841006196052e+17
19498.0	6.760024149852161e+17
19499.0	6.763823462263465e+17
19500.0	6.770729178977622e+17
19501.0	6.774992284942336e+17
19502.0	6.779982294548479e+17
19503.0	6.783589316296705e+17
19504.0	6.787511514824704e+17
19505.0	6.79036496065331e+17
19506.0	6.79400844628241e+17
19507.0	6.796011753526612e+17
19508.0	6.799090042011648e+17
19509.0	6.801294922612735e+17
19510.0	6.802861748912128e+17
19511.0	6.804349469239978e+17
19512.0	6.806969427252563e+17
19513.0	6.808108498157565e+17
19514.0	6.809476086628351e+17
19515.0	6.81144335151923e+17
19516.0	6.812822635806719e+17
19517.0	6.813686459006975e+17
19518.0	6.814483789905919e+17
19519.0	6.815192235114493e+17
19520.0	6.81628329591876e+17
19521.0	6.817245153984511e+17
19522.0	6.817732497855828e+17
19523.0	6.818156421753514e+17
19524.0	6.818516480382291e+17
19525.0	6.818809417564159e+17
19526.0	6.819059198154068e+17
19527.0	6.819348550604116e+17
19528.0	6.820023898559828e+17
19529.0	6.820108963239252e+17
19530.0	6.820146807046143e+17
19531.0	6.82013894971665e+17
19532.0	6.82008723464738e+17
19533.0	6.819993706561535e+17
19534.0	6.819859906865834e+17
19535.0	6.819687597867007e+17
19536.0	6.819471237491369e+17
19537.0	6.819233779766612e+17
19538.0	6.818943433965565e+17
19539.0	6.818635441329491e+17
19540.0	6.818743920011945e+17
19541.0	6.818416932072105e+17
19542.0	6.818513346538153e+17
19543.0	6.81808344715537e+17
19544.0	6.817626756655785e+17
19545.0	6.817075441259859e+17
19546.0	6.816489059385343e+17
19547.0	6.816817412571133e+17
19548.0	6.816471223107583e+17
19549.0	6.815879006257151e+17
19550.0	6.815302415985321e+17
19551.0	6.814686570523306e+17
19552.0	6.81405044560145e+17
19553.0	6.813479384820393e+17
19554.0	6.81347585741073e+17
19555.0	6.812791844022953e+17
19556.0	6.812084531975508e+17
19557.0	6.811360098080084e+17
19558.0	6.810620937983316e+17
19559.0	6.809863078281215e+17
19560.0	6.809097253595817e+17
19561.0	6.808313911399764e+17
19562.0	6.807624629966164e+17
19563.0	6.807322219948713e+17
19564.0	6.806500127277055e+17
19565.0	6.805815628748116e+17
19566.0	6.805095801596586e+17
19567.0	6.804239749742591e+17
19568.0	6.803370612359167e+17
19569.0	6.802488706815316e+17
19570.0	6.801599316535977e+17
19571.0	6.800697987170303e+17
19572.0	6.799782505523881e+17
19573.0	6.798865140634963e+17
19574.0	6.797922243619498e+17
19575.0	6.797166047657983e+17
19576.0	6.796545514362195e+17
19577.0	6.795584940452521e+17
19578.0	6.794622851700052e+17
19579.0	6.793656121950207e+17
19580.0	6.792680135371433e+17
19581.0	6.791697583308799e+17
19582.0	6.790709740131667e+17
19583.0	6.789712440197119e+17
19584.0	6.788708058879316e+17
19585.0	6.787678734035625e+17
19586.0	6.786655934829908e+17
19587.0	6.785652719528618e+17
19588.0	6.784550317326335e+17
19589.0	6.783594004829524e+17
19590.0	6.78254824460561e+17
19591.0	6.781517141377023e+17
19592.0	6.780468200472575e+17
19593.0	6.77941506875938e+17
19594.0	6.778314608519849e+17
19595.0	6.777291701660329e+17
19596.0	6.776140309288276e+17
19597.0	6.775527983546367e+17
19598.0	6.774411828920319e+17
19599.0	6.773374448216746e+17
19600.0	6.772290647053652e+17
19601.0	6.771196055344468e+17
19602.0	6.770104064103763e+17
19603.0	6.768939201025366e+17
19604.0	6.767908747913897e+17
19605.0	6.766763424000681e+17
19606.0	6.765710443981481e+17
19607.0	6.76460380693026e+17
19608.0	6.763491758527827e+17
19609.0	6.762373722756436e+17
19610.0	6.761261080160937e+17
19611.0	6.760140243293523e+17
19612.0	6.759018433347583e+17
19613.0	6.757893059641341e+17
19614.0	6.756757305032704e+17
19615.0	6.755634435325951e+17
19616.0	6.754495549669375e+17
19617.0	6.7533662584832e+17
19618.0	6.752139946754047e+17
19619.0	6.750974897029119e+17
19620.0	6.749837646452052e+17
19621.0	6.748802741086889e+17
19622.0	6.747656597886291e+17
19623.0	6.746508456099839e+17
19624.0	6.745358382836394e+17
19625.0	6.744206258558291e+17
19626.0	6.743052527861759e+17
19627.0	6.741896897145514e+17
19628.0	6.740721508461226e+17
19629.0	6.739564878102527e+17
19630.0	6.738390864450899e+17
19631.0	6.736411871586985e+17
19632.0	6.736093133144061e+17
19633.0	6.734928426653012e+17
19634.0	6.73376212422929e+17
19635.0	6.732586369242451e+17
19636.0	6.731424765837311e+17
19637.0	6.730179990781951e+17
19638.0	6.729080523194367e+17
19639.0	6.727906061451261e+17
19640.0	6.726723329239722e+17
19641.0	6.725461551174995e+17
19642.0	6.724381271130111e+17
19643.0	6.723200682906963e+17
19644.0	6.722013027980627e+17
19645.0	6.720819014489427e+17
19646.0	6.719937042535764e+17
19647.0	6.718754698297341e+17
19648.0	6.717571378883242e+17
19649.0	6.716386590064639e+17
19650.0	6.715201904006484e+17
19651.0	6.714015817050793e+17
19652.0	6.712828888438099e+17
19653.0	6.711640665882623e+17
19654.0	6.710452437035692e+17
19655.0	6.709262283702271e+17
19656.0	6.708071591400788e+17
19657.0	6.706881914120874e+17
19658.0	6.705690287188649e+17
19659.0	6.704497663410175e+17
19660.0	6.703304907511124e+17
19661.0	6.702111200204116e+17
19662.0	6.70091684347904e+17
19663.0	6.699714383358633e+17
19664.0	6.698523085679273e+17
19665.0	6.697330115870719e+17
