# Flux units: erg / (cm m2 s)
# Wavelength units: Angstrom
wave	flux
19000.0	6.924470001685844e+17
19001.0	6.923126197015891e+17
19002.0	6.921917034397696e+17
19003.0	6.920632512719529e+17
19004.0	6.919348179085993e+17
19005.0	6.918082958196735e+17
19006.0	6.918922959148371e+17
19007.0	6.918819236107606e+17
19008.0	6.917644076711935e+17
19009.0	6.916345214708393e+17
19010.0	6.914807398312617e+17
19011.0	6.913791165988861e+17
19012.0	6.911999757079891e+17
19013.0	6.911260877302441e+17
19014.0	6.909938146213888e+17
19015.0	6.908668798129491e+17
19016.0	6.907375787180031e+17
19017.0	6.906120803188735e+17
19018.0	6.904805100355583e+17
19019.0	6.903549289387348e+17
19020.0	6.902250416898047e+17
19021.0	6.900985744763561e+17
19022.0	6.899704305199786e+17
19023.0	6.898388570210303e+17
19024.0	6.897108388238676e+17
19025.0	6.895782841374036e+17
19026.0	6.89447954948642e+17
19027.0	6.892753410938196e+17
19028.0	6.891973965949609e+17
19029.0	6.890679649872553e+17
19030.0	6.889407584578217e+17
19031.0	6.88812036666163e+17
19032.0	6.886831782100991e+17
19033.0	6.885480522055679e+17
19034.0	6.884239141590355e+17
19035.0	6.882885992710143e+17
19036.0	6.848185000176293e+17
19037.0	6.880350436676948e+17
19038.0	6.879079126357332e+17
19039.0	6.8778120459933e+17
19040.0	6.876524744190634e+17
19041.0	6.875235966692009e+17
19042.0	6.873865360419497e+17
19043.0	6.872660328491689e+17
19044.0	6.871366986192212e+17
19045.0	6.870062742896639e+17
19046.0	6.868757578951338e+17
19047.0	6.867491847056042e+17
19048.0	6.866176353938089e+17
19049.0	6.864970483149481e+17
19050.0	6.863726389668521e+17
19051.0	6.857305866545825e+17
19052.0	6.860261885476863e+17
19053.0	6.859850701777578e+17
19054.0	6.858600537740628e+17
19055.0	6.857132149658964e+17
19056.0	6.856004521514323e+17
19057.0	6.854721572001108e+17
19058.0	6.853376374123177e+17
19059.0	6.852141815693311e+17
19060.0	6.850843474482515e+17
19061.0	6.849569024027306e+17
19062.0	6.848274977084755e+17
19063.0	6.846985487253501e+17
19064.0	6.845617738700116e+17
19065.0	6.844284767218346e+17
19066.0	6.843066530922495e+17
19067.0	6.841822687701673e+17
19068.0	6.840532716923561e+17
19069.0	6.83924234768657e+17
19070.0	6.837934892952233e+17
19071.0	6.836644527210496e+17
19072.0	6.835356967458131e+17
19073.0	6.834075497835177e+17
19074.0	6.832788252655615e+17
19075.0	6.831497339557203e+17
19076.0	6.830192201476778e+17
19077.0	6.828906339718483e+17
19078.0	6.827606349447167e+17
19079.0	6.826332180709373e+17
19080.0	6.825030663012351e+17
19081.0	6.823724823085055e+17
19082.0	6.822429508064598e+17
19083.0	6.821092458321236e+17
19084.0	6.819715963245908e+17
19085.0	6.818582194640212e+17
19086.0	6.816983295896234e+17
19087.0	6.815011406086143e+17
19088.0	6.81457068679714e+17
19089.0	6.812775623251284e+17
19090.0	6.812083498079572e+17
19091.0	6.810808329699327e+17
19092.0	6.809264574169087e+17
19093.0	6.808254384439295e+17
19094.0	6.806964547878911e+17
19095.0	6.805673587944105e+17
19096.0	6.804375359280467e+17
19097.0	6.803096404142761e+17
19098.0	6.801799695914324e+17
19099.0	6.800507645460479e+17
19100.0	6.799171733072554e+17
19101.0	6.797916862327465e+17
19102.0	6.796579514788522e+17
19103.0	6.795356215967743e+17
19104.0	6.794065014161407e+17
19105.0	6.792751049867264e+17
19106.0	6.791295633369769e+17
19107.0	6.790169942993577e+17
19108.0	6.788879949146793e+17
19109.0	6.784729686736891e+17
19110.0	6.786204787103059e+17
19111.0	6.785010286373546e+17
19112.0	6.783733237547007e+17
19113.0	6.782452870326953e+17
19114.0	6.78116153500194e+17
19115.0	6.779768250127699e+17
19116.0	6.778566531001002e+17
19117.0	6.777272035966975e+17
19118.0	6.775779488694271e+17
19119.0	6.772065116531366e+17
19120.0	6.773124233516372e+17
19121.0	6.771920201231017e+17
19122.0	6.770842702708735e+17
19123.0	6.769552345355604e+17
19124.0	6.768085504273065e+17
19125.0	6.766949014962175e+17
19126.0	6.765673088111956e+17
19127.0	6.763218764562431e+17
19128.0	6.762175029488296e+17
19129.0	6.761756738540884e+17
19130.0	6.760509547566419e+17
19131.0	6.759202640188755e+17
19132.0	6.75794081948194e+17
19133.0	6.756429151076351e+17
19134.0	6.754944583467008e+17
19135.0	6.754059088297983e+17
19136.0	6.752784071611732e+17
19137.0	6.751383805318484e+17
19138.0	6.750165760562518e+17
19139.0	6.748912102670335e+17
19140.0	6.747625251056298e+17
19141.0	6.744235396388178e+17
19142.0	6.741762648659284e+17
19143.0	6.740463068031657e+17
19144.0	6.739184637181951e+17
19145.0	6.73791347715823e+17
19146.0	6.736210575054166e+17
19147.0	6.735277208196436e+17
19148.0	6.734025513238527e+17
19149.0	6.732739223661225e+17
19150.0	6.731463589713235e+17
19151.0	6.730178774433791e+17
19152.0	6.728851855332691e+17
19153.0	6.727572187163306e+17
19154.0	6.726219400391338e+17
19155.0	6.725003937928532e+17
19156.0	6.723714867527679e+17
19157.0	6.722341553132884e+17
19158.0	6.7192295550266e+17
19159.0	6.719801472843775e+17
19160.0	6.718510049438377e+17
19161.0	6.717165163337044e+17
19162.0	6.711547896266755e+17
19163.0	6.714517857064276e+17
19164.0	6.713386684732755e+17
19165.0	6.712003919172947e+17
19166.0	6.710628598502739e+17
19167.0	6.709098289212074e+17
19168.0	6.708198696288255e+17
19169.0	6.706850828735828e+17
19170.0	6.705640694437203e+17
19171.0	6.704096007771476e+17
19172.0	6.703030884543146e+17
19173.0	6.701757675601919e+17
19174.0	6.70044661096994e+17
19175.0	6.699193055838207e+17
19176.0	6.697899665304234e+17
19177.0	6.696500922242388e+17
19178.0	6.695188894318592e+17
19179.0	6.693657256831658e+17
19180.0	6.692666059609427e+17
19181.0	6.691354378414762e+17
19182.0	6.690115572553044e+17
19183.0	6.688838825017343e+17
19184.0	6.687524940414975e+17
19185.0	6.686255010720426e+17
19186.0	6.68496328532514e+17
19187.0	6.683612147613695e+17
19188.0	6.682360155559252e+17
19189.0	6.681036505918121e+17
19190.0	6.679720923321684e+17
19191.0	6.67841183490594e+17
19192.0	6.677182046098772e+17
19193.0	6.675856594305024e+17
19194.0	6.674563853189119e+17
19195.0	6.673276277358591e+17
19196.0	6.671958932455423e+17
19197.0	6.670616829973844e+17
19198.0	6.669125552876201e+17
19199.0	6.642181354465955e+17
19200.0	6.648552808426163e+17
19201.0	6.665264186436266e+17
19202.0	6.664138842090154e+17
19203.0	6.662814347296767e+17
19204.0	6.661570810959188e+17
19205.0	6.660300004655103e+17
19206.0	6.659003228618751e+17
19207.0	6.657647161901055e+17
19208.0	6.656277635661823e+17
19209.0	6.655107395485695e+17
19210.0	6.653815472259071e+17
19211.0	6.652512842372435e+17
19212.0	6.651207818936319e+17
19213.0	6.649632023816873e+17
19214.0	6.648198766526461e+17
19215.0	6.647188232863743e+17
19216.0	6.645992201912319e+17
19217.0	6.644690198375081e+17
19218.0	6.642825944891391e+17
19219.0	6.641971073733972e+17
19220.0	6.640744287349417e+17
19221.0	6.639243334691498e+17
19222.0	6.63815317426449e+17
19223.0	6.636841681114452e+17
19224.0	6.635507296152233e+17
19225.0	6.634134128558077e+17
19226.0	6.632904954915497e+17
19227.0	6.63159178404386e+17
19228.0	6.630299207204861e+17
19229.0	6.628986311759188e+17
19230.0	6.627637588568745e+17
19231.0	6.626326221946879e+17
19232.0	6.622763756989093e+17
19233.0	6.619858745688063e+17
19234.0	6.618576634336595e+17
19235.0	6.617256864426666e+17
19236.0	6.615950131811667e+17
19237.0	6.614616889098239e+17
19238.0	6.613203094776489e+17
19239.0	6.611980452364287e+17
19240.0	6.610624682743123e+17
19241.0	6.609304269007529e+17
19242.0	6.607989806290259e+17
19243.0	6.606560419643391e+17
19244.0	6.605344768436905e+17
19245.0	6.604014031820116e+17
19246.0	6.602671632941055e+17
19247.0	6.601348426498047e+17
19248.0	6.60000789827857e+17
19249.0	6.598665021248852e+17
19250.0	6.59732856569856e+17
19251.0	6.595920576293545e+17
19252.0	6.594476610245971e+17
19253.0	6.59330807575347e+17
19254.0	6.591977342631936e+17
19255.0	6.590515369738239e+17
19256.0	6.589243746243923e+17
19257.0	6.587944207559338e+17
19258.0	6.586598147751933e+17
19259.0	6.585200170150569e+17
19260.0	6.583297457695401e+17
19261.0	6.582540788476585e+17
19262.0	6.581156543026516e+17
19263.0	6.579791850023593e+17
19264.0	6.578120547106815e+17
19265.0	6.576985777460563e+17
19266.0	6.575630086133076e+17
19267.0	6.574389171934548e+17
19268.0	6.570807464209064e+17
19269.0	6.569401478283263e+17
19270.0	6.568025225778516e+17
19271.0	6.566430189988522e+17
19272.0	6.565246390326611e+17
19273.0	6.562897937301501e+17
19274.0	6.561838558172498e+17
19275.0	6.561119249017514e+17
19276.0	6.559718107512832e+17
19277.0	6.558329964156244e+17
19278.0	6.556938516387155e+17
19279.0	6.555505515648339e+17
19280.0	6.554091560544937e+17
19281.0	6.552733125443583e+17
19282.0	6.551330832602452e+17
19283.0	6.549547826282496e+17
19284.0	6.548190618714111e+17
19285.0	6.546975151357951e+17
19286.0	6.545661545676797e+17
19287.0	6.544257791120723e+17
19288.0	6.533561545566879e+17
19289.0	6.520181114623283e+17
19290.0	6.539974304333823e+17
19291.0	6.538377682397866e+17
19292.0	6.537115661063508e+17
19293.0	6.53566921548322e+17
19294.0	6.534221085889875e+17
19295.0	6.532778831817386e+17
19296.0	6.531314873619796e+17
19297.0	6.529839089582079e+17
19298.0	6.528390196625407e+17
19299.0	6.526923637959337e+17
19300.0	6.525460059346259e+17
19301.0	6.523979520365908e+17
19302.0	6.522490285894313e+17
19303.0	6.520957084631039e+17
19304.0	6.519494658752511e+17
19305.0	6.518006617560403e+17
19306.0	6.516490310953642e+17
19307.0	6.514942333157376e+17
19308.0	6.513438751369897e+17
19309.0	6.511036187628884e+17
19310.0	6.509209887003987e+17
19311.0	6.508767392126292e+17
19312.0	6.507357934015827e+17
19313.0	6.505812402896895e+17
19314.0	6.478803803045901e+17
19315.0	6.478790872006683e+17
19316.0	6.501029689775444e+17
19317.0	6.499562188789075e+17
19318.0	6.497979688375635e+17
19319.0	6.496403465437183e+17
19320.0	6.494800176655017e+17
19321.0	6.493191575786836e+17
19322.0	6.491470008330922e+17
19323.0	6.489565516791808e+17
19324.0	6.488292190410068e+17
19325.0	6.485854123283798e+17
19326.0	6.485020435458729e+17
19327.0	6.483380457701376e+17
19328.0	6.481710647257769e+17
19329.0	6.480051378498217e+17
19330.0	6.478337963371177e+17
19331.0	6.476634889300652e+17
19332.0	6.474942399556265e+17
19333.0	6.473218085530282e+17
19334.0	6.471496765538303e+17
19335.0	6.469710105979561e+17
19336.0	6.467799496349012e+17
19337.0	6.466040417135274e+17
19338.0	6.464120989679615e+17
19339.0	6.462452855559508e+17
19340.0	6.460599051485183e+17
19341.0	6.458793962853716e+17
19342.0	6.456689679837865e+17
19343.0	6.455120513116842e+17
19344.0	6.453236855384746e+17
19345.0	6.450106033941158e+17
19346.0	6.448897663347368e+17
19347.0	6.447476310889811e+17
19348.0	6.445604762812415e+17
19349.0	6.443626133454847e+17
19350.0	6.441658102404436e+17
19351.0	6.439679145192105e+17
19352.0	6.43762318615074e+17
19353.0	6.435661266201257e+17
19354.0	6.433614422081533e+17
19355.0	6.431481501057024e+17
19356.0	6.429451913003007e+17
19357.0	6.427338881368064e+17
19358.0	6.425182512786089e+17
19359.0	6.422980338909183e+17
19360.0	6.420815095878996e+17
19361.0	6.418620979959124e+17
19362.0	6.416411153574569e+17
19363.0	6.414148564942847e+17
19364.0	6.411858398063273e+17
19365.0	6.409541443562153e+17
19366.0	6.407195319773866e+17
19367.0	6.404820474090836e+17
19368.0	6.4024156831744e+17
19369.0	6.399936904735401e+17
19370.0	6.397422339096576e+17
19371.0	6.39502307697186e+17
19372.0	6.392542663453353e+17
19373.0	6.389982114261673e+17
19374.0	6.38741134774545e+17
19375.0	6.384790266358441e+17
19376.0	6.382136074436605e+17
19377.0	6.379440089071615e+17
19378.0	6.376709871894527e+17
19379.0	6.3739397144576e+17
19380.0	6.371129155387392e+17
19381.0	6.368276481310719e+17
19382.0	6.364946422737578e+17
19383.0	6.361920530197162e+17
19384.0	6.359005937707689e+17
19385.0	6.355972452078934e+17
19386.0	6.352871299044692e+17
19387.0	6.349707202090323e+17
19388.0	6.346504341378388e+17
19389.0	6.343260883998035e+17
19390.0	6.339962636424531e+17
19391.0	6.30885924802829e+17
19392.0	6.332787936897702e+17
19393.0	6.32990146302225e+17
19394.0	6.325986459822762e+17
19395.0	6.322088692416511e+17
19396.0	6.318552796976467e+17
19397.0	6.315042689515519e+17
19398.0	6.311388971881812e+17
19399.0	6.307247498635945e+17
19400.0	6.303700965741908e+17
19401.0	6.29863252894242e+17
19402.0	6.294625834063188e+17
19403.0	6.29052524339746e+17
19404.0	6.286363607433213e+17
19405.0	6.280359355001512e+17
19406.0	6.275807971027625e+17
19407.0	6.27130564223522e+17
19408.0	6.264046563098625e+17
19409.0	6.259316940079104e+17
19410.0	6.252592708102825e+17
19411.0	6.245926594499924e+17
19412.0	6.237772148200791e+17
19413.0	6.230196344586237e+17
19414.0	6.219863624952489e+17
19415.0	6.208611961274372e+17
19416.0	6.196048802349048e+17
19417.0	6.181117174480891e+17
19418.0	6.16397808022324e+17
19419.0	6.148065126427309e+17
19420.0	6.138211069154643e+17
19421.0	6.128188831476394e+17
19422.0	6.11777112056354e+17
19423.0	6.106769709334527e+17
19424.0	6.095348964873558e+17
19425.0	6.083595304523092e+17
19426.0	6.071532742071636e+17
19427.0	6.058727665478314e+17
19428.0	6.046012729371305e+17
19429.0	6.032528453053097e+17
19430.0	6.016904267999916e+17
19431.0	5.997653538111497e+17
19432.0	5.98594705039906e+17
19433.0	5.967434854957053e+17
19434.0	5.946184050234707e+17
19435.0	5.920140712127144e+17
19436.0	5.884604267364343e+17
19437.0	5.83964609531086e+17
19438.0	5.7601550461173824e+17
19439.0	5.760305657981613e+17
19440.0	5.726142032685737e+17
19441.0	5.687984695978664e+17
19442.0	5.645107593565527e+17
19443.0	5.59478425168555e+17
19444.0	5.530312410923003e+17
19445.0	5.438777520553974e+17
19446.0	5.3427518972450125e+17
19447.0	5.2370799577442906e+17
19448.0	5.090137239191557e+17
19449.0	4.8740968106557395e+17
19450.0	4.515510976774134e+17
19451.0	4.397536469756552e+17
19452.0	4.708687890000556e+17
19453.0	4.993484921154223e+17
19454.0	5.1671238394074374e+17
19455.0	5.2881915617389203e+17
19456.0	5.380616629518333e+17
19457.0	5.47866844908748e+17
19458.0	5.509389249151034e+17
19459.0	5.604433725489169e+17
19460.0	5.649945195446267e+17
19461.0	5.688130014631253e+17
19462.0	5.722413095103147e+17
19463.0	5.754432901873662e+17
19464.0	5.788116888933706e+17
19465.0	5.836847606049449e+17
19466.0	5.873747559623336e+17
19467.0	5.90111418875904e+17
19468.0	5.921720849749334e+17
19469.0	5.938678209008979e+17
19470.0	5.953745418452991e+17
19471.0	5.967560068213418e+17
19472.0	5.980193631327571e+17
19473.0	5.992113091816105e+17
19474.0	6.002839444783104e+17
19475.0	6.012967789963944e+17
19476.0	6.023396824099497e+17
19477.0	6.03301784444382e+17
19478.0	6.042280866261673e+17
19479.0	6.051168092422143e+17
19480.0	6.059508440061268e+17
19481.0	6.067317460959231e+17
19482.0	6.074839469129727e+17
19483.0	6.084603072741371e+17
19484.0	6.099587384563025e+17
19485.0	6.113630056262313e+17
19486.0	6.12503280576102e+17
19487.0	6.134179035086844e+17
19488.0	6.141715411544749e+17
19489.0	6.148027229492563e+17
19490.0	6.15386197472051e+17
19491.0	6.158105956057087e+17
19492.0	6.163944840364032e+17
19493.0	6.166543436087295e+17
19494.0	6.170400447441576e+17
19495.0	6.173565553825107e+17
19496.0	6.17541530690082e+17
19497.0	6.178589679899988e+17
19498.0	6.177866667873622e+17
19499.0	6.13943148858571e+17
19500.0	6.184716064172713e+17
19501.0	6.186725109224788e+17
19502.0	6.18907071291938e+17
19503.0	6.190507005487786e+17
19504.0	6.191790294040576e+17
19505.0	6.193034210661716e+17
19506.0	6.194216419983359e+17
19507.0	6.195336199187114e+17
19508.0	6.196970109883731e+17
19509.0	6.198249229298345e+17
19510.0	6.199097872613373e+17
19511.0	6.14997939139377e+17
19512.0	6.193988581894817e+17
19513.0	6.189719244592449e+17
19514.0	6.193614768046066e+17
19515.0	6.202896130157228e+17
19516.0	6.204310678754644e+17
19517.0	6.204951635514708e+17
19518.0	6.205603216446803e+17
19519.0	6.206148977186132e+17
19520.0	6.20665936945698e+17
19521.0	6.207515805788842e+17
19522.0	6.207990505930751e+17
19523.0	6.208396402010794e+17
19524.0	6.208738427229523e+17
19525.0	6.209046386311165e+17
19526.0	6.209326212098729e+17
19527.0	6.209557870499156e+17
19528.0	6.209749926281216e+17
19529.0	6.209914238140415e+17
19530.0	6.210043956079273e+17
19531.0	6.210136200009044e+17
19532.0	6.210195463427412e+17
19533.0	6.210225301706068e+17
19534.0	6.210234392859988e+17
19535.0	6.210211123560447e+17
19536.0	6.210144952822442e+17
19537.0	6.210094904989012e+17
19538.0	6.209909761419945e+17
19539.0	6.209512325251072e+17
19540.0	6.209679289308499e+17
19541.0	6.209510684579156e+17
19542.0	6.209297808971092e+17
19543.0	6.209052112934227e+17
19544.0	6.208804593074175e+17
19545.0	6.208220921419091e+17
19546.0	6.207654182169257e+17
19547.0	6.207894420018516e+17
19548.0	6.207545219743743e+17
19549.0	6.207113871927978e+17
19550.0	6.206788376461311e+17
19551.0	6.206381299684691e+17
19552.0	6.205952846637737e+17
19553.0	6.205491561278121e+17
19554.0	6.20501908132113e+17
19555.0	6.204556728511146e+17
19556.0	6.204074266809684e+17
19557.0	6.203562403736233e+17
19558.0	6.203038352015359e+17
19559.0	6.202496798162943e+17
19560.0	6.201919556375892e+17
19561.0	6.201353314151082e+17
19562.0	6.200782914671955e+17
19563.0	6.200188783820799e+17
19564.0	6.199576621656746e+17
19565.0	6.198951123703124e+17
19566.0	6.198292590712148e+17
19567.0	6.197661503149396e+17
19568.0	6.196981963685887e+17
19569.0	6.1963196970653e+17
19570.0	6.195639734676138e+17
19571.0	6.194940212150272e+17
19572.0	6.194216209569107e+17
19573.0	6.19350367211793e+17
19574.0	6.192729985908733e+17
19575.0	6.192052987494399e+17
19576.0	6.191306455908351e+17
19577.0	6.190542117404671e+17
19578.0	6.189757779760467e+17
19579.0	6.189144269826729e+17
19580.0	6.188371161033385e+17
19581.0	6.187585270797652e+17
19582.0	6.186799143583744e+17
19583.0	6.185994413233492e+17
19584.0	6.185165959200765e+17
19585.0	6.184288733801129e+17
19586.0	6.183428348532054e+17
19587.0	6.182545973226153e+17
19588.0	6.181554552307711e+17
19589.0	6.180993664111956e+17
19590.0	6.180091236537684e+17
19591.0	6.179296822777172e+17
19592.0	6.178432654245887e+17
19593.0	6.177547872807593e+17
19594.0	6.176512780096851e+17
19595.0	6.175772601483263e+17
19596.0	6.172955262320641e+17
19597.0	6.173955767402495e+17
19598.0	6.172894658822143e+17
19599.0	6.172210369309353e+17
19600.0	6.171307160196435e+17
19601.0	6.170347618085545e+17
19602.0	6.169439315689471e+17
19603.0	6.167877557507411e+17
19604.0	6.167537943314432e+17
19605.0	6.166495146366292e+17
19606.0	6.165754410609321e+17
19607.0	6.1648173268992e+17
19608.0	6.163866820717225e+17
19609.0	6.162890127398228e+17
19610.0	6.161967916690089e+17
19611.0	6.161006759772159e+17
19612.0	6.16006106096162e+17
19613.0	6.159092104735402e+17
19614.0	6.158106160878931e+17
19615.0	6.157156527112191e+17
19616.0	6.15593142264354e+17
19617.0	6.155206481936383e+17
19618.0	6.153870244489897e+17
19619.0	6.152803983906131e+17
19620.0	6.151837549155667e+17
19621.0	6.151278884640084e+17
19622.0	6.150302363986602e+17
19623.0	6.149310731255807e+17
19624.0	6.148316261078356e+17
19625.0	6.147317401561769e+17
19626.0	6.146317222237524e+17
19627.0	6.145306028670975e+17
19628.0	6.143674939342847e+17
19629.0	6.14317648126498e+17
19630.0	6.140469850057386e+17
19631.0	6.113543363493889e+17
19632.0	6.140190175963818e+17
19633.0	6.139193247225172e+17
19634.0	6.138240041309524e+17
19635.0	6.13719831740416e+17
19636.0	6.136196412123816e+17
19637.0	6.134924988557993e+17
19638.0	6.134158128578559e+17
19639.0	6.133129606944083e+17
19640.0	6.132046917970602e+17
19641.0	6.130581324693504e+17
19642.0	6.130053850420566e+17
19643.0	6.129007591773524e+17
19644.0	6.127946727161855e+17
19645.0	6.126773497146025e+17
19646.0	6.125903053236905e+17
19647.0	6.124879150929235e+17
19648.0	6.123840535003135e+17
19649.0	6.122797947071146e+17
19650.0	6.121757672297812e+17
19651.0	6.120714279059455e+17
19652.0	6.120195191996415e+17
19653.0	6.120676036094633e+17
19654.0	6.119638812677459e+17
19655.0	6.118583662804991e+17
19656.0	6.117528970810707e+17
19657.0	6.116479351827114e+17
19658.0	6.115424083815082e+17
19659.0	6.114366725641556e+17
19660.0	6.113310508318719e+17
19661.0	6.1122522134173e+17
19662.0	6.111192768577533e+17
19663.0	6.110090114017961e+17
19664.0	6.108959368107348e+17
19665.0	6.108009736437759e+17
