# Flux units: erg / (cm m2 s)
# Wavelength units: Angstrom
wave	flux
19000.0	5.574006466587306e+17
19001.0	5.572861618028543e+17
19002.0	5.571981762101247e+17
19003.0	5.5709644315688954e+17
19004.0	5.5699520608010234e+17
19005.0	5.568922378742441e+17
19006.0	5.56791865942562e+17
19007.0	5.5669128338691405e+17
19008.0	5.565835710038014e+17
19009.0	5.5647023091329696e+17
19010.0	5.56334449898291e+17
19011.0	5.5628144990399136e+17
19012.0	5.56153386967586e+17
19013.0	5.5608445183371936e+17
19014.0	5.559777167234388e+17
19015.0	5.558773173190655e+17
19016.0	5.5577621963298125e+17
19017.0	5.5568076657131514e+17
19018.0	5.5557854579042976e+17
19019.0	5.5547836106451616e+17
19020.0	5.553765890741589e+17
19021.0	5.552777006678015e+17
19022.0	5.5517622745169914e+17
19023.0	5.5507028974851405e+17
19024.0	5.5496898528324256e+17
19025.0	5.5487136481498445e+17
19026.0	5.547666934420821e+17
19027.0	5.5465141362578765e+17
19028.0	5.545705894576126e+17
19029.0	5.544680601157631e+17
19030.0	5.543705670844415e+17
19031.0	5.542702561099775e+17
19032.0	5.541679265568084e+17
19033.0	5.540550659451561e+17
19034.0	5.539587180986367e+17
19035.0	5.5381438972122445e+17
19036.0	5.522628987759269e+17
19037.0	5.536276093250218e+17
19038.0	5.535563131475284e+17
19039.0	5.534625522778111e+17
19040.0	5.533639929146025e+17
19041.0	5.5326309285014176e+17
19042.0	5.5306317638314643e+17
19043.0	5.5306441803694074e+17
19044.0	5.529626738687999e+17
19045.0	5.528617784180735e+17
19046.0	5.5275577276716365e+17
19047.0	5.5265733364066976e+17
19048.0	5.525249135214591e+17
19049.0	5.522653761415848e+17
19050.0	5.5234786803493536e+17
19051.0	5.520439284247208e+17
19052.0	5.5208780454952954e+17
19053.0	5.520569952195924e+17
19054.0	5.5196002766465696e+17
19055.0	5.5180355950346234e+17
19056.0	5.51748765815057e+17
19057.0	5.516600987178324e+17
19058.0	5.5146404967874534e+17
19059.0	5.514237335393619e+17
19060.0	5.51358611656977e+17
19061.0	5.512607756713982e+17
19062.0	5.511601746608126e+17
19063.0	5.5106003040993274e+17
19064.0	5.509473089792681e+17
19065.0	5.5083982777221114e+17
19066.0	5.5071936225826125e+17
19067.0	5.5065935714713594e+17
19068.0	5.5056098065558176e+17
19069.0	5.504611833435476e+17
19070.0	5.503578702959956e+17
19071.0	5.502598690548394e+17
19072.0	5.501258452434943e+17
19073.0	5.500614291925673e+17
19074.0	5.4996210485821434e+17
19075.0	5.498622797239637e+17
19076.0	5.4976059749171194e+17
19077.0	5.49660221645346e+17
19078.0	5.495576880392874e+17
19079.0	5.4946300868689914e+17
19080.0	5.4936202613445965e+17
19081.0	5.492578477320874e+17
19082.0	5.491602178266452e+17
19083.0	5.49052835884783e+17
19084.0	5.4893908782830925e+17
19085.0	5.488623116528298e+17
19086.0	5.486692634984446e+17
19087.0	5.485603736343891e+17
19088.0	5.4849826207389e+17
19089.0	5.484310741472597e+17
19090.0	5.4835935846946125e+17
19091.0	5.482565216152234e+17
19092.0	5.4808318599058784e+17
19093.0	5.480682480467968e+17
19094.0	5.4797000745069216e+17
19095.0	5.478708882178047e+17
19096.0	5.4777004827170125e+17
19097.0	5.476718574480041e+17
19098.0	5.4753313252092576e+17
19099.0	5.474258923465386e+17
19100.0	5.473699029319679e+17
19101.0	5.472729327905451e+17
19102.0	5.4716180666340685e+17
19103.0	5.470757992442538e+17
19104.0	5.469773603274751e+17
19105.0	5.4679110652613984e+17
19106.0	5.467728451556692e+17
19107.0	5.466541950063956e+17
19108.0	5.465421026514262e+17
19109.0	5.4641171082772474e+17
19110.0	5.463644691933866e+17
19111.0	5.462563650622803e+17
19112.0	5.461543272928596e+17
19113.0	5.4608481984621216e+17
19114.0	5.459686050496511e+17
19115.0	5.458757522467498e+17
19116.0	5.457851184403796e+17
19117.0	5.456841341403136e+17
19118.0	5.4556360620113914e+17
19119.0	5.4445674720132966e+17
19120.0	5.4537083221442554e+17
19121.0	5.4528224753527456e+17
19122.0	5.451947551227904e+17
19123.0	5.4509652885722445e+17
19124.0	5.449893024541353e+17
19125.0	5.4489752115609594e+17
19126.0	5.447914337162579e+17
19127.0	5.445012310807892e+17
19128.0	5.4458928084637005e+17
19129.0	5.4449334914471245e+17
19130.0	5.444040867359402e+17
19131.0	5.443072358525609e+17
19132.0	5.4420848599804576e+17
19133.0	5.4410449773745485e+17
19134.0	5.440097586861396e+17
19135.0	5.4391270647616845e+17
19136.0	5.438141880074239e+17
19137.0	5.4369957291840845e+17
19138.0	5.436152306379434e+17
19139.0	5.435194246255957e+17
19140.0	5.4342141296858445e+17
19141.0	5.433230385042772e+17
19142.0	5.4322145910237856e+17
19143.0	5.4312004663377914e+17
19144.0	5.4302254493422925e+17
19145.0	5.429289565902164e+17
19146.0	5.427540735470251e+17
19147.0	5.4272318347673594e+17
19148.0	5.4260312851524256e+17
19149.0	5.42499015963443e+17
19150.0	5.4243746133661005e+17
19151.0	5.4233896719482874e+17
19152.0	5.4223944433008634e+17
19153.0	5.4207546801520614e+17
19154.0	5.4202565492299085e+17
19155.0	5.419444888491349e+17
19156.0	5.418460705543509e+17
19157.0	5.4171819992678406e+17
19158.0	5.4156644336708256e+17
19159.0	5.4154438747968845e+17
19160.0	5.4145047952971085e+17
19161.0	5.4134839024025594e+17
19162.0	5.4114905454455456e+17
19163.0	5.41134288916753e+17
19164.0	5.4105948602149536e+17
19165.0	5.408910176070312e+17
19166.0	5.408491921473535e+17
19167.0	5.407584643885739e+17
19168.0	5.4066923756148045e+17
19169.0	5.4057206420602874e+17
19170.0	5.404755381714942e+17
19171.0	5.403732516798462e+17
19172.0	5.402784852257449e+17
19173.0	5.4018285334691834e+17
19174.0	5.400793691018581e+17
19175.0	5.3998761262011725e+17
19176.0	5.3989004968372896e+17
19177.0	5.397735089897471e+17
19178.0	5.396887139341652e+17
19179.0	5.3958857178043725e+17
19180.0	5.3949740208182605e+17
19181.0	5.393853920051198e+17
19182.0	5.3930089418588154e+17
19183.0	5.392072089534462e+17
19184.0	5.3910953130284365e+17
19185.0	5.390107467754153e+17
19186.0	5.389144094146558e+17
19187.0	5.388092729633449e+17
19188.0	5.387187743533738e+17
19189.0	5.3862141218433696e+17
19190.0	5.385231434164906e+17
19191.0	5.384212492320767e+17
19192.0	5.3832751129122125e+17
19193.0	5.3821976073994234e+17
19194.0	5.3811464875540474e+17
19195.0	5.380292302864382e+17
19196.0	5.379237873713151e+17
19197.0	5.378124896272383e+17
19198.0	5.3765251803381754e+17
19199.0	5.368344705586515e+17
19200.0	5.368670015804758e+17
19201.0	5.3736989967865165e+17
19202.0	5.373289400631294e+17
19203.0	5.372428899319807e+17
19204.0	5.371516638199807e+17
19205.0	5.3705911985766406e+17
19206.0	5.369635698376703e+17
19207.0	5.3685286936248314e+17
19208.0	5.367458837823487e+17
19209.0	5.366743079845887e+17
19210.0	5.365781200109567e+17
19211.0	5.3648289099502925e+17
19212.0	5.363848444553898e+17
19213.0	5.362725286838271e+17
19214.0	5.361723000575317e+17
19215.0	5.360904998049109e+17
19216.0	5.3599725434525e+17
19217.0	5.358962810202794e+17
19218.0	5.3571888712690336e+17
19219.0	5.3568427887602323e+17
19220.0	5.3560583148011514e+17
19221.0	5.354821832583849e+17
19222.0	5.3541188134065485e+17
19223.0	5.3531799778754554e+17
19224.0	5.352176772360874e+17
19225.0	5.351125894387028e+17
19226.0	5.350275318196906e+17
19227.0	5.3493178396835834e+17
19228.0	5.348381104100691e+17
19229.0	5.347412807079252e+17
19230.0	5.3464383870730234e+17
19231.0	5.345464929659562e+17
19232.0	5.344502503265621e+17
19233.0	5.343464060704083e+17
19234.0	5.342560213357908e+17
19235.0	5.341575385186304e+17
19236.0	5.3406481497019725e+17
19237.0	5.339662846175915e+17
19238.0	5.338600702301523e+17
19239.0	5.3377549977954976e+17
19240.0	5.336790137307134e+17
19241.0	5.335802238205951e+17
19242.0	5.3348439005593594e+17
19243.0	5.3337087415418874e+17
19244.0	5.3329355551539194e+17
19245.0	5.331963720237056e+17
19246.0	5.3309905955717114e+17
19247.0	5.330030143995904e+17
19248.0	5.3290761628330656e+17
19249.0	5.32808624906786e+17
19250.0	5.3269899341987834e+17
19251.0	5.325939421129385e+17
19252.0	5.32487402037794e+17
19253.0	5.324231594213375e+17
19254.0	5.323301012373504e+17
19255.0	5.322105019170815e+17
19256.0	5.321353523625983e+17
19257.0	5.320410040107007e+17
19258.0	5.319447399104511e+17
19259.0	5.3183820277131936e+17
19260.0	5.317114650252627e+17
19261.0	5.316531483312126e+17
19262.0	5.315505078403071e+17
19263.0	5.3144957317283834e+17
19264.0	5.313027190554623e+17
19265.0	5.312441764282366e+17
19266.0	5.31137173651456e+17
19267.0	5.310783521030143e+17
19268.0	5.309818116680362e+17
19269.0	5.308859687458133e+17
19270.0	5.307873898790911e+17
19271.0	5.306556339279189e+17
19272.0	5.305935864004606e+17
19273.0	5.304708363889321e+17
19274.0	5.3035541906937165e+17
19275.0	5.3031045067789645e+17
19276.0	5.302121982678356e+17
19277.0	5.301169687625728e+17
19278.0	5.3001936458219514e+17
19279.0	5.2992212719370234e+17
19280.0	5.2982053926338554e+17
19281.0	5.297314115616766e+17
19282.0	5.2963667062292474e+17
19283.0	5.2953437231732045e+17
19284.0	5.2943763558891514e+17
19285.0	5.293331465284266e+17
19286.0	5.2924495387688954e+17
19287.0	5.291456361835177e+17
19288.0	5.2858828644242726e+17
19289.0	5.279744759868061e+17
19290.0	5.288555864304297e+17
19291.0	5.2874136756333235e+17
19292.0	5.286781983391743e+17
19293.0	5.285829614938794e+17
19294.0	5.2848608991860045e+17
19295.0	5.2839271660257274e+17
19296.0	5.282543883168427e+17
19297.0	5.2819062112474445e+17
19298.0	5.281017217329834e+17
19299.0	5.2796202218946554e+17
19300.0	5.2791199413917005e+17
19301.0	5.2781751520460794e+17
19302.0	5.277202555863039e+17
19303.0	5.276167888175103e+17
19304.0	5.275270507746644e+17
19305.0	5.2743183259402234e+17
19306.0	5.273364791470762e+17
19307.0	5.2723427884837536e+17
19308.0	5.27139210264576e+17
19309.0	5.27018938737186e+17
19310.0	5.2691205060471456e+17
19311.0	5.2684342515029325e+17
19312.0	5.267539349209087e+17
19313.0	5.26645736697583e+17
19314.0	5.2327364903130214e+17
19315.0	5.234842991416712e+17
19316.0	5.262987431859541e+17
19317.0	5.2627496665524896e+17
19318.0	5.2618331894579194e+17
19319.0	5.26090940518673e+17
19320.0	5.259788515890515e+17
19321.0	5.258618605666304e+17
19322.0	5.25793780371729e+17
19323.0	5.256979048737451e+17
19324.0	5.2560563039546016e+17
19325.0	5.2549477829618336e+17
19326.0	5.254149934765396e+17
19327.0	5.2532143938600934e+17
19328.0	5.25151288426496e+17
19329.0	5.251326304845824e+17
19330.0	5.250329882918911e+17
19331.0	5.2493432686728525e+17
19332.0	5.2484454876883616e+17
19333.0	5.247462480543743e+17
19334.0	5.246503240422741e+17
19335.0	5.244004626421078e+17
19336.0	5.244573898331476e+17
19337.0	5.24362587517747e+17
19338.0	5.242411505330857e+17
19339.0	5.241690157045077e+17
19340.0	5.240484362452991e+17
19341.0	5.239094134527318e+17
19342.0	5.238220707769002e+17
19343.0	5.237801187890517e+17
19344.0	5.23623114735616e+17
19345.0	5.233346746165928e+17
19346.0	5.2336361482485734e+17
19347.0	5.2331237797614925e+17
19348.0	5.2329761353673376e+17
19349.0	5.23197252580147e+17
19350.0	5.230734895043925e+17
19351.0	5.230019910216362e+17
19352.0	5.22824602301235e+17
19353.0	5.2281336841721165e+17
19354.0	5.227164432247466e+17
19355.0	5.226067947509077e+17
19356.0	5.225207387477331e+17
19357.0	5.2242305571444045e+17
19358.0	5.223241235475113e+17
19359.0	5.222050883611306e+17
19360.0	5.220629299767977e+17
19361.0	5.2202580122883405e+17
19362.0	5.219306184201556e+17
19363.0	5.218319289636181e+17
19364.0	5.2173286460620794e+17
19365.0	5.216327230816255e+17
19366.0	5.215323563229183e+17
19367.0	5.2143277627583136e+17
19368.0	5.2133298861069645e+17
19369.0	5.212275149373439e+17
19370.0	5.2112852859398816e+17
19371.0	5.21025283494161e+17
19372.0	5.2093084433558176e+17
19373.0	5.208279298867198e+17
19374.0	5.207278740657492e+17
19375.0	5.2062636827388576e+17
19376.0	5.205246060702378e+17
19377.0	5.204207913839273e+17
19378.0	5.203181410364073e+17
19379.0	5.2021513074769914e+17
19380.0	5.2010898046320634e+17
19381.0	5.2000324415651834e+17
19382.0	5.198893634901333e+17
19383.0	5.1978235295389e+17
19384.0	5.196850975298901e+17
19385.0	5.195804193761961e+17
19386.0	5.194733636113749e+17
19387.0	5.1936484466360314e+17
19388.0	5.192537221016234e+17
19389.0	5.191368857791146e+17
19390.0	5.1900850002111136e+17
19391.0	5.175548012309146e+17
19392.0	5.187058087755774e+17
19393.0	5.186853465838933e+17
19394.0	5.185696844567892e+17
19395.0	5.18431344496913e+17
19396.0	5.1833226301276154e+17
19397.0	5.182207270322175e+17
19398.0	5.1806628597814605e+17
19399.0	5.1785856342207136e+17
19400.0	5.1780992375630496e+17
19401.0	5.1771133125809485e+17
19402.0	5.175786568941566e+17
19403.0	5.174473331660115e+17
19404.0	5.1731341763761485e+17
19405.0	5.171722765817172e+17
19406.0	5.1703569172834976e+17
19407.0	5.168673041241428e+17
19408.0	5.166572075220992e+17
19409.0	5.1659230500181325e+17
19410.0	5.164495945771689e+17
19411.0	5.1629448222474234e+17
19412.0	5.1613320068027725e+17
19413.0	5.1593344849018874e+17
19414.0	5.157852761729706e+17
19415.0	5.156091795079167e+17
19416.0	5.153995806998527e+17
19417.0	5.1520778356654074e+17
19418.0	5.150201819955198e+17
19419.0	5.148007723608746e+17
19420.0	5.14569160237602e+17
19421.0	5.143206674388308e+17
19422.0	5.140489111426389e+17
19423.0	5.137673680672085e+17
19424.0	5.134694931409578e+17
19425.0	5.1313468219501216e+17
19426.0	5.1276438219434656e+17
19427.0	5.1236089755948365e+17
19428.0	5.119469626763947e+17
19429.0	5.1153117600808954e+17
19430.0	5.110273799094272e+17
19431.0	5.1037431020912666e+17
19432.0	5.100715242422271e+17
19433.0	5.094902483036843e+17
19434.0	5.088407792735573e+17
19435.0	5.0802026526801894e+17
19436.0	5.0707818886813e+17
19437.0	5.0613590519971834e+17
19438.0	5.022927324621484e+17
19439.0	5.033498454086995e+17
19440.0	5.020622023294974e+17
19441.0	5.0048429789457043e+17
19442.0	4.98618743128064e+17
19443.0	4.962926846104918e+17
19444.0	4.934798846634663e+17
19445.0	4.8990151860988614e+17
19446.0	4.8530981143620256e+17
19447.0	4.793404551244451e+17
19448.0	4.7089252351781574e+17
19449.0	4.576124939359571e+17
19450.0	4.287118130020346e+17
19451.0	4.065833810657327e+17
19452.0	4.4661263907334784e+17
19453.0	4.6503646192817555e+17
19454.0	4.75164559505271e+17
19455.0	4.8190533773120845e+17
19456.0	4.869581524959237e+17
19457.0	4.907508211296934e+17
19458.0	4.8359541169631546e+17
19459.0	4.957191396829886e+17
19460.0	4.98002862154274e+17
19461.0	4.9953229322758816e+17
19462.0	5.0091568807280646e+17
19463.0	5.021848828553898e+17
19464.0	5.0329215751072403e+17
19465.0	5.042176472558251e+17
19466.0	5.049572937520468e+17
19467.0	5.0558717629125965e+17
19468.0	5.0610685475116365e+17
19469.0	5.0646016362632506e+17
19470.0	5.0689848510163616e+17
19471.0	5.0723149683097594e+17
19472.0	5.0749392513488205e+17
19473.0	5.077301767875242e+17
19474.0	5.079041755316223e+17
19475.0	5.080805262316883e+17
19476.0	5.083769105022974e+17
19477.0	5.0854320759548576e+17
19478.0	5.0867565756415994e+17
19479.0	5.087384299372542e+17
19480.0	5.0886614775234554e+17
19481.0	5.0894480143810554e+17
19482.0	5.089948726198272e+17
19483.0	5.0904665570672634e+17
19484.0	5.090659614588927e+17
19485.0	5.090753372662442e+17
19486.0	5.090317601953111e+17
19487.0	5.090873618464766e+17
19488.0	5.090763444584447e+17
19489.0	5.090313022472191e+17
19490.0	5.088790966173694e+17
19491.0	5.0901129248112634e+17
19492.0	5.08987636396851e+17
19493.0	5.0895236013315405e+17
19494.0	5.0891187174768634e+17
19495.0	5.088698237102761e+17
19496.0	5.087668826275838e+17
19497.0	5.0875376081742496e+17
19498.0	5.0842501154952525e+17
19499.0	5.0649031389129286e+17
19500.0	5.0858845532760736e+17
19501.0	5.085684923280043e+17
19502.0	5.085149572104191e+17
19503.0	5.0845608574975994e+17
19504.0	5.0839763581665274e+17
19505.0	5.083366294552575e+17
19506.0	5.0827295593594874e+17
19507.0	5.0820089213091834e+17
19508.0	5.0813469357069645e+17
19509.0	5.080602371249492e+17
19510.0	5.0792037113746765e+17
19511.0	5.0262688189644346e+17
19512.0	5.073996320079866e+17
19513.0	5.071014887161847e+17
19514.0	5.0720173118368365e+17
19515.0	5.0756236680888326e+17
19516.0	5.075409141323092e+17
19517.0	5.074690785673216e+17
19518.0	5.0738555200907936e+17
19519.0	5.073057567036755e+17
19520.0	5.07186440778547e+17
19521.0	5.0716699982998195e+17
19522.0	5.070745947690324e+17
19523.0	5.06993455468817e+17
19524.0	5.068861774058837e+17
19525.0	5.0684492460851194e+17
19526.0	5.067661302737578e+17
19527.0	5.066829583439189e+17
19528.0	5.065960042004479e+17
19529.0	5.0651038803995296e+17
19530.0	5.06435953963827e+17
19531.0	5.0635261181515085e+17
19532.0	5.062689862713343e+17
19533.0	5.0618509389987834e+17
19534.0	5.061020257091583e+17
19535.0	5.0601584639344634e+17
19536.0	5.0592863681686176e+17
19537.0	5.0584707172488525e+17
19538.0	5.0569075658588154e+17
19539.0	5.056166276453717e+17
19540.0	5.055900421892777e+17
19541.0	5.0549613235186336e+17
19542.0	5.0541719576029856e+17
19543.0	5.052803825969834e+17
19544.0	5.0524558944720205e+17
19545.0	5.050973503706453e+17
19546.0	5.0497603201488205e+17
19547.0	5.049910720200703e+17
19548.0	5.0490696860521805e+17
19549.0	5.04808826016017e+17
19550.0	5.047344448580267e+17
19551.0	5.0464843890687994e+17
19552.0	5.0456175788250445e+17
19553.0	5.0447199984680954e+17
19554.0	5.0438353009158816e+17
19555.0	5.042927945733462e+17
19556.0	5.0420946731444896e+17
19557.0	5.041257483774633e+17
19558.0	5.0403908042533536e+17
19559.0	5.039523157245952e+17
19560.0	5.038419126255615e+17
19561.0	5.037743706996736e+17
19562.0	5.0366939530963616e+17
19563.0	5.0360297228424525e+17
19564.0	5.0351542590504954e+17
19565.0	5.034274313644713e+17
19566.0	5.0333680112325965e+17
19567.0	5.0325216747847674e+17
19568.0	5.0316200280500896e+17
19569.0	5.0307438491293005e+17
19570.0	5.029886074814462e+17
19571.0	5.029006222382421e+17
19572.0	5.028091423009451e+17
19573.0	5.0271711479726074e+17
19574.0	5.0262394679241376e+17
19575.0	5.025499962496341e+17
19576.0	5.0245778748211194e+17
19577.0	5.023610022395904e+17
19578.0	5.022810219653802e+17
19579.0	5.0219443356521805e+17
19580.0	5.0210661819132576e+17
19581.0	5.0202015037740365e+17
19582.0	5.0193394135203834e+17
19583.0	5.018458708246528e+17
19584.0	5.0175696087722656e+17
19585.0	5.016552142624085e+17
19586.0	5.015628504454485e+17
19587.0	5.0148707202498554e+17
19588.0	5.0135155937553056e+17
19589.0	5.013116825894911e+17
19590.0	5.012126332616704e+17
19591.0	5.011394537717759e+17
19592.0	5.0105225041674234e+17
19593.0	5.009567527556436e+17
19594.0	5.0084002856086163e+17
19595.0	5.007851701403647e+17
19596.0	5.0069067142266874e+17
19597.0	5.006094942339071e+17
19598.0	5.004600995566932e+17
19599.0	5.004334358768298e+17
19600.0	5.0034707676528634e+17
19601.0	5.00250788827409e+17
19602.0	5.001596688313002e+17
19603.0	5.000277214800553e+17
19604.0	4.999839275636053e+17
19605.0	4.9987085793580365e+17
19606.0	4.998170194302292e+17
19607.0	4.997311300807338e+17
19608.0	4.996412592182613e+17
19609.0	4.995491727147007e+17
19610.0	4.994398311940096e+17
19611.0	4.993385154740223e+17
19612.0	4.9929081617121274e+17
19613.0	4.9920138829714765e+17
19614.0	4.9910964719452154e+17
19615.0	4.990251104381609e+17
19616.0	4.988992520978432e+17
19617.0	4.988063294597802e+17
19618.0	4.98683339743778e+17
19619.0	4.9857265625552205e+17
19620.0	4.9849225172746214e+17
19621.0	4.9843839714372256e+17
19622.0	4.9840860975595514e+17
19623.0	4.983178313859071e+17
19624.0	4.982229314830336e+17
19625.0	4.9814408772539725e+17
19626.0	4.9805411277428045e+17
19627.0	4.9796294957684045e+17
19628.0	4.978538128080896e+17
19629.0	4.976237040631806e+17
19630.0	4.9749405791682554e+17
19631.0	4.968260316080811e+17
19632.0	4.974838318541481e+17
19633.0	4.9742244989282976e+17
19634.0	4.973486018308778e+17
19635.0	4.9725263286981965e+17
19636.0	4.9711329459568614e+17
19637.0	4.9698930160216736e+17
19638.0	4.969958079463423e+17
19639.0	4.96912788759074e+17
19640.0	4.9680800211271674e+17
19641.0	4.965823503750489e+17
19642.0	4.966446254434985e+17
19643.0	4.9655683991906976e+17
19644.0	4.964655934646953e+17
19645.0	4.9635695658707616e+17
19646.0	4.962325846381908e+17
19647.0	4.9621174307170976e+17
19648.0	4.9612485610700794e+17
19649.0	4.9603691350589434e+17
19650.0	4.9594989015640736e+17
19651.0	4.958616982738261e+17
19652.0	4.957739197399038e+17
19653.0	4.9568644438425594e+17
19654.0	4.955986311774208e+17
19655.0	4.9551057162513056e+17
