# Flux units: erg / (cm m2 s)
# Wavelength units: Angstrom
wave	flux
19000.0	6.927002105806847e+17
19001.0	6.925671957790719e+17
19002.0	6.924404957817513e+17
19003.0	6.92310557991458e+17
19004.0	6.92180615168e+17
19005.0	6.920508220112895e+17
19006.0	6.919209269329919e+17
19007.0	6.917814499672064e+17
19008.0	6.916591088304127e+17
19009.0	6.915295916589055e+17
19010.0	6.913861917605887e+17
19011.0	6.912701487207764e+17
19012.0	6.911246945921705e+17
19013.0	6.910116337025023e+17
19014.0	6.908794171468457e+17
19015.0	6.907502857114964e+17
19016.0	6.906200314609664e+17
19017.0	6.904903103763796e+17
19018.0	6.903605366532778e+17
19019.0	6.902317010561705e+17
19020.0	6.901005722233513e+17
19021.0	6.89971805622545e+17
19022.0	6.898425979207677e+17
19023.0	6.897112967020543e+17
19024.0	6.895818344759293e+17
19025.0	6.894515187089405e+17
19026.0	6.893204899102719e+17
19027.0	6.891791796142079e+17
19028.0	6.89063422136593e+17
19029.0	6.889330433851392e+17
19030.0	6.888037543138644e+17
19031.0	6.886739289309183e+17
19032.0	6.885441078820863e+17
19033.0	6.884114349162495e+17
19034.0	6.88284004201267e+17
19035.0	6.881533131838804e+17
19036.0	6.870540734868133e+17
19037.0	6.878949632114687e+17
19038.0	6.877645461520383e+17
19039.0	6.876356170219519e+17
19040.0	6.875058737774591e+17
19041.0	6.873761368244223e+17
19042.0	6.872438216327167e+17
19043.0	6.871167480627199e+17
19044.0	6.869869189049001e+17
19045.0	6.868567718188371e+17
19046.0	6.867260363418281e+17
19047.0	6.865977918619647e+17
19048.0	6.864617189234003e+17
19049.0	6.863366394653354e+17
19050.0	6.86207663219234e+17
19051.0	6.859292097380348e+17
19052.0	6.859331990104746e+17
19053.0	6.858177823899647e+17
19054.0	6.856906089256276e+17
19055.0	6.855529213198335e+17
19056.0	6.854307754278911e+17
19057.0	6.853014535012351e+17
19058.0	6.851696603605674e+17
19059.0	6.850428679487487e+17
19060.0	6.849125888120148e+17
19061.0	6.847838802324136e+17
19062.0	6.846542497447935e+17
19063.0	6.845248627365203e+17
19064.0	6.843918077394943e+17
19065.0	6.842602942889983e+17
19066.0	6.841345985478655e+17
19067.0	6.840071785982634e+17
19068.0	6.838777808945151e+17
19069.0	6.837484366681427e+17
19070.0	6.836182767894527e+17
19071.0	6.834892360209748e+17
19072.0	6.833602564893353e+17
19073.0	6.832309045035007e+17
19074.0	6.831017761439743e+17
19075.0	6.829724873523199e+17
19076.0	6.828425063606954e+17
19077.0	6.827136224591871e+17
19078.0	6.825836822222163e+17
19079.0	6.824554905905834e+17
19080.0	6.823261230159188e+17
19081.0	6.821957414682623e+17
19082.0	6.820663523628372e+17
19083.0	6.819351096546644e+17
19084.0	6.81801874022946e+17
19085.0	6.816804176046761e+17
19086.0	6.815381431779327e+17
19087.0	6.813926664000852e+17
19088.0	6.812901590783316e+17
19089.0	6.811425644565844e+17
19090.0	6.810337914738004e+17
19091.0	6.809050695423316e+17
19092.0	6.807683170566143e+17
19093.0	6.80647944376593e+17
19094.0	6.805182209851391e+17
19095.0	6.803890396375721e+17
19096.0	6.802600141083988e+17
19097.0	6.801320080747178e+17
19098.0	6.800032669892607e+17
19099.0	6.798743440807252e+17
19100.0	6.797438549491711e+17
19101.0	6.796160725417983e+17
19102.0	6.794848424165375e+17
19103.0	6.793589758274217e+17
19104.0	6.792301590347775e+17
19105.0	6.79101318963746e+17
19106.0	6.789671900151807e+17
19107.0	6.788432666471081e+17
19108.0	6.787149409375572e+17
19109.0	6.7849417682234e+17
19110.0	6.784564599630506e+17
19111.0	6.783285636803242e+17
19112.0	6.782002318191273e+17
19113.0	6.7807161090048e+17
19114.0	6.779429836903764e+17
19115.0	6.778112395531604e+17
19116.0	6.776849907930452e+17
19117.0	6.77556488643106e+17
19118.0	6.774210242281472e+17
19119.0	6.772001379887784e+17
19120.0	6.771633728869716e+17
19121.0	6.770373977352874e+17
19122.0	6.769144164777983e+17
19123.0	6.767857836053844e+17
19124.0	6.766522073961812e+17
19125.0	6.765282386597204e+17
19126.0	6.763994137580884e+17
19127.0	6.762183503380477e+17
19128.0	6.760843560965459e+17
19129.0	6.760124832721578e+17
19130.0	6.758867567028906e+17
19131.0	6.757566189142015e+17
19132.0	6.756300779509076e+17
19133.0	6.754842639510186e+17
19134.0	6.753456842866688e+17
19135.0	6.752447615030612e+17
19136.0	6.751169952437587e+17
19137.0	6.749835424869033e+17
19138.0	6.748561192517631e+17
19139.0	6.747321161919146e+17
19140.0	6.74604029907217e+17
19141.0	6.744758389746345e+17
19142.0	6.743468662936916e+17
19143.0	6.742177368855891e+17
19144.0	6.740905882375507e+17
19145.0	6.739628137294505e+17
19146.0	6.738148226061652e+17
19147.0	6.737041695965181e+17
19148.0	6.735782336615764e+17
19149.0	6.734503309475839e+17
19150.0	6.733222545894057e+17
19151.0	6.731946010869759e+17
19152.0	6.730652711212371e+17
19153.0	6.72937852080401e+17
19154.0	6.728064711699113e+17
19155.0	6.726824868446207e+17
19156.0	6.725543325422932e+17
19157.0	6.724251823024809e+17
19158.0	6.722354914088275e+17
19159.0	6.721695958171647e+17
19160.0	6.720410662644393e+17
19161.0	6.719090069951828e+17
19162.0	6.71644776398848e+17
19163.0	6.71657229427234e+17
19164.0	6.715309690628778e+17
19165.0	6.714005466906623e+17
19166.0	6.712686510691668e+17
19167.0	6.711339562390868e+17
19168.0	6.710169645176148e+17
19169.0	6.708879634552148e+17
19170.0	6.707638368032083e+17
19171.0	6.706278736155988e+17
19172.0	6.705076403262803e+17
19173.0	6.703801620758527e+17
19174.0	6.702510933453481e+17
19175.0	6.701251198014804e+17
19176.0	6.699973544509439e+17
19177.0	6.69864827097361e+17
19178.0	6.697392540396201e+17
19179.0	6.696022120071168e+17
19180.0	6.694791552521556e+17
19181.0	6.693550639022079e+17
19182.0	6.692296839222612e+17
19183.0	6.691023777082025e+17
19184.0	6.689724570446505e+17
19185.0	6.688476683217578e+17
19186.0	6.687201860168362e+17
19187.0	6.685905223942143e+17
19188.0	6.684642013522602e+17
19189.0	6.683345777153363e+17
19190.0	6.682063313480361e+17
19191.0	6.680792163942399e+17
19192.0	6.679538284451155e+17
19193.0	6.678225253389652e+17
19194.0	6.676965645877247e+17
19195.0	6.675706673801897e+17
19196.0	6.674431236287146e+17
19197.0	6.673151185737044e+17
19198.0	6.671859655376895e+17
19199.0	6.66219555603524e+17
19200.0	6.663813022963031e+17
19201.0	6.66803460112384e+17
19202.0	6.666774690223442e+17
19203.0	6.665483050811391e+17
19204.0	6.664219754408617e+17
19205.0	6.662952569886035e+17
19206.0	6.661672848588797e+17
19207.0	6.660373000923817e+17
19208.0	6.659059511285076e+17
19209.0	6.657844831059967e+17
19210.0	6.656572974082729e+17
19211.0	6.655296136369492e+17
19212.0	6.654020380786687e+17
19213.0	6.652651448740522e+17
19214.0	6.65133438275857e+17
19215.0	6.650159312142333e+17
19216.0	6.648910839108948e+17
19217.0	6.647638479514282e+17
19218.0	6.646102400958461e+17
19219.0	6.645034060698964e+17
19220.0	6.643795573604351e+17
19221.0	6.642423486043476e+17
19222.0	6.64125430632721e+17
19223.0	6.639976482253482e+17
19224.0	6.638679741868714e+17
19225.0	6.637375839709866e+17
19226.0	6.636139604956499e+17
19227.0	6.634860696655188e+17
19228.0	6.63359048524322e+17
19229.0	6.632312359878655e+17
19230.0	6.631011060984489e+17
19231.0	6.629735718540627e+17
19232.0	6.628469782522538e+17
19233.0	6.627175851622399e+17
19234.0	6.625911924675923e+17
19235.0	6.624633556740777e+17
19236.0	6.623361397074602e+17
19237.0	6.622076891474601e+17
19238.0	6.620760981722452e+17
19239.0	6.619522802909183e+17
19240.0	6.618193725139625e+17
19241.0	6.616940496464553e+17
19242.0	6.61567556498227e+17
19243.0	6.614344151684436e+17
19244.0	6.613118258686634e+17
19245.0	6.611837074975402e+17
19246.0	6.610549975198378e+17
19247.0	6.609271926729385e+17
19248.0	6.607989981052927e+17
19249.0	6.606702605849939e+17
19250.0	6.605416528784042e+17
19251.0	6.604104809840639e+17
19252.0	6.602757990864212e+17
19253.0	6.601562781297321e+17
19254.0	6.600278330223273e+17
19255.0	6.598937713224361e+17
19256.0	6.597689254871039e+17
19257.0	6.596426451298985e+17
19258.0	6.59514005266978e+17
19259.0	6.593828470041257e+17
19260.0	6.59241154327347e+17
19261.0	6.591275737634132e+17
19262.0	6.589970512871423e+17
19263.0	6.588679597675859e+17
19264.0	6.587242571803305e+17
19265.0	6.586055069270015e+17
19266.0	6.584771635314688e+17
19267.0	6.58353019682816e+17
19268.0	6.582236865014442e+17
19269.0	6.580942792906068e+17
19270.0	6.579647628181501e+17
19271.0	6.578250094477312e+17
19272.0	6.577044603273215e+17
19273.0	6.574409919758333e+17
19274.0	6.573738815739219e+17
19275.0	6.573161347459753e+17
19276.0	6.571855238397951e+17
19277.0	6.570555738161151e+17
19278.0	6.569259029932714e+17
19279.0	6.567934020638035e+17
19280.0	6.56662767669521e+17
19281.0	6.565341206063786e+17
19282.0	6.564039872916137e+17
19283.0	6.562385352108714e+17
19284.0	6.560606241598121e+17
19285.0	6.559435638614697e+17
19286.0	6.558181400510463e+17
19287.0	6.556880372847955e+17
19288.0	6.55315112838212e+17
19289.0	6.547759983230963e+17
19290.0	6.552964048442708e+17
19291.0	6.551563206830762e+17
19292.0	6.550327846589779e+17
19293.0	6.549004529696767e+17
19294.0	6.547684931054249e+17
19295.0	6.546360996899497e+17
19296.0	6.545035379430739e+17
19297.0	6.543702956703743e+17
19298.0	6.542372780026538e+17
19299.0	6.541047565910015e+17
19300.0	6.539714015614292e+17
19301.0	6.538376793205418e+17
19302.0	6.537037938513236e+17
19303.0	6.535674586988543e+17
19304.0	6.534344596957866e+17
19305.0	6.533010270715901e+17
19306.0	6.531663172818259e+17
19307.0	6.530294834965162e+17
19308.0	6.528952984141823e+17
19309.0	6.527329729074515e+17
19310.0	6.525861675838121e+17
19311.0	6.524863762137087e+17
19312.0	6.523534175458644e+17
19313.0	6.522162673003177e+17
19314.0	6.515107094506152e+17
19315.0	6.514131243543219e+17
19316.0	6.518041085651625e+17
19317.0	6.51668716921378e+17
19318.0	6.515300583342079e+17
19319.0	6.513922653814783e+17
19320.0	6.51253146329634e+17
19321.0	6.511142973909674e+17
19322.0	6.509701400013482e+17
19323.0	6.508210138294953e+17
19324.0	6.506936716143273e+17
19325.0	6.505276038796627e+17
19326.0	6.504119419622739e+17
19327.0	6.502700562077012e+17
19328.0	6.501284078507348e+17
19329.0	6.499857311203327e+17
19330.0	6.498412336425642e+17
19331.0	6.496973789418835e+17
19332.0	6.495544161599487e+17
19333.0	6.494091853081258e+17
19334.0	6.492637658524329e+17
19335.0	6.491181199742291e+17
19336.0	6.489709266075645e+17
19337.0	6.488238323662847e+17
19338.0	6.486693548217684e+17
19339.0	6.485273138080425e+17
19340.0	6.483441407929001e+17
19341.0	6.481446346686463e+17
19342.0	6.479807023240532e+17
19343.0	6.478421745292627e+17
19344.0	6.476895473718612e+17
19345.0	6.474734239044946e+17
19346.0	6.473592065753087e+17
19347.0	6.472238379302911e+17
19348.0	6.470697043886079e+17
19349.0	6.469114256861866e+17
19350.0	6.467525713155412e+17
19351.0	6.465924928372735e+17
19352.0	6.464303025269417e+17
19353.0	6.462708251623423e+17
19354.0	6.46107725177378e+17
19355.0	6.459407052658003e+17
19356.0	6.457775439041875e+17
19357.0	6.456103933400403e+17
19358.0	6.454407408036521e+17
19359.0	6.452646965673983e+17
19360.0	6.450454671480148e+17
19361.0	6.44817550905617e+17
19362.0	6.446438641478314e+17
19363.0	6.444669502925481e+17
19364.0	6.44288124953122e+17
19365.0	6.441075519171241e+17
19366.0	6.439248704045055e+17
19367.0	6.437401028547926e+17
19368.0	6.435531462279167e+17
19369.0	6.433608563337897e+17
19370.0	6.431563655588521e+17
19371.0	6.42905883611409e+17
19372.0	6.426442435570346e+17
19373.0	6.424438718682452e+17
19374.0	6.422418449672874e+17
19375.0	6.420360895397887e+17
19376.0	6.418273448318291e+17
19377.0	6.415817637188948e+17
19378.0	6.41313205789218e+17
19379.0	6.409727134487894e+17
19380.0	6.407490530967552e+17
19381.0	6.405213699877545e+17
19382.0	6.402868220613972e+17
19383.0	6.400362331592019e+17
19384.0	6.396076358980948e+17
19385.0	6.393609328787456e+17
19386.0	6.391094475838804e+17
19387.0	6.388487511780012e+17
19388.0	6.38347087323682e+17
19389.0	6.38077249851665e+17
19390.0	6.378006702456831e+17
19391.0	6.364614390448114e+17
19392.0	6.369385188950015e+17
19393.0	6.366203813560316e+17
19394.0	6.360107241002324e+17
19395.0	6.356925607662932e+17
19396.0	6.352127713957203e+17
19397.0	6.348245443805183e+17
19398.0	6.344318363107327e+17
19399.0	6.340552387723263e+17
19400.0	6.337077548067497e+17
19401.0	6.333310558360916e+17
19402.0	6.329407599804415e+17
19403.0	6.325370759763284e+17
19404.0	6.321210751888041e+17
19405.0	6.31651168367411e+17
19406.0	6.311400985766569e+17
19407.0	6.306765949894655e+17
19408.0	6.301742838142292e+17
19409.0	6.296943270210218e+17
19410.0	6.290596726920531e+17
19411.0	6.284895991103487e+17
19412.0	6.279298047191722e+17
19413.0	6.272302628995072e+17
19414.0	6.265404476708179e+17
19415.0	6.25828936356113e+17
19416.0	6.249793958095529e+17
19417.0	6.241219743754924e+17
19418.0	6.232332118436524e+17
19419.0	6.22107256037922e+17
19420.0	6.209525352759293e+17
19421.0	6.196465276463785e+17
19422.0	6.181440598660438e+17
19423.0	6.162590579294196e+17
19424.0	6.144124097571494e+17
19425.0	6.130426252186963e+17
19426.0	6.117466107281407e+17
19427.0	6.103781113244329e+17
19428.0	6.088945632804863e+17
19429.0	6.073817379460436e+17
19430.0	6.057539902898177e+17
19431.0	6.038815125449389e+17
19432.0	6.021797299705172e+17
19433.0	6.001953653216598e+17
19434.0	5.98042262774306e+17
19435.0	5.956250639881553e+17
19436.0	5.928671560859647e+17
19437.0	5.897078953039183e+17
19438.0	5.847656543464105e+17
19439.0	5.804930694643713e+17
19440.0	5.76031122592017e+17
19441.0	5.717782884078931e+17
19442.0	5.670583761808043e+17
19443.0	5.616124077015041e+17
19444.0	5.550494704817484e+17
19445.0	5.461925358643883e+17
19446.0	5.3664971419374925e+17
19447.0	5.260089260769272e+17
19448.0	5.1168176927757734e+17
19449.0	4.92808266842112e+17
19450.0	4.6152087111379494e+17
19451.0	4.522810738562379e+17
19452.0	4.779899846568624e+17
19453.0	5.032097037156361e+17
19454.0	5.1899371796561824e+17
19455.0	5.311129621015209e+17
19456.0	5.404822515045726e+17
19457.0	5.4997859574306086e+17
19458.0	5.5643262520306477e+17
19459.0	5.629126765445122e+17
19460.0	5.67761821709107e+17
19461.0	5.720084978860032e+17
19462.0	5.758826085089282e+17
19463.0	5.808813749130583e+17
19464.0	5.851990352811348e+17
19465.0	5.885039104841043e+17
19466.0	5.911783864096083e+17
19467.0	5.935109521102162e+17
19468.0	5.95529500126959e+17
19469.0	5.97383460159488e+17
19470.0	5.990350673936385e+17
19471.0	6.006310839517183e+17
19472.0	6.020540849105578e+17
19473.0	6.033791252430847e+17
19474.0	6.046396655686996e+17
19475.0	6.058116737138687e+17
19476.0	6.069219861637802e+17
19477.0	6.079470604997972e+17
19478.0	6.09386202049194e+17
19479.0	6.110403621464746e+17
19480.0	6.124218792716969e+17
19481.0	6.136241203096234e+17
19482.0	6.146233227105622e+17
19483.0	6.154733882441724e+17
19484.0	6.161731260077394e+17
19485.0	6.169387131557203e+17
19486.0	6.174327361066326e+17
19487.0	6.180437923725311e+17
19488.0	6.184332683815593e+17
19489.0	6.189483770074452e+17
19490.0	6.192692441295529e+17
19491.0	6.196168186920959e+17
19492.0	6.199929753392468e+17
19493.0	6.203199191689897e+17
19494.0	6.205706657071103e+17
19495.0	6.208017772402006e+17
19496.0	6.210063642744148e+17
19497.0	6.213080590931284e+17
19498.0	6.21438438403823e+17
19499.0	6.203123252417865e+17
19500.0	6.218243892401492e+17
19501.0	6.219681926305108e+17
19502.0	6.220996858085373e+17
19503.0	6.222214161847638e+17
19504.0	6.223317617519274e+17
19505.0	6.224798175373993e+17
19506.0	6.226809256760659e+17
19507.0	6.228480010223615e+17
19508.0	6.229845071626239e+17
19509.0	6.232954776846335e+17
19510.0	6.233441668431871e+17
19511.0	6.222689766561101e+17
19512.0	6.235200654671866e+17
19513.0	6.233640644815524e+17
19514.0	6.23521001216409e+17
19515.0	6.239881731418796e+17
19516.0	6.240289615598931e+17
19517.0	6.240362432910675e+17
19518.0	6.240419752968191e+17
19519.0	6.242052459899561e+17
19520.0	6.242266753182377e+17
19521.0	6.242171299910995e+17
19522.0	6.242014909693952e+17
19523.0	6.241841656976724e+17
19524.0	6.242151971160061e+17
19525.0	6.242937302854313e+17
19526.0	6.242650220920831e+17
19527.0	6.24235733057536e+17
19528.0	6.242317010731007e+17
19529.0	6.24193072861457e+17
19530.0	6.241516441829376e+17
19531.0	6.241073893823827e+17
19532.0	6.241249665220608e+17
19533.0	6.241386411414868e+17
19534.0	6.240867791317674e+17
19535.0	6.240324516402515e+17
19536.0	6.239754767739561e+17
19537.0	6.239186325602304e+17
19538.0	6.238564933872298e+17
19539.0	6.237793170052436e+17
19540.0	6.237319510097919e+17
19541.0	6.236673467045203e+17
19542.0	6.236001284390911e+17
19543.0	6.235315575106218e+17
19544.0	6.234758423336276e+17
19545.0	6.234764716889427e+17
19546.0	6.23387861983778e+17
19547.0	6.233414713737215e+17
19548.0	6.232657812433577e+17
19549.0	6.231856283735379e+17
19550.0	6.231106924489385e+17
19551.0	6.230314705048916e+17
19552.0	6.229510471024639e+17
19553.0	6.22868967858722e+17
19554.0	6.227860017293993e+17
19555.0	6.227033480757248e+17
19556.0	6.22619500093986e+17
19557.0	6.225341385277439e+17
19558.0	6.224481062922922e+17
19559.0	6.223608158355455e+17
19560.0	6.222725989269503e+17
19561.0	6.221840882073599e+17
19562.0	6.220957764375891e+17
19563.0	6.22005747519761e+17
19564.0	6.219151383199743e+17
19565.0	6.218238226595839e+17
19566.0	6.217312172507135e+17
19567.0	6.216391768145919e+17
19568.0	6.215451467404627e+17
19569.0	6.214546056282112e+17
19570.0	6.214319543593641e+17
19571.0	6.21336908145186e+17
19572.0	6.212405231091711e+17
19573.0	6.211449276508842e+17
19574.0	6.210459829010431e+17
19575.0	6.209521344402771e+17
19576.0	6.208547799607978e+17
19577.0	6.20755822907665e+17
19578.0	6.206573988806655e+17
19579.0	6.205592434988371e+17
19580.0	6.204603124503892e+17
19581.0	6.203610481644884e+17
19582.0	6.202617960420692e+17
19583.0	6.201616449404927e+17
19584.0	6.200607095040682e+17
19585.0	6.199567225017684e+17
19586.0	6.198539918333268e+17
19587.0	6.197519217677652e+17
19588.0	6.196410394694995e+17
19589.0	6.195519885934591e+17
19590.0	6.194486504499882e+17
19591.0	6.193488806106452e+17
19592.0	6.192460192197289e+17
19593.0	6.191422669586431e+17
19594.0	6.190307673986387e+17
19595.0	6.18934954955025e+17
19596.0	6.186979553181696e+17
19597.0	6.18726074491426e+17
19598.0	6.186143176108714e+17
19599.0	6.185193090056191e+17
19600.0	6.184146235118931e+17
19601.0	6.183075664887808e+17
19602.0	6.182032468082688e+17
19603.0	6.180735071289343e+17
19604.0	6.179914350155092e+17
19605.0	6.178787124663636e+17
19606.0	6.177822327788884e+17
19607.0	6.176764721452371e+17
19608.0	6.175700514679465e+17
19609.0	6.174623238455295e+17
19610.0	6.173576357653161e+17
19611.0	6.172508697569961e+17
19612.0	6.171443514223272e+17
19613.0	6.170374485398868e+17
19614.0	6.16929183067887e+17
19615.0	6.168233098171732e+17
19616.0	6.167087601593001e+17
19617.0	6.166087183892477e+17
19618.0	6.164849005778259e+17
19619.0	6.163724788301821e+17
19620.0	6.162659104434857e+17
19621.0	6.161783149909331e+17
19622.0	6.160704281946794e+17
19623.0	6.159624446498132e+17
19624.0	6.158543568764928e+17
19625.0	6.157460432399018e+17
19626.0	6.156378664075264e+17
19627.0	6.155294718907731e+17
19628.0	6.154013768679423e+17
19629.0	6.153095532074324e+17
19630.0	6.151783502752426e+17
19631.0	6.141882960008531e+17
19632.0	6.149857929243305e+17
19633.0	6.148758364487679e+17
19634.0	6.147688011661311e+17
19635.0	6.146585964576767e+17
19636.0	6.145508900864e+17
19637.0	6.144294826016767e+17
19638.0	6.143324322791423e+17
19639.0	6.142230230204416e+17
19640.0	6.141119015769427e+17
19641.0	6.139837092462592e+17
19642.0	6.138955324631721e+17
19643.0	6.137855113254228e+17
19644.0	6.136747194843135e+17
19645.0	6.13558776828177e+17
19646.0	6.134576027358548e+17
19647.0	6.133479994206889e+17
19648.0	6.132383537430527e+17
19649.0	6.131285769934163e+17
19650.0	6.130189308963497e+17
19651.0	6.129091700850687e+17
19652.0	6.127993644646399e+17
19653.0	6.126890974707712e+17
19654.0	6.125796515119103e+17
19655.0	6.124696029713748e+17
19656.0	6.123595828822015e+17
19657.0	6.122498308090538e+17
19658.0	6.121398379828564e+17
19659.0	6.12029756936465e+17
19660.0	6.11919754952704e+17
19661.0	6.118096751646035e+17
19662.0	6.116995678339072e+17
19663.0	6.115878719105706e+17
19664.0	6.114758209394006e+17
19665.0	6.113691151892479e+17
