# Flux units: erg / (cm m2 s)
# Wavelength units: Angstrom
wave	flux
19000.0	7.051341996927657e+17
19001.0	7.049986161595731e+17
19002.0	7.048717404209151e+17
19003.0	7.047403612580522e+17
19004.0	7.046090043250004e+17
19005.0	7.044777858039807e+17
19006.0	7.043463948970666e+17
19007.0	7.042047354950995e+17
19008.0	7.040809330627923e+17
19009.0	7.039480516400467e+17
19010.0	7.038015412458836e+17
19011.0	7.036866975673002e+17
19012.0	7.035353600884735e+17
19013.0	7.034263857790975e+17
19014.0	7.032917179323732e+17
19015.0	7.031613523929769e+17
19016.0	7.030292875313151e+17
19017.0	7.028987985395711e+17
19018.0	7.027666586697725e+17
19019.0	7.026368752997715e+17
19020.0	7.025037127887529e+17
19021.0	7.023733623488511e+17
19022.0	7.022423826934442e+17
19023.0	7.021088179486719e+17
19024.0	7.019777641239891e+17
19025.0	7.018453199574356e+17
19026.0	7.01712309559842e+17
19027.0	7.015640067298643e+17
19028.0	7.014525609268564e+17
19029.0	7.013208873238528e+17
19030.0	7.011892470655657e+17
19031.0	7.010575725537962e+17
19032.0	7.009258811949055e+17
19033.0	7.007902293644628e+17
19034.0	7.006624121443668e+17
19035.0	7.005280576121513e+17
19036.0	6.99049759159091e+17
19037.0	7.002668497808042e+17
19038.0	7.001345532537513e+17
19039.0	7.000040206412457e+17
19040.0	6.998723413759316e+17
19041.0	6.99740581929506e+17
19042.0	6.996054076904787e+17
19043.0	6.99477305467426e+17
19044.0	6.993453751031123e+17
19045.0	6.992131731576148e+17
19046.0	6.990799807272276e+17
19047.0	6.98949667197201e+17
19048.0	6.988101534613503e+17
19049.0	6.986841972539392e+17
19050.0	6.985534586312019e+17
19051.0	6.982245865400998e+17
19052.0	6.982522075698516e+17
19053.0	6.981576534174377e+17
19054.0	6.980285042262015e+17
19055.0	6.978856882449066e+17
19056.0	6.977642857234431e+17
19057.0	6.976328672040275e+17
19058.0	6.974988898795519e+17
19059.0	6.973701074802004e+17
19060.0	6.972374887606953e+17
19061.0	6.97106854506223e+17
19062.0	6.969749827223551e+17
19063.0	6.968434028620457e+17
19064.0	6.967067376877568e+17
19065.0	6.965723802195286e+17
19066.0	6.964459055262377e+17
19067.0	6.963167988372819e+17
19068.0	6.961852743417855e+17
19069.0	6.960536674282153e+17
19070.0	6.95920992854562e+17
19071.0	6.957898292090198e+17
19072.0	6.956586072626516e+17
19073.0	6.955270264935763e+17
19074.0	6.953956689313791e+17
19075.0	6.952640817310377e+17
19076.0	6.951316047091027e+17
19077.0	6.950003375341567e+17
19078.0	6.948681272699561e+17
19079.0	6.947378004579668e+17
19080.0	6.946058681363113e+17
19081.0	6.944730183106559e+17
19082.0	6.943411914058409e+17
19083.0	6.942064875580073e+17
19084.0	6.940694820858538e+17
19085.0	6.939484648811178e+17
19086.0	6.937989891839316e+17
19087.0	6.936446667587583e+17
19088.0	6.935483419110057e+17
19089.0	6.933930167675561e+17
19090.0	6.932891007888041e+17
19091.0	6.931580895363071e+17
19092.0	6.930163126239231e+17
19093.0	6.928966369673215e+17
19094.0	6.927644797610666e+17
19095.0	6.926328593558185e+17
19096.0	6.925014608292521e+17
19097.0	6.923708819395923e+17
19098.0	6.922397307371519e+17
19099.0	6.921083090021033e+17
19100.0	6.919749065069908e+17
19101.0	6.918447181070335e+17
19102.0	6.917101904898729e+17
19103.0	6.915828957402452e+17
19104.0	6.914515398557695e+17
19105.0	6.913200965200553e+17
19106.0	6.911813491534506e+17
19107.0	6.910567139420841e+17
19108.0	6.909259103775401e+17
19109.0	6.906721103162024e+17
19110.0	6.906591004240553e+17
19111.0	6.905322747374249e+17
19112.0	6.904010971108692e+17
19113.0	6.902698632806397e+17
19114.0	6.901386086886057e+17
19115.0	6.900035604884137e+17
19116.0	6.89875091263761e+17
19117.0	6.897437365676714e+17
19118.0	6.896032031266134e+17
19119.0	6.893380894195708e+17
19120.0	6.893401235172009e+17
19121.0	6.892116663162195e+17
19122.0	6.890889062383615e+17
19123.0	6.889576237542057e+17
19124.0	6.888196186395987e+17
19125.0	6.886940483780607e+17
19126.0	6.885633883286185e+17
19127.0	6.883584144397652e+17
19128.0	6.882397886174547e+17
19129.0	6.88167234708002e+17
19130.0	6.880392158816938e+17
19131.0	6.879065164917417e+17
19132.0	6.877772910340777e+17
19133.0	6.876269448790016e+17
19134.0	6.874882309969236e+17
19135.0	6.87383805759761e+17
19136.0	6.872531886320297e+17
19137.0	6.871150773316265e+17
19138.0	6.869873605651114e+17
19139.0	6.868598330316116e+17
19140.0	6.867289961922559e+17
19141.0	6.865979636886185e+17
19142.0	6.864658732417024e+17
19143.0	6.863337332320938e+17
19144.0	6.862044040353107e+17
19145.0	6.860733575506602e+17
19146.0	6.85916126375663e+17
19147.0	6.858075189280767e+17
19148.0	6.85680098559044e+17
19149.0	6.855492945750698e+17
19150.0	6.854184016718506e+17
19151.0	6.852878320096596e+17
19152.0	6.851552140591103e+17
19153.0	6.850250799753898e+17
19154.0	6.848893708926973e+17
19155.0	6.847639183512916e+17
19156.0	6.846326508268202e+17
19157.0	6.844992420402516e+17
19158.0	6.84286789637461e+17
19159.0	6.842383349405011e+17
19160.0	6.841070014256467e+17
19161.0	6.839720689183402e+17
19162.0	6.836574144692224e+17
19163.0	6.837096295694336e+17
19164.0	6.835851025711103e+17
19165.0	6.834507168612351e+17
19166.0	6.833141624864767e+17
19167.0	6.831743466209279e+17
19168.0	6.830587151122431e+17
19169.0	6.829258896834559e+17
19170.0	6.827993614428842e+17
19171.0	6.826575573374291e+17
19172.0	6.82536539783168e+17
19173.0	6.824061690008916e+17
19174.0	6.822735372790442e+17
19175.0	6.821450578482518e+17
19176.0	6.820140839250602e+17
19177.0	6.818764622397437e+17
19178.0	6.817470831307434e+17
19179.0	6.816058818166783e+17
19180.0	6.814843878593876e+17
19181.0	6.813544884469759e+17
19182.0	6.812267012860585e+17
19183.0	6.810964275320146e+17
19184.0	6.809633352755881e+17
19185.0	6.808349290354003e+17
19186.0	6.807041876164605e+17
19187.0	6.805704523732308e+17
19188.0	6.804414228594687e+17
19189.0	6.803082202229417e+17
19190.0	6.801763780089172e+17
19191.0	6.80046115299874e+17
19192.0	6.799174269228372e+17
19193.0	6.797835994748244e+17
19194.0	6.796536180637696e+17
19195.0	6.795238769863337e+17
19196.0	6.79392340746786e+17
19197.0	6.792602672868009e+17
19198.0	6.791250397102079e+17
19199.0	6.77883155928405e+17
19200.0	6.780845103426222e+17
19201.0	6.787323421261823e+17
19202.0	6.786050417841492e+17
19203.0	6.78472084094976e+17
19204.0	6.783428377356969e+17
19205.0	6.782128053638484e+17
19206.0	6.780810537467901e+17
19207.0	6.779465275976361e+17
19208.0	6.778107926500692e+17
19209.0	6.776879172288511e+17
19210.0	6.77556560924945e+17
19211.0	6.774251339470164e+17
19212.0	6.772937257735508e+17
19213.0	6.771502331811155e+17
19214.0	6.770127759824212e+17
19215.0	6.768946946506751e+17
19216.0	6.767675555097257e+17
19217.0	6.766363592185172e+17
19218.0	6.764688701041321e+17
19219.0	6.763661821476863e+17
19220.0	6.762398858521257e+17
19221.0	6.76095555866897e+17
19222.0	6.759777812785833e+17
19223.0	6.758463279464447e+17
19224.0	6.757129622913023e+17
19225.0	6.755764622327807e+17
19226.0	6.754502777853268e+17
19227.0	6.753181985232212e+17
19228.0	6.751872292836691e+17
19229.0	6.750552332784979e+17
19230.0	6.749207285202943e+17
19231.0	6.747895299222185e+17
19232.0	6.746582250684415e+17
19233.0	6.745236994086227e+17
19234.0	6.743936100641449e+17
19235.0	6.742613873568425e+17
19236.0	6.74130051605026e+17
19237.0	6.739969940914175e+17
19238.0	6.738596532846591e+17
19239.0	6.737328041798314e+17
19240.0	6.735960244311379e+17
19241.0	6.734652285561514e+17
19242.0	6.733341297126057e+17
19243.0	6.731948196801193e+17
19244.0	6.730695119121066e+17
19245.0	6.729366503423999e+17
19246.0	6.728030218442067e+17
19247.0	6.726706180827818e+17
19248.0	6.72537618031138e+17
19249.0	6.724043910676479e+17
19250.0	6.722709149625002e+17
19251.0	6.721319710927529e+17
19252.0	6.719923261450921e+17
19253.0	6.718705202014889e+17
19254.0	6.717367300128768e+17
19255.0	6.715958833272148e+17
19256.0	6.71466346582289e+17
19257.0	6.713358928926036e+17
19258.0	6.712021313650687e+17
19259.0	6.710650236917076e+17
19260.0	6.709114437981523e+17
19261.0	6.707996607731027e+17
19262.0	6.706631776316074e+17
19263.0	6.705280762336596e+17
19264.0	6.703736772624383e+17
19265.0	6.702533155575123e+17
19266.0	6.701196470037162e+17
19267.0	6.699917374390271e+17
19268.0	6.698566486938964e+17
19269.0	6.697214215367337e+17
19270.0	6.695859601276927e+17
19271.0	6.694364306036052e+17
19272.0	6.693133302977876e+17
19273.0	6.69055925232162e+17
19274.0	6.689688364515327e+17
19275.0	6.689070617635497e+17
19276.0	6.687699800249684e+17
19277.0	6.686344750650708e+17
19278.0	6.684979032839508e+17
19279.0	6.683593033471315e+17
19280.0	6.682209017309866e+17
19281.0	6.680861957160959e+17
19282.0	6.679494871307603e+17
19283.0	6.677948821493076e+17
19284.0	6.676521893407401e+17
19285.0	6.675277748895741e+17
19286.0	6.673970647881044e+17
19287.0	6.672602753925119e+17
19288.0	6.667265618127525e+17
19289.0	6.661339743256563e+17
19290.0	6.668441210235561e+17
19291.0	6.666935944435028e+17
19292.0	6.66565657895458e+17
19293.0	6.664256502104061e+17
19294.0	6.662860722317994e+17
19295.0	6.661458697213267e+17
19296.0	6.660053837458089e+17
19297.0	6.658639053979647e+17
19298.0	6.65722785173777e+17
19299.0	6.655822278950911e+17
19300.0	6.654404752397652e+17
19301.0	6.652982781280255e+17
19302.0	6.651554580922367e+17
19303.0	6.650101988589567e+17
19304.0	6.64868647739938e+17
19305.0	6.647264028131327e+17
19306.0	6.645832003267241e+17
19307.0	6.644359258002771e+17
19308.0	6.642923966474921e+17
19309.0	6.641103107260415e+17
19310.0	6.639522532731561e+17
19311.0	6.63852656239138e+17
19312.0	6.636638333566975e+17
19313.0	6.634935844601855e+17
19314.0	6.625034098092719e+17
19315.0	6.6239412498159e+17
19316.0	6.630486702380372e+17
19317.0	6.629039913566205e+17
19318.0	6.627544240138921e+17
19319.0	6.626058602982057e+17
19320.0	6.624557452492799e+17
19321.0	6.623054943049044e+17
19322.0	6.621475696716458e+17
19323.0	6.619857191698431e+17
19324.0	6.618528276108628e+17
19325.0	6.616655518673577e+17
19326.0	6.615469507215359e+17
19327.0	6.613929437779284e+17
19328.0	6.612388220502015e+17
19329.0	6.610833850586452e+17
19330.0	6.609254908340905e+17
19331.0	6.607682169470976e+17
19332.0	6.60612155773201e+17
19333.0	6.60453199061538e+17
19334.0	6.6029414776832e+17
19335.0	6.60134249505314e+17
19336.0	6.599730484914858e+17
19337.0	6.598108771254271e+17
19338.0	6.596391017818793e+17
19339.0	6.594844603798868e+17
19340.0	6.593170638198099e+17
19341.0	6.591526830342143e+17
19342.0	6.589688805239465e+17
19343.0	6.588187972818259e+17
19344.0	6.586498607830358e+17
19345.0	6.584007361123667e+17
19346.0	6.582702842402131e+17
19347.0	6.581329699274751e+17
19348.0	6.57962373812497e+17
19349.0	6.57786102874112e+17
19350.0	6.575680182201001e+17
19351.0	6.57327078384162e+17
19352.0	6.571455450622634e+17
19353.0	6.569678300250111e+17
19354.0	6.567854171575636e+17
19355.0	6.565977149232468e+17
19356.0	6.564155024736255e+17
19357.0	6.562280618240681e+17
19358.0	6.560375848479402e+17
19359.0	6.558412616411817e+17
19360.0	6.556529698974377e+17
19361.0	6.554583000154111e+17
19362.0	6.55263067677218e+17
19363.0	6.550639449123498e+17
19364.0	6.548626021023743e+17
19365.0	6.546453257606484e+17
19366.0	6.54340329115921e+17
19367.0	6.540850095281492e+17
19368.0	6.538739325774506e+17
19369.0	6.536565136293887e+17
19370.0	6.534299118119593e+17
19371.0	6.532219319353343e+17
19372.0	6.5300175795869e+17
19373.0	6.527754484143444e+17
19374.0	6.525476493328383e+17
19375.0	6.522278370781865e+17
19376.0	6.518907321275731e+17
19377.0	6.516501984400723e+17
19378.0	6.51404721136162e+17
19379.0	6.511560349799764e+17
19380.0	6.509035365509801e+17
19381.0	6.505930413834237e+17
19382.0	6.501425284644864e+17
19383.0	6.498727230089898e+17
19384.0	6.496040347063636e+17
19385.0	6.493247996166143e+17
19386.0	6.488627578142719e+17
19387.0	6.484543135547391e+17
19388.0	6.481552332554237e+17
19389.0	6.47837448806946e+17
19390.0	6.471833302510249e+17
19391.0	6.457384490063173e+17
19392.0	6.464629651101005e+17
19393.0	6.457741146412371e+17
19394.0	6.454220160324948e+17
19395.0	6.447367187682641e+17
19396.0	6.441977716757844e+17
19397.0	6.434819854565368e+17
19398.0	6.42849900208674e+17
19399.0	6.421434199616166e+17
19400.0	6.416761677851306e+17
19401.0	6.412300681128618e+17
19402.0	6.407641627273897e+17
19403.0	6.402449166303231e+17
19404.0	6.397547570528255e+17
19405.0	6.392478244536319e+17
19406.0	6.387253563621376e+17
19407.0	6.381873185947647e+17
19408.0	6.376010285056e+17
19409.0	6.370517841171795e+17
19410.0	6.364563260484265e+17
19411.0	6.357835482923005e+17
19412.0	6.351127856895316e+17
19413.0	6.344522970344105e+17
19414.0	6.337669877465087e+17
19415.0	6.330192342898003e+17
19416.0	6.321766259490815e+17
19417.0	6.314036180986537e+17
19418.0	6.305360543481855e+17
19419.0	6.296030380643667e+17
19420.0	6.28628574507281e+17
19421.0	6.275727864015529e+17
19422.0	6.26342267785489e+17
19423.0	6.250630474279593e+17
19424.0	6.23609389112798e+17
19425.0	6.219291223392253e+17
19426.0	6.199028688966993e+17
19427.0	6.17487667228399e+17
19428.0	6.145893185792678e+17
19429.0	6.126475258363903e+17
19430.0	6.108510864889174e+17
19431.0	6.087969624555523e+17
19432.0	6.069750717917865e+17
19433.0	6.048670226404694e+17
19434.0	6.025822904603988e+17
19435.0	6.001692429866323e+17
19436.0	5.975594235854848e+17
19437.0	5.948493685675347e+17
19438.0	5.902830291036845e+17
19439.0	5.877130911023101e+17
19440.0	5.827793164173316e+17
19441.0	5.7622886780764096e+17
19442.0	5.709029677116075e+17
19443.0	5.654948566007806e+17
19444.0	5.592087482684752e+17
19445.0	5.513917787450031e+17
19446.0	5.41001465724928e+17
19447.0	5.293406044902734e+17
19448.0	5.1505120215913894e+17
19449.0	4.9478012869017606e+17
19450.0	4.6345039314069696e+17
19451.0	4.546043341438977e+17
19452.0	4.7966427091217114e+17
19453.0	5.0589408232297894e+17
19454.0	5.224613018948943e+17
19455.0	5.3460375059824576e+17
19456.0	5.458058185190055e+17
19457.0	5.545115270862164e+17
19458.0	5.6002044766453894e+17
19459.0	5.667057333611184e+17
19460.0	5.716903188933287e+17
19461.0	5.776511348331866e+17
19462.0	5.832738839986176e+17
19463.0	5.873528435201361e+17
19464.0	5.906084808796841e+17
19465.0	5.933657567002625e+17
19466.0	5.957820370037416e+17
19467.0	5.979967994549588e+17
19468.0	6.001476824465409e+17
19469.0	6.020747603126953e+17
19470.0	6.03902331462178e+17
19471.0	6.05634175172608e+17
19472.0	6.072238719631359e+17
19473.0	6.087366561234945e+17
19474.0	6.109879559258113e+17
19475.0	6.135105164673028e+17
19476.0	6.15407810720563e+17
19477.0	6.169795384836096e+17
19478.0	6.183353688522753e+17
19479.0	6.194747562175141e+17
19480.0	6.204498470327639e+17
19481.0	6.212702273798144e+17
19482.0	6.221485610543785e+17
19483.0	6.227640475538771e+17
19484.0	6.235159835705343e+17
19485.0	6.240547634500947e+17
19486.0	6.245875729476266e+17
19487.0	6.251781038975658e+17
19488.0	6.256326257322665e+17
19489.0	6.260572226759338e+17
19490.0	6.264192881393661e+17
19491.0	6.269196264538111e+17
19492.0	6.273028128243712e+17
19493.0	6.276460613118633e+17
19494.0	6.279697294600874e+17
19495.0	6.282729250007721e+17
19496.0	6.285454373901652e+17
19497.0	6.288293770909011e+17
19498.0	6.289198956238164e+17
19499.0	6.276053510477135e+17
19500.0	6.295931309785087e+17
19501.0	6.298047051639466e+17
19502.0	6.300020303200255e+17
19503.0	6.303807407390719e+17
19504.0	6.306599341654015e+17
19505.0	6.312445762426198e+17
19506.0	6.314862016375466e+17
19507.0	6.319530169073667e+17
19508.0	6.321884301186388e+17
19509.0	6.323887181310629e+17
19510.0	6.327723421073408e+17
19511.0	6.310860883143332e+17
19512.0	6.327166861399375e+17
19513.0	6.328394090282999e+17
19514.0	6.330169583206394e+17
19515.0	6.334124063195136e+17
19516.0	6.336543295799292e+17
19517.0	6.338058495808852e+17
19518.0	6.33839946895633e+17
19519.0	6.338652221210623e+17
19520.0	6.338861512086868e+17
19521.0	6.340863368800938e+17
19522.0	6.341371694678015e+17
19523.0	6.34143749841442e+17
19524.0	6.341453065573716e+17
19525.0	6.341419083322708e+17
19526.0	6.341365624821076e+17
19527.0	6.341702143617704e+17
19528.0	6.342894071840765e+17
19529.0	6.342719808995328e+17
19530.0	6.342514938915498e+17
19531.0	6.342277112091988e+17
19532.0	6.342011871297533e+17
19533.0	6.341731113675433e+17
19534.0	6.341409025381716e+17
19535.0	6.341061228101632e+17
19536.0	6.340673389199359e+17
19537.0	6.340758252552193e+17
19538.0	6.341162531028991e+17
19539.0	6.340550561103872e+17
19540.0	6.340288628916223e+17
19541.0	6.339815146520575e+17
19542.0	6.339343787141801e+17
19543.0	6.338926412649812e+17
19544.0	6.338381750818132e+17
19545.0	6.337614007937706e+17
19546.0	6.336879173566464e+17
19547.0	6.336641902488233e+17
19548.0	6.336028196121257e+17
19549.0	6.335360148351657e+17
19550.0	6.334759234611882e+17
19551.0	6.334102843512148e+17
19552.0	6.333430914613247e+17
19553.0	6.332735559128404e+17
19554.0	6.332032962177705e+17
19555.0	6.331718212517884e+17
19556.0	6.331568843565737e+17
19557.0	6.330829771549353e+17
19558.0	6.330082851990185e+17
19559.0	6.329321552259754e+17
19560.0	6.328543631900671e+17
19561.0	6.327769480123731e+17
19562.0	6.326987136172032e+17
19563.0	6.326187408228351e+17
19564.0	6.325378954035199e+17
19565.0	6.324561124174505e+17
19566.0	6.323725909622783e+17
19567.0	6.32289805607458e+17
19568.0	6.3220430157469e+17
19569.0	6.321199943865684e+17
19570.0	6.320343932556628e+17
19571.0	6.319474307934889e+17
19572.0	6.318589451698175e+17
19573.0	6.31771006902818e+17
19574.0	6.316792728606035e+17
19575.0	6.315936506183679e+17
19576.0	6.315035520051881e+17
19577.0	6.314118463444308e+17
19578.0	6.313195034989908e+17
19579.0	6.312282618680659e+17
19580.0	6.311357160183124e+17
19581.0	6.310429720575999e+17
19582.0	6.309499827301033e+17
19583.0	6.308557864217257e+17
19584.0	6.307606967965012e+17
19585.0	6.306611794542591e+17
19586.0	6.305633683548841e+17
19587.0	6.304670802072916e+17
19588.0	6.303574933897215e+17
19589.0	6.302788939502932e+17
19590.0	6.301793172586495e+17
19591.0	6.30085281452305e+17
19592.0	6.299871185906345e+17
19593.0	6.298876404651348e+17
19594.0	6.297786039402495e+17
19595.0	6.296880446526804e+17
19596.0	6.29451033411584e+17
19597.0	6.29484152754449e+17
19598.0	6.293767068494506e+17
19599.0	6.29289320063522e+17
19600.0	6.291882728488959e+17
19601.0	6.290839255558826e+17
19602.0	6.289828162655572e+17
19603.0	6.288493017825279e+17
19604.0	6.287761557771604e+17
19605.0	6.286656968938836e+17
19606.0	6.285754054825299e+17
19607.0	6.284725626863615e+17
19608.0	6.283689990291455e+17
19609.0	6.282637096255487e+17
19610.0	6.281618256472745e+17
19611.0	6.280575327404031e+17
19612.0	6.28007147545122e+17
19613.0	6.279116838578857e+17
19614.0	6.278050689144148e+17
19615.0	6.277014671589375e+17
19616.0	6.275866771674451e+17
19617.0	6.274913309207209e+17
19618.0	6.273618552029183e+17
19619.0	6.272510796496895e+17
19620.0	6.27146135577122e+17
19621.0	6.270679140444842e+17
19622.0	6.26961639678498e+17
19623.0	6.268551895711744e+17
19624.0	6.267485708528298e+17
19625.0	6.266416631469396e+17
19626.0	6.265347812360191e+17
19627.0	6.264274494859946e+17
19628.0	6.262935610807638e+17
19629.0	6.262085939888127e+17
19630.0	6.260205275490985e+17
19631.0	6.248046990633642e+17
19632.0	6.258885171434836e+17
19633.0	6.257801491906557e+17
19634.0	6.256742342765225e+17
19635.0	6.255644305435306e+17
19636.0	6.254580114041513e+17
19637.0	6.253327637544959e+17
19638.0	6.252408329994239e+17
19639.0	6.251318177955837e+17
19640.0	6.250191696953344e+17
19641.0	6.248866271723519e+17
19642.0	6.248062999592959e+17
19643.0	6.246970470782292e+17
19644.0	6.245854400042324e+17
19645.0	6.244675102266707e+17
19646.0	6.243698276827136e+17
19647.0	6.242604941311999e+17
19648.0	6.241510743867391e+17
19649.0	6.240414492611924e+17
19650.0	6.239319862454953e+17
19651.0	6.238223223226367e+17
19652.0	6.237125852790783e+17
19653.0	6.236026944443732e+17
19654.0	6.23492905111825e+17
19655.0	6.233827528321706e+17
19656.0	6.232726513035945e+17
19657.0	6.231628672838313e+17
19658.0	6.230527351368362e+17
19659.0	6.229424639486633e+17
19660.0	6.22832278114577e+17
19661.0	6.227219614881108e+17
19662.0	6.226115834150911e+17
19663.0	6.224987107797673e+17
19664.0	6.223862326187348e+17
19665.0	6.222801547558912e+17
