# Flux units: erg / (cm m2 s)
# Wavelength units: Angstrom
wave	flux
19000.0	6.975753168093183e+17
19001.0	6.974154902689107e+17
19002.0	6.973149474892457e+17
19003.0	6.97182755959603e+17
19004.0	6.970514288760148e+17
19005.0	6.969199236044116e+17
19006.0	6.96789581832738e+17
19007.0	6.966367676792832e+17
19008.0	6.965088144239273e+17
19009.0	6.963822016681299e+17
19010.0	6.961199571446438e+17
19011.0	6.961265945608191e+17
19012.0	6.959491974518099e+17
19013.0	6.958718512005119e+17
19014.0	6.957230010138623e+17
19015.0	6.955996375154687e+17
19016.0	6.954654584449705e+17
19017.0	6.953307701160617e+17
19018.0	6.952126356564649e+17
19019.0	6.950839136550912e+17
19020.0	6.949429079354026e+17
19021.0	6.948194086114644e+17
19022.0	6.946938898000553e+17
19023.0	6.945513093289299e+17
19024.0	6.944263633895423e+17
19025.0	6.942990409575081e+17
19026.0	6.941603502140073e+17
19027.0	6.940109128247978e+17
19028.0	6.939090443654484e+17
19029.0	6.93772962828561e+17
19030.0	6.936507990409215e+17
19031.0	6.935217983280468e+17
19032.0	6.933900519538687e+17
19033.0	6.93230952845585e+17
19034.0	6.931235864925524e+17
19035.0	6.929867590686035e+17
19036.0	6.905579588375881e+17
19037.0	6.9273287917568e+17
19038.0	6.925988301286057e+17
19039.0	6.924739663975766e+17
19040.0	6.923447449245012e+17
19041.0	6.922121828980052e+17
19042.0	6.920557764629843e+17
19043.0	6.919524211228672e+17
19044.0	6.918189955590825e+17
19045.0	6.916909439472979e+17
19046.0	6.915419544398506e+17
19047.0	6.914287078823252e+17
19048.0	6.912338525421565e+17
19049.0	6.911475768273576e+17
19050.0	6.910232763214506e+17
19051.0	6.905308625152676e+17
19052.0	6.907381522890751e+17
19053.0	6.906412517730985e+17
19054.0	6.905139670898003e+17
19055.0	6.903074940867927e+17
19056.0	6.902471253295103e+17
19057.0	6.901220778879657e+17
19058.0	6.899845810530985e+17
19059.0	6.898631021253972e+17
19060.0	6.897263357984765e+17
19061.0	6.896036029136895e+17
19062.0	6.894715460911101e+17
19063.0	6.893422644297727e+17
19064.0	6.89171746328849e+17
19065.0	6.890258556431017e+17
19066.0	6.889322146605737e+17
19067.0	6.888169141523796e+17
19068.0	6.886900993709396e+17
19069.0	6.885606291756371e+17
19070.0	6.884212095320063e+17
19071.0	6.882976399534761e+17
19072.0	6.8816967055005e+17
19073.0	6.880374453261652e+17
19074.0	6.879101749035007e+17
19075.0	6.877799688874665e+17
19076.0	6.876429222412287e+17
19077.0	6.875164652339199e+17
19078.0	6.87373993325363e+17
19079.0	6.872582739460093e+17
19080.0	6.871240889335807e+17
19081.0	6.869844775403519e+17
19082.0	6.868524026123604e+17
19083.0	6.867038708432893e+17
19084.0	6.865343337900714e+17
19085.0	6.864741237172906e+17
19086.0	6.862275689665876e+17
19087.0	6.861459027918847e+17
19088.0	6.860642685637972e+17
19089.0	6.858637339262976e+17
19090.0	6.858180842400425e+17
19091.0	6.8568968869533e+17
19092.0	6.855339201440426e+17
19093.0	6.854372262674431e+17
19094.0	6.853070041732435e+17
19095.0	6.851781183143935e+17
19096.0	6.850425339423402e+17
19097.0	6.84918732488704e+17
19098.0	6.847879555579903e+17
19099.0	6.846574900543487e+17
19100.0	6.845250255454207e+17
19101.0	6.843988319404031e+17
19102.0	6.842411275780093e+17
19103.0	6.841385409839101e+17
19104.0	6.840111228518399e+17
19105.0	6.838797819969535e+17
19106.0	6.837379833440938e+17
19107.0	6.836158656937983e+17
19108.0	6.834920613041491e+17
19109.0	6.831385061534373e+17
19110.0	6.83230487519778e+17
19111.0	6.831026034704383e+17
19112.0	6.829738681871017e+17
19113.0	6.828437475950591e+17
19114.0	6.827131954091348e+17
19115.0	6.825665669453139e+17
19116.0	6.824486312258217e+17
19117.0	6.823192662376447e+17
19118.0	6.821613518804307e+17
19119.0	6.81129870395527e+17
19120.0	6.819130897683796e+17
19121.0	6.817947542618111e+17
19122.0	6.816790162877098e+17
19123.0	6.815475205231956e+17
19124.0	6.814066551029759e+17
19125.0	6.812878293521748e+17
19126.0	6.811576546536106e+17
19127.0	6.805170630776145e+17
19128.0	6.807533471662076e+17
19129.0	6.807457693870761e+17
19130.0	6.80638922498594e+17
19131.0	6.805089282250067e+17
19132.0	6.803842334545236e+17
19133.0	6.801370064267948e+17
19134.0	6.800552665721514e+17
19135.0	6.799955308751529e+17
19136.0	6.798688942817279e+17
19137.0	6.796903840743423e+17
19138.0	6.795965008707583e+17
19139.0	6.794807438125738e+17
19140.0	6.793523516233044e+17
19141.0	6.792232858288128e+17
19142.0	6.790852377225897e+17
19143.0	6.789463643171497e+17
19144.0	6.788240158403241e+17
19145.0	6.787048615357097e+17
19146.0	6.783943031040685e+17
19147.0	6.784209621002921e+17
19148.0	6.78317561881122e+17
19149.0	6.781878869338793e+17
19150.0	6.780580645568511e+17
19151.0	6.779310836809727e+17
19152.0	6.777986945996115e+17
19153.0	6.776681201838762e+17
19154.0	6.775070612171434e+17
19155.0	6.774165017198591e+17
19156.0	6.772869358245203e+17
19157.0	6.771546899786409e+17
19158.0	6.76875233219925e+17
19159.0	6.768949039464447e+17
19160.0	6.767637290461865e+17
19161.0	6.76628668752418e+17
19162.0	6.761670965723139e+17
19163.0	6.763815700703913e+17
19164.0	6.762574988531028e+17
19165.0	6.761199068774399e+17
19166.0	6.759602507655849e+17
19167.0	6.758380817350655e+17
19168.0	6.757162637677907e+17
19169.0	6.755938682448553e+17
19170.0	6.754846148045482e+17
19171.0	6.753348492110506e+17
19172.0	6.752245056012287e+17
19173.0	6.750981736540841e+17
19174.0	6.74952312188655e+17
19175.0	6.748414856047274e+17
19176.0	6.747114186997759e+17
19177.0	6.74538479297058e+17
19178.0	6.744496568707753e+17
19179.0	6.74297584619793e+17
19180.0	6.74177048711441e+17
19181.0	6.740364749351593e+17
19182.0	6.739276212819284e+17
19183.0	6.738102334783487e+17
19184.0	6.736593492639743e+17
19185.0	6.735501176340479e+17
19186.0	6.734262596272127e+17
19187.0	6.732727959857833e+17
19188.0	6.73166862197282e+17
19189.0	6.730345063907327e+17
19190.0	6.729049723021993e+17
19191.0	6.727707287093247e+17
19192.0	6.726545139127636e+17
19193.0	6.725147285957289e+17
19194.0	6.72387590782976e+17
19195.0	6.722671999276371e+17
19196.0	6.721349242322943e+17
19197.0	6.720082813474132e+17
19198.0	6.718779587996329e+17
19199.0	6.697277873018191e+17
19200.0	6.702970485167451e+17
19201.0	6.714938317165908e+17
19202.0	6.71369265221905e+17
19203.0	6.712369928820052e+17
19204.0	6.711040431620095e+17
19205.0	6.709808313576105e+17
19206.0	6.708504533751123e+17
19207.0	6.706985091203071e+17
19208.0	6.705346757612883e+17
19209.0	6.704647481152851e+17
19210.0	6.703381636011348e+17
19211.0	6.702137059486377e+17
19212.0	6.700848926512467e+17
19213.0	6.699149296664575e+17
19214.0	6.697738230737578e+17
19215.0	6.69692679369523e+17
19216.0	6.695676382893396e+17
19217.0	6.694406113460223e+17
19218.0	6.690672042049531e+17
19219.0	6.691370402054141e+17
19220.0	6.69048574644497e+17
19221.0	6.688266009619114e+17
19222.0	6.687992727644842e+17
19223.0	6.686636774872404e+17
19224.0	6.685226914108755e+17
19225.0	6.683668312839507e+17
19226.0	6.682769357449898e+17
19227.0	6.681482084308307e+17
19228.0	6.680276532985855e+17
19229.0	6.678989702343337e+17
19230.0	6.677617616180564e+17
19231.0	6.676334839332863e+17
19232.0	6.675059494791849e+17
19233.0	6.673619570655231e+17
19234.0	6.672473312810324e+17
19235.0	6.671152128021843e+17
19236.0	6.669983534110036e+17
19237.0	6.668636189447507e+17
19238.0	6.667107980105044e+17
19239.0	6.666125059642708e+17
19240.0	6.664339924014419e+17
19241.0	6.663334800304809e+17
19242.0	6.66218655715601e+17
19243.0	6.660410676259497e+17
19244.0	6.659671400819369e+17
19245.0	6.658366276020905e+17
19246.0	6.657037870738089e+17
19247.0	6.655761903342932e+17
19248.0	6.654505174521172e+17
19249.0	6.653207037433172e+17
19250.0	6.651864168093012e+17
19251.0	6.650293099255123e+17
19252.0	6.64839514104354e+17
19253.0	6.647973702270975e+17
19254.0	6.646681079294634e+17
19255.0	6.644851340039507e+17
19256.0	6.644045660378452e+17
19257.0	6.64285865976354e+17
19258.0	6.64156868898543e+17
19259.0	6.640037703712767e+17
19260.0	6.638564229338451e+17
19261.0	6.637638761753258e+17
19262.0	6.63620029583633e+17
19263.0	6.634927000911871e+17
19264.0	6.632195572979026e+17
19265.0	6.631908963603795e+17
19266.0	6.630700204337834e+17
19267.0	6.629887118934015e+17
19268.0	6.628561432958291e+17
19269.0	6.627259268639402e+17
19270.0	6.625964444352511e+17
19271.0	6.623428285038595e+17
19272.0	6.622680193870505e+17
19273.0	6.608479841506629e+17
19274.0	6.61334184305185e+17
19275.0	6.618877220530858e+17
19276.0	6.617509679595519e+17
19277.0	6.616203539076435e+17
19278.0	6.614910235923795e+17
19279.0	6.613473049269588e+17
19280.0	6.612015606224211e+17
19281.0	6.610955757333161e+17
19282.0	6.609686193242111e+17
19283.0	6.608051696041983e+17
19284.0	6.606491923862867e+17
19285.0	6.605085552061097e+17
19286.0	6.604312755044351e+17
19287.0	6.603105924459177e+17
19288.0	6.596022047692113e+17
19289.0	6.584893604975927e+17
19290.0	6.599152070819839e+17
19291.0	6.597033335630509e+17
19292.0	6.596507399269033e+17
19293.0	6.595158056719699e+17
19294.0	6.593816700125183e+17
19295.0	6.59252018553378e+17
19296.0	6.591164922025299e+17
19297.0	6.589749860324691e+17
19298.0	6.588412356198397e+17
19299.0	6.587165295247359e+17
19300.0	6.585821383622655e+17
19301.0	6.584455026879144e+17
19302.0	6.583087362910889e+17
19303.0	6.581509725792937e+17
19304.0	6.580272256516095e+17
19305.0	6.579017289302016e+17
19306.0	6.577674505945087e+17
19307.0	6.576175604301823e+17
19308.0	6.574890083680255e+17
19309.0	6.572909722075133e+17
19310.0	6.571222984119635e+17
19311.0	6.570743134770516e+17
19312.0	6.569479032362324e+17
19313.0	6.568034682535936e+17
19314.0	6.553481598992376e+17
19315.0	6.553008491986966e+17
19316.0	6.563977544859645e+17
19317.0	6.562605166493695e+17
19318.0	6.561203381862397e+17
19319.0	6.559859838637395e+17
19320.0	6.558436001054719e+17
19321.0	6.557064904747689e+17
19322.0	6.555313142497279e+17
19323.0	6.553894300330666e+17
19324.0	6.552813345002836e+17
19325.0	6.550798540472319e+17
19326.0	6.549986166702079e+17
19327.0	6.548524860702719e+17
19328.0	6.54715065082402e+17
19329.0	6.545717168439295e+17
19330.0	6.544146507147946e+17
19331.0	6.542694074198697e+17
19332.0	6.541363325698045e+17
19333.0	6.53985691345442e+17
19334.0	6.538402979643391e+17
19335.0	6.536971962111316e+17
19336.0	6.53548524212497e+17
19337.0	6.533478703169536e+17
19338.0	6.531127072959144e+17
19339.0	6.530247572149588e+17
19340.0	6.52854654140416e+17
19341.0	6.527204574538409e+17
19342.0	6.524504248767826e+17
19343.0	6.524186968544596e+17
19344.0	6.522604874279594e+17
19345.0	6.515076716560369e+17
19346.0	6.517489573123412e+17
19347.0	6.517781719678975e+17
19348.0	6.51640991453457e+17
19349.0	6.514713883399508e+17
19350.0	6.513142258117289e+17
19351.0	6.511503790309375e+17
19352.0	6.509785623734953e+17
19353.0	6.508392421348691e+17
19354.0	6.506747298578431e+17
19355.0	6.50479306469103e+17
19356.0	6.503421805505193e+17
19357.0	6.501727918358527e+17
19358.0	6.499557203159722e+17
19359.0	6.496617729359872e+17
19360.0	6.495463028381012e+17
19361.0	6.493719341563903e+17
19362.0	6.492098141705556e+17
19363.0	6.490313340922537e+17
19364.0	6.488503923070292e+17
19365.0	6.48667677729314e+17
19366.0	6.48484988527138e+17
19367.0	6.482990987214847e+17
19368.0	6.481112518535849e+17
19369.0	6.478860630971732e+17
19370.0	6.474484022946474e+17
19371.0	6.473525558072659e+17
19372.0	6.471705794969599e+17
19373.0	6.469612401065983e+17
19374.0	6.46763058962978e+17
19375.0	6.465570143382186e+17
19376.0	6.463468041404415e+17
19377.0	6.460817403456169e+17
19378.0	6.457552994129235e+17
19379.0	6.455337207638697e+17
19380.0	6.453093301835091e+17
19381.0	6.4507793113088e+17
19382.0	6.448218635588948e+17
19383.0	6.444064602499753e+17
19384.0	6.441728741474301e+17
19385.0	6.439239165498708e+17
19386.0	6.436712841827667e+17
19387.0	6.432498591814995e+17
19388.0	6.42916422848785e+17
19389.0	6.426460770970282e+17
19390.0	6.422666863618729e+17
19391.0	6.398210388000736e+17
19392.0	6.415083266987347e+17
19393.0	6.410193617988265e+17
19394.0	6.405842272255999e+17
19395.0	6.401587059272361e+17
19396.0	6.39707212030498e+17
19397.0	6.393757059164842e+17
19398.0	6.39020550918417e+17
19399.0	6.384641584573096e+17
19400.0	6.382846218338304e+17
19401.0	6.379160498165076e+17
19402.0	6.375262764313258e+17
19403.0	6.370812017071444e+17
19404.0	6.36604459917858e+17
19405.0	6.361637960635732e+17
19406.0	6.35715074531874e+17
19407.0	6.352521936590163e+17
19408.0	6.345175774614874e+17
19409.0	6.34105896317747e+17
19410.0	6.335973741472425e+17
19411.0	6.330549458523475e+17
19412.0	6.323101788798973e+17
19413.0	6.317136648951124e+17
19414.0	6.309711163599532e+17
19415.0	6.302084151028393e+17
19416.0	6.293186663503186e+17
19417.0	6.284802007236607e+17
19418.0	6.274371252038314e+17
19419.0	6.26346089984819e+17
19420.0	6.25116571640354e+17
19421.0	6.236984404781745e+17
19422.0	6.22059169251328e+17
19423.0	6.201441787401551e+17
19424.0	6.187547579383808e+17
19425.0	6.175228168241151e+17
19426.0	6.162150303203327e+17
19427.0	6.147816814542847e+17
19428.0	6.133678398767103e+17
19429.0	6.118423941611517e+17
19430.0	6.10171818466782e+17
19431.0	6.080686916108294e+17
19432.0	6.066059242460498e+17
19433.0	6.0457135622499e+17
19434.0	6.02365501986133e+17
19435.0	5.998535535230973e+17
19436.0	5.969035043449509e+17
19437.0	5.936842111188993e+17
19438.0	5.871717508797775e+17
19439.0	5.842341790569816e+17
19440.0	5.802197844142762e+17
19441.0	5.75953553273651e+17
19442.0	5.711556132907691e+17
19443.0	5.656287322133842e+17
19444.0	5.5882287887155194e+17
19445.0	5.497933891895303e+17
19446.0	5.405968440142505e+17
19447.0	5.29833607805883e+17
19448.0	5.1556040408651155e+17
19449.0	4.96970334540049e+17
19450.0	4.654678239346673e+17
19451.0	4.554770963846474e+17
19452.0	4.823195992107696e+17
19453.0	5.072292086284296e+17
19454.0	5.227494321247565e+17
19455.0	5.350098231186774e+17
19456.0	5.4430558462498157e+17
19457.0	5.5356796443470534e+17
19458.0	5.593023457700554e+17
19459.0	5.669679591500464e+17
19460.0	5.718939300528126e+17
19461.0	5.761647299089747e+17
19462.0	5.800016585861802e+17
19463.0	5.843511888838652e+17
19464.0	5.890178600839858e+17
19465.0	5.925586460824919e+17
19466.0	5.953349281120253e+17
19467.0	5.977775394171562e+17
19468.0	5.998756888925524e+17
19469.0	6.015579271288147e+17
19470.0	6.0344450430621e+17
19471.0	6.050011608864084e+17
19472.0	6.064783030397609e+17
19473.0	6.078029298838186e+17
19474.0	6.090517199366826e+17
19475.0	6.10047856441207e+17
19476.0	6.11344163414562e+17
19477.0	6.123849179463679e+17
19478.0	6.134052723621883e+17
19479.0	6.148641325929815e+17
19480.0	6.163736071678637e+17
19481.0	6.176653580085928e+17
19482.0	6.187692401011365e+17
19483.0	6.196968007838376e+17
19484.0	6.204765623724714e+17
19485.0	6.211348653757779e+17
19486.0	6.218467743105027e+17
19487.0	6.223057771298815e+17
19488.0	6.229155311342934e+17
19489.0	6.232795769383596e+17
19490.0	6.233276462486863e+17
19491.0	6.241047001344681e+17
19492.0	6.244082909184e+17
19493.0	6.246837662340435e+17
19494.0	6.250651391972691e+17
19495.0	6.252968386319702e+17
19496.0	6.25412930745139e+17
19497.0	6.257112522948608e+17
19498.0	6.257754763165699e+17
19499.0	6.229698126282724e+17
19500.0	6.263242437427199e+17
19501.0	6.264675383640064e+17
19502.0	6.265987141730301e+17
19503.0	6.267213480722431e+17
19504.0	6.268298689773565e+17
19505.0	6.269335769186304e+17
19506.0	6.270295608393728e+17
19507.0	6.272725603581952e+17
19508.0	6.27394707857954e+17
19509.0	6.276619725438976e+17
19510.0	6.277705730009769e+17
19511.0	6.24914008567533e+17
19512.0	6.277286483460082e+17
19513.0	6.272266634177178e+17
19514.0	6.275955438561953e+17
19515.0	6.281658183450628e+17
19516.0	6.284776335299926e+17
19517.0	6.284720565736787e+17
19518.0	6.284942709358591e+17
19519.0	6.284940386413225e+17
19520.0	6.286590103344468e+17
19521.0	6.286581598694057e+17
19522.0	6.286310090211327e+17
19523.0	6.286253812438356e+17
19524.0	6.286025332621311e+17
19525.0	6.286083139218089e+17
19526.0	6.286943284013738e+17
19527.0	6.286584792656554e+17
19528.0	6.286236554275497e+17
19529.0	6.285833882217129e+17
19530.0	6.285442739601407e+17
19531.0	6.285014917797203e+17
19532.0	6.284536456063657e+17
19533.0	6.284200474836992e+17
19534.0	6.284717382260052e+17
19535.0	6.284111709383337e+17
19536.0	6.283814134699348e+17
19537.0	6.283340571213823e+17
19538.0	6.282555084330326e+17
19539.0	6.280448834185903e+17
19540.0	6.281383343292413e+17
19541.0	6.28080926401058e+17
19542.0	6.280116578200234e+17
19543.0	6.279417290555391e+17
19544.0	6.278721730248701e+17
19545.0	6.276803765906084e+17
19546.0	6.274580103910742e+17
19547.0	6.277442521355604e+17
19548.0	6.276692835652948e+17
19549.0	6.275592403375443e+17
19550.0	6.275125838086144e+17
19551.0	6.274333847934294e+17
19552.0	6.273518002678441e+17
19553.0	6.272636642394111e+17
19554.0	6.27174052794641e+17
19555.0	6.270984226428244e+17
19556.0	6.270171827492179e+17
19557.0	6.269306249674751e+17
19558.0	6.268435733064361e+17
19559.0	6.26751838425361e+17
19560.0	6.26659974849058e+17
19561.0	6.265704305131519e+17
19562.0	6.264870373337769e+17
19563.0	6.263983413657599e+17
19564.0	6.26306541822498e+17
19565.0	6.262137134164649e+17
19566.0	6.261126968202579e+17
19567.0	6.260287762071551e+17
19568.0	6.259256045076479e+17
19569.0	6.258334225836714e+17
19570.0	6.257450228733268e+17
19571.0	6.256490401409706e+17
19572.0	6.255419420835839e+17
19573.0	6.254514805232979e+17
19574.0	6.253579493616297e+17
19575.0	6.253295191108265e+17
19576.0	6.252313906424489e+17
19577.0	6.251176350362282e+17
19578.0	6.250212033036287e+17
19579.0	6.249261871486291e+17
19580.0	6.248273947219284e+17
19581.0	6.247303099361962e+17
19582.0	6.246349789986815e+17
19583.0	6.245340267151359e+17
19584.0	6.244312036321962e+17
19585.0	6.242961743762771e+17
19586.0	6.24184369540847e+17
19587.0	6.24110793269794e+17
19588.0	6.238819704984918e+17
19589.0	6.239108132590932e+17
19590.0	6.237915745091583e+17
19591.0	6.23712173887761e+17
19592.0	6.236104044838912e+17
19593.0	6.235004240308906e+17
19594.0	6.233251141473619e+17
19595.0	6.23288663618355e+17
19596.0	6.228584570028035e+17
19597.0	6.230809335824383e+17
19598.0	6.228925110463145e+17
19599.0	6.228761620687529e+17
19600.0	6.227727007525545e+17
19601.0	6.226469808941738e+17
19602.0	6.225487632269312e+17
19603.0	6.223051915351378e+17
19604.0	6.223327731384319e+17
19605.0	6.221490977854806e+17
19606.0	6.221321493719721e+17
19607.0	6.220268908664148e+17
19608.0	6.219170497342121e+17
19609.0	6.217965947060223e+17
19610.0	6.217076282053972e+17
19611.0	6.215970464290132e+17
19612.0	6.214934276166995e+17
19613.0	6.213817900640938e+17
19614.0	6.212650729297235e+17
19615.0	6.211692549636095e+17
19616.0	6.210440994488319e+17
19617.0	6.209527586925225e+17
19618.0	6.206869204194641e+17
19619.0	6.205325287882747e+17
19620.0	6.204331199386962e+17
19621.0	6.205170934000298e+17
19622.0	6.204106430130858e+17
19623.0	6.20302620041762e+17
19624.0	6.201906431000575e+17
19625.0	6.200844088595795e+17
19626.0	6.199717875329706e+17
19627.0	6.198663067992063e+17
19628.0	6.197056983706284e+17
19629.0	6.196201245026985e+17
19630.0	6.194815725906602e+17
19631.0	6.172517106450426e+17
19632.0	6.193155337966932e+17
19633.0	6.191939016370857e+17
19634.0	6.190997005751638e+17
19635.0	6.189776868037971e+17
19636.0	6.188766294529364e+17
19637.0	6.186501402525696e+17
19638.0	6.186567039188992e+17
19639.0	6.18545536827392e+17
19640.0	6.184188444497236e+17
19641.0	6.181277998776326e+17
19642.0	6.182167636519594e+17
19643.0	6.181023968657405e+17
19644.0	6.179810506877609e+17
19645.0	6.178089970521427e+17
19646.0	6.177788660110676e+17
19647.0	6.176688465510399e+17
19648.0	6.175569541245609e+17
19649.0	6.174455380312063e+17
19650.0	6.173370700442281e+17
19651.0	6.172247068071252e+17
19652.0	6.171133962704212e+17
19653.0	6.170040617402367e+17
19654.0	6.168911794580137e+17
19655.0	6.167787583395156e+17
19656.0	6.166706460295167e+17
19657.0	6.165598277642921e+17
19658.0	6.164508384952319e+17
19659.0	6.163396849653076e+17
19660.0	6.162301403703977e+17
19661.0	6.161178312398166e+17
19662.0	6.160083356483583e+17
19663.0	6.158828377385642e+17
19664.0	6.157750993507667e+17
19665.0	6.156754731663359e+17
19666.0	6.155589342898858e+17
