# Flux units: erg / (cm m2 s)
# Wavelength units: Angstrom
wave	flux
19000.0	6.649542223069183e+17
19001.0	6.647702512555348e+17
19002.0	6.647099770099027e+17
19003.0	6.645843517330772e+17
19004.0	6.64461426958882e+17
19005.0	6.643347479330815e+17
19006.0	6.642126402792105e+17
19007.0	6.640838756357459e+17
19008.0	6.639275360299689e+17
19009.0	6.63766222189363e+17
19010.0	6.634431445991419e+17
19011.0	6.635728139539796e+17
19012.0	6.63406640383044e+17
19013.0	6.633450779268436e+17
19014.0	6.631854455128061e+17
19015.0	6.630759352412842e+17
19016.0	6.629438704495273e+17
19017.0	6.628388332634111e+17
19018.0	6.627204261041491e+17
19019.0	6.62596157055522e+17
19020.0	6.624641457411412e+17
19021.0	6.623532663788883e+17
19022.0	6.622306147936938e+17
19023.0	6.620848730756435e+17
19024.0	6.619735036788733e+17
19025.0	6.618581921256787e+17
19026.0	6.617212878760618e+17
19027.0	6.615929007898624e+17
19028.0	6.614897704741546e+17
19029.0	6.613562344603647e+17
19030.0	6.612488407045459e+17
19031.0	6.611289487616682e+17
19032.0	6.610030913301161e+17
19033.0	6.608202941246121e+17
19034.0	6.607463058330963e+17
19035.0	6.606062717239293e+17
19036.0	6.584541972703916e+17
19037.0	6.603765187259049e+17
19038.0	6.602465135471273e+17
19039.0	6.601354882230953e+17
19040.0	6.600142664062291e+17
19041.0	6.598850290647039e+17
19042.0	6.597100591295146e+17
19043.0	6.596424969311572e+17
19044.0	6.595130972700671e+17
19045.0	6.593960250878633e+17
19046.0	6.592325295800319e+17
19047.0	6.591303918463657e+17
19048.0	6.588969524745554e+17
19049.0	6.58854827401762e+17
19050.0	6.587463097821866e+17
19051.0	6.583305914810364e+17
19052.0	6.584539081430355e+17
19053.0	6.584044005359615e+17
19054.0	6.582753934617257e+17
19055.0	6.579960688235863e+17
19056.0	6.580190163501055e+17
19057.0	6.579061690903208e+17
19058.0	6.577776426833236e+17
19059.0	6.576616621386409e+17
19060.0	6.575268422483967e+17
19061.0	6.574178754188628e+17
19062.0	6.572905292890111e+17
19063.0	6.571685579500201e+17
19064.0	6.569612808989354e+17
19065.0	6.568102965106004e+17
19066.0	6.567639285497855e+17
19067.0	6.566687753109503e+17
19068.0	6.565586501544618e+17
19069.0	6.564365559223636e+17
19070.0	6.562952098349053e+17
19071.0	6.561868258039124e+17
19072.0	6.560660648012457e+17
19073.0	6.559385534857215e+17
19074.0	6.558207047980372e+17
19075.0	6.556972047051433e+17
19076.0	6.555610639586644e+17
19077.0	6.554396708044799e+17
19078.0	6.552992661285546e+17
19079.0	6.551992133834068e+17
19080.0	6.550663764901887e+17
19081.0	6.549295350852265e+17
19082.0	6.548037026796884e+17
19083.0	6.546372344588969e+17
19084.0	6.54436198252544e+17
19085.0	6.544521621230932e+17
19086.0	6.541031137520298e+17
19087.0	6.541417006497791e+17
19088.0	6.540348832612351e+17
19089.0	6.538270176793942e+17
19090.0	6.538245463255721e+17
19091.0	6.536990254869162e+17
19092.0	6.535499027404116e+17
19093.0	6.534706002657279e+17
19094.0	6.533472095742633e+17
19095.0	6.532261883849386e+17
19096.0	6.530931893119658e+17
19097.0	6.529774103734953e+17
19098.0	6.52853133845026e+17
19099.0	6.527287889494015e+17
19100.0	6.526026183431508e+17
19101.0	6.524809348033193e+17
19102.0	6.522998232186879e+17
19103.0	6.52235135656482e+17
19104.0	6.521162802659327e+17
19105.0	6.519886608771753e+17
19106.0	6.518581162409983e+17
19107.0	6.517332744601599e+17
19108.0	6.516219328856063e+17
19109.0	6.513305736009042e+17
19110.0	6.513669284997801e+17
19111.0	6.512518805585919e+17
19112.0	6.511291694142803e+17
19113.0	6.510048559759359e+17
19114.0	6.508789306665642e+17
19115.0	6.507274787531433e+17
19116.0	6.506216593293311e+17
19117.0	6.504948019058003e+17
19118.0	6.503269402673151e+17
19119.0	6.47696756821194e+17
19120.0	6.501165678198781e+17
19121.0	6.500058576278867e+17
19122.0	6.498971692302336e+17
19123.0	6.497718204279465e+17
19124.0	6.496401188629162e+17
19125.0	6.495229219700736e+17
19126.0	6.494003477697876e+17
19127.0	6.481772225232896e+17
19128.0	6.490876654824104e+17
19129.0	6.489849025877331e+17
19130.0	6.488952134085289e+17
19131.0	6.487836863059284e+17
19132.0	6.486616960925695e+17
19133.0	6.484342620553216e+17
19134.0	6.483877017157631e+17
19135.0	6.482916276174847e+17
19136.0	6.4817281906333e+17
19137.0	6.479489638159699e+17
19138.0	6.479132811941204e+17
19139.0	6.47802091872802e+17
19140.0	6.476808037859328e+17
19141.0	6.475572319005353e+17
19142.0	6.474182137916074e+17
19143.0	6.47275679387921e+17
19144.0	6.471604113156778e+17
19145.0	6.470616914504361e+17
19146.0	6.465780689753431e+17
19147.0	6.46743537483776e+17
19148.0	6.466930519747242e+17
19149.0	6.465677961461759e+17
19150.0	6.464430297929044e+17
19151.0	6.463230796191059e+17
19152.0	6.461972730085376e+17
19153.0	6.460677582138025e+17
19154.0	6.458760450364756e+17
19155.0	6.458347752521727e+17
19156.0	6.457100511914666e+17
19157.0	6.455814275465215e+17
19158.0	6.453427892649981e+17
19159.0	6.453304502517759e+17
19160.0	6.452090597539839e+17
19161.0	6.450877488780628e+17
19162.0	6.447068508498604e+17
19163.0	6.448353327972352e+17
19164.0	6.44727336739362e+17
19165.0	6.445934194633385e+17
19166.0	6.444051313546579e+17
19167.0	6.443327235467946e+17
19168.0	6.442142973034493e+17
19169.0	6.440937687351295e+17
19170.0	6.439889815994367e+17
19171.0	6.438479235907581e+17
19172.0	6.437393541715284e+17
19173.0	6.436201812022612e+17
19174.0	6.434593791366486e+17
19175.0	6.433738449048916e+17
19176.0	6.432490621239295e+17
19177.0	6.430321472613033e+17
19178.0	6.429979868921856e+17
19179.0	6.428597090779136e+17
19180.0	6.427493212880895e+17
19181.0	6.425701664860841e+17
19182.0	6.424926233821183e+17
19183.0	6.423891280221523e+17
19184.0	6.422485573216938e+17
19185.0	6.421350622516563e+17
19186.0	6.420198101876736e+17
19187.0	6.418505484905129e+17
19188.0	6.417716684521471e+17
19189.0	6.41649240842786e+17
19190.0	6.41525935575313e+17
19191.0	6.413854904243539e+17
19192.0	6.412815824846847e+17
19193.0	6.411533800177663e+17
19194.0	6.41024864026624e+17
19195.0	6.409101332447231e+17
19196.0	6.407779424141311e+17
19197.0	6.406589225369599e+17
19198.0	6.405341711433727e+17
19199.0	6.388605678605647e+17
19200.0	6.391786181580123e+17
19201.0	6.401670037984595e+17
19202.0	6.400496733869398e+17
19203.0	6.399237367529471e+17
19204.0	6.39787078848785e+17
19205.0	6.395894164706646e+17
19206.0	6.393568228802559e+17
19207.0	6.391711981546152e+17
19208.0	6.390009937876308e+17
19209.0	6.389923033994579e+17
19210.0	6.388706715194708e+17
19211.0	6.387554786650794e+17
19212.0	6.386305620159145e+17
19213.0	6.384522709609129e+17
19214.0	6.383028655882239e+17
19215.0	6.38255592706321e+17
19216.0	6.381358546244948e+17
19217.0	6.380091987372714e+17
19218.0	6.373706808950776e+17
19219.0	6.376702279505235e+17
19220.0	6.376273618141183e+17
19221.0	6.373187567397548e+17
19222.0	6.37383526720034e+17
19223.0	6.372561440997376e+17
19224.0	6.371149927677951e+17
19225.0	6.369266404163581e+17
19226.0	6.368839249253716e+17
19227.0	6.367598781049514e+17
19228.0	6.366497037352959e+17
19229.0	6.365262008461993e+17
19230.0	6.363959930126335e+17
19231.0	6.362702124766548e+17
19232.0	6.361465375511892e+17
19233.0	6.359858054605482e+17
19234.0	6.358898587992063e+17
19235.0	6.357592802590719e+17
19236.0	6.35657448919313e+17
19237.0	6.355213918491988e+17
19238.0	6.353520752066559e+17
19239.0	6.352843455856639e+17
19240.0	6.351241391112191e+17
19241.0	6.350090919389865e+17
19242.0	6.348965484866217e+17
19243.0	6.346801876216489e+17
19244.0	6.346616258691072e+17
19245.0	6.345335315453268e+17
19246.0	6.343999254866601e+17
19247.0	6.342788248851798e+17
19248.0	6.341617890536105e+17
19249.0	6.340334202126333e+17
19250.0	6.338984419175082e+17
19251.0	6.336922379091965e+17
19252.0	6.334940454409556e+17
19253.0	6.335188111982591e+17
19254.0	6.334032638552745e+17
19255.0	6.331761058731347e+17
19256.0	6.331220252863146e+17
19257.0	6.330294182696276e+17
19258.0	6.329041292361727e+17
19259.0	6.327363493866154e+17
19260.0	6.326008245736788e+17
19261.0	6.325159612907519e+17
19262.0	6.323627735646208e+17
19263.0	6.322266049260201e+17
19264.0	6.318108167198031e+17
19265.0	6.318934134008488e+17
19266.0	6.317769096866474e+17
19267.0	6.317659354999466e+17
19268.0	6.316342122643455e+17
19269.0	6.315065651931817e+17
19270.0	6.313791035102548e+17
19271.0	6.310423218705751e+17
19272.0	6.311031001317373e+17
19273.0	6.29911813217757e+17
19274.0	6.301554060907852e+17
19275.0	6.307432821861033e+17
19276.0	6.306028584959999e+17
19277.0	6.304760447631359e+17
19278.0	6.303492983488511e+17
19279.0	6.302066616041471e+17
19280.0	6.300382297500329e+17
19281.0	6.299579419634346e+17
19282.0	6.298403519244969e+17
19283.0	6.296853932234068e+17
19284.0	6.295452193041066e+17
19285.0	6.293272236392447e+17
19286.0	6.292969936825001e+17
19287.0	6.29189941273122e+17
19288.0	6.284112987946998e+17
19289.0	6.276758740751686e+17
19290.0	6.28798757343505e+17
19291.0	6.285049718636545e+17
19292.0	6.285336397217792e+17
19293.0	6.283991221010432e+17
19294.0	6.282651317043197e+17
19295.0	6.281393995426474e+17
19296.0	6.280022516738729e+17
19297.0	6.278557054184106e+17
19298.0	6.277215580149076e+17
19299.0	6.276055084739242e+17
19300.0	6.274703295512576e+17
19301.0	6.273343187582975e+17
19302.0	6.271888132494676e+17
19303.0	6.270227304852137e+17
19304.0	6.26907537141487e+17
19305.0	6.267839182798845e+17
19306.0	6.266545616104106e+17
19307.0	6.264918711992319e+17
19308.0	6.263647189161299e+17
19309.0	6.261854981237418e+17
19310.0	6.260196234668714e+17
19311.0	6.259469886772564e+17
19312.0	6.258269328769024e+17
19313.0	6.256909678018559e+17
19314.0	6.239060744645304e+17
19315.0	6.238343928304988e+17
19316.0	6.252710159100586e+17
19317.0	6.251311806808063e+17
19318.0	6.249874749478227e+17
19319.0	6.2485370503168e+17
19320.0	6.247121040703487e+17
19321.0	6.245695210127359e+17
19322.0	6.243712716417706e+17
19323.0	6.242541355663359e+17
19324.0	6.241339141608788e+17
19325.0	6.239420153855999e+17
19326.0	6.238438974728874e+17
19327.0	6.236899363870035e+17
19328.0	6.235513263838548e+17
19329.0	6.234057041335636e+17
19330.0	6.232325928342868e+17
19331.0	6.230789952547497e+17
19332.0	6.229525286005417e+17
19333.0	6.227940791200425e+17
19334.0	6.226488299530921e+17
19335.0	6.224959702914387e+17
19336.0	6.223240917680127e+17
19337.0	6.221619935226538e+17
19338.0	6.218772880818175e+17
19339.0	6.218502611752276e+17
19340.0	6.216423071634771e+17
19341.0	6.215096544002047e+17
19342.0	6.211337701730982e+17
19343.0	6.212092723986431e+17
19344.0	6.210407352674985e+17
19345.0	6.197581641504069e+17
19346.0	6.201179967062007e+17
19347.0	6.205121186758655e+17
19348.0	6.20388492194611e+17
19349.0	6.201989295767552e+17
19350.0	6.200318844993535e+17
19351.0	6.198549505114112e+17
19352.0	6.196578605858815e+17
19353.0	6.195312993501183e+17
19354.0	6.193560189665279e+17
19355.0	6.191173335689898e+17
19356.0	6.189983694061567e+17
19357.0	6.188162214090068e+17
19358.0	6.186202373117268e+17
19359.0	6.183883873015124e+17
19360.0	6.18232165835298e+17
19361.0	6.180515645576531e+17
19362.0	6.178845397527209e+17
19363.0	6.176907980701695e+17
19364.0	6.174944274677759e+17
19365.0	6.172944905185962e+17
19366.0	6.1709618787997e+17
19367.0	6.168941193854975e+17
19368.0	6.166901575821993e+17
19369.0	6.164337820783956e+17
19370.0	6.161523001698985e+17
19371.0	6.160276372761257e+17
19372.0	6.158426913286825e+17
19373.0	6.156101789679615e+17
19374.0	6.153985430563497e+17
19375.0	6.151769003742548e+17
19376.0	6.149510272472404e+17
19377.0	6.147131672887295e+17
19378.0	6.144810671581865e+17
19379.0	6.142447807627263e+17
19380.0	6.140022614917119e+17
19381.0	6.137537854701565e+17
19382.0	6.13463901741602e+17
19383.0	6.13184159280879e+17
19384.0	6.129936242136403e+17
19385.0	6.12733976383761e+17
19386.0	6.124676619173887e+17
19387.0	6.121423763756372e+17
19388.0	6.118644588565844e+17
19389.0	6.115871400045226e+17
19390.0	6.113019157282815e+17
19391.0	6.092942264849727e+17
19392.0	6.106403053764605e+17
19393.0	6.104168377526953e+17
19394.0	6.101061895629481e+17
19395.0	6.097940888857257e+17
19396.0	6.094792273078953e+17
19397.0	6.09159389258274e+17
19398.0	6.088083901863252e+17
19399.0	6.079826210674003e+17
19400.0	6.079922295887188e+17
19401.0	6.076926543615316e+17
19402.0	6.073400555820371e+17
19403.0	6.069584081715199e+17
19404.0	6.065907791036415e+17
19405.0	6.060581100453885e+17
19406.0	6.056630626724521e+17
19407.0	6.052669572863316e+17
19408.0	6.043888032677893e+17
19409.0	6.042129676981588e+17
19410.0	6.037990516894377e+17
19411.0	6.032860066611196e+17
19412.0	6.02626876121634e+17
19413.0	6.021123954529617e+17
19414.0	6.012893486470484e+17
19415.0	6.006144232674643e+17
19416.0	5.99725742175027e+17
19417.0	5.987378523712166e+17
19418.0	5.977006785167365e+17
19419.0	5.964290372665344e+17
19420.0	5.949122217508863e+17
19421.0	5.930214081866403e+17
19422.0	5.917331046443689e+17
19423.0	5.907852164770473e+17
19424.0	5.897497269152426e+17
19425.0	5.886935632794963e+17
19426.0	5.875766438920191e+17
19427.0	5.863947422225748e+17
19428.0	5.851894490595327e+17
19429.0	5.838854851046056e+17
19430.0	5.824179663623511e+17
19431.0	5.807544574410755e+17
19432.0	5.794992948423337e+17
19433.0	5.779021504359084e+17
19434.0	5.761413852517716e+17
19435.0	5.740636995059713e+17
19436.0	5.714981462999041e+17
19437.0	5.684613129874085e+17
19438.0	5.617361259681113e+17
19439.0	5.586345358174889e+17
19440.0	5.5525270142757536e+17
19441.0	5.515412826139304e+17
19442.0	5.475122327235243e+17
19443.0	5.429379992999253e+17
19444.0	5.3733196730204115e+17
19445.0	5.2905957815309664e+17
19446.0	5.187641974019414e+17
19447.0	5.08816815537083e+17
19448.0	4.946934529086815e+17
19449.0	4.729277217330518e+17
19450.0	4.3341521274360755e+17
19451.0	4.2130216834826157e+17
19452.0	4.54890221889127e+17
19453.0	4.85012408578868e+17
19454.0	5.0225134041388326e+17
19455.0	5.1351499896258554e+17
19456.0	5.2299251944434374e+17
19457.0	5.326507051668806e+17
19458.0	5.361752160075805e+17
19459.0	5.43575945108959e+17
19460.0	5.4792720926201146e+17
19461.0	5.515367875783337e+17
19462.0	5.549186118320128e+17
19463.0	5.587865773102419e+17
19464.0	5.6384260456229626e+17
19465.0	5.6739474901565485e+17
19466.0	5.698732964883112e+17
19467.0	5.719401944842235e+17
19468.0	5.735678953739607e+17
19469.0	5.748303014658045e+17
19470.0	5.7637539462949536e+17
19471.0	5.776404857050452e+17
19472.0	5.788239696057683e+17
19473.0	5.799519176359935e+17
19474.0	5.81007003685137e+17
19475.0	5.815425812834981e+17
19476.0	5.828475074117631e+17
19477.0	5.83746394923554e+17
19478.0	5.845733910861139e+17
19479.0	5.853454580143443e+17
19480.0	5.861704004359507e+17
19481.0	5.875910346888538e+17
19482.0	5.890200489514327e+17
19483.0	5.902342102013272e+17
19484.0	5.91171352771515e+17
19485.0	5.919238369837055e+17
19486.0	5.925313717119657e+17
19487.0	5.932170340204543e+17
19488.0	5.936429259554815e+17
19489.0	5.939985033199615e+17
19490.0	5.936353757189455e+17
19491.0	5.948091012917929e+17
19492.0	5.950485404057599e+17
19493.0	5.953178596016127e+17
19494.0	5.956275299592873e+17
19495.0	5.958043893585236e+17
19496.0	5.95749193016934e+17
19497.0	5.961797706186751e+17
19498.0	5.960846247198717e+17
19499.0	5.939012506921641e+17
19500.0	5.96714331377937e+17
19501.0	5.968415905458858e+17
19502.0	5.969592098051412e+17
19503.0	5.970838712309076e+17
19504.0	5.972669043660116e+17
19505.0	5.973633014956031e+17
19506.0	5.974612426883071e+17
19507.0	5.975334864289791e+17
19508.0	5.97625774678562e+17
19509.0	5.976966792478719e+17
19510.0	5.976467343846057e+17
19511.0	5.946460288494243e+17
19512.0	5.973745445371903e+17
19513.0	5.96975264132846e+17
19514.0	5.973458757003939e+17
19515.0	5.977622625036974e+17
19516.0	5.980888731658921e+17
19517.0	5.981226236816042e+17
19518.0	5.981880080575146e+17
19519.0	5.982096118688425e+17
19520.0	5.982141125667497e+17
19521.0	5.982512256559786e+17
19522.0	5.982414709631657e+17
19523.0	5.982743111051946e+17
19524.0	5.982791713947647e+17
19525.0	5.982702036931924e+17
19526.0	5.982796025692159e+17
19527.0	5.982690127205716e+17
19528.0	5.982624666004137e+17
19529.0	5.982493296907603e+17
19530.0	5.982425304443562e+17
19531.0	5.982297346015231e+17
19532.0	5.982097149089108e+17
19533.0	5.981901262509396e+17
19534.0	5.98163418391074e+17
19535.0	5.981275638726655e+17
19536.0	5.980849723932672e+17
19537.0	5.980762402717695e+17
19538.0	5.979537173118977e+17
19539.0	5.976982811923802e+17
19540.0	5.97951056515345e+17
19541.0	5.979273317842943e+17
19542.0	5.978826308496041e+17
19543.0	5.978363102844244e+17
19544.0	5.977932065406975e+17
19545.0	5.974240633989802e+17
19546.0	5.971799224702292e+17
19547.0	5.976464361695913e+17
19548.0	5.975898302622378e+17
19549.0	5.974788980517545e+17
19550.0	5.974822002272938e+17
19551.0	5.97426429895202e+17
19552.0	5.973662941315071e+17
19553.0	5.97289530888465e+17
19554.0	5.972202752398676e+17
19555.0	5.971722050207744e+17
19556.0	5.971157782801065e+17
19557.0	5.970488195721897e+17
19558.0	5.969811767732906e+17
19559.0	5.969104508813311e+17
19560.0	5.96829612802048e+17
19561.0	5.967579652816896e+17
19562.0	5.967001737844052e+17
19563.0	5.96632979776034e+17
19564.0	5.965584350401876e+17
19565.0	5.964840604532735e+17
19566.0	5.96390165086208e+17
19567.0	5.963329671528447e+17
19568.0	5.962381240827904e+17
19569.0	5.96164679303168e+17
19570.0	5.960995254042623e+17
19571.0	5.960165227844948e+17
19572.0	5.959194967190186e+17
19573.0	5.958435065561087e+17
19574.0	5.957238947228329e+17
19575.0	5.956933070618623e+17
19576.0	5.956114647962964e+17
19577.0	5.955093943812095e+17
19578.0	5.954164809007101e+17
19579.0	5.953428010303485e+17
19580.0	5.952565859232425e+17
19581.0	5.95180097896448e+17
19582.0	5.951033500325203e+17
19583.0	5.950162776096768e+17
19584.0	5.949202477613055e+17
19585.0	5.947736478187519e+17
19586.0	5.946692527106732e+17
19587.0	5.946733152436224e+17
19588.0	5.943031235958103e+17
19589.0	5.944886280847359e+17
19590.0	5.943567911135913e+17
19591.0	5.943183298352468e+17
19592.0	5.942308639866879e+17
19593.0	5.941272411897855e+17
19594.0	5.939077819924477e+17
19595.0	5.939188107750057e+17
19596.0	5.937213753087319e+17
19597.0	5.93751371153408e+17
19598.0	5.934564267873619e+17
19599.0	5.935778902660435e+17
19600.0	5.934879503373652e+17
19601.0	5.933516338495488e+17
19602.0	5.932588501128531e+17
19603.0	5.929425261210278e+17
19604.0	5.930673577656319e+17
19605.0	5.928289239564288e+17
19606.0	5.92910749794304e+17
19607.0	5.928165417418752e+17
19608.0	5.927124470158675e+17
19609.0	5.925927257811625e+17
19610.0	5.925290163306495e+17
19611.0	5.924262398044841e+17
19612.0	5.923367317493076e+17
19613.0	5.92232573899025e+17
19614.0	5.921157852517716e+17
19615.0	5.920415144738813e+17
19616.0	5.919300022610602e+17
19617.0	5.918430569955327e+17
19618.0	5.913821790426447e+17
19619.0	5.912179677069304e+17
19620.0	5.911355689970345e+17
19621.0	5.914443224798547e+17
19622.0	5.913504317265236e+17
19623.0	5.912522552333652e+17
19624.0	5.91146466288162e+17
19625.0	5.910527133876223e+17
19626.0	5.909458451780948e+17
19627.0	5.90851874033937e+17
19628.0	5.907070611445076e+17
19629.0	5.905927811104767e+17
19630.0	5.903855561386665e+17
19631.0	5.887902781276163e+17
19632.0	5.903432331646292e+17
19633.0	5.902189151824554e+17
19634.0	5.901462099984383e+17
19635.0	5.900210552526163e+17
19636.0	5.899366529936042e+17
19637.0	5.896061621108736e+17
19638.0	5.897320740683775e+17
19639.0	5.896277910880255e+17
19640.0	5.894467504570368e+17
19641.0	5.889709778315953e+17
19642.0	5.893270311097683e+17
19643.0	5.89221561700625e+17
19644.0	5.890871874551807e+17
19645.0	5.88857266754901e+17
19646.0	5.889240735591081e+17
19647.0	5.888231356760063e+17
19648.0	5.887178013234516e+17
19649.0	5.8861309933213e+17
19650.0	5.885147488452608e+17
19651.0	5.884089071217321e+17
19652.0	5.883036917476009e+17
19653.0	5.882048162037759e+17
19654.0	5.880964210578772e+17
19655.0	5.879897267721556e+17
19656.0	5.878921882326356e+17
19657.0	5.877891637531988e+17
19658.0	5.876890273316863e+17
19659.0	5.875852081714515e+17
19660.0	5.874844449811113e+17
19661.0	5.873782363957929e+17
19662.0	5.872774294448809e+17
19663.0	5.87142910775569e+17
19664.0	5.870604002175658e+17
19665.0	5.869666965301929e+17
