# Flux units: erg / (cm m2 s)
# Wavelength units: Angstrom
wave	flux
19000.0	6.223883011096575e+17
19001.0	6.222611514829482e+17
19002.0	6.221560631263231e+17
19003.0	6.220396746855763e+17
19004.0	6.219233443359401e+17
19005.0	6.218066896267946e+17
19006.0	6.216913087277738e+17
19007.0	6.215745447570089e+17
19008.0	6.214515014937257e+17
19009.0	6.213342128155306e+17
19010.0	6.211715416981501e+17
19011.0	6.211065815760896e+17
19012.0	6.209811423166463e+17
19013.0	6.208767671315114e+17
19014.0	6.207547520319487e+17
19015.0	6.206403552564564e+17
19016.0	6.205226389689684e+17
19017.0	6.20413065433361e+17
19018.0	6.202952341520383e+17
19019.0	6.201796843623763e+17
19020.0	6.200618926473215e+17
19021.0	6.199479141837482e+17
19022.0	6.198313932029951e+17
19023.0	6.197115898997417e+17
19024.0	6.195975959172436e+17
19025.0	6.194837301406377e+17
19026.0	6.193647298368852e+17
19027.0	6.192472956862463e+17
19028.0	6.191354397502121e+17
19029.0	6.190181712745812e+17
19030.0	6.189047483465727e+17
19031.0	6.187887381621418e+17
19032.0	6.186721894290772e+17
19033.0	6.185466705477631e+17
19034.0	6.184391439723178e+17
19035.0	6.183197371706025e+17
19036.0	6.178312878205606e+17
19037.0	6.180908248509097e+17
19038.0	6.179742172577792e+17
19039.0	6.178610598991188e+17
19040.0	6.177452005698218e+17
19041.0	6.17628394725922e+17
19042.0	6.175017605791744e+17
19043.0	6.173976129350314e+17
19044.0	6.172804357554176e+17
19045.0	6.171658846295379e+17
19046.0	6.170442881215146e+17
19047.0	6.169326077171028e+17
19048.0	6.167936634978301e+17
19049.0	6.166923166700883e+17
19050.0	6.165812141009578e+17
19051.0	6.164083694895101e+17
19052.0	6.163459804058964e+17
19053.0	6.162396002735444e+17
19054.0	6.161239316452692e+17
19055.0	6.159795948792492e+17
19056.0	6.158890948012714e+17
19057.0	6.157760025242282e+17
19058.0	6.156585446757716e+17
19059.0	6.155444340916223e+17
19060.0	6.154272450980521e+17
19061.0	6.153143973489321e+17
19062.0	6.151982318354431e+17
19063.0	6.150828634494292e+17
19064.0	6.149532888159572e+17
19065.0	6.148328041480191e+17
19066.0	6.147294825720489e+17
19067.0	6.146201506283519e+17
19068.0	6.14505343230498e+17
19069.0	6.143900258052778e+17
19070.0	6.14271805432354e+17
19071.0	6.141591240572927e+17
19072.0	6.140431163894442e+17
19073.0	6.139276769798825e+17
19074.0	6.138128528747177e+17
19075.0	6.136974560373417e+17
19076.0	6.135797409382399e+17
19077.0	6.134650974677673e+17
19078.0	6.133474452133203e+17
19079.0	6.132358689674579e+17
19080.0	6.131190427811837e+17
19081.0	6.130005632002729e+17
19082.0	6.128851836294484e+17
19083.0	6.127637226673492e+17
19084.0	6.126350607144276e+17
19085.0	6.125436219512148e+17
19086.0	6.123884707315712e+17
19087.0	6.123029105650346e+17
19088.0	6.121893865542995e+17
19089.0	6.120590093407572e+17
19090.0	6.119651221525844e+17
19091.0	6.118503848695124e+17
19092.0	6.117299889111039e+17
19093.0	6.116231000795818e+17
19094.0	6.115080283706708e+17
19095.0	6.113929627435008e+17
19096.0	6.112760908393129e+17
19097.0	6.111626934965588e+17
19098.0	6.110473121781075e+17
19099.0	6.109321959396692e+17
19100.0	6.108169082940074e+17
19101.0	6.10702772544034e+17
19102.0	6.105754683572223e+17
19103.0	6.1047275271837e+17
19104.0	6.1035825346205e+17
19105.0	6.10241897177634e+17
19106.0	6.101266210663082e+17
19107.0	6.100115646666067e+17
19108.0	6.098980045848576e+17
19109.0	6.097569795713705e+17
19110.0	6.096678963292842e+17
19111.0	6.095538861288105e+17
19112.0	6.094391013102931e+17
19113.0	6.093245099190953e+17
19114.0	6.092099239804927e+17
19115.0	6.090898826504873e+17
19116.0	6.089782065102847e+17
19117.0	6.088637602420052e+17
19118.0	6.087409320766121e+17
19119.0	6.080004762195276e+17
19120.0	6.085170717261823e+17
19121.0	6.08404904223266e+17
19122.0	6.082927941823146e+17
19123.0	6.081782044688383e+17
19124.0	6.080617979226793e+17
19125.0	6.079488074973183e+17
19126.0	6.078333137016147e+17
19127.0	6.075228254546601e+17
19128.0	6.076015357635241e+17
19129.0	6.074818749967018e+17
19130.0	6.073746553744042e+17
19131.0	6.072618035008852e+17
19132.0	6.071472242032639e+17
19133.0	6.070241489933652e+17
19134.0	6.069171240566783e+17
19135.0	6.068038963735209e+17
19136.0	6.066901462198953e+17
19137.0	6.065577841218899e+17
19138.0	6.064598899752959e+17
19139.0	6.0634711996061e+17
19140.0	6.062329714180095e+17
19141.0	6.061186857216682e+17
19142.0	6.060016115122175e+17
19143.0	6.058839384959657e+17
19144.0	6.05771922547234e+17
19145.0	6.056616829561514e+17
19146.0	6.05480755920896e+17
19147.0	6.05422588404258e+17
19148.0	6.053184587257171e+17
19149.0	6.052035242404521e+17
19150.0	6.050898711150591e+17
19151.0	6.049766661510484e+17
19152.0	6.048621587857407e+17
19153.0	6.047450310290089e+17
19154.0	6.046202056758612e+17
19155.0	6.045201745313791e+17
19156.0	6.044058561194666e+17
19157.0	6.042908043334996e+17
19158.0	6.041591916178089e+17
19159.0	6.040615921909759e+17
19160.0	6.039486392347306e+17
19161.0	6.038356980225364e+17
19162.0	6.036794013384703e+17
19163.0	6.03606432822067e+17
19164.0	6.034941645160447e+17
19165.0	6.033775450390527e+17
19166.0	6.032521524062889e+17
19167.0	6.031485586898944e+17
19168.0	6.03037508968994e+17
19169.0	6.029230745146708e+17
19170.0	6.028107823710208e+17
19171.0	6.026944844573353e+17
19172.0	6.025831739905363e+17
19173.0	6.024694034246313e+17
19174.0	6.023492310925311e+17
19175.0	6.022415882649599e+17
19176.0	6.021281889648639e+17
19177.0	6.019975938572287e+17
19178.0	6.018993376023892e+17
19179.0	6.017830458403497e+17
19180.0	6.016717083901951e+17
19181.0	6.015449310778708e+17
19182.0	6.014438059190953e+17
19183.0	6.013319083196415e+17
19184.0	6.01217227030528e+17
19185.0	6.011038912741375e+17
19186.0	6.009905857167359e+17
19187.0	6.008696433803263e+17
19188.0	6.007630719877119e+17
19189.0	6.006500285743103e+17
19190.0	6.005362090049536e+17
19191.0	6.004190116926803e+17
19192.0	6.003090485062313e+17
19193.0	6.001952102023167e+17
19194.0	6.000802283913215e+17
19195.0	5.999678418059263e+17
19196.0	5.998520915285331e+17
19197.0	5.997390575523156e+17
19198.0	5.996237827691862e+17
19199.0	5.992563108478975e+17
19200.0	5.992220843485866e+17
19201.0	5.99283648832034e+17
19202.0	5.991723819859967e+17
19203.0	5.990586795775316e+17
19204.0	5.989430792465065e+17
19205.0	5.988312904892415e+17
19206.0	5.987176430960639e+17
19207.0	5.985937230135295e+17
19208.0	5.984665502482431e+17
19209.0	5.983772956688384e+17
19210.0	5.982642543525887e+17
19211.0	5.981517379534847e+17
19212.0	5.98038216109807e+17
19213.0	5.979141449624233e+17
19214.0	5.977980081799167e+17
19215.0	5.976966465323007e+17
19216.0	5.975840307281919e+17
19217.0	5.974702414277289e+17
19218.0	5.972671416937128e+17
19219.0	5.972268023458473e+17
19220.0	5.971274069180416e+17
19221.0	5.969805825802239e+17
19222.0	5.969021828595711e+17
19223.0	5.967871389728767e+17
19224.0	5.966710091109716e+17
19225.0	5.965460846324393e+17
19226.0	5.964465354833919e+17
19227.0	5.963328827075242e+17
19228.0	5.962222540248404e+17
19229.0	5.961086194941951e+17
19230.0	5.95994660114705e+17
19231.0	5.958800852211027e+17
19232.0	5.957671187032746e+17
19233.0	5.956467398017023e+17
19234.0	5.955381680756051e+17
19235.0	5.954239477405012e+17
19236.0	5.953135801532415e+17
19237.0	5.951982492363434e+17
19238.0	5.950761241761108e+17
19239.0	5.949729725393577e+17
19240.0	5.948573912924159e+17
19241.0	5.947427146170367e+17
19242.0	5.946301757085012e+17
19243.0	5.945005538192041e+17
19244.0	5.944047132737535e+17
19245.0	5.942903350930089e+17
19246.0	5.94175247655458e+17
19247.0	5.940634266719571e+17
19248.0	5.93949745025297e+17
19249.0	5.938356900855808e+17
19250.0	5.937198442479613e+17
19251.0	5.935961994515795e+17
19252.0	5.934634221873834e+17
19253.0	5.933776864892244e+17
19254.0	5.93266335617297e+17
19255.0	5.931321597624319e+17
19256.0	5.930353209726292e+17
19257.0	5.929247484936191e+17
19258.0	5.928106452495017e+17
19259.0	5.92688706626082e+17
19260.0	5.925737934618623e+17
19261.0	5.924669094537898e+17
19262.0	5.923477176101545e+17
19263.0	5.922329771813546e+17
19264.0	5.920645811186345e+17
19265.0	5.919888431732052e+17
19266.0	5.918705979140778e+17
19267.0	5.917828049797119e+17
19268.0	5.916684149151062e+17
19269.0	5.915539392167935e+17
19270.0	5.914389941758633e+17
19271.0	5.91287008816879e+17
19272.0	5.911168379344212e+17
19273.0	5.909228660544851e+17
19274.0	5.908200961693011e+17
19275.0	5.907705172590591e+17
19276.0	5.906535895706281e+17
19277.0	5.905392908719444e+17
19278.0	5.904246985719807e+17
19279.0	5.903079130704554e+17
19280.0	5.901859239056724e+17
19281.0	5.90078671847424e+17
19282.0	5.899654133361322e+17
19283.0	5.898464272930134e+17
19284.0	5.89731073097728e+17
19285.0	5.895993504213673e+17
19286.0	5.894994962066089e+17
19287.0	5.893878072737791e+17
19288.0	5.891709201634643e+17
19289.0	5.889052658106362e+17
19290.0	5.890404419371008e+17
19291.0	5.888967826210815e+17
19292.0	5.888086724575232e+17
19293.0	5.886916587159551e+17
19294.0	5.885749545140223e+17
19295.0	5.884597343966548e+17
19296.0	5.88341812867891e+17
19297.0	5.88225059033361e+17
19298.0	5.881066441146367e+17
19299.0	5.879920218953044e+17
19300.0	5.878750544308905e+17
19301.0	5.877576961272489e+17
19302.0	5.876394570197674e+17
19303.0	5.875150130686633e+17
19304.0	5.874019519692799e+17
19305.0	5.872735070715903e+17
19306.0	5.871462663585791e+17
19307.0	5.870234158934697e+17
19308.0	5.869075228000255e+17
19309.0	5.867819100362068e+17
19310.0	5.866585196942676e+17
19311.0	5.865500440876372e+17
19312.0	5.86434173084194e+17
19313.0	5.863162182107135e+17
19314.0	5.857352381104127e+17
19315.0	5.856521109897221e+17
19316.0	5.859553422518954e+17
19317.0	5.85748926640947e+17
19318.0	5.855843341129044e+17
19319.0	5.854657146519551e+17
19320.0	5.85344396436002e+17
19321.0	5.852228802489002e+17
19322.0	5.850935778257578e+17
19323.0	5.849757544437076e+17
19324.0	5.848577733558271e+17
19325.0	5.847273829302272e+17
19326.0	5.846126548047188e+17
19327.0	5.844881147341481e+17
19328.0	5.843652397323604e+17
19329.0	5.842428488930643e+17
19330.0	5.841143700215124e+17
19331.0	5.839891413860351e+17
19332.0	5.838690499340969e+17
19333.0	5.837431556625748e+17
19334.0	5.836181697374889e+17
19335.0	5.834897042178047e+17
19336.0	5.833651821827412e+17
19337.0	5.831657231745021e+17
19338.0	5.829140033481386e+17
19339.0	5.828083866490196e+17
19340.0	5.826657071224148e+17
19341.0	5.825457919011497e+17
19342.0	5.823792957882367e+17
19343.0	5.82289442611746e+17
19344.0	5.821571690135551e+17
19345.0	5.818003615296165e+17
19346.0	5.818023954175316e+17
19347.0	5.817528858531156e+17
19348.0	5.816282552554838e+17
19349.0	5.814306246841686e+17
19350.0	5.811322817434964e+17
19351.0	5.809943950480724e+17
19352.0	5.808519049641983e+17
19353.0	5.807232121831423e+17
19354.0	5.805842863489023e+17
19355.0	5.804335820002643e+17
19356.0	5.803028868584788e+17
19357.0	5.801610673739092e+17
19358.0	5.797674982834173e+17
19359.0	5.795879318104746e+17
19360.0	5.794421464716628e+17
19361.0	5.792962633356628e+17
19362.0	5.791521348867412e+17
19363.0	5.790022738728275e+17
19364.0	5.786066259454633e+17
19365.0	5.783556947181567e+17
19366.0	5.782005282592084e+17
19367.0	5.780441064450729e+17
19368.0	5.778744978789716e+17
19369.0	5.773346027339772e+17
19370.0	5.770968333724329e+17
19371.0	5.769336456566099e+17
19372.0	5.767720316436479e+17
19373.0	5.7639782192250906e+17
19374.0	5.761868294171305e+17
19375.0	5.760123818825045e+17
19376.0	5.758356552329898e+17
19377.0	5.756550143191722e+17
19378.0	5.754735081204394e+17
19379.0	5.7528931078635514e+17
19380.0	5.7510227251036154e+17
19381.0	5.7491185572249594e+17
19382.0	5.747115965808638e+17
19383.0	5.745122060795903e+17
19384.0	5.742721727725566e+17
19385.0	5.7404133575666336e+17
19386.0	5.7383645099677e+17
19387.0	5.7362765190266874e+17
19388.0	5.7341527129238176e+17
19389.0	5.7319915558447776e+17
19390.0	5.729788703189674e+17
19391.0	5.7242436137997594e+17
19392.0	5.724451460437332e+17
19393.0	5.7216516471739725e+17
19394.0	5.719251386105855e+17
19395.0	5.716810190028799e+17
19396.0	5.7143341455769594e+17
19397.0	5.7108795707009683e+17
19398.0	5.7073206065889274e+17
19399.0	5.703864287581524e+17
19400.0	5.70185951093282e+17
19401.0	5.6970320704525606e+17
19402.0	5.693753198466389e+17
19403.0	5.690493149118466e+17
19404.0	5.684505403370153e+17
19405.0	5.6812846504564045e+17
19406.0	5.674512119671466e+17
19407.0	5.670156746708306e+17
19408.0	5.6610745483264006e+17
19409.0	5.6548174828229965e+17
19410.0	5.6466291724124186e+17
19411.0	5.636320144304814e+17
19412.0	5.62342114955537e+17
19413.0	5.613440796895913e+17
19414.0	5.6072800668658336e+17
19415.0	5.6010718440325114e+17
19416.0	5.594434244706303e+17
19417.0	5.587751403519999e+17
19418.0	5.5805572004795725e+17
19419.0	5.573057436101289e+17
19420.0	5.565377381662719e+17
19421.0	5.557534226120703e+17
19422.0	5.5495243162364576e+17
19423.0	5.541396565284179e+17
19424.0	5.533125747321515e+17
19425.0	5.524308825385641e+17
19426.0	5.515202079140521e+17
19427.0	5.5058838756611405e+17
19428.0	5.496399087708843e+17
19429.0	5.486708686585855e+17
19430.0	5.476413880664064e+17
19431.0	5.465709820422826e+17
19432.0	5.4558570046641485e+17
19433.0	5.444489936109567e+17
19434.0	5.432705314805076e+17
19435.0	5.419461298006699e+17
19436.0	5.403508926840833e+17
19437.0	5.3827182079071456e+17
19438.0	5.348128270756519e+17
19439.0	5.307752111581849e+17
19440.0	5.2635907545279136e+17
19441.0	5.233642058721961e+17
19442.0	5.2008690381400755e+17
19443.0	5.165505192482132e+17
19444.0	5.125994235035642e+17
19445.0	5.07496496452949e+17
19446.0	4.991727142174706e+17
19447.0	4.8797266704247405e+17
19448.0	4.769531416630621e+17
19449.0	4.583240927019007e+17
19450.0	4.163597471754964e+17
19451.0	3.972796669493268e+17
19452.0	4.410795137957887e+17
19453.0	4.6912785874944134e+17
19454.0	4.826314451539281e+17
19455.0	4.9286612866389286e+17
19456.0	5.0317844391744826e+17
19457.0	5.0928489000686886e+17
19458.0	5.123213423367527e+17
19459.0	5.169373737473368e+17
19460.0	5.2015017293250534e+17
19461.0	5.230844108428628e+17
19462.0	5.262153532222115e+17
19463.0	5.3116249662204544e+17
19464.0	5.3447967211083117e+17
19465.0	5.3675738791935974e+17
19466.0	5.3830794926708045e+17
19467.0	5.395575516168191e+17
19468.0	5.4061463918783136e+17
19469.0	5.4150057769478803e+17
19470.0	5.424225015824383e+17
19471.0	5.4324092535657805e+17
19472.0	5.44064878551586e+17
19473.0	5.448468776615935e+17
19474.0	5.4560369081494176e+17
19475.0	5.462538899335848e+17
19476.0	5.4704330156714656e+17
19477.0	5.477385254906538e+17
19478.0	5.483822647519913e+17
19479.0	5.489918012817407e+17
19480.0	5.495845176038741e+17
19481.0	5.5016421089170765e+17
19482.0	5.507295977581225e+17
19483.0	5.5127831079813114e+17
19484.0	5.5180321459186336e+17
19485.0	5.522845901783039e+17
19486.0	5.5273505017910605e+17
19487.0	5.5316120894177274e+17
19488.0	5.535579607400447e+17
19489.0	5.541612201443329e+17
19490.0	5.549308633939973e+17
19491.0	5.55949685910186e+17
19492.0	5.5662364897662285e+17
19493.0	5.5737649033379866e+17
19494.0	5.57770524992034e+17
19495.0	5.5817327730141856e+17
19496.0	5.5850159343752506e+17
19497.0	5.587997511996756e+17
19498.0	5.589904290829654e+17
19499.0	5.587669008515067e+17
19500.0	5.593843758006271e+17
19501.0	5.5959057764188154e+17
19502.0	5.597590066298879e+17
19503.0	5.5981771311458976e+17
19504.0	5.598703802209621e+17
19505.0	5.600622032890536e+17
19506.0	5.601297949174442e+17
19507.0	5.601603592301225e+17
19508.0	5.6019131619956045e+17
19509.0	5.6021496843905696e+17
19510.0	5.60285864899379e+17
19511.0	5.595594799535439e+17
19512.0	5.602972328613202e+17
19513.0	5.6019732705662246e+17
19514.0	5.6027174002141843e+17
19515.0	5.603271644632405e+17
19516.0	5.603717011210239e+17
19517.0	5.603566123220992e+17
19518.0	5.603728549740543e+17
19519.0	5.6041263333376e+17
19520.0	5.603898246387028e+17
19521.0	5.6037199080762016e+17
19522.0	5.6034398914478086e+17
19523.0	5.603197513105407e+17
19524.0	5.602892092276735e+17
19525.0	5.6025606877347834e+17
19526.0	5.6022237495077536e+17
19527.0	5.6018460307619834e+17
19528.0	5.6014449832973645e+17
19529.0	5.601636026854055e+17
19530.0	5.6028777680295245e+17
19531.0	5.6024102107873274e+17
19532.0	5.60192385397555e+17
19533.0	5.601899458505386e+17
19534.0	5.604726373963092e+17
19535.0	5.60430183420177e+17
19536.0	5.603989737439231e+17
19537.0	5.603446020724053e+17
19538.0	5.602811814696276e+17
19539.0	5.604778327408641e+17
19540.0	5.6047317126130336e+17
19541.0	5.604105931543892e+17
19542.0	5.603436020804267e+17
19543.0	5.602752568754175e+17
19544.0	5.602071891935231e+17
19545.0	5.6019557292878464e+17
19546.0	5.602227432805717e+17
19547.0	5.602516739118421e+17
19548.0	5.601782112365225e+17
19549.0	5.6009329727242234e+17
19550.0	5.600283440709631e+17
19551.0	5.5995241640318285e+17
19552.0	5.598752960850602e+17
19553.0	5.5979504730548896e+17
19554.0	5.597830059480403e+17
19555.0	5.598420475576319e+17
19556.0	5.597633464063317e+17
19557.0	5.596818315760979e+17
19558.0	5.596003653997909e+17
19559.0	5.595182357544958e+17
19560.0	5.594321607371434e+17
19561.0	5.593489128904022e+17
19562.0	5.5926783091234125e+17
19563.0	5.591836936634367e+17
19564.0	5.5909872279661216e+17
19565.0	5.590132565824853e+17
19566.0	5.589239156703231e+17
19567.0	5.588408485980841e+17
19568.0	5.588490751661396e+17
19569.0	5.5882069937138323e+17
19570.0	5.587352680398848e+17
19571.0	5.5864663037269325e+17
19572.0	5.585550280316243e+17
19573.0	5.584671712040277e+17
19574.0	5.583698287482196e+17
19575.0	5.582902320431102e+17
19576.0	5.581997794306729e+17
19577.0	5.5810722693993805e+17
19578.0	5.580146389374291e+17
19579.0	5.579251226334549e+17
19580.0	5.578341000151039e+17
19581.0	5.577436815862442e+17
19582.0	5.576538889475413e+17
19583.0	5.5756188465233914e+17
19584.0	5.5746926540226534e+17
19585.0	5.5736485722193894e+17
19586.0	5.5726913048193696e+17
19587.0	5.5718966128366925e+17
19588.0	5.570467058417664e+17
19589.0	5.570023247227562e+17
19590.0	5.5689994665547085e+17
19591.0	5.568167715799038e+17
19592.0	5.567233814866602e+17
19593.0	5.566850828075007e+17
19594.0	5.5663016776389965e+17
19595.0	5.5655850968787616e+17
19596.0	5.564567374878036e+17
19597.0	5.563706689716223e+17
19598.0	5.5623113398463123e+17
19599.0	5.561812734967806e+17
19600.0	5.560869028451668e+17
19601.0	5.559838785754453e+17
19602.0	5.558901771250347e+17
19603.0	5.5575142549422054e+17
19604.0	5.556987599257598e+17
19605.0	5.5557490170920954e+17
19606.0	5.555111262683136e+17
19607.0	5.554158129468756e+17
19608.0	5.5531746406782285e+17
19609.0	5.5521704425117005e+17
19610.0	5.5512597528576e+17
19611.0	5.5502835600588794e+17
19612.0	5.5493308155166694e+17
19613.0	5.548350849242452e+17
19614.0	5.5473489530497696e+17
19615.0	5.546422193618943e+17
19616.0	5.545417709540692e+17
19617.0	5.544462287634431e+17
19618.0	5.542866464713385e+17
19619.0	5.541724729726291e+17
19620.0	5.5408061519844685e+17
19621.0	5.5405738294859085e+17
19622.0	5.539609579967828e+17
19623.0	5.538633897476094e+17
19624.0	5.5376467959917216e+17
19625.0	5.536679713920341e+17
19626.0	5.535701544206335e+17
19627.0	5.534721373809321e+17
19628.0	5.533680862057813e+17
19629.0	5.532638886494207e+17
19630.0	5.5316071093807776e+17
19631.0	5.527980713443326e+17
19632.0	5.529805398562132e+17
19633.0	5.528796319623849e+17
19634.0	5.5278569989515936e+17
19635.0	5.5268340235851085e+17
19636.0	5.525875707609087e+17
19637.0	5.524517589177685e+17
19638.0	5.523915066922324e+17
19639.0	5.5229279248930125e+17
19640.0	5.521856536073557e+17
19641.0	5.5198600061255706e+17
19642.0	5.5199771034036896e+17
19643.0	5.518988601021781e+17
19644.0	5.517945339903998e+17
19645.0	5.516720664652457e+17
19646.0	5.516033615287636e+17
19647.0	5.515058387178836e+17
19648.0	5.5140720315815245e+17
19649.0	5.513082091252394e+17
19650.0	5.5120977188618234e+17
19651.0	5.5111033241818445e+17
19652.0	5.5101197095621965e+17
19653.0	5.509132276028756e+17
19654.0	5.5081370935186765e+17
19655.0	5.5071494999026323e+17
19656.0	5.5063476174848e+17
19657.0	5.505366497776979e+17
19658.0	5.504377422872575e+17
19659.0	5.5033863955196576e+17
19660.0	5.502398895576404e+17
19661.0	5.5014093704833683e+17
