# Flux units: erg / (cm m2 s)
# Wavelength units: Angstrom
wave	flux
19000.0	4.4503462985072634e+17
19001.0	4.4495823116260685e+17
19002.0	4.448832759442091e+17
19003.0	4.4480707984097274e+17
19004.0	4.447296347439104e+17
19005.0	4.446547143382357e+17
19006.0	4.44578487406865e+17
19007.0	4.4450350946932045e+17
19008.0	4.4442736984937805e+17
19009.0	4.4435168027825485e+17
19010.0	4.442711617350314e+17
19011.0	4.4419888416030714e+17
19012.0	4.441212148077909e+17
19013.0	4.440490952884223e+17
19014.0	4.439717055561727e+17
19015.0	4.4389587484671994e+17
19016.0	4.4382018038224205e+17
19017.0	4.437458787762175e+17
19018.0	4.436696469514921e+17
19019.0	4.4359427537851725e+17
19020.0	4.435183088435199e+17
19021.0	4.434428009556649e+17
19022.0	4.4336760729108474e+17
19023.0	4.43290637898001e+17
19024.0	4.432153550345557e+17
19025.0	4.431401384411134e+17
19026.0	4.4306434450172576e+17
19027.0	4.429884710802772e+17
19028.0	4.4291286399713274e+17
19029.0	4.428370686596438e+17
19030.0	4.4276079601035936e+17
19031.0	4.426866562345642e+17
19032.0	4.4261178937617056e+17
19033.0	4.425340213177002e+17
19034.0	4.424601703197355e+17
19035.0	4.4238532785821e+17
19036.0	4.422791038238719e+17
19037.0	4.4223386930380794e+17
19038.0	4.421582143356927e+17
19039.0	4.4208325079859194e+17
19040.0	4.4200741512587936e+17
19041.0	4.4193219349927245e+17
19042.0	4.418203470004223e+17
19043.0	4.4178164937304736e+17
19044.0	4.4170722333600416e+17
19045.0	4.416308712745642e+17
19046.0	4.4155509516096845e+17
19047.0	4.4148039670388045e+17
19048.0	4.4139920567391565e+17
19049.0	4.412540792602623e+17
19050.0	4.412547726486185e+17
19051.0	4.411690885403987e+17
19052.0	4.4110418546087245e+17
19053.0	4.410293504791893e+17
19054.0	4.4095371983803725e+17
19055.0	4.408664536383487e+17
19056.0	4.40801025921297e+17
19057.0	4.407290819335508e+17
19058.0	4.406151462518783e+17
19059.0	4.405623289894228e+17
19060.0	4.4050378859915936e+17
19061.0	4.404280021396138e+17
19062.0	4.4035229306497696e+17
19063.0	4.40278691418385e+17
19064.0	4.4020303148701e+17
19065.0	4.4012743356142925e+17
19066.0	4.4003955114857805e+17
19067.0	4.3997640590185805e+17
19068.0	4.3990417208770554e+17
19069.0	4.3982896367315616e+17
19070.0	4.3975253856092166e+17
19071.0	4.396783321655978e+17
19072.0	4.395897659413844e+17
19073.0	4.395298635907072e+17
19074.0	4.3945281485537274e+17
19075.0	4.3937974861168634e+17
19076.0	4.393039224460629e+17
19077.0	4.392299464578389e+17
19078.0	4.391548885488981e+17
19079.0	4.3907966804077216e+17
19080.0	4.39005805158946e+17
19081.0	4.3893058101575674e+17
19082.0	4.388564147459412e+17
19083.0	4.3878099305103354e+17
19084.0	4.387055719852713e+17
19085.0	4.3863208673061536e+17
19086.0	4.385348654202879e+17
19087.0	4.384498174481749e+17
19088.0	4.383883572630868e+17
19089.0	4.383315764532565e+17
19090.0	4.382591653598548e+17
19091.0	4.381819284400811e+17
19092.0	4.380791606520491e+17
19093.0	4.380350063749802e+17
19094.0	4.379607546112683e+17
19095.0	4.378853160692393e+17
19096.0	4.3781159740156576e+17
19097.0	4.3773707936945485e+17
19098.0	4.3764777103305376e+17
19099.0	4.375696335962111e+17
19100.0	4.3751386368354976e+17
19101.0	4.374393442533375e+17
19102.0	4.373637282223445e+17
19103.0	4.372895625816746e+17
19104.0	4.3721649088539296e+17
19105.0	4.371079100017323e+17
19106.0	4.370670735589375e+17
19107.0	4.36984938181427e+17
19108.0	4.369053879631872e+17
19109.0	4.368424305513812e+17
19110.0	4.3676962386520736e+17
19111.0	4.3668458700799994e+17
19112.0	4.366090018750463e+17
19113.0	4.365473711915008e+17
19114.0	4.364658796396544e+17
19115.0	4.363978132160512e+17
19116.0	4.363235001455957e+17
19117.0	4.362500479560362e+17
19118.0	4.361756802897236e+17
19119.0	4.3600033104964243e+17
19120.0	4.360275847282688e+17
19121.0	4.359526450287957e+17
19122.0	4.3588023414510925e+17
19123.0	4.358065249146197e+17
19124.0	4.35731689513506e+17
19125.0	4.3565782809968634e+17
19126.0	4.355836785371818e+17
19127.0	4.3549382927537485e+17
19128.0	4.3543485065024845e+17
19129.0	4.3536138301166925e+17
19130.0	4.352880048515753e+17
19131.0	4.352139375673344e+17
19132.0	4.351394072319317e+17
19133.0	4.350658870247423e+17
19134.0	4.349918363080021e+17
19135.0	4.349183809727147e+17
19136.0	4.3484399415241376e+17
19137.0	4.347678715194025e+17
19138.0	4.346963401812651e+17
19139.0	4.34622862336546e+17
19140.0	4.345489447889578e+17
19141.0	4.344749861371902e+17
19142.0	4.3440082259367245e+17
19143.0	4.343265795680938e+17
19144.0	4.3425290256383994e+17
19145.0	4.341793633424725e+17
19146.0	4.341013909514923e+17
19147.0	4.340308768718846e+17
19148.0	4.339464482586624e+17
19149.0	4.3386956247203834e+17
19150.0	4.338115806232576e+17
19151.0	4.33737211978274e+17
19152.0	4.33664065343761e+17
19153.0	4.335636488126463e+17
19154.0	4.335133764441429e+17
19155.0	4.3344326557695994e+17
19156.0	4.333693792070313e+17
19157.0	4.3328772876096845e+17
19158.0	4.3320265051996154e+17
19159.0	4.3314707165784736e+17
19160.0	4.3307477395046394e+17
19161.0	4.330013533579946e+17
19162.0	4.3292537759552845e+17
19163.0	4.32854729228288e+17
19164.0	4.327809521898838e+17
19165.0	4.3267843410274976e+17
19166.0	4.32632225735202e+17
19167.0	4.3256054004667725e+17
19168.0	4.324873779631445e+17
19169.0	4.3241378868974925e+17
19170.0	4.323405731288406e+17
19171.0	4.322662341236053e+17
19172.0	4.3219379548760736e+17
19173.0	4.3212094350295034e+17
19174.0	4.3204686720095565e+17
19175.0	4.3197378257223674e+17
19176.0	4.3190100538600096e+17
19177.0	4.318261845251412e+17
19178.0	4.3175368646983674e+17
19179.0	4.316798907667796e+17
19180.0	4.3160734412745376e+17
19181.0	4.3153278876603725e+17
19182.0	4.3145999934641485e+17
19183.0	4.31387662492194e+17
19184.0	4.313150040047615e+17
19185.0	4.312416961691647e+17
19186.0	4.311683361144832e+17
19187.0	4.3109521359721805e+17
19188.0	4.3102277761761274e+17
19189.0	4.309496363657898e+17
19190.0	4.3087641779896314e+17
19191.0	4.308034293596159e+17
19192.0	4.307302565806079e+17
19193.0	4.306536432140287e+17
19194.0	4.305789930613419e+17
19195.0	4.305114570773845e+17
19196.0	4.3043820299878394e+17
19197.0	4.3036445154563405e+17
19198.0	4.302908563303081e+17
19199.0	4.3018523159210656e+17
19200.0	4.3012512504872954e+17
19201.0	4.300730659067222e+17
19202.0	4.3000052947353594e+17
19203.0	4.299273348142421e+17
19204.0	4.298549689494185e+17
19205.0	4.297819285007018e+17
19206.0	4.2970895851629216e+17
19207.0	4.296342235687593e+17
19208.0	4.295607958459732e+17
19209.0	4.294908517023743e+17
19210.0	4.2941708235352736e+17
19211.0	4.293448333699753e+17
19212.0	4.2927201556889594e+17
19213.0	4.2919892408948045e+17
19214.0	4.291260607102976e+17
19215.0	4.2905400186852685e+17
19216.0	4.289815040928427e+17
19217.0	4.2890913997564576e+17
19218.0	4.2882871957913594e+17
19219.0	4.287617295537493e+17
19220.0	4.286908769239038e+17
19221.0	4.2861536512136525e+17
19222.0	4.2854413549349536e+17
19223.0	4.284724107280383e+17
19224.0	4.283992666101076e+17
19225.0	4.2832682357009056e+17
19226.0	4.2825569684247885e+17
19227.0	4.281826524091733e+17
19228.0	4.281103499482453e+17
19229.0	4.2803565002315085e+17
19230.0	4.2796482465628154e+17
19231.0	4.278931581217449e+17
19232.0	4.278205231224149e+17
19233.0	4.277472913435307e+17
19234.0	4.276748174753791e+17
19235.0	4.276025416482815e+17
19236.0	4.2753055089404576e+17
19237.0	4.274571286238548e+17
19238.0	4.273848939009364e+17
19239.0	4.273134828694186e+17
19240.0	4.272402508808191e+17
19241.0	4.2716897127082656e+17
19242.0	4.270949515919359e+17
19243.0	4.270230691206484e+17
19244.0	4.269511858804053e+17
19245.0	4.268796414001151e+17
19246.0	4.268074570787497e+17
19247.0	4.2673531274308256e+17
19248.0	4.2666254695137274e+17
19249.0	4.2658906707940685e+17
19250.0	4.2651255787137696e+17
19251.0	4.2644055201764685e+17
19252.0	4.2637219290152954e+17
19253.0	4.263014235286185e+17
19254.0	4.2623002291295565e+17
19255.0	4.261559146643455e+17
19256.0	4.2608492606914554e+17
19257.0	4.2601317250280096e+17
19258.0	4.259406675268948e+17
19259.0	4.2586912528356685e+17
19260.0	4.257949002934953e+17
19261.0	4.2572499480739834e+17
19262.0	4.2565260769143456e+17
19263.0	4.255799025074175e+17
19264.0	4.255043214988629e+17
19265.0	4.254346632669866e+17
19266.0	4.2536208174503245e+17
19267.0	4.2529316394762234e+17
19268.0	4.252204051464192e+17
19269.0	4.2514895706521594e+17
19270.0	4.250768301359102e+17
19271.0	4.2500143703217485e+17
19272.0	4.249332779843583e+17
19273.0	4.248607111424682e+17
19274.0	4.2478684329738234e+17
19275.0	4.247180305672874e+17
19276.0	4.246458277909844e+17
19277.0	4.245746258455211e+17
19278.0	4.2450218923677e+17
19279.0	4.244309519892479e+17
19280.0	4.2435859919667194e+17
19281.0	4.242876247922004e+17
19282.0	4.242153998559914e+17
19283.0	4.241433921847295e+17
19284.0	4.240720386151765e+17
19285.0	4.239986518567593e+17
19286.0	4.239276392142164e+17
19287.0	4.2385577918245536e+17
19288.0	4.2377945263636474e+17
19289.0	4.2369061559992314e+17
19290.0	4.236417548244308e+17
19291.0	4.235684053953194e+17
19292.0	4.2349827313718605e+17
19293.0	4.234265457852415e+17
19294.0	4.233555589376682e+17
19295.0	4.2328319866525005e+17
19296.0	4.2319511247912954e+17
19297.0	4.23137977110801e+17
19298.0	4.230684983252309e+17
19299.0	4.2297895958173005e+17
19300.0	4.2292605493794125e+17
19301.0	4.2285422587412474e+17
19302.0	4.227829270402389e+17
19303.0	4.2271016250682016e+17
19304.0	4.226395223883775e+17
19305.0	4.2256824550468256e+17
19306.0	4.22497226990114e+17
19307.0	4.2242484015377056e+17
19308.0	4.223534574338047e+17
19309.0	4.2228106241856845e+17
19310.0	4.222097729519615e+17
19311.0	4.2213909711202976e+17
19312.0	4.220681096353109e+17
19313.0	4.2199751474544634e+17
19314.0	4.217367880706723e+17
19315.0	4.2168052029412736e+17
19316.0	4.217623504661162e+17
19317.0	4.2171155450866336e+17
19318.0	4.216408546912938e+17
19319.0	4.215684594663424e+17
19320.0	4.2149198765752314e+17
19321.0	4.214119718715391e+17
19322.0	4.2135513366964896e+17
19323.0	4.2128437065809914e+17
19324.0	4.212132345632084e+17
19325.0	4.2114112098577056e+17
19326.0	4.210705198743551e+17
19327.0	4.209997577016661e+17
19328.0	4.208970868020565e+17
19329.0	4.2085703385524896e+17
19330.0	4.207860770668544e+17
19331.0	4.2071486162971296e+17
19332.0	4.206438338177706e+17
19333.0	4.2057299076491936e+17
19334.0	4.204997623414782e+17
19335.0	4.203675424303787e+17
19336.0	4.203584869979476e+17
19337.0	4.20288293712691e+17
19338.0	4.202150969562453e+17
19339.0	4.2014491905010336e+17
19340.0	4.2007104365527034e+17
19341.0	4.1998045969121274e+17
19342.0	4.199233808760832e+17
19343.0	4.1986160667743565e+17
19344.0	4.1976778596898125e+17
19345.0	4.196883741627732e+17
19346.0	4.1964364932055034e+17
19347.0	4.1954821163799885e+17
19348.0	4.195068857199273e+17
19349.0	4.194354418330281e+17
19350.0	4.193529488911017e+17
19351.0	4.192931590875817e+17
19352.0	4.191912405062996e+17
19353.0	4.191510338382506e+17
19354.0	4.190806770450431e+17
19355.0	4.1900892907110394e+17
19356.0	4.189380603630933e+17
19357.0	4.1886752845769376e+17
19358.0	4.187966115151872e+17
19359.0	4.187188558998185e+17
19360.0	4.1862993022375245e+17
19361.0	4.185830663563946e+17
19362.0	4.1851230830810445e+17
19363.0	4.184415391449087e+17
19364.0	4.183707695622827e+17
19365.0	4.1829965318062074e+17
19366.0	4.182272155931989e+17
19367.0	4.1815722293548365e+17
19368.0	4.1808663154087245e+17
19369.0	4.1801572515403085e+17
19370.0	4.179449182420992e+17
19371.0	4.178725578298709e+17
19372.0	4.178022958279338e+17
19373.0	4.177307479922004e+17
19374.0	4.1765928026767354e+17
19375.0	4.1758951941515936e+17
19376.0	4.1751833795188045e+17
19377.0	4.174473367038633e+17
19378.0	4.173764667375615e+17
19379.0	4.173052144604501e+17
19380.0	4.172324725063679e+17
19381.0	4.1716144874891936e+17
19382.0	4.1709051950312096e+17
19383.0	4.1701909295267834e+17
19384.0	4.1694729457718605e+17
19385.0	4.168775017780564e+17
19386.0	4.1680630165012474e+17
19387.0	4.167347976448682e+17
19388.0	4.1666321541584205e+17
19389.0	4.165922433881428e+17
19390.0	4.1652081543959885e+17
19391.0	4.1641997954798925e+17
19392.0	4.1637729600361805e+17
19393.0	4.163058110125397e+17
19394.0	4.1623448372729165e+17
19395.0	4.1615416679028045e+17
19396.0	4.160888885302613e+17
19397.0	4.1601852922047136e+17
19398.0	4.159391348206251e+17
19399.0	4.158569197513386e+17
19400.0	4.157956950764202e+17
19401.0	4.157303836114943e+17
19402.0	4.156586215167317e+17
19403.0	4.155863195451392e+17
19404.0	4.155126157672448e+17
19405.0	4.1543954176409594e+17
19406.0	4.153676636269225e+17
19407.0	4.152833531532629e+17
19408.0	4.1521409897267194e+17
19409.0	4.151480697225215e+17
19410.0	4.150743993592491e+17
19411.0	4.1500026888082765e+17
19412.0	4.14926003765248e+17
19413.0	4.1484099144471885e+17
19414.0	4.147773237275306e+17
19415.0	4.147026943366485e+17
19416.0	4.1462562735609165e+17
19417.0	4.1455153707308365e+17
19418.0	4.144758547720874e+17
19419.0	4.14399230570223e+17
19420.0	4.143222838263806e+17
19421.0	4.1424464257570125e+17
19422.0	4.141659051436714e+17
19423.0	4.140879822454783e+17
19424.0	4.1400875079434234e+17
19425.0	4.13928343539985e+17
19426.0	4.1384784799552845e+17
19427.0	4.137661478469631e+17
19428.0	4.1368263631831034e+17
19429.0	4.1359964194734074e+17
19430.0	4.1351394266972154e+17
19431.0	4.134161539399679e+17
19432.0	4.133401072238592e+17
19433.0	4.132506218179242e+17
19434.0	4.1316045945132365e+17
19435.0	4.1306647271833594e+17
19436.0	4.129669532090368e+17
19437.0	4.1287739230562976e+17
19438.0	4.1271114589361485e+17
19439.0	4.1267940333103795e+17
19440.0	4.125766319079424e+17
19441.0	4.124727406056789e+17
19442.0	4.1236663471090336e+17
19443.0	4.122592289314133e+17
19444.0	4.1215011271475194e+17
19445.0	4.120413235838975e+17
19446.0	4.119320604966912e+17
19447.0	4.118252057788415e+17
19448.0	4.1171944794139296e+17
19449.0	4.1161827706470394e+17
19450.0	4.1151624048366925e+17
19451.0	4.114289608622079e+17
19452.0	4.1138746402624845e+17
19453.0	4.113489489210025e+17
19454.0	4.113103616737279e+17
19455.0	4.1127389192082765e+17
19456.0	4.1123273901779616e+17
19457.0	4.1116292405876045e+17
19458.0	4.108037951673687e+17
19459.0	4.1098907372311885e+17
19460.0	4.110967416466091e+17
19461.0	4.1108647517880314e+17
19462.0	4.110588770080085e+17
19463.0	4.1102538178559994e+17
19464.0	4.109874203284821e+17
19465.0	4.1094805734468256e+17
19466.0	4.1090597812961274e+17
19467.0	4.1086197925150714e+17
19468.0	4.108158261788672e+17
19469.0	4.107434963850581e+17
19470.0	4.1071827638463136e+17
19471.0	4.1066702527528954e+17
19472.0	4.106142700186282e+17
19473.0	4.105603575534933e+17
19474.0	4.104827057471487e+17
19475.0	4.104401990625961e+17
19476.0	4.1039264900710394e+17
19477.0	4.103344399668563e+17
19478.0	4.102767293497343e+17
19479.0	4.101954241647955e+17
19480.0	4.101570055285418e+17
19481.0	4.100954929146538e+17
19482.0	4.100344086790144e+17
19483.0	4.099735572272468e+17
19484.0	4.099108000235519e+17
19485.0	4.0984820597828256e+17
19486.0	4.097620219090262e+17
19487.0	4.097219586861737e+17
19488.0	4.0965901686319776e+17
19489.0	4.0959506001865376e+17
19490.0	4.095159529985364e+17
19491.0	4.0946529041995085e+17
19492.0	4.0940113854027085e+17
19493.0	4.093359784198143e+17
19494.0	4.092706090734934e+17
19495.0	4.09206181138705e+17
19496.0	4.091354963509248e+17
19497.0	4.0907490718296736e+17
19498.0	4.0900910155912525e+17
19499.0	4.088941692409172e+17
19500.0	4.088772032812372e+17
19501.0	4.088494155978068e+17
19502.0	4.0880471878751565e+17
19503.0	4.0873644097099085e+17
19504.0	4.0866741593920845e+17
19505.0	4.0859820698719565e+17
19506.0	4.0853103821455354e+17
19507.0	4.084624299567785e+17
19508.0	4.083940491001855e+17
19509.0	4.083258096615423e+17
19510.0	4.0825278997463034e+17
19511.0	4.079114819119781e+17
19512.0	4.0811600435391136e+17
19513.0	4.080338167573161e+17
19514.0	4.079732600952149e+17
19515.0	4.079107918091606e+17
19516.0	4.0784354977600845e+17
19517.0	4.0777749724747085e+17
19518.0	4.0770381849559034e+17
19519.0	4.076355761908393e+17
19520.0	4.075512896946176e+17
19521.0	4.0750608418515616e+17
19522.0	4.0743436060808525e+17
19523.0	4.073644200995498e+17
19524.0	4.072839563618986e+17
19525.0	4.072325683784362e+17
19526.0	4.071639929061374e+17
19527.0	4.0709653151088634e+17
19528.0	4.070262408478719e+17
19529.0	4.069575901577215e+17
19530.0	4.068921403506687e+17
19531.0	4.0682370461859834e+17
19532.0	4.0675542449520634e+17
19533.0	4.066866032366932e+17
19534.0	4.0661956959054483e+17
19535.0	4.0655192392553805e+17
19536.0	4.0648301745274886e+17
19537.0	4.06415649870097e+17
19538.0	4.063268891699882e+17
19539.0	4.06274135101713e+17
19540.0	4.062117548960427e+17
19541.0	4.061387373062827e+17
19542.0	4.0607338795281056e+17
19543.0	4.05985584812305e+17
19544.0	4.0593798882918394e+17
19545.0	4.058691472282965e+17
19546.0	4.0579433084136096e+17
19547.0	4.0573660037119994e+17
19548.0	4.056686329331711e+17
19549.0	4.0559937952153594e+17
19550.0	4.055314341735082e+17
19551.0	4.0546506294777165e+17
19552.0	4.0539626217144314e+17
19553.0	4.0532922803595936e+17
19554.0	4.0526021558708896e+17
19555.0	4.051902837467818e+17
19556.0	4.051237548152149e+17
19557.0	4.0505771864446285e+17
19558.0	4.049902293570902e+17
19559.0	4.049224051545429e+17
19560.0	4.048467950654804e+17
19561.0	4.047870572713301e+17
19562.0	4.047123244209493e+17
19563.0	4.046521303564287e+17
19564.0	4.045822927481514e+17
19565.0	4.045161446593876e+17
19566.0	4.0444744524540576e+17
19567.0	4.0438131442319354e+17
19568.0	4.043135757145429e+17
19569.0	4.042461163465387e+17
19570.0	4.0417861209948154e+17
19571.0	4.041109511951701e+17
19572.0	4.0404318081952416e+17
19573.0	4.0397346177023994e+17
19574.0	4.0390708537152845e+17
19575.0	4.0384111323381754e+17
19576.0	4.037725181881002e+17
19577.0	4.0370255901491194e+17
19578.0	4.036382532042751e+17
19579.0	4.0357138802933754e+17
19580.0	4.0350320311664634e+17
19581.0	4.0343469740960416e+17
19582.0	4.033688735405397e+17
19583.0	4.0330193671290874e+17
19584.0	4.0323364267840845e+17
19585.0	4.031662384655017e+17
19586.0	4.0309874106914125e+17
19587.0	4.030321817987754e+17
19588.0	4.0296058852474874e+17
19589.0	4.028978255189333e+17
19590.0	4.028294188673706e+17
19591.0	4.0276295606599674e+17
19592.0	4.026956132297386e+17
19593.0	4.026263704436736e+17
19594.0	4.025576460735829e+17
19595.0	4.024938512689834e+17
19596.0	4.024259401045333e+17
19597.0	4.0235969890222074e+17
19598.0	4.0228566447336096e+17
19599.0	4.022253000501929e+17
19600.0	4.021574158690986e+17
19601.0	4.0209020228730886e+17
19602.0	4.0202309656903674e+17
19603.0	4.0195265008762874e+17
19604.0	4.018894174595754e+17
19605.0	4.018196202564266e+17
19606.0	4.017547830274729e+17
19607.0	4.016884502495231e+17
19608.0	4.0161968218876576e+17
19609.0	4.015537129870676e+17
19610.0	4.0147709962048845e+17
19611.0	4.01404057424145e+17
19612.0	4.013532660105215e+17
19613.0	4.01285072499507e+17
19614.0	4.012188775743487e+17
19615.0	4.011525083758591e+17
19616.0	4.010751759657641e+17
19617.0	4.010031355090261e+17
19618.0	4.0094570339368954e+17
19619.0	4.008749670159701e+17
19620.0	4.008059688976383e+17
19621.0	4.0072678302460576e+17
19622.0	4.00684003360768e+17
19623.0	4.0061659963719674e+17
19624.0	4.005476985470976e+17
19625.0	4.004837228281855e+17
19626.0	4.004162131285332e+17
19627.0	4.003501670312618e+17
19628.0	4.0028291367348896e+17
19629.0	4.001631604222633e+17
19630.0	4.0014970048129696e+17
19631.0	4.00063490686976e+17
19632.0	4.000163929871701e+17
19633.0	3.999496843995818e+17
19634.0	3.9988297651104416e+17
19635.0	3.9981370555323725e+17
19636.0	3.997234892898302e+17
19637.0	3.996553405180586e+17
19638.0	3.9961419859012256e+17
19639.0	3.995489954081451e+17
19640.0	3.9948251834613754e+17
19641.0	3.994019768740522e+17
19642.0	3.993486438520148e+17
19643.0	3.99282033201425e+17
19644.0	3.9921620954207565e+17
19645.0	3.991478512648191e+17
19646.0	3.9905634133824845e+17
19647.0	3.990151986413568e+17
19648.0	3.989509405059754e+17
19649.0	3.988838383528618e+17
19650.0	3.988174853723477e+17
19651.0	3.98751278563328e+17
19652.0	3.986848606410069e+17
19653.0	3.9861793178255354e+17
19654.0	3.985521077037738e+17
19655.0	3.984851433335466e+17
