# Flux units: erg / (cm m2 s)
# Wavelength units: Angstrom
wave	flux
19000.0	5.051184356960938e+17
19001.0	5.050107036696575e+17
19002.0	5.0493481885368314e+17
19003.0	5.048423352893438e+17
19004.0	5.047502772371455e+17
19005.0	5.04656637862434e+17
19006.0	5.045656933280426e+17
19007.0	5.0447463303086074e+17
19008.0	5.043720547554644e+17
19009.0	5.042756530121387e+17
19010.0	5.041114494358867e+17
19011.0	5.0410050398016845e+17
19012.0	5.03994698048034e+17
19013.0	5.039214394256042e+17
19014.0	5.038220909040981e+17
19015.0	5.0372963299491834e+17
19016.0	5.0363557509857254e+17
19017.0	5.035543015107241e+17
19018.0	5.034602132755796e+17
19019.0	5.033695292773715e+17
19020.0	5.0327652638829216e+17
19021.0	5.031872755138559e+17
19022.0	5.0309477873745914e+17
19023.0	5.029979957318996e+17
19024.0	5.0290693816101536e+17
19025.0	5.02819802124561e+17
19026.0	5.02724136341777e+17
19027.0	5.0263050815187616e+17
19028.0	5.025454005507413e+17
19029.0	5.0245096726418765e+17
19030.0	5.0236335727138125e+17
19031.0	5.0227226817331194e+17
19032.0	5.021792406077439e+17
19033.0	5.020740717903871e+17
19034.0	5.01994897871121e+17
19035.0	5.018978955034623e+17
19036.0	5.012006674715985e+17
19037.0	5.01719307981073e+17
19038.0	5.016279414996991e+17
19039.0	5.015397522036053e+17
19040.0	5.0144921304869536e+17
19041.0	5.0135660854859085e+17
19042.0	5.012149107687423e+17
19043.0	5.0117547760025594e+17
19044.0	5.0108239047557114e+17
19045.0	5.009922483814398e+17
19046.0	5.0089055538380806e+17
19047.0	5.008073433284607e+17
19048.0	5.006757015322623e+17
19049.0	5.005412326353577e+17
19050.0	5.005272756693674e+17
19051.0	5.003523138431657e+17
19052.0	5.003398606050645e+17
19053.0	5.002631199413588e+17
19054.0	5.001717279446355e+17
19055.0	5.000300274384896e+17
19056.0	4.999814836824745e+17
19057.0	4.9989793971787085e+17
19058.0	4.9976703024715085e+17
19059.0	4.997008648918356e+17
19060.0	4.9962215898699085e+17
19061.0	4.995350727928489e+17
19062.0	4.994432331939839e+17
19063.0	4.99352615395874e+17
19064.0	4.992420984214869e+17
19065.0	4.99144931287586e+17
19066.0	4.990574324438356e+17
19067.0	4.989875769398612e+17
19068.0	4.9889856891562656e+17
19069.0	4.9880798467194874e+17
19070.0	4.9871235153483085e+17
19071.0	4.986252958892032e+17
19072.0	4.9852059837180576e+17
19073.0	4.984436440782163e+17
19074.0	4.9835424311760205e+17
19075.0	4.982635287106899e+17
19076.0	4.981695330997589e+17
19077.0	4.980791611577685e+17
19078.0	4.9798397205763405e+17
19079.0	4.9790045416762016e+17
19080.0	4.9780818940613965e+17
19081.0	4.977122009415679e+17
19082.0	4.976221934845952e+17
19083.0	4.9752510317636256e+17
19084.0	4.9741636591506765e+17
19085.0	4.973551040506538e+17
19086.0	4.9719415888936954e+17
19087.0	4.9713066649408845e+17
19088.0	4.970552840159232e+17
19089.0	4.9696246567621965e+17
19090.0	4.9690085002226336e+17
19091.0	4.9680808313268896e+17
19092.0	4.966845011110571e+17
19093.0	4.966340998376106e+17
19094.0	4.965434920359251e+17
19095.0	4.964535551131647e+17
19096.0	4.963604881910442e+17
19097.0	4.9627256761002656e+17
19098.0	4.9616573344426656e+17
19099.0	4.9607227344595616e+17
19100.0	4.9599770067817805e+17
19101.0	4.959109259810132e+17
19102.0	4.957992549438805e+17
19103.0	4.9573066528085325e+17
19104.0	4.956415747686398e+17
19105.0	4.955151539022506e+17
19106.0	4.9545772360444576e+17
19107.0	4.953585177591806e+17
19108.0	4.9526693715858765e+17
19109.0	4.951573080484521e+17
19110.0	4.950983409576617e+17
19111.0	4.9500027225811616e+17
19112.0	4.949084193772886e+17
19113.0	4.948294189623978e+17
19114.0	4.947328915996671e+17
19115.0	4.946402334124715e+17
19116.0	4.945570068168703e+17
19117.0	4.9446655762978125e+17
19118.0	4.9436281375730336e+17
19119.0	4.924851906499897e+17
19120.0	4.9419201596620794e+17
19121.0	4.9410700280681805e+17
19122.0	4.9402119664435194e+17
19123.0	4.939315124284074e+17
19124.0	4.938392358529706e+17
19125.0	4.9375155092193274e+17
19126.0	4.936596324701524e+17
19127.0	4.9326997799348883e+17
19128.0	4.934780446922068e+17
19129.0	4.9338071300177914e+17
19130.0	4.9330125002506234e+17
19131.0	4.932133943858515e+17
19132.0	4.931236993346217e+17
19133.0	4.930265390514174e+17
19134.0	4.9294432174516896e+17
19135.0	4.928549470688596e+17
19136.0	4.927660080409258e+17
19137.0	4.926499275319978e+17
19138.0	4.925847987989163e+17
19139.0	4.924977544779093e+17
19140.0	4.9240854044344314e+17
19141.0	4.9231911312861856e+17
19142.0	4.9222548291147085e+17
19143.0	4.9213025158867616e+17
19144.0	4.920450977103872e+17
19145.0	4.9196098632635725e+17
19146.0	4.9177319845833395e+17
19147.0	4.917666363998207e+17
19148.0	4.9168008092494496e+17
19149.0	4.915882034375338e+17
19150.0	4.9151383989562016e+17
19151.0	4.91424932045346e+17
19152.0	4.913355572292266e+17
19153.0	4.912174252163071e+17
19154.0	4.911349338122922e+17
19155.0	4.910687435707732e+17
19156.0	4.9097932422512634e+17
19157.0	4.908802346319872e+17
19158.0	4.9076093855989754e+17
19159.0	4.907086446067711e+17
19160.0	4.906215270252543e+17
19161.0	4.905336053956607e+17
19162.0	4.9039235549757434e+17
19163.0	4.903535334391808e+17
19164.0	4.902668917713578e+17
19165.0	4.901463313962324e+17
19166.0	4.900652663351977e+17
19167.0	4.899954601842004e+17
19168.0	4.899104987545598e+17
19169.0	4.898208148182356e+17
19170.0	4.897335605723136e+17
19171.0	4.8964098501290656e+17
19172.0	4.8955562072036685e+17
19173.0	4.8946709000792736e+17
19174.0	4.89368053612544e+17
19175.0	4.8928882901210445e+17
19176.0	4.892002380414975e+17
19177.0	4.8908747026377376e+17
19178.0	4.8902172972154874e+17
19179.0	4.8892988264284154e+17
19180.0	4.888443874181119e+17
19181.0	4.8873033310754125e+17
19182.0	4.8866576263632205e+17
19183.0	4.885799952012628e+17
19184.0	4.8849081353284256e+17
19185.0	4.884006652171604e+17
19186.0	4.883138037678079e+17
19187.0	4.8821645942456314e+17
19188.0	4.881364060995583e+17
19189.0	4.8804879233187834e+17
19190.0	4.8796004113885856e+17
19191.0	4.878667855429632e+17
19192.0	4.877831288214869e+17
19193.0	4.87690313347891e+17
19194.0	4.875985736433664e+17
19195.0	4.87517248815104e+17
19196.0	4.8742583409923405e+17
19197.0	4.87338167693039e+17
19198.0	4.872469115917654e+17
19199.0	4.868354086360404e+17
19200.0	4.868456129582421e+17
19201.0	4.869799976195412e+17
19202.0	4.8689550511308794e+17
19203.0	4.8680698810204154e+17
19204.0	4.867155650674687e+17
19205.0	4.86630255230976e+17
19206.0	4.8654074172320416e+17
19207.0	4.864375516386645e+17
19208.0	4.8632398414697805e+17
19209.0	4.862771418802857e+17
19210.0	4.861893829197822e+17
19211.0	4.861033462104064e+17
19212.0	4.860146446499839e+17
19213.0	4.859118602944511e+17
19214.0	4.8581978497570125e+17
19215.0	4.8574958232316576e+17
19216.0	4.85662686969856e+17
19217.0	4.8557288412501325e+17
19218.0	4.853551257179474e+17
19219.0	4.8537625536320845e+17
19220.0	4.853067014296917e+17
19221.0	4.8517057012039674e+17
19222.0	4.8513306430450336e+17
19223.0	4.8504321546212685e+17
19224.0	4.849521528580777e+17
19225.0	4.848474747043839e+17
19226.0	4.847795965351253e+17
19227.0	4.8469245777237325e+17
19228.0	4.846081258378581e+17
19229.0	4.8452015052117325e+17
19230.0	4.844310712636756e+17
19231.0	4.843427025212756e+17
19232.0	4.842557751514453e+17
19233.0	4.8415862556371616e+17
19234.0	4.840775800061951e+17
19235.0	4.839885849843029e+17
19236.0	4.8390577586176e+17
19237.0	4.838151835789993e+17
19238.0	4.8371500053080736e+17
19239.0	4.8364322543370234e+17
19240.0	4.8355491764852045e+17
19241.0	4.8346469089935354e+17
19242.0	4.833780124614655e+17
19243.0	4.832690685607934e+17
19244.0	4.8320537833417376e+17
19245.0	4.831168374155946e+17
19246.0	4.830274614110889e+17
19247.0	4.8294132291993594e+17
19248.0	4.8285532822350496e+17
19249.0	4.827665556395348e+17
19250.0	4.82671781356066e+17
19251.0	4.825710847153492e+17
19252.0	4.824632481109332e+17
19253.0	4.8241327836146336e+17
19254.0	4.823306343546879e+17
19255.0	4.8221500424410445e+17
19256.0	4.821517793755134e+17
19257.0	4.8206823079717536e+17
19258.0	4.819811298530644e+17
19259.0	4.818831417540607e+17
19260.0	4.8178985127553696e+17
19261.0	4.817172110333267e+17
19262.0	4.8162268673037645e+17
19263.0	4.815330483721556e+17
19264.0	4.813617269921107e+17
19265.0	4.813338792602281e+17
19266.0	4.812220647778987e+17
19267.0	4.811958774311594e+17
19268.0	4.8110768296209056e+17
19269.0	4.8102095489160525e+17
19270.0	4.8093347016867834e+17
19271.0	4.807880107272875e+17
19272.0	4.8075424734904314e+17
19273.0	4.806187530147155e+17
19274.0	4.805178911184212e+17
19275.0	4.804988443645269e+17
19276.0	4.804085993002323e+17
19277.0	4.80322573635857e+17
19278.0	4.802353886658559e+17
19279.0	4.8014655848011085e+17
19280.0	4.800482011425449e+17
19281.0	4.7997373204398086e+17
19282.0	4.7988949483083085e+17
19283.0	4.7979811863265274e+17
19284.0	4.7971145962837325e+17
19285.0	4.796029216664233e+17
19286.0	4.795354369927849e+17
19287.0	4.794538372278953e+17
19288.0	4.792042773981865e+17
19289.0	4.7886510395664986e+17
19290.0	4.7919307671906976e+17
19291.0	4.7906888295819955e+17
19292.0	4.790202871229097e+17
19293.0	4.7893240191385594e+17
19294.0	4.7884480862836045e+17
19295.0	4.787598284641621e+17
19296.0	4.786557032595456e+17
19297.0	4.7857942718491296e+17
19298.0	4.78494371942673e+17
19299.0	4.7839364202714445e+17
19300.0	4.783232063111168e+17
19301.0	4.782377049347412e+17
19302.0	4.78149674672674e+17
19303.0	4.78052531446306e+17
19304.0	4.7797295207765325e+17
19305.0	4.778882963428693e+17
19306.0	4.778029009425749e+17
19307.0	4.777092436721663e+17
19308.0	4.776262849527808e+17
19309.0	4.77529875100467e+17
19310.0	4.774374421473962e+17
19311.0	4.7736336857169914e+17
19312.0	4.7728128911824205e+17
19313.0	4.7719562353486496e+17
19314.0	4.755669281057443e+17
19315.0	4.7562296232946586e+17
19316.0	4.769121689752917e+17
19317.0	4.768470983333204e+17
19318.0	4.767607137064276e+17
19319.0	4.766764379056811e+17
19320.0	4.7658291750939296e+17
19321.0	4.7648860732566176e+17
19322.0	4.7640528572907514e+17
19323.0	4.7632401948125856e+17
19324.0	4.762416759264596e+17
19325.0	4.761453444377258e+17
19326.0	4.760691852443647e+17
19327.0	4.759799089943893e+17
19328.0	4.758646865701546e+17
19329.0	4.7580933552865274e+17
19330.0	4.7571612879639885e+17
19331.0	4.7562803764701856e+17
19332.0	4.7554849658634234e+17
19333.0	4.75460065698338e+17
19334.0	4.753739450329771e+17
19335.0	4.7522497670676486e+17
19336.0	4.751999374808405e+17
19337.0	4.751131971070634e+17
19338.0	4.74993463079731e+17
19339.0	4.7493929042793805e+17
19340.0	4.748090045803177e+17
19341.0	4.7473180177421645e+17
19342.0	4.746099952713727e+17
19343.0	4.7459032915858765e+17
19344.0	4.744788812584276e+17
19345.0	4.740456910247247e+17
19346.0	4.7418351809112723e+17
19347.0	4.74201899069167e+17
19348.0	4.7415503093759994e+17
19349.0	4.7406293478714016e+17
19350.0	4.7396539932344314e+17
19351.0	4.738866400810324e+17
19352.0	4.737632401620991e+17
19353.0	4.737185795626324e+17
19354.0	4.736277757471402e+17
19355.0	4.735245702135807e+17
19356.0	4.7345190138019834e+17
19357.0	4.7336452878499834e+17
19358.0	4.7327639275656525e+17
19359.0	4.7317494400723616e+17
19360.0	4.7306925271941114e+17
19361.0	4.730061070532608e+17
19362.0	4.7292434832424954e+17
19363.0	4.728359823081471e+17
19364.0	4.727473456196266e+17
19365.0	4.7265806713268896e+17
19366.0	4.72570086363409e+17
19367.0	4.7248138130773325e+17
19368.0	4.723926454938282e+17
19369.0	4.722962659803136e+17
19370.0	4.7220865423988045e+17
19371.0	4.7211641730061645e+17
19372.0	4.7203531770647885e+17
19373.0	4.7194273236036256e+17
19374.0	4.718547859843755e+17
19375.0	4.717649186171561e+17
19376.0	4.716752286689962e+17
19377.0	4.715815569981439e+17
19378.0	4.714871574058325e+17
19379.0	4.713965908481366e+17
19380.0	4.7130540038772045e+17
19381.0	4.7121277191017805e+17
19382.0	4.7111041411536205e+17
19383.0	4.710121654801749e+17
19384.0	4.7093420385457485e+17
19385.0	4.708432447100245e+17
19386.0	4.70750461952e+17
19387.0	4.706564938836649e+17
19388.0	4.70559685153041e+17
19389.0	4.704587731348138e+17
19390.0	4.70358496973073e+17
19391.0	4.6969178641749235e+17
19392.0	4.70156250849826e+17
19393.0	4.7006914857751885e+17
19394.0	4.699701904059049e+17
19395.0	4.698551051354111e+17
19396.0	4.697594875172181e+17
19397.0	4.6966222817853434e+17
19398.0	4.695482648843605e+17
19399.0	4.693121166912168e+17
19400.0	4.693208341326506e+17
19401.0	4.692335934483114e+17
19402.0	4.691290070100649e+17
19403.0	4.6900638038097914e+17
19404.0	4.688936163082239e+17
19405.0	4.687801236848639e+17
19406.0	4.686574088355839e+17
19407.0	4.6853057217385805e+17
19408.0	4.682774970280622e+17
19409.0	4.6829690526105594e+17
19410.0	4.681791525530281e+17
19411.0	4.6805486658737485e+17
19412.0	4.679263399706623e+17
19413.0	4.6778495138092365e+17
19414.0	4.676491944831658e+17
19415.0	4.675063810184532e+17
19416.0	4.6733936704880634e+17
19417.0	4.6721071963613856e+17
19418.0	4.670533797587626e+17
19419.0	4.66880910397713e+17
19420.0	4.667138024057514e+17
19421.0	4.665149390585857e+17
19422.0	4.6631247049741645e+17
19423.0	4.660843002899114e+17
19424.0	4.6585385802792954e+17
19425.0	4.6559322949986976e+17
19426.0	4.6529103814546765e+17
19427.0	4.649388782299819e+17
19428.0	4.6452447015949645e+17
19429.0	4.64083596030771e+17
19430.0	4.6372451474472966e+17
19431.0	4.632882089820162e+17
19432.0	4.6299440910172154e+17
19433.0	4.625822533724842e+17
19434.0	4.620840670855168e+17
19435.0	4.6151409591473485e+17
19436.0	4.607731771462997e+17
19437.0	4.598791854358531e+17
19438.0	4.573164888304292e+17
19439.0	4.5643760066887725e+17
19440.0	4.550652232815957e+17
19441.0	4.5386876087610016e+17
19442.0	4.524753993859072e+17
19443.0	4.507023288827899e+17
19444.0	4.475851951308787e+17
19445.0	4.409470433449286e+17
19446.0	4.359700376890025e+17
19447.0	4.314361963216891e+17
19448.0	4.220715571434829e+17
19449.0	4.063778606590631e+17
19450.0	3.735264807616531e+17
19451.0	3.516752484193682e+17
19452.0	3.950028701827077e+17
19453.0	4.1398560040332154e+17
19454.0	4.278274180688544e+17
19455.0	4.3327863523027603e+17
19456.0	4.3731009957178086e+17
19457.0	4.4385111651996954e+17
19458.0	4.4314589847880576e+17
19459.0	4.503088086559413e+17
19460.0	4.517697540849663e+17
19461.0	4.5287087192145914e+17
19462.0	4.538923927732226e+17
19463.0	4.5561026336959085e+17
19464.0	4.571248048035155e+17
19465.0	4.5811139073802266e+17
19466.0	4.587219026531668e+17
19467.0	4.5918399366867616e+17
19468.0	4.5953036383682554e+17
19469.0	4.597390194158249e+17
19470.0	4.6005340815578445e+17
19471.0	4.6025300760330234e+17
19472.0	4.6040869191898445e+17
19473.0	4.606394839160148e+17
19474.0	4.6090300301858125e+17
19475.0	4.609647149318142e+17
19476.0	4.6126440948695034e+17
19477.0	4.613789773201408e+17
19478.0	4.6147288834594125e+17
19479.0	4.6150997081675085e+17
19480.0	4.6156942591481165e+17
19481.0	4.615964117172223e+17
19482.0	4.616167266888361e+17
19483.0	4.616168993543508e+17
19484.0	4.6162358290786976e+17
19485.0	4.615986978226175e+17
19486.0	4.61556341993199e+17
19487.0	4.615585146426708e+17
19488.0	4.6154154679555405e+17
19489.0	4.614897697903957e+17
19490.0	4.611986676864336e+17
19491.0	4.6142084353447245e+17
19492.0	4.6138313779008845e+17
19493.0	4.613359594897408e+17
19494.0	4.612852241399808e+17
19495.0	4.612383039291392e+17
19496.0	4.6110663556901523e+17
19497.0	4.6113521178159776e+17
19498.0	4.610293878139562e+17
19499.0	4.600963186120014e+17
19500.0	4.6097891467810125e+17
19501.0	4.609189602481492e+17
19502.0	4.608556679910741e+17
19503.0	4.608055441708372e+17
19504.0	4.607400926860629e+17
19505.0	4.6067319339745274e+17
19506.0	4.606074321633279e+17
19507.0	4.6053620302479354e+17
19508.0	4.604802868008276e+17
19509.0	4.604096055083007e+17
19510.0	4.6029849783610016e+17
19511.0	4.578220944217407e+17
19512.0	4.6006018223636435e+17
19513.0	4.598084477299366e+17
19514.0	4.598602127813288e+17
19515.0	4.599060875618987e+17
19516.0	4.5991095001852576e+17
19517.0	4.59829186466065e+17
19518.0	4.5976290353042765e+17
19519.0	4.5968705338736634e+17
19520.0	4.595927364927487e+17
19521.0	4.59544368058641e+17
19522.0	4.594602123547989e+17
19523.0	4.593868654422698e+17
19524.0	4.5930011080785914e+17
19525.0	4.592375266891092e+17
19526.0	4.591633788742314e+17
19527.0	4.5908747616255994e+17
19528.0	4.5901093675554125e+17
19529.0	4.589328176338261e+17
19530.0	4.5886053174039885e+17
19531.0	4.58782824079906e+17
19532.0	4.587049613699755e+17
19533.0	4.5862693843763194e+17
19534.0	4.5854832096269645e+17
19535.0	4.5846749455755936e+17
19536.0	4.5838539965508256e+17
19537.0	4.5831257563245216e+17
19538.0	4.581964075324757e+17
19539.0	4.5805486123690694e+17
19540.0	4.5807230359961594e+17
19541.0	4.579928074179925e+17
19542.0	4.579156199211007e+17
19543.0	4.578164381231787e+17
19544.0	4.577578745244331e+17
19545.0	4.575982105133053e+17
19546.0	4.5744026910283104e+17
19547.0	4.5752192374319776e+17
19548.0	4.57442902216977e+17
19549.0	4.573483116440233e+17
19550.0	4.572836647665663e+17
19551.0	4.5720441863536634e+17
19552.0	4.571245049806847e+17
19553.0	4.5704094081351674e+17
19554.0	4.5695712582696954e+17
19555.0	4.568803975364608e+17
19556.0	4.5680382268757325e+17
19557.0	4.5672451035627514e+17
19558.0	4.5664467897985696e+17
19559.0	4.56565612225058e+17
19560.0	4.564768814443178e+17
19561.0	4.5640418422947834e+17
19562.0	4.5631963565916154e+17
19563.0	4.562485377324372e+17
19564.0	4.561684098886313e+17
19565.0	4.560878141003093e+17
19566.0	4.5600302519637325e+17
19567.0	4.559277428921684e+17
19568.0	4.55844358590737e+17
19569.0	4.557637678355797e+17
19570.0	4.5568699305820154e+17
19571.0	4.5560596106226336e+17
19572.0	4.55521342656785e+17
19573.0	4.554409512708778e+17
19574.0	4.553511729627134e+17
19575.0	4.552853462275413e+17
19576.0	4.5520349410536096e+17
19577.0	4.5511784781578234e+17
19578.0	4.5503714689023994e+17
19579.0	4.549601409368063e+17
19580.0	4.548800558049962e+17
19581.0	4.548007671715157e+17
19582.0	4.547235184377855e+17
19583.0	4.5464317507665914e+17
19584.0	4.5456242298060794e+17
19585.0	4.5446442222878714e+17
19586.0	4.543799662826838e+17
19587.0	4.5431913622186656e+17
19588.0	4.5416088275517446e+17
19589.0	4.5415711990524576e+17
19590.0	4.5405715524048205e+17
19591.0	4.539988125417472e+17
19592.0	4.539190832267263e+17
19593.0	4.5383445678216525e+17
19594.0	4.5371703381633696e+17
19595.0	4.536739648154282e+17
19596.0	4.5359244096744096e+17
19597.0	4.535158028544683e+17
19598.0	4.5333649027672723e+17
19599.0	4.533559454160213e+17
19600.0	4.532769854062591e+17
19601.0	4.531860950482944e+17
19602.0	4.5310799682819405e+17
19603.0	4.5296180701866656e+17
19604.0	4.5294913316017485e+17
19605.0	4.528272066303317e+17
19606.0	4.527942672930132e+17
19607.0	4.5271503975656096e+17
19608.0	4.5263241783978656e+17
19609.0	4.5254595163368096e+17
19610.0	4.524636564531882e+17
19611.0	4.523767905998165e+17
19612.0	4.523142848446463e+17
19613.0	4.522324539037013e+17
19614.0	4.5214787862964896e+17
19615.0	4.5207350411263994e+17
19616.0	4.519776269369344e+17
19617.0	4.5189356350778016e+17
19618.0	4.517290604582227e+17
19619.0	4.516200615422632e+17
19620.0	4.515485631993171e+17
19621.0	4.515694525808638e+17
19622.0	4.515124717027328e+17
19623.0	4.5143139853271034e+17
19624.0	4.5134794027171834e+17
19625.0	4.512723104694272e+17
19626.0	4.5119065785630714e+17
19627.0	4.511118754054144e+17
19628.0	4.510227778327892e+17
19629.0	4.508828822754643e+17
19630.0	4.508454080566612e+17
19631.0	4.5043094266402125e+17
19632.0	4.507089222587732e+17
19633.0	4.506248111543636e+17
19634.0	4.5055182446264314e+17
19635.0	4.5046399077362336e+17
19636.0	4.503662446859604e+17
19637.0	4.5023967785779194e+17
19638.0	4.502280015446015e+17
19639.0	4.5015074120663034e+17
19640.0	4.500554036980394e+17
19641.0	4.4973147543306304e+17
19642.0	4.499096468804948e+17
19643.0	4.4982930869234336e+17
19644.0	4.4974229855491405e+17
19645.0	4.496250890092542e+17
19646.0	4.4956660342456314e+17
19647.0	4.495133366026239e+17
19648.0	4.494336110624768e+17
19649.0	4.493532780473001e+17
19650.0	4.4927446735476045e+17
19651.0	4.491941337104382e+17
19652.0	4.4911418293616634e+17
19653.0	4.4903534113587194e+17
19654.0	4.489547622645759e+17
19655.0	4.4887399940314445e+17
