# Flux units: erg / (cm m2 s)
# Wavelength units: Angstrom
wave	flux
19000.0	5.0259889288642554e+17
19001.0	5.025023225320789e+17
19002.0	5.024125454822058e+17
19003.0	5.02319088350003e+17
19004.0	5.0222574656116045e+17
19005.0	5.021327705156266e+17
19006.0	5.0203976343224314e+17
19007.0	5.0193724450624845e+17
19008.0	5.018513214625108e+17
19009.0	5.017597885371732e+17
19010.0	5.016488569558356e+17
19011.0	5.015732059024043e+17
19012.0	5.014606684618751e+17
19013.0	5.0138799438561274e+17
19014.0	5.012931288061268e+17
19015.0	5.0120074478660256e+17
19016.0	5.0110726290800634e+17
19017.0	5.0101509405627725e+17
19018.0	5.0092157652609696e+17
19019.0	5.0082991252875936e+17
19020.0	5.0073593614172154e+17
19021.0	5.0064379560154445e+17
19022.0	5.005513531413844e+17
19023.0	5.0045727476285434e+17
19024.0	5.003649303095977e+17
19025.0	5.00271387194163e+17
19026.0	5.0017737522544634e+17
19027.0	5.000718524088319e+17
19028.0	4.999944658223103e+17
19029.0	4.9990085322123936e+17
19030.0	4.998091259598164e+17
19031.0	4.9971660261949434e+17
19032.0	4.996237436649471e+17
19033.0	4.995279925280766e+17
19034.0	4.994378447716352e+17
19035.0	4.9934453339149645e+17
19036.0	4.980959397718686e+17
19037.0	4.9916007698923514e+17
19038.0	4.990670397767679e+17
19039.0	4.989750966484991e+17
19040.0	4.988826795638783e+17
19041.0	4.9878982704059725e+17
19042.0	4.986941712542378e+17
19043.0	4.98605058372403e+17
19044.0	4.985120157073406e+17
19045.0	4.9841935996682214e+17
19046.0	4.983253304519338e+17
19047.0	4.9823498171842554e+17
19048.0	4.981346471859541e+17
19049.0	4.9804743649088845e+17
19050.0	4.979560542808746e+17
19051.0	4.976852521189373e+17
19052.0	4.977644999278592e+17
19053.0	4.976782874771455e+17
19054.0	4.975882806493183e+17
19055.0	4.974871884158293e+17
19056.0	4.9740257560275616e+17
19057.0	4.973109425733632e+17
19058.0	4.972161062141952e+17
19059.0	4.97126556705314e+17
19060.0	4.97033536409873e+17
19061.0	4.969423509127168e+17
19062.0	4.9684997472255994e+17
19063.0	4.9675789674741754e+17
19064.0	4.966611587607209e+17
19065.0	4.965676640195924e+17
19066.0	4.964793611976704e+17
19067.0	4.963889116610559e+17
19068.0	4.9629724416846496e+17
19069.0	4.962052203697492e+17
19070.0	4.9611208780677114e+17
19071.0	4.960201832660991e+17
19072.0	4.9592891353333754e+17
19073.0	4.958369037156351e+17
19074.0	4.957451042422783e+17
19075.0	4.956531361579007e+17
19076.0	4.955603790550358e+17
19077.0	4.9546888814264314e+17
19078.0	4.9537568469592736e+17
19079.0	4.9528537112466765e+17
19080.0	4.951931256569855e+17
19081.0	4.9510009941961376e+17
19082.0	4.950080354953898e+17
19083.0	4.949147454362964e+17
19084.0	4.948185124438015e+17
19085.0	4.947339429718697e+17
19086.0	4.946291437426005e+17
19087.0	4.9451829422981114e+17
19088.0	4.944566027288575e+17
19089.0	4.943447960059903e+17
19090.0	4.9427469974896634e+17
19091.0	4.9418339890845005e+17
19092.0	4.940830199862612e+17
19093.0	4.9400081162786125e+17
19094.0	4.9390901180497914e+17
19095.0	4.938173551476735e+17
19096.0	4.937246610292734e+17
19097.0	4.936343771676672e+17
19098.0	4.9354264599156045e+17
19099.0	4.934510433708714e+17
19100.0	4.933579344358058e+17
19101.0	4.93267720409361e+17
19102.0	4.9317312291580576e+17
19103.0	4.9308521344969376e+17
19104.0	4.929940220805119e+17
19105.0	4.929022669968725e+17
19106.0	4.9280527854032205e+17
19107.0	4.927190879698943e+17
19108.0	4.9262835559738016e+17
19109.0	4.9243933858856934e+17
19110.0	4.9244559509203616e+17
19111.0	4.9235401987413325e+17
19112.0	4.922631158147755e+17
19113.0	4.92171844124672e+17
19114.0	4.9208049001649485e+17
19115.0	4.919842981980842e+17
19116.0	4.9189749616803834e+17
19117.0	4.9180572451689805e+17
19118.0	4.9169818598768634e+17
19119.0	4.914513734970023e+17
19120.0	4.9151390665495885e+17
19121.0	4.9142700102560416e+17
19122.0	4.913416290435071e+17
19123.0	4.9125045256410445e+17
19124.0	4.91153871933713e+17
19125.0	4.910680928245077e+17
19126.0	4.909759884951551e+17
19127.0	4.908257137131518e+17
19128.0	4.9073637308060986e+17
19129.0	4.907014323612329e+17
19130.0	4.9061304369588896e+17
19131.0	4.9052046044692474e+17
19132.0	4.9043148786455885e+17
19133.0	4.903248927741269e+17
19134.0	4.902202767660373e+17
19135.0	4.901584623719764e+17
19136.0	4.900681639701161e+17
19137.0	4.899716433182719e+17
19138.0	4.898821099574612e+17
19139.0	4.8979571288746656e+17
19140.0	4.897049747128319e+17
19141.0	4.896142277301589e+17
19142.0	4.895222833435989e+17
19143.0	4.894305548238847e+17
19144.0	4.8934097735297696e+17
19145.0	4.8925105650838176e+17
19146.0	4.891385761103871e+17
19147.0	4.890668272276821e+17
19148.0	4.8897883184824314e+17
19149.0	4.8888823851690656e+17
19150.0	4.8879796709840205e+17
19151.0	4.8870759326897485e+17
19152.0	4.8861587187957766e+17
19153.0	4.885257522948778e+17
19154.0	4.8843177346116256e+17
19155.0	4.883453499670528e+17
19156.0	4.882550993802581e+17
19157.0	4.8816398966019405e+17
19158.0	4.880104880603134e+17
19159.0	4.879830433311402e+17
19160.0	4.8789161071957325e+17
19161.0	4.877976941013674e+17
19162.0	4.875673432752128e+17
19163.0	4.876219789781674e+17
19164.0	4.875319854323029e+17
19165.0	4.87438463218483e+17
19166.0	4.8734383958043296e+17
19167.0	4.8724731361580365e+17
19168.0	4.8716831963217914e+17
19169.0	4.8707664626756256e+17
19170.0	4.869902668136447e+17
19171.0	4.868910452397396e+17
19172.0	4.868092268817066e+17
19173.0	4.867192766070783e+17
19174.0	4.866274596574549e+17
19175.0	4.8653936410405536e+17
19176.0	4.864491163833685e+17
19177.0	4.8635405087539194e+17
19178.0	4.8626784758224205e+17
19179.0	4.8616519709491194e+17
19180.0	4.860814511745707e+17
19181.0	4.8599439538913274e+17
19182.0	4.8590748074202445e+17
19183.0	4.858180044237483e+17
19184.0	4.857258489238869e+17
19185.0	4.856383958679551e+17
19186.0	4.8554884649888416e+17
19187.0	4.854562293459626e+17
19188.0	4.8536818447373645e+17
19189.0	4.852766285496319e+17
19190.0	4.851861256754517e+17
19191.0	4.850964752935594e+17
19192.0	4.8500930164817914e+17
19193.0	4.849164812113236e+17
19194.0	4.848278389303977e+17
19195.0	4.8473929521561594e+17
19196.0	4.8464952802235725e+17
19197.0	4.845599917954389e+17
19198.0	4.8435916810048845e+17
19199.0	4.8344081125867494e+17
19200.0	4.836755651952644e+17
19201.0	4.840713533521919e+17
19202.0	4.8398200600876384e+17
19203.0	4.8389029321768954e+17
19204.0	4.8380151098682016e+17
19205.0	4.8371286947485005e+17
19206.0	4.836229956763647e+17
19207.0	4.8353112811547296e+17
19208.0	4.834360856062634e+17
19209.0	4.8335393701669536e+17
19210.0	4.832649619876522e+17
19211.0	4.8317590419101e+17
19212.0	4.8308632231608314e+17
19213.0	4.829864589437611e+17
19214.0	4.8289326101954554e+17
19215.0	4.8281516133143885e+17
19216.0	4.8272818397948576e+17
19217.0	4.826388420187476e+17
19218.0	4.825212245770239e+17
19219.0	4.8245520399510176e+17
19220.0	4.823694575315626e+17
19221.0	4.8226935760049485e+17
19222.0	4.821921556332543e+17
19223.0	4.8210194447291725e+17
19224.0	4.820114226544639e+17
19225.0	4.8191884101331616e+17
19226.0	4.818339151653546e+17
19227.0	4.8174468896740685e+17
19228.0	4.8165633874984954e+17
19229.0	4.815670520840192e+17
19230.0	4.8147546372396365e+17
19231.0	4.813865462966953e+17
19232.0	4.812985077159253e+17
19233.0	4.812074430846293e+17
19234.0	4.8111993711056205e+17
19235.0	4.810304423373481e+17
19236.0	4.809424349342378e+17
19237.0	4.808525914745514e+17
19238.0	4.807597001539583e+17
19239.0	4.806750219796479e+17
19240.0	4.805810217549823e+17
19241.0	4.8049481783268685e+17
19242.0	4.804070024587946e+17
19243.0	4.803127054172159e+17
19244.0	4.802293160826196e+17
19245.0	4.801400874379945e+17
19246.0	4.800506144751615e+17
19247.0	4.799618349006847e+17
19248.0	4.79872875180851e+17
19249.0	4.797835537022975e+17
19250.0	4.796942336218451e+17
19251.0	4.796031764703913e+17
19252.0	4.795059465617408e+17
19253.0	4.794270344369493e+17
19254.0	4.793380776531283e+17
19255.0	4.7924287366321485e+17
19256.0	4.791589225715028e+17
19257.0	4.790717218029568e+17
19258.0	4.7898283932822176e+17
19259.0	4.788912771825663e+17
19260.0	4.787849238238548e+17
19261.0	4.787155109587625e+17
19262.0	4.786249620870485e+17
19263.0	4.7853621837387085e+17
19264.0	4.784307270145364e+17
19265.0	4.783529605638825e+17
19266.0	4.782637914084692e+17
19267.0	4.7818222505820154e+17
19268.0	4.7809308414443514e+17
19269.0	4.780047178487125e+17
19270.0	4.7791579119397536e+17
19271.0	4.7781509616107514e+17
19272.0	4.777368159081812e+17
19273.0	4.7751087539268243e+17
19274.0	4.774900518617087e+17
19275.0	4.774711910552916e+17
19276.0	4.773815566117546e+17
19277.0	4.7729266721641805e+17
19278.0	4.772038522000724e+17
19279.0	4.7711246985024845e+17
19280.0	4.7702307518109e+17
19281.0	4.769369003393023e+17
19282.0	4.768485027261098e+17
19283.0	4.767460095251796e+17
19284.0	4.7665110354056525e+17
19285.0	4.765747399447892e+17
19286.0	4.7649144155668474e+17
19287.0	4.7640359095063885e+17
19288.0	4.7607508229597856e+17
19289.0	4.75395743739629e+17
19290.0	4.7613656002723834e+17
19291.0	4.76038827151633e+17
19292.0	4.7595849833076045e+17
19293.0	4.7586915098733216e+17
19294.0	4.757799764492288e+17
19295.0	4.756909366880938e+17
19296.0	4.7560146533307725e+17
19297.0	4.755113537175551e+17
19298.0	4.754224279016789e+17
19299.0	4.753342493010602e+17
19300.0	4.752450607120383e+17
19301.0	4.7515567527034874e+17
19302.0	4.750664857725611e+17
19303.0	4.749739508979029e+17
19304.0	4.7488646813231763e+17
19305.0	4.747981431504895e+17
19306.0	4.7470841706141e+17
19307.0	4.746170948998483e+17
19308.0	4.745290657562623e+17
19309.0	4.7441156743277216e+17
19310.0	4.743091240042495e+17
19311.0	4.742593130091861e+17
19312.0	4.741375028013738e+17
19313.0	4.740119528123051e+17
19314.0	4.728799801376739e+17
19315.0	4.7290711071348294e+17
19316.0	4.7374196791050234e+17
19317.0	4.7365404830815565e+17
19318.0	4.735641401862826e+17
19319.0	4.7347484135697056e+17
19320.0	4.7338468989556045e+17
19321.0	4.732949790457855e+17
19322.0	4.7320104544064845e+17
19323.0	4.7310018172682234e+17
19324.0	4.7302406356773536e+17
19325.0	4.7290657559019514e+17
19326.0	4.7284415036566176e+17
19327.0	4.7275329006687565e+17
19328.0	4.726632574440789e+17
19329.0	4.7257291528164685e+17
19330.0	4.7248081486697805e+17
19331.0	4.723900421592404e+17
19332.0	4.7230044301776205e+17
19333.0	4.7220891072157005e+17
19334.0	4.7211846852498765e+17
19335.0	4.720273695703039e+17
19336.0	4.719359610759849e+17
19337.0	4.7184493286522874e+17
19338.0	4.7174647430512634e+17
19339.0	4.7166170280755194e+17
19340.0	4.715662851877546e+17
19341.0	4.7147795321541965e+17
19342.0	4.713714498404351e+17
19343.0	4.712941913199957e+17
19344.0	4.7120145861399885e+17
19345.0	4.710292769822035e+17
19346.0	4.709991042777089e+17
19347.0	4.709214387000661e+17
19348.0	4.7083090730461856e+17
19349.0	4.7073621068567885e+17
19350.0	4.7064285365753165e+17
19351.0	4.7054911306028365e+17
19352.0	4.704541737309524e+17
19353.0	4.703627692212223e+17
19354.0	4.7026841276033696e+17
19355.0	4.7017048121453216e+17
19356.0	4.700788044245674e+17
19357.0	4.699836105009834e+17
19358.0	4.6988693431036576e+17
19359.0	4.697850271935146e+17
19360.0	4.6969470369573536e+17
19361.0	4.695980014305279e+17
19362.0	4.6950302519132154e+17
19363.0	4.6940573055057914e+17
19364.0	4.6930779334246406e+17
19365.0	4.692100977961642e+17
19366.0	4.691116086875476e+17
19367.0	4.690124991714645e+17
19368.0	4.689133017148074e+17
19369.0	4.6880977930158086e+17
19370.0	4.686966675210239e+17
19371.0	4.686098787729407e+17
19372.0	4.6851014095011834e+17
19373.0	4.684067837924693e+17
19374.0	4.6830467590826656e+17
19375.0	4.68201005645824e+17
19376.0	4.6809684304199674e+17
19377.0	4.6799126933449376e+17
19378.0	4.6781410368116045e+17
19379.0	4.6769207949393914e+17
19380.0	4.675842231063893e+17
19381.0	4.674750947961515e+17
19382.0	4.673624118831787e+17
19383.0	4.67250598449425e+17
19384.0	4.6714201232288416e+17
19385.0	4.670284954424661e+17
19386.0	4.669138663724372e+17
19387.0	4.6679755266020685e+17
19388.0	4.6668002861165216e+17
19389.0	4.6656078867333114e+17
19390.0	4.6643947318367565e+17
19391.0	4.652565852935493e+17
19392.0	4.6619150054850554e+17
19393.0	4.660661016242858e+17
19394.0	4.6593680975680845e+17
19395.0	4.658037964232021e+17
19396.0	4.6567051528328525e+17
19397.0	4.655369638204757e+17
19398.0	4.6539678137275725e+17
19399.0	4.652297484588372e+17
19400.0	4.651096466609493e+17
19401.0	4.6496277814312954e+17
19402.0	4.6471417049033376e+17
19403.0	4.6454080005297485e+17
19404.0	4.643807002536619e+17
19405.0	4.6421471270010874e+17
19406.0	4.6404476411576314e+17
19407.0	4.6386976048633165e+17
19408.0	4.636615149005481e+17
19409.0	4.6349992423587834e+17
19410.0	4.6323500381634554e+17
19411.0	4.6296481115668474e+17
19412.0	4.627548178743296e+17
19413.0	4.625368555541844e+17
19414.0	4.6230850373331616e+17
19415.0	4.619132402838187e+17
19416.0	4.6164083247240525e+17
19417.0	4.613735404535807e+17
19418.0	4.609407426669226e+17
19419.0	4.606188296252074e+17
19420.0	4.6015558384790195e+17
19421.0	4.597503529844736e+17
19422.0	4.59137084363025e+17
19423.0	4.5854229353813325e+17
19424.0	4.5785649813039776e+17
19425.0	4.570396943362732e+17
19426.0	4.560751820450474e+17
19427.0	4.5489328911373626e+17
19428.0	4.541008501014527e+17
19429.0	4.5343850455804576e+17
19430.0	4.527078596673536e+17
19431.0	4.517551203680261e+17
19432.0	4.511336639758334e+17
19433.0	4.501914757977429e+17
19434.0	4.492229719971157e+17
19435.0	4.481738987623765e+17
19436.0	4.468992922091518e+17
19437.0	4.457429616033789e+17
19438.0	4.424459259740153e+17
19439.0	4.425582029482668e+17
19440.0	4.403624179051179e+17
19441.0	4.3717476951435885e+17
19442.0	4.3219781873390906e+17
19443.0	4.284260697505791e+17
19444.0	4.2490599913990803e+17
19445.0	4.2090379188633594e+17
19446.0	4.1586719943120237e+17
19447.0	4.0688188744444506e+17
19448.0	3.964493463115098e+17
19449.0	3.8033867190654266e+17
19450.0	3.388938511537484e+17
19451.0	3.275414308214094e+17
19452.0	3.6150794469594675e+17
19453.0	3.904658105259358e+17
19454.0	4.011038125763236e+17
19455.0	4.117566206596432e+17
19456.0	4.1795023305441286e+17
19457.0	4.221539502609747e+17
19458.0	4.2332228608328096e+17
19459.0	4.2888923989060275e+17
19460.0	4.3356730044361485e+17
19461.0	4.3744682689167366e+17
19462.0	4.3986301163492704e+17
19463.0	4.416109712594259e+17
19464.0	4.4298933944101523e+17
19465.0	4.44158641700864e+17
19466.0	4.452229603917823e+17
19467.0	4.4617103967955616e+17
19468.0	4.4699842661143885e+17
19469.0	4.477662900082003e+17
19470.0	4.485000878271146e+17
19471.0	4.491263977979904e+17
19472.0	4.4969433291380045e+17
19473.0	4.5020846888058874e+17
19474.0	4.5071594408291e+17
19475.0	4.515344353154387e+17
19476.0	4.524335709902164e+17
19477.0	4.5316653001823565e+17
19478.0	4.5377017159352326e+17
19479.0	4.54250306714556e+17
19480.0	4.546332698782378e+17
19481.0	4.549427061937492e+17
19482.0	4.552573316322646e+17
19483.0	4.55449982935586e+17
19484.0	4.556564297241941e+17
19485.0	4.558544465210026e+17
19486.0	4.5593958620856314e+17
19487.0	4.5607331152527334e+17
19488.0	4.562427344235178e+17
19489.0	4.5629403313821e+17
19490.0	4.5628496728992403e+17
19491.0	4.5637156708461216e+17
19492.0	4.564724105259689e+17
19493.0	4.565571599335423e+17
19494.0	4.565703979259221e+17
19495.0	4.565772427504298e+17
19496.0	4.5656546682251936e+17
19497.0	4.565763734110207e+17
19498.0	4.5653898049181024e+17
19499.0	4.547945126952937e+17
19500.0	4.5654209518196045e+17
19501.0	4.56572728840465e+17
19502.0	4.566063080887636e+17
19503.0	4.565801359813291e+17
19504.0	4.565495263002624e+17
19505.0	4.565177874426539e+17
19506.0	4.5648262379601914e+17
19507.0	4.564438243169621e+17
19508.0	4.5640443609743354e+17
19509.0	4.563619633867434e+17
19510.0	4.5631060315559245e+17
19511.0	4.5416428657267846e+17
19512.0	4.5603484060002874e+17
19513.0	4.55688930197503e+17
19514.0	4.558077597930833e+17
19515.0	4.560374205863254e+17
19516.0	4.5601422293947725e+17
19517.0	4.559561548278442e+17
19518.0	4.5590181978658125e+17
19519.0	4.5584296894791674e+17
19520.0	4.557833122436436e+17
19521.0	4.557242540665514e+17
19522.0	4.5566164037795834e+17
19523.0	4.5560081444154016e+17
19524.0	4.5553756440712525e+17
19525.0	4.5547264105512954e+17
19526.0	4.5540898046825805e+17
19527.0	4.5534339840081914e+17
19528.0	4.5527711231945376e+17
19529.0	4.552102263128063e+17
19530.0	4.5514325054805325e+17
19531.0	4.550751827962538e+17
19532.0	4.550065437103445e+17
19533.0	4.549571618624851e+17
19534.0	4.549483462743381e+17
19535.0	4.548773152467626e+17
19536.0	4.548059324568917e+17
19537.0	4.5473614035681274e+17
19538.0	4.5466347704593056e+17
19539.0	4.5457082417152006e+17
19540.0	4.5451908463547725e+17
19541.0	4.544472510977366e+17
19542.0	4.5437393172780365e+17
19543.0	4.543004773012819e+17
19544.0	4.542269215124138e+17
19545.0	4.5414137868233376e+17
19546.0	4.540429708733098e+17
19547.0	4.540040357085183e+17
19548.0	4.5392934130592416e+17
19549.0	4.5385070446728525e+17
19550.0	4.5377889092239354e+17
19551.0	4.5370343937802234e+17
19552.0	4.5362764180357114e+17
19553.0	4.535510717781332e+17
19554.0	4.5347391098497696e+17
19555.0	4.533987267575808e+17
19556.0	4.533226655012181e+17
19557.0	4.5324588569067514e+17
19558.0	4.531690272369323e+17
19559.0	4.530916902830079e+17
19560.0	4.5301403616979616e+17
19561.0	4.529367517844821e+17
19562.0	4.5286001216935245e+17
19563.0	4.5278273393568403e+17
19564.0	4.5270510002503674e+17
19565.0	4.526272009644714e+17
19566.0	4.525483090422442e+17
19567.0	4.524713156717225e+17
19568.0	4.523923539143339e+17
19569.0	4.5231424017530874e+17
19570.0	4.522367058793812e+17
19571.0	4.5215821661033805e+17
19572.0	4.5207851127275514e+17
19573.0	4.520007292332714e+17
19574.0	4.519191395347114e+17
19575.0	4.518436870815743e+17
19576.0	4.5176484353365325e+17
19577.0	4.516833684094975e+17
19578.0	4.5160559308090016e+17
19579.0	4.5152711289951565e+17
19580.0	4.5144824858978976e+17
19581.0	4.5136928151961594e+17
19582.0	4.51290759884527e+17
19583.0	4.51211518017536e+17
19584.0	4.5113181764321274e+17
19585.0	4.5104896839516154e+17
19586.0	4.5096821105623034e+17
19587.0	4.5088808090555725e+17
19588.0	4.507978242370219e+17
19589.0	4.507332420217514e+17
19590.0	4.506515968884736e+17
19591.0	4.505755826083157e+17
19592.0	4.504961515782143e+17
19593.0	4.5041587658424314e+17
19594.0	4.503269005066238e+17
19595.0	4.502564122918911e+17
19596.0	4.500516105792171e+17
19597.0	4.500968298599766e+17
19598.0	4.5000491441411405e+17
19599.0	4.4993772117469856e+17
19600.0	4.4985818514718714e+17
19601.0	4.4977598790369274e+17
19602.0	4.496969991629482e+17
19603.0	4.495898194564436e+17
19604.0	4.495367643769513e+17
19605.0	4.494479821460821e+17
19606.0	4.4937819214315514e+17
19607.0	4.492986148716544e+17
19608.0	4.492180234873514e+17
19609.0	4.4913642274379085e+17
19610.0	4.4905848013236896e+17
19611.0	4.489779859860138e+17
19612.0	4.488984498186921e+17
19613.0	4.4881790331344205e+17
19614.0	4.487369210899114e+17
19615.0	4.4865818911047674e+17
19616.0	4.4856884680021325e+17
19617.0	4.4849769602525856e+17
19618.0	4.4839994728120314e+17
19619.0	4.483120520757247e+17
19620.0	4.482344364102996e+17
19621.0	4.4817711090018976e+17
19622.0	4.4809740703061325e+17
19623.0	4.4801728016547834e+17
19624.0	4.479368255154859e+17
19625.0	4.4785681916668576e+17
19626.0	4.477766014948692e+17
19627.0	4.47696701751296e+17
19628.0	4.475958646013952e+17
19629.0	4.475330435044692e+17
19630.0	4.474490902457003e+17
19631.0	4.4642270770626477e+17
19632.0	4.472955651577173e+17
19633.0	4.472134565538474e+17
19634.0	4.4713566263050234e+17
19635.0	4.4705424594698234e+17
19636.0	4.469748569997311e+17
19637.0	4.4688284228867405e+17
19638.0	4.468147659385514e+17
19639.0	4.467342713028607e+17
19640.0	4.466528717460821e+17
19641.0	4.465432820624043e+17
19642.0	4.464943160098815e+17
19643.0	4.4641362410209274e+17
19644.0	4.463323087110143e+17
19645.0	4.462447660367872e+17
19646.0	4.46174066708753e+17
19647.0	4.460941452946091e+17
19648.0	4.460139128728234e+17
19649.0	4.459337228135082e+17
19650.0	4.458538648032597e+17
19651.0	4.4577360875356154e+17
19652.0	4.456935266975742e+17
19653.0	4.4561325862420474e+17
19654.0	4.455333988663296e+17
19655.0	4.454531688213162e+17
