# Flux units: erg / (cm m2 s)
# Wavelength units: Angstrom
wave	flux
19000.0	4.8749324117824845e+17
19001.0	4.873864497943892e+17
19002.0	4.8731536563896314e+17
19003.0	4.87225495195921e+17
19004.0	4.8713584851899725e+17
19005.0	4.8704472048380576e+17
19006.0	4.8695727022407674e+17
19007.0	4.868687653066068e+17
19008.0	4.8676862147515725e+17
19009.0	4.8667440943813965e+17
19010.0	4.8650540527124454e+17
19011.0	4.8650595507459405e+17
19012.0	4.8638358702434976e+17
19013.0	4.8633379497355936e+17
19014.0	4.8623672640580256e+17
19015.0	4.8614650147416723e+17
19016.0	4.8605482377543674e+17
19017.0	4.8597784494516896e+17
19018.0	4.8588622128305485e+17
19019.0	4.8579906182840314e+17
19020.0	4.857088607343956e+17
19021.0	4.856226656201385e+17
19022.0	4.855329899326122e+17
19023.0	4.8543790792703994e+17
19024.0	4.853483705816404e+17
19025.0	4.852651581068628e+17
19026.0	4.8517109196171936e+17
19027.0	4.850686598578174e+17
19028.0	4.8500041965021856e+17
19029.0	4.8490887183510176e+17
19030.0	4.848245545806506e+17
19031.0	4.847365454299136e+17
19032.0	4.846460891824127e+17
19033.0	4.845426379325438e+17
19034.0	4.844673277362175e+17
19035.0	4.8437105720470176e+17
19036.0	4.825509759636815e+17
19037.0	4.8419902866500256e+17
19038.0	4.8411149549786445e+17
19039.0	4.8402651372584954e+17
19040.0	4.8393874735540896e+17
19041.0	4.83849066914338e+17
19042.0	4.8363913305128934e+17
19043.0	4.8367441106261325e+17
19044.0	4.8358389784248314e+17
19045.0	4.834960062720683e+17
19046.0	4.833969692475391e+17
19047.0	4.833177576494419e+17
19048.0	4.831732453517994e+17
19049.0	4.829128846999548e+17
19050.0	4.830435446095871e+17
19051.0	4.8272394325852115e+17
19052.0	4.828426995935915e+17
19053.0	4.827903797755903e+17
19054.0	4.827020237559124e+17
19055.0	4.8253952572347744e+17
19056.0	4.8250982368979616e+17
19057.0	4.8243701427732474e+17
19058.0	4.822341002810706e+17
19059.0	4.822166284883285e+17
19060.0	4.821694398420309e+17
19061.0	4.820855708188671e+17
19062.0	4.819966710775807e+17
19063.0	4.819087163129855e+17
19064.0	4.817991153046868e+17
19065.0	4.817049602402985e+17
19066.0	4.815941414158336e+17
19067.0	4.815552203019604e+17
19068.0	4.814692411244543e+17
19069.0	4.813813631855274e+17
19070.0	4.812881266737151e+17
19071.0	4.81204028641553e+17
19072.0	4.810739165779285e+17
19073.0	4.810285140759891e+17
19074.0	4.8094214259124896e+17
19075.0	4.808542999543807e+17
19076.0	4.8076270774954656e+17
19077.0	4.806752754554196e+17
19078.0	4.805821665902591e+17
19079.0	4.8050254031530656e+17
19080.0	4.804126981838164e+17
19081.0	4.80319207846707e+17
19082.0	4.802321083706026e+17
19083.0	4.8013787340472314e+17
19084.0	4.800305176073557e+17
19085.0	4.7997380921917434e+17
19086.0	4.7977463814990496e+17
19087.0	4.796706094142804e+17
19088.0	4.796449569112063e+17
19089.0	4.7957871011648845e+17
19090.0	4.795338777602729e+17
19091.0	4.794368612018858e+17
19092.0	4.7926306916707e+17
19093.0	4.7927620174260896e+17
19094.0	4.791884692062207e+17
19095.0	4.7910140454283936e+17
19096.0	4.790108774815062e+17
19097.0	4.789260899756714e+17
19098.0	4.7879156130993485e+17
19099.0	4.786956818972672e+17
19100.0	4.7865751526877856e+17
19101.0	4.7857502197732685e+17
19102.0	4.784643129737215e+17
19103.0	4.7840116374241274e+17
19104.0	4.783150574774953e+17
19105.0	4.7812663368308064e+17
19106.0	4.7813242126336e+17
19107.0	4.780244149993472e+17
19108.0	4.779283492896768e+17
19109.0	4.7778431772917734e+17
19110.0	4.777880742177449e+17
19111.0	4.776754115073364e+17
19112.0	4.775834867641001e+17
19113.0	4.7752896067229005e+17
19114.0	4.774235318779904e+17
19115.0	4.7734030849802234e+17
19116.0	4.7726531853680634e+17
19117.0	4.7717767394099194e+17
19118.0	4.770733250401621e+17
19119.0	4.748544426639327e+17
19120.0	4.769042729183913e+17
19121.0	4.7682395430365856e+17
19122.0	4.7674677631385594e+17
19123.0	4.766599264687444e+17
19124.0	4.765663751045119e+17
19125.0	4.764849779245055e+17
19126.0	4.7639732640808954e+17
19127.0	4.759749829241513e+17
19128.0	4.7621736609000096e+17
19129.0	4.761254449818283e+17
19130.0	4.760491774356138e+17
19131.0	4.7596435742392314e+17
19132.0	4.75877477589538e+17
19133.0	4.7578161998725114e+17
19134.0	4.757017301002921e+17
19135.0	4.756168420709717e+17
19136.0	4.755312379341482e+17
19137.0	4.754146673207978e+17
19138.0	4.753554299071147e+17
19139.0	4.752714658130602e+17
19140.0	4.7518504134027936e+17
19141.0	4.75098337317137e+17
19142.0	4.750068894662656e+17
19143.0	4.7491362492252154e+17
19144.0	4.748324613652478e+17
19145.0	4.747515608607402e+17
19146.0	4.7455764043093344e+17
19147.0	4.745605817565182e+17
19148.0	4.744541745709056e+17
19149.0	4.743615486798506e+17
19150.0	4.7431809156601165e+17
19151.0	4.7423245156788896e+17
19152.0	4.741448684186282e+17
19153.0	4.7398124778072736e+17
19154.0	4.7394221272159565e+17
19155.0	4.738872015585279e+17
19156.0	4.738008841104042e+17
19157.0	4.736858597971285e+17
19158.0	4.735140967568724e+17
19159.0	4.735378459546964e+17
19160.0	4.7345336043874976e+17
19161.0	4.7336853560360954e+17
19162.0	4.731357734720854e+17
19163.0	4.7319199266461005e+17
19164.0	4.7311026350544205e+17
19165.0	4.7293626657887546e+17
19166.0	4.7290952411600205e+17
19167.0	4.728390535872511e+17
19168.0	4.727655505767081e+17
19169.0	4.726766433555796e+17
19170.0	4.725945283204436e+17
19171.0	4.7249847917827405e+17
19172.0	4.7242120003583994e+17
19173.0	4.723361287154346e+17
19174.0	4.722392053405013e+17
19175.0	4.721639169545557e+17
19176.0	4.7207817657275725e+17
19177.0	4.719657480443221e+17
19178.0	4.719023814781611e+17
19179.0	4.71807124640017e+17
19180.0	4.717332604299945e+17
19181.0	4.716188246474751e+17
19182.0	4.7155939653277e+17
19183.0	4.7147753392482976e+17
19184.0	4.713911026013525e+17
19185.0	4.7130346779224736e+17
19186.0	4.712198102319104e+17
19187.0	4.7112430362296314e+17
19188.0	4.7104784537572685e+17
19189.0	4.709629964233387e+17
19190.0	4.708769524438357e+17
19191.0	4.707852218968747e+17
19192.0	4.707056323919872e+17
19193.0	4.706090577734313e+17
19194.0	4.70516391547153e+17
19195.0	4.70447960428817e+17
19196.0	4.703589232541695e+17
19197.0	4.702738174705663e+17
19198.0	4.7018340610211834e+17
19199.0	4.692128651979431e+17
19200.0	4.694107070223703e+17
19201.0	4.6992723521044474e+17
19202.0	4.6984788394202445e+17
19203.0	4.697608366150996e+17
19204.0	4.696733056849236e+17
19205.0	4.695918189565268e+17
19206.0	4.695049180807168e+17
19207.0	4.6940312029538976e+17
19208.0	4.692887250578089e+17
19209.0	4.6924980471289165e+17
19210.0	4.6916472856903674e+17
19211.0	4.690819440530773e+17
19212.0	4.689959986397183e+17
19213.0	4.688904962353833e+17
19214.0	4.68797842452207e+17
19215.0	4.6873722839804576e+17
19216.0	4.686553540460542e+17
19217.0	4.6856871195880083e+17
19218.0	4.6833783992046906e+17
19219.0	4.6837609455943674e+17
19220.0	4.683098502113962e+17
19221.0	4.68171060482321e+17
19222.0	4.681427768224425e+17
19223.0	4.680551625654272e+17
19224.0	4.6796666233159674e+17
19225.0	4.678624284246015e+17
19226.0	4.677999440603817e+17
19227.0	4.677156019896319e+17
19228.0	4.6763423137355085e+17
19229.0	4.67549070364945e+17
19230.0	4.6746263316944205e+17
19231.0	4.673770398679038e+17
19232.0	4.672927869960191e+17
19233.0	4.671975274315774e+17
19234.0	4.6711941082644474e+17
19235.0	4.6703345010387616e+17
19236.0	4.6695418740517536e+17
19237.0	4.668660755638953e+17
19238.0	4.6676648167560525e+17
19239.0	4.6669997790986234e+17
19240.0	4.666141895731882e+17
19241.0	4.6652670883485e+17
19242.0	4.6644284931877536e+17
19243.0	4.663350889807871e+17
19244.0	4.6627604324679674e+17
19245.0	4.6619024589236896e+17
19246.0	4.6610337311839565e+17
19247.0	4.660202745189717e+17
19248.0	4.6593683548187296e+17
19249.0	4.6584939864391674e+17
19250.0	4.6574900748834125e+17
19251.0	4.656489079767038e+17
19252.0	4.6555368308517536e+17
19253.0	4.655085126680576e+17
19254.0	4.654291259577685e+17
19255.0	4.653145689598633e+17
19256.0	4.6525488387413325e+17
19257.0	4.651750965379072e+17
19258.0	4.650907504126634e+17
19259.0	4.649947957821439e+17
19260.0	4.648786803905875e+17
19261.0	4.648350276823723e+17
19262.0	4.6474221060095994e+17
19263.0	4.6465532433530874e+17
19264.0	4.6447691751751654e+17
19265.0	4.6445914114839885e+17
19266.0	4.6434419862405114e+17
19267.0	4.643305409915562e+17
19268.0	4.64245093232367e+17
19269.0	4.6416122176252576e+17
19270.0	4.6407683670015994e+17
19271.0	4.639269771542528e+17
19272.0	4.6390185844626765e+17
19273.0	4.637586197490345e+17
19274.0	4.6366448936113466e+17
19275.0	4.636558213425834e+17
19276.0	4.635680367968254e+17
19277.0	4.634849081382229e+17
19278.0	4.6339943038975994e+17
19279.0	4.63313892872465e+17
19280.0	4.632172591142228e+17
19281.0	4.631469524429482e+17
19282.0	4.630654895521791e+17
19283.0	4.629690936109738e+17
19284.0	4.628915492487166e+17
19285.0	4.6278482700096845e+17
19286.0	4.6272083296692896e+17
19287.0	4.626395548352511e+17
19288.0	4.6209235034658086e+17
19289.0	4.612999650912917e+17
19290.0	4.623870388600832e+17
19291.0	4.622626204243286e+17
19292.0	4.622201308665172e+17
19293.0	4.621351876820991e+17
19294.0	4.6205009035700896e+17
19295.0	4.6196840034467834e+17
19296.0	4.618370717930838e+17
19297.0	4.6178620236540576e+17
19298.0	4.617109447376896e+17
19299.0	4.6157851560072525e+17
19300.0	4.6154421388356256e+17
19301.0	4.6146283355067725e+17
19302.0	4.6137717006445216e+17
19303.0	4.612818263343102e+17
19304.0	4.612060222586879e+17
19305.0	4.6112444479351443e+17
19306.0	4.610418032334166e+17
19307.0	4.609496427702955e+17
19308.0	4.608700155166719e+17
19309.0	4.607556009153876e+17
19310.0	4.6065998805073914e+17
19311.0	4.6061365979600205e+17
19312.0	4.6053674709592736e+17
19313.0	4.604530898851157e+17
19314.0	4.559675642434903e+17
19315.0	4.562653000586644e+17
19316.0	4.601359257042944e+17
19317.0	4.601165327805098e+17
19318.0	4.6003324299072845e+17
19319.0	4.5995202924161696e+17
19320.0	4.598478613250047e+17
19321.0	4.5974296234120525e+17
19322.0	4.5968714048907936e+17
19323.0	4.5960220317668685e+17
19324.0	4.59530521542656e+17
19325.0	4.594168403154261e+17
19326.0	4.5936405786569376e+17
19327.0	4.592769270022143e+17
19328.0	4.591071854067713e+17
19329.0	4.591133644554239e+17
19330.0	4.5902223858728954e+17
19331.0	4.589371994931198e+17
19332.0	4.5886092460687354e+17
19333.0	4.5877420716195846e+17
19334.0	4.5868919428218874e+17
19335.0	4.5842793870568115e+17
19336.0	4.5852136249316685e+17
19337.0	4.58439929172241e+17
19338.0	4.5831998305293645e+17
19339.0	4.5827145020211194e+17
19340.0	4.5813651594717856e+17
19341.0	4.580264318948693e+17
19342.0	4.579286818226175e+17
19343.0	4.579346199085055e+17
19344.0	4.577843372272299e+17
19345.0	4.5733538319127814e+17
19346.0	4.5751959884049043e+17
19347.0	4.575023652143104e+17
19348.0	4.575136985732436e+17
19349.0	4.574235973036713e+17
19350.0	4.57309327266065e+17
19351.0	4.5725255086025376e+17
19352.0	4.570734164006228e+17
19353.0	4.5709115523071994e+17
19354.0	4.5700734618610336e+17
19355.0	4.569059575551317e+17
19356.0	4.568375886523049e+17
19357.0	4.5675283407175674e+17
19358.0	4.5666704538555725e+17
19359.0	4.565537301812563e+17
19360.0	4.5642238261548365e+17
19361.0	4.5640402058171725e+17
19362.0	4.563224720572415e+17
19363.0	4.562370719034025e+17
19364.0	4.5615143959483725e+17
19365.0	4.5606514179003725e+17
19366.0	4.559803717604693e+17
19367.0	4.5589467080512845e+17
19368.0	4.558092122805587e+17
19369.0	4.557145841685845e+17
19370.0	4.5562976723271674e+17
19371.0	4.555417470369791e+17
19372.0	4.554642071486464e+17
19373.0	4.5537446596007245e+17
19374.0	4.5529033031898445e+17
19375.0	4.5520370472932685e+17
19376.0	4.5511737868287994e+17
19377.0	4.5502819617559885e+17
19378.0	4.549413417167529e+17
19379.0	4.548541724753919e+17
19380.0	4.5476341325933216e+17
19381.0	4.5466919164532045e+17
19382.0	4.5456970289425056e+17
19383.0	4.544709034770431e+17
19384.0	4.543957429474644e+17
19385.0	4.5430879838098765e+17
19386.0	4.5421970493276154e+17
19387.0	4.541294154787497e+17
19388.0	4.5403815651136845e+17
19389.0	4.5394680897426765e+17
19390.0	4.538455878358357e+17
19391.0	4.521258745419069e+17
19392.0	4.5363618776787603e+17
19393.0	4.53565703258112e+17
19394.0	4.534705966459562e+17
19395.0	4.533494504663721e+17
19396.0	4.532652103871146e+17
19397.0	4.5317318001732256e+17
19398.0	4.530473778107732e+17
19399.0	4.527971937288191e+17
19400.0	4.528422703333375e+17
19401.0	4.527597278986238e+17
19402.0	4.5266016896286714e+17
19403.0	4.52554400010513e+17
19404.0	4.524427014307839e+17
19405.0	4.5233456004027725e+17
19406.0	4.5222038136859296e+17
19407.0	4.52080801292834e+17
19408.0	4.5184290610216986e+17
19409.0	4.5188611547245216e+17
19410.0	4.5177476012660045e+17
19411.0	4.516573236690943e+17
19412.0	4.5153556602989216e+17
19413.0	4.513773245868714e+17
19414.0	4.5126344336124576e+17
19415.0	4.511373829952853e+17
19416.0	4.509723215440553e+17
19417.0	4.508483732897791e+17
19418.0	4.5069897413864096e+17
19419.0	4.505476444192768e+17
19420.0	4.503879552423252e+17
19421.0	4.50195883102481e+17
19422.0	4.500114078957566e+17
19423.0	4.4977873950692685e+17
19424.0	4.495594958968149e+17
19425.0	4.493123584873812e+17
19426.0	4.4902283386115405e+17
19427.0	4.486841968710998e+17
19428.0	4.482908360977065e+17
19429.0	4.478779816673278e+17
19430.0	4.4751554479827635e+17
19431.0	4.4694747630359936e+17
19432.0	4.468597701214207e+17
19433.0	4.4645409857645216e+17
19434.0	4.4597087057565e+17
19435.0	4.453677490241534e+17
19436.0	4.4453930121297926e+17
19437.0	4.436016611983364e+17
19438.0	4.3869199159787603e+17
19439.0	4.3922671586508883e+17
19440.0	4.3739214875634336e+17
19441.0	4.361102569067861e+17
19442.0	4.3460526380591814e+17
19443.0	4.3246795498018157e+17
19444.0	4.2740589568982976e+17
19445.0	4.2065906515312646e+17
19446.0	4.15956401861427e+17
19447.0	4.108003234021373e+17
19448.0	4.052615209943047e+17
19449.0	3.903149874085875e+17
19450.0	3.553462864314425e+17
19451.0	3.348103531506385e+17
19452.0	3.771499922063361e+17
19453.0	3.997713198044505e+17
19454.0	4.078220415948115e+17
19455.0	4.128959096684543e+17
19456.0	4.1773533229656755e+17
19457.0	4.227102463229948e+17
19458.0	4.158574366294231e+17
19459.0	4.321198137671713e+17
19460.0	4.340129679627603e+17
19461.0	4.352364760793088e+17
19462.0	4.364100998703788e+17
19463.0	4.3892841304992326e+17
19464.0	4.4087527887339565e+17
19465.0	4.419688779306323e+17
19466.0	4.426528230910631e+17
19467.0	4.431543677572436e+17
19468.0	4.4351145451192314e+17
19469.0	4.4364031240874643e+17
19470.0	4.440135953285119e+17
19471.0	4.4417784776840525e+17
19472.0	4.443165791267498e+17
19473.0	4.4452106172279443e+17
19474.0	4.447388153064107e+17
19475.0	4.448107552396626e+17
19476.0	4.451176132466004e+17
19477.0	4.4522684110165325e+17
19478.0	4.4532219874290336e+17
19479.0	4.453040373366782e+17
19480.0	4.454157869471061e+17
19481.0	4.454221081826645e+17
19482.0	4.4545120001501856e+17
19483.0	4.4544630896721914e+17
19484.0	4.4543879857657165e+17
19485.0	4.4542044898590714e+17
19486.0	4.4533099524696755e+17
19487.0	4.4537449052897274e+17
19488.0	4.453443013967872e+17
19489.0	4.4530294304276486e+17
19490.0	4.449769143402492e+17
19491.0	4.4523029748776954e+17
19492.0	4.451914336960511e+17
19493.0	4.4514309692893856e+17
19494.0	4.450913483751424e+17
19495.0	4.45037680927266e+17
19496.0	4.448895769072978e+17
19497.0	4.449289289160021e+17
19498.0	4.4472932219835744e+17
19499.0	4.421939634372589e+17
19500.0	4.447656511624532e+17
19501.0	4.447072129034921e+17
19502.0	4.446570584648361e+17
19503.0	4.4459892918626976e+17
19504.0	4.4453443966511776e+17
19505.0	4.4446757532904096e+17
19506.0	4.4440660308131834e+17
19507.0	4.4434457953129805e+17
19508.0	4.442818356794708e+17
19509.0	4.442121633267711e+17
19510.0	4.4409153835936416e+17
19511.0	4.3698572643095354e+17
19512.0	4.436183469785079e+17
19513.0	4.4315712250620454e+17
19514.0	4.433397963991716e+17
19515.0	4.436983539564546e+17
19516.0	4.437182185297236e+17
19517.0	4.436414533992446e+17
19518.0	4.435673274646527e+17
19519.0	4.4349205774336e+17
19520.0	4.4337180103584416e+17
19521.0	4.4336631467649696e+17
19522.0	4.432783710268074e+17
19523.0	4.4320240644915194e+17
19524.0	4.431075813446998e+17
19525.0	4.430783738194602e+17
19526.0	4.4300751133300045e+17
19527.0	4.4292950636625914e+17
19528.0	4.428516983220906e+17
19529.0	4.427736997167104e+17
19530.0	4.42707508007185e+17
19531.0	4.4263221549684045e+17
19532.0	4.425563661926399e+17
19533.0	4.424809209397247e+17
19534.0	4.424044633915392e+17
19535.0	4.423257802058411e+17
19536.0	4.4224550367395834e+17
19537.0	4.4217518274205e+17
19538.0	4.4202143486661984e+17
19539.0	4.419108985285293e+17
19540.0	4.4194164480409594e+17
19541.0	4.4185655999201274e+17
19542.0	4.417862798846634e+17
19543.0	4.416524590077268e+17
19544.0	4.416344385301162e+17
19545.0	4.414700469791399e+17
19546.0	4.413064410213035e+17
19547.0	4.4140836407650976e+17
19548.0	4.413313660223487e+17
19549.0	4.4124163531953485e+17
19550.0	4.411819000419668e+17
19551.0	4.411051636424702e+17
19552.0	4.410274319346347e+17
19553.0	4.409459412915541e+17
19554.0	4.40864033734656e+17
19555.0	4.407860778412714e+17
19556.0	4.4071323613265914e+17
19557.0	4.406391740213929e+17
19558.0	4.405621459080532e+17
19559.0	4.4048517218085536e+17
19560.0	4.403815196043946e+17
19561.0	4.4032550572305056e+17
19562.0	4.4022937192584525e+17
19563.0	4.401751520182272e+17
19564.0	4.4009714222803616e+17
19565.0	4.40019342922001e+17
19566.0	4.39936516952337e+17
19567.0	4.398642623064746e+17
19568.0	4.3978312146834765e+17
19569.0	4.397048522604543e+17
19570.0	4.396301867985578e+17
19571.0	4.3955196191047674e+17
19572.0	4.394699142638251e+17
19573.0	4.393870931875157e+17
19574.0	4.393024218639018e+17
19575.0	4.392416673704619e+17
19576.0	4.391599275158185e+17
19577.0	4.390720889334443e+17
19578.0	4.390000913285119e+17
19579.0	4.3892618804155725e+17
19580.0	4.388485519638527e+17
19581.0	4.387717832682155e+17
19582.0	4.3869737617544525e+17
19583.0	4.386195648457386e+17
19584.0	4.385405573005311e+17
19585.0	4.384443319276884e+17
19586.0	4.38361707704047e+17
19587.0	4.3830200479252474e+17
19588.0	4.381403777772203e+17
19589.0	4.381484365032106e+17
19590.0	4.3804728198430714e+17
19591.0	4.379950649267541e+17
19592.0	4.379178512853674e+17
19593.0	4.378320268077738e+17
19594.0	4.3771464795204256e+17
19595.0	4.376790938157055e+17
19596.0	4.3759273225748474e+17
19597.0	4.375271658487808e+17
19598.0	4.373344434520063e+17
19599.0	4.3737263972024314e+17
19600.0	4.3729622579281914e+17
19601.0	4.372068492989781e+17
19602.0	4.3713201976989e+17
19603.0	4.369706590229843e+17
19604.0	4.3697710357108045e+17
19605.0	4.3685449134243834e+17
19606.0	4.3682850769906336e+17
19607.0	4.3675194368546125e+17
19608.0	4.366715822189226e+17
19609.0	4.3658695996866554e+17
19610.0	4.3648741067980806e+17
19611.0	4.363951778649429e+17
19612.0	4.3636385599105696e+17
19613.0	4.362844389419691e+17
19614.0	4.3620205707919354e+17
19615.0	4.361301775439189e+17
19616.0	4.3600782074839046e+17
19617.0	4.3592664803355296e+17
19618.0	4.357808171865427e+17
19619.0	4.356696619089916e+17
19620.0	4.3559236431162e+17
19621.0	4.356021691962708e+17
19622.0	4.3558709102291616e+17
19623.0	4.35506917740817e+17
19624.0	4.3542235092527763e+17
19625.0	4.3535469176859296e+17
19626.0	4.352754884192938e+17
19627.0	4.3519917830089376e+17
19628.0	4.350971066275157e+17
19629.0	4.348728840290302e+17
19630.0	4.349094133410474e+17
19631.0	4.3387752032501734e+17
19632.0	4.348071234240511e+17
19633.0	4.347237045895168e+17
19634.0	4.346567974016341e+17
19635.0	4.345648316241235e+17
19636.0	4.344300810098004e+17
19637.0	4.343045746414931e+17
19638.0	4.343379217350655e+17
19639.0	4.3426846140443296e+17
19640.0	4.341727551466155e+17
19641.0	4.3381374075972346e+17
19642.0	4.340321924852393e+17
19643.0	4.339540927971327e+17
19644.0	4.3387224193324365e+17
19645.0	4.3375264317221523e+17
19646.0	4.336523438718975e+17
19647.0	4.336500411290964e+17
19648.0	4.335744255175337e+17
19649.0	4.334964817876308e+17
19650.0	4.3342035894490445e+17
19651.0	4.3334253824791885e+17
19652.0	4.3326505162724685e+17
19653.0	4.331881378086912e+17
19654.0	4.331107194153642e+17
19655.0	4.330323462586366e+17
