# Flux units: erg / (cm m2 s)
# Wavelength units: Angstrom
wave	flux
19000.0	6.80527423148305e+17
19001.0	6.803926646347091e+17
19002.0	6.802755690343082e+17
19003.0	6.801493940240383e+17
19004.0	6.800232599781375e+17
19005.0	6.798974521791827e+17
19006.0	6.797713558121129e+17
19007.0	6.796536066692436e+17
19008.0	6.795240839752362e+17
19009.0	6.793954777366527e+17
19010.0	6.792359371778729e+17
19011.0	6.791476073725951e+17
19012.0	6.790117519086931e+17
19013.0	6.788971333244244e+17
19014.0	6.787659842191359e+17
19015.0	6.786414939908777e+17
19016.0	6.785144646707881e+17
19017.0	6.783927158396244e+17
19018.0	6.782651306344445e+17
19019.0	6.781393516363773e+17
19020.0	6.780116547928064e+17
19021.0	6.778871301013503e+17
19022.0	6.777610986061823e+17
19023.0	6.776309283815423e+17
19024.0	6.775065154682879e+17
19025.0	6.773817061234004e+17
19026.0	6.772530104063316e+17
19027.0	6.771234038961491e+17
19028.0	6.770025723592701e+17
19029.0	6.768759005336916e+17
19030.0	6.767509917837993e+17
19031.0	6.766245894422527e+17
19032.0	6.764978411405311e+17
19033.0	6.763636003438591e+17
19034.0	6.762436213691731e+17
19035.0	6.761119005802495e+17
19036.0	6.755582879640232e+17
19037.0	6.758622640646825e+17
19038.0	6.757371457394004e+17
19039.0	6.75613289689907e+17
19040.0	6.75487010730803e+17
19041.0	6.753599101774506e+17
19042.0	6.752249847305555e+17
19043.0	6.751079344985428e+17
19044.0	6.749804551995391e+17
19045.0	6.748550753594025e+17
19046.0	6.747243112213162e+17
19047.0	6.746005924653737e+17
19048.0	6.744578984684201e+17
19049.0	6.743411376433833e+17
19050.0	6.742187508585812e+17
19051.0	6.74024313271091e+17
19052.0	6.739572401285801e+17
19053.0	6.738436611724628e+17
19054.0	6.737175322296319e+17
19055.0	6.735685142009172e+17
19056.0	6.734621966335999e+17
19057.0	6.733377634478762e+17
19058.0	6.732100451434495e+17
19059.0	6.730852327926441e+17
19060.0	6.729575179834708e+17
19061.0	6.728331143675904e+17
19062.0	6.727063400611839e+17
19063.0	6.725801087074303e+17
19064.0	6.724435308445695e+17
19065.0	6.723118263435263e+17
19066.0	6.721959316422655e+17
19067.0	6.720750415249407e+17
19068.0	6.719487406855508e+17
19069.0	6.718225161824937e+17
19070.0	6.716940804423679e+17
19071.0	6.715699462406141e+17
19072.0	6.714432627408895e+17
19073.0	6.713169648375123e+17
19074.0	6.711911309639679e+17
19075.0	6.710648535427753e+17
19076.0	6.709368707874815e+17
19077.0	6.708110843794772e+17
19078.0	6.706831873977002e+17
19079.0	6.705597513378473e+17
19080.0	6.70432297624098e+17
19081.0	6.703034040057855e+17
19082.0	6.701775090352127e+17
19083.0	6.700451892297728e+17
19084.0	6.699081130835967e+17
19085.0	6.698024227744426e+17
19086.0	6.696421187125247e+17
19087.0	6.69538788188706e+17
19088.0	6.69415419028002e+17
19089.0	6.692759220693674e+17
19090.0	6.691682584100863e+17
19091.0	6.690430227141971e+17
19092.0	6.689119688196095e+17
19093.0	6.68793219125521e+17
19094.0	6.686672313210195e+17
19095.0	6.685411504728745e+17
19096.0	6.684137689710591e+17
19097.0	6.682888506441727e+17
19098.0	6.681625760890879e+17
19099.0	6.680364317671423e+17
19100.0	6.679096257937405e+17
19101.0	6.677846044966911e+17
19102.0	6.676500774387711e+17
19103.0	6.675328097320959e+17
19104.0	6.674067857866751e+17
19105.0	6.67279589113856e+17
19106.0	6.671527172898815e+17
19107.0	6.670269569564671e+17
19108.0	6.669015753687039e+17
19109.0	6.667449535561727e+17
19110.0	6.666474847120042e+17
19111.0	6.665243484050772e+17
19112.0	6.66398581850112e+17
19113.0	6.662730769498111e+17
19114.0	6.661470058184704e+17
19115.0	6.660166062353066e+17
19116.0	6.658932100213417e+17
19117.0	6.657674159237801e+17
19118.0	6.656340032924329e+17
19119.0	6.65132931464123e+17
19120.0	6.653860594581501e+17
19121.0	6.652628849131519e+17
19122.0	6.651400605925375e+17
19123.0	6.650142446845951e+17
19124.0	6.648859154098857e+17
19125.0	6.647621387725482e+17
19126.0	6.646346795362985e+17
19127.0	6.643616135686825e+17
19128.0	6.64378658660898e+17
19129.0	6.642514786254847e+17
19130.0	6.641320889505108e+17
19131.0	6.640076250065578e+17
19132.0	6.638816855064575e+17
19133.0	6.637491191458474e+17
19134.0	6.636281731743743e+17
19135.0	6.635043627029844e+17
19136.0	6.633790440996863e+17
19137.0	6.632398709413204e+17
19138.0	6.631263558085289e+17
19139.0	6.630019858169853e+17
19140.0	6.628764607840255e+17
19141.0	6.627507797229568e+17
19142.0	6.626228431050068e+17
19143.0	6.624947872290132e+17
19144.0	6.623703258715476e+17
19145.0	6.622480410083327e+17
19146.0	6.620697463182676e+17
19147.0	6.619890159626921e+17
19148.0	6.618705039458304e+17
19149.0	6.617448627306495e+17
19150.0	6.616191378391039e+17
19151.0	6.614940943122431e+17
19152.0	6.613682228297727e+17
19153.0	6.612400694362111e+17
19154.0	6.611064192674474e+17
19155.0	6.609912561227092e+17
19156.0	6.608653845004287e+17
19157.0	6.607375899994793e+17
19158.0	6.605940539260928e+17
19159.0	6.604861199439188e+17
19160.0	6.603617609274708e+17
19161.0	6.602360979718143e+17
19162.0	6.600621518662314e+17
19163.0	6.599817871840595e+17
19164.0	6.59860679102737e+17
19165.0	6.597335744249856e+17
19166.0	6.595990926655487e+17
19167.0	6.594795664659796e+17
19168.0	6.593576434313897e+17
19169.0	6.592317779607551e+17
19170.0	6.591074819287721e+17
19171.0	6.589795347551572e+17
19172.0	6.588562935906303e+17
19173.0	6.587309786923008e+17
19174.0	6.586007413587968e+17
19175.0	6.584800089473023e+17
19176.0	6.583545092898815e+17
19177.0	6.582154553196543e+17
19178.0	6.58101468607283e+17
19179.0	6.579738040598527e+17
19180.0	6.578507964481533e+17
19181.0	6.577162869364052e+17
19182.0	6.575995626717183e+17
19183.0	6.574753610115753e+17
19184.0	6.573490716366163e+17
19185.0	6.572236931246761e+17
19186.0	6.570983634763776e+17
19187.0	6.569664790396927e+17
19188.0	6.568112015015935e+17
19189.0	6.566742245507071e+17
19190.0	6.565482624013652e+17
19191.0	6.564198319740244e+17
19192.0	6.562973182416212e+17
19193.0	6.561713686751914e+17
19194.0	6.560444090504532e+17
19195.0	6.559194119405567e+17
19196.0	6.557913425728852e+17
19197.0	6.556645538660351e+17
19198.0	6.555303324330665e+17
19199.0	6.551033452953597e+17
19200.0	6.55056242282769e+17
19201.0	6.551547566970195e+17
19202.0	6.550369661004458e+17
19203.0	6.549123031367679e+17
19204.0	6.547860150900052e+17
19205.0	6.546616613863423e+17
19206.0	6.545361204849321e+17
19207.0	6.544018902439251e+17
19208.0	6.542671336876714e+17
19209.0	6.541588315854163e+17
19210.0	6.540334100119551e+17
19211.0	6.539083427872767e+17
19212.0	6.537823284188499e+17
19213.0	6.536470601575081e+17
19214.0	6.535192984420352e+17
19215.0	6.534030163967999e+17
19216.0	6.532782333362175e+17
19217.0	6.53151454765602e+17
19218.0	6.529577881610921e+17
19219.0	6.528852148879359e+17
19220.0	6.527716810205865e+17
19221.0	6.526214589470036e+17
19222.0	6.52520248783667e+17
19223.0	6.523935801737216e+17
19224.0	6.522650813792255e+17
19225.0	6.521306591789055e+17
19226.0	6.520146749991594e+17
19227.0	6.518882263804585e+17
19228.0	6.517643796982441e+17
19229.0	6.516378635512489e+17
19230.0	6.51511113851426e+17
19231.0	6.513836974669823e+17
19232.0	6.512576412953257e+17
19233.0	6.511255144278697e+17
19234.0	6.510031661607593e+17
19235.0	6.508757002136234e+17
19236.0	6.507516515057663e+17
19237.0	6.506235756369236e+17
19238.0	6.504898582194856e+17
19239.0	6.503713651468969e+17
19240.0	6.502430867630761e+17
19241.0	6.501150366892031e+17
19242.0	6.499889348695379e+17
19243.0	6.498485321509545e+17
19244.0	6.49736274190882e+17
19245.0	6.496084919932244e+17
19246.0	6.494802589078868e+17
19247.0	6.493543144445267e+17
19248.0	6.492270238892031e+17
19249.0	6.490993602505385e+17
19250.0	6.489701241673044e+17
19251.0	6.488351073544873e+17
19252.0	6.486904763580415e+17
19253.0	6.485866938979667e+17
19254.0	6.484608229048319e+17
19255.0	6.483158560844457e+17
19256.0	6.482027244508502e+17
19257.0	6.48076982362658e+17
19258.0	6.479487245309268e+17
19259.0	6.478137697239039e+17
19260.0	6.476827834275155e+17
19261.0	6.475623317547689e+17
19262.0	6.47429597691904e+17
19263.0	6.473001947452756e+17
19264.0	6.471305141070506e+17
19265.0	6.469630037415252e+17
19266.0	6.468336981726547e+17
19267.0	6.467220944541012e+17
19268.0	6.465929131065343e+17
19269.0	6.46463516381457e+17
19270.0	6.463333065905491e+17
19271.0	6.46176050249728e+17
19272.0	6.460711929992531e+17
19273.0	6.458877814680233e+17
19274.0	6.457629696065533e+17
19275.0	6.456844486705151e+17
19276.0	6.455526397313023e+17
19277.0	6.454226601377792e+17
19278.0	6.452923843564884e+17
19279.0	6.451605296294569e+17
19280.0	6.45024383640098e+17
19281.0	6.448988219768831e+17
19282.0	6.447690267929257e+17
19283.0	6.446338586356393e+17
19284.0	6.445016677351423e+17
19285.0	6.443595652748627e+17
19286.0	6.442385742845268e+17
19287.0	6.441093903504723e+17
19288.0	6.438595031553362e+17
19289.0	6.435576361604431e+17
19290.0	6.437116729535146e+17
19291.0	6.435567461990399e+17
19292.0	6.434465383448576e+17
19293.0	6.433125872347817e+17
19294.0	6.431784836617556e+17
19295.0	6.429542983925759e+17
19296.0	6.428152533701972e+17
19297.0	6.426801029687977e+17
19298.0	6.425440228300116e+17
19299.0	6.424108993260201e+17
19300.0	6.422757032067071e+17
19301.0	6.421398930412884e+17
19302.0	6.420032064760489e+17
19303.0	6.418614500458495e+17
19304.0	6.417286257355434e+17
19305.0	6.415927879576234e+17
19306.0	6.414561962535594e+17
19307.0	6.413147248962217e+17
19308.0	6.411784764959402e+17
19309.0	6.410313593957033e+17
19310.0	6.40887242760738e+17
19311.0	6.407605268250623e+17
19312.0	6.405723540597418e+17
19313.0	6.403567692808191e+17
19314.0	6.398009502509736e+17
19315.0	6.396942566643036e+17
19316.0	6.399320475566079e+17
19317.0	6.397920849603242e+17
19318.0	6.39649340072482e+17
19319.0	6.395084352258047e+17
19320.0	6.393649759081812e+17
19321.0	6.391996602821289e+17
19322.0	6.390443844916563e+17
19323.0	6.389020423968084e+17
19324.0	6.38657319019042e+17
19325.0	6.384390055657472e+17
19326.0	6.383001583747071e+17
19327.0	6.381522691031039e+17
19328.0	6.380046463096148e+17
19329.0	6.378569663337812e+17
19330.0	6.37704330158626e+17
19331.0	6.375532116224681e+17
19332.0	6.374063038879059e+17
19333.0	6.370989654933501e+17
19334.0	6.368909617790976e+17
19335.0	6.367357287006207e+17
19336.0	6.365828693884925e+17
19337.0	6.364272881827839e+17
19338.0	6.362533186590036e+17
19339.0	6.361140756654761e+17
19340.0	6.357223697547263e+17
19341.0	6.35532774281489e+17
19342.0	6.35344421790242e+17
19343.0	6.352135381144916e+17
19344.0	6.350497043360425e+17
19345.0	6.346721332297723e+17
19346.0	6.344933843664895e+17
19347.0	6.343927039437482e+17
19348.0	6.342326237877588e+17
19349.0	6.340615323953833e+17
19350.0	6.338921585704959e+17
19351.0	6.337037480580435e+17
19352.0	6.334916079910911e+17
19353.0	6.333243887102634e+17
19354.0	6.331486663169363e+17
19355.0	6.329629940558506e+17
19356.0	6.327924019254612e+17
19357.0	6.326123331846143e+17
19358.0	6.324300678867625e+17
19359.0	6.322428843480404e+17
19360.0	6.320577885241341e+17
19361.0	6.318725100382889e+17
19362.0	6.316875458456234e+17
19363.0	6.314975451327145e+17
19364.0	6.313056569830057e+17
19365.0	6.31067375706658e+17
19366.0	6.308291607003135e+17
19367.0	6.30630907135044e+17
19368.0	6.304310681228627e+17
19369.0	6.302247145177087e+17
19370.0	6.300188684932436e+17
19371.0	6.298122400912724e+17
19372.0	6.296063844898131e+17
19373.0	6.293843893463721e+17
19374.0	6.290419695135401e+17
19375.0	6.288210727185065e+17
19376.0	6.285980757655551e+17
19377.0	6.283714683557204e+17
19378.0	6.281422256646825e+17
19379.0	6.27870864052497e+17
19380.0	6.274835472711679e+17
19381.0	6.27240837718562e+17
19382.0	6.269887926239231e+17
19383.0	6.267369354341033e+17
19384.0	6.262727602689364e+17
19385.0	6.259723166810112e+17
19386.0	6.257042012504063e+17
19387.0	6.252375545217025e+17
19388.0	6.248172322029567e+17
19389.0	6.245281542002004e+17
19390.0	6.238886743943846e+17
19391.0	6.231472667798181e+17
19392.0	6.229712351963821e+17
19393.0	6.223606751865514e+17
19394.0	6.218633439084547e+17
19395.0	6.210677182038015e+17
19396.0	6.205039471230976e+17
19397.0	6.196183429021695e+17
19398.0	6.190067710164993e+17
19399.0	6.18330777137971e+17
19400.0	6.179441004074324e+17
19401.0	6.175044633886719e+17
19402.0	6.170495872051881e+17
19403.0	6.165812905771008e+17
19404.0	6.161047893311487e+17
19405.0	6.156139618107391e+17
19406.0	6.151102043695786e+17
19407.0	6.145861052530687e+17
19408.0	6.14006652019234e+17
19409.0	6.135252975441236e+17
19410.0	6.129766720951636e+17
19411.0	6.124125478540627e+17
19412.0	6.118353540218879e+17
19413.0	6.112440534870698e+17
19414.0	6.106079619798356e+17
19415.0	6.099636342576468e+17
19416.0	6.093072981032959e+17
19417.0	6.086560102132393e+17
19418.0	6.079199507557034e+17
19419.0	6.071945629357396e+17
19420.0	6.064855519854591e+17
19421.0	6.056130363697834e+17
19422.0	6.048494528408233e+17
19423.0	6.03877373396036e+17
19424.0	6.029230789186902e+17
19425.0	6.018162590657193e+17
19426.0	6.00500875978342e+17
19427.0	5.990730459075926e+17
19428.0	5.973734062729905e+17
19429.0	5.952393999024127e+17
19430.0	5.9282900952023e+17
19431.0	5.897778881713496e+17
19432.0	5.877307858922153e+17
19433.0	5.860022449165654e+17
19434.0	5.841975061599572e+17
19435.0	5.822722723894612e+17
19436.0	5.802097947705344e+17
19437.0	5.780141496074237e+17
19438.0	5.750803694354429e+17
19439.0	5.727884946352811e+17
19440.0	5.695646136096084e+17
19441.0	5.6578746278215616e+17
19442.0	5.612347459283638e+17
19443.0	5.556612051064142e+17
19444.0	5.490793278078972e+17
19445.0	5.418531759150423e+17
19446.0	5.3395076737051296e+17
19447.0	5.2393900832194496e+17
19448.0	5.103642695346864e+17
19449.0	4.9066630233893555e+17
19450.0	4.572099304401587e+17
19451.0	4.391999647339872e+17
19452.0	4.7629425103776416e+17
19453.0	5.015312621633543e+17
19454.0	5.173680424353786e+17
19455.0	5.2869924284006394e+17
19456.0	5.372634042728451e+17
19457.0	5.444719712665594e+17
19458.0	5.5041400741997325e+17
19459.0	5.570812462847315e+17
19460.0	5.619273041619626e+17
19461.0	5.657818991078057e+17
19462.0	5.690816207694508e+17
19463.0	5.718543038764372e+17
19464.0	5.7421648457891834e+17
19465.0	5.763244822801066e+17
19466.0	5.781991833556307e+17
19467.0	5.799818463718057e+17
19468.0	5.816041066201088e+17
19469.0	5.831313105879037e+17
19470.0	5.847347042975744e+17
19471.0	5.871469496107005e+17
19472.0	5.897588372231503e+17
19473.0	5.917288982467927e+17
19474.0	5.933583211779415e+17
19475.0	5.946270068419236e+17
19476.0	5.958055439106049e+17
19477.0	5.967333180134743e+17
19478.0	5.975849626326356e+17
19479.0	5.983234430424403e+17
19480.0	5.989309726676308e+17
19481.0	5.995287194282666e+17
19482.0	6.000829983096831e+17
19483.0	6.005592713155924e+17
19484.0	6.010933554621097e+17
19485.0	6.015424950960127e+17
19486.0	6.019658051573076e+17
19487.0	6.023731428196351e+17
19488.0	6.028038619092308e+17
19489.0	6.031649442278058e+17
19490.0	6.034217359463763e+17
19491.0	6.038625601628842e+17
19492.0	6.041920958627839e+17
19493.0	6.045039471187284e+17
19494.0	6.048006895828991e+17
19495.0	6.050871744572074e+17
19496.0	6.053436183980714e+17
19497.0	6.056323914749268e+17
19498.0	6.058455502684159e+17
19499.0	6.055551772742994e+17
19500.0	6.063506371641343e+17
19501.0	6.065688106674858e+17
19502.0	6.067747149228714e+17
19503.0	6.069854194193747e+17
19504.0	6.075461480218623e+17
19505.0	6.07880752957576e+17
19506.0	6.085187138661033e+17
19507.0	6.087885973356549e+17
19508.0	6.093326729434452e+17
19509.0	6.094776947791194e+17
19510.0	6.099865674536276e+17
19511.0	6.093253281579e+17
19512.0	6.103226197737472e+17
19513.0	6.104139304009724e+17
19514.0	6.105329538433023e+17
19515.0	6.109459892578984e+17
19516.0	6.110511904413012e+17
19517.0	6.110800650087082e+17
19518.0	6.112505910089046e+17
19519.0	6.113710680571901e+17
19520.0	6.113820912473428e+17
19521.0	6.113952093525332e+17
19522.0	6.114229213287764e+17
19523.0	6.115804680552447e+17
19524.0	6.115772353653418e+17
19525.0	6.115707560744276e+17
19526.0	6.115624323383295e+17
19527.0	6.115499050707625e+17
19528.0	6.11554562076399e+17
19529.0	6.116394606613844e+17
19530.0	6.116181478648489e+17
19531.0	6.115955841171455e+17
19532.0	6.115676604683604e+17
19533.0	6.115368421905748e+17
19534.0	6.115036163822931e+17
19535.0	6.11467805135121e+17
19536.0	6.114288063567188e+17
19537.0	6.114258628640765e+17
19538.0	6.114228962328576e+17
19539.0	6.11343651709474e+17
19540.0	6.113416790583978e+17
19541.0	6.112973379250857e+17
19542.0	6.112486870046036e+17
19543.0	6.111982778318847e+17
19544.0	6.111471316500479e+17
19545.0	6.110553307785897e+17
19546.0	6.109653554779478e+17
19547.0	6.109839707777706e+17
19548.0	6.109269434826751e+17
19549.0	6.108596592268628e+17
19550.0	6.108079742167721e+17
19551.0	6.1074669319837e+17
19552.0	6.107175730544639e+17
19553.0	6.106631522396842e+17
19554.0	6.105958041605459e+17
19555.0	6.105305293258751e+17
19556.0	6.104634329049769e+17
19557.0	6.104853793909418e+17
19558.0	6.104674755848874e+17
19559.0	6.103957199213908e+17
19560.0	6.10320391479842e+17
19561.0	6.102463372678484e+17
19562.0	6.101739675582464e+17
19563.0	6.103055130252628e+17
19564.0	6.102578358823593e+17
19565.0	6.101795881353215e+17
19566.0	6.100978833730218e+17
19567.0	6.100204565910867e+17
19568.0	6.099375571511977e+17
19569.0	6.098568924364799e+17
19570.0	6.098989130011988e+17
19571.0	6.098829892561577e+17
19572.0	6.097963410871636e+17
19573.0	6.097128187232255e+17
19574.0	6.096205135566163e+17
19575.0	6.09542787441186e+17
19576.0	6.094560710448467e+17
19577.0	6.093674586832895e+17
19578.0	6.09277413897011e+17
19579.0	6.092187961917439e+17
19580.0	6.092499383397033e+17
19581.0	6.091611733753855e+17
19582.0	6.090722920191316e+17
19583.0	6.089814789761706e+17
19584.0	6.088899896016895e+17
19585.0	6.087885962171731e+17
19586.0	6.086939434986154e+17
19587.0	6.086210820767743e+17
19588.0	6.085043232789844e+17
19589.0	6.084470477509972e+17
19590.0	6.083474704302079e+17
19591.0	6.082605508897449e+17
19592.0	6.08199694614528e+17
19593.0	6.081824932145834e+17
19594.0	6.080673996952916e+17
19595.0	6.079902360360276e+17
19596.0	6.078838698846889e+17
19597.0	6.077983502630911e+17
19598.0	6.076716638273533e+17
19599.0	6.076048619165011e+17
19600.0	6.075081361631913e+17
19601.0	6.074043359472297e+17
19602.0	6.073069957283839e+17
19603.0	6.071758911526228e+17
19604.0	6.071099206227283e+17
19605.0	6.06989781635345e+17
19606.0	6.069161400729599e+17
19607.0	6.068174940274687e+17
19608.0	6.06716236608307e+17
19609.0	6.066132370849792e+17
19610.0	6.065234402519721e+17
19611.0	6.064284399654228e+17
19612.0	6.064041055223808e+17
19613.0	6.063092291076095e+17
19614.0	6.06205438468642e+17
19615.0	6.061076343597737e+17
19616.0	6.060025157342548e+17
19617.0	6.0590313191069e+17
19618.0	6.057537526125907e+17
19619.0	6.056387160659282e+17
19620.0	6.055418144314708e+17
19621.0	6.054949426648404e+17
19622.0	6.053935650788692e+17
19623.0	6.052909902987263e+17
19624.0	6.051873176595114e+17
19625.0	6.050851850988202e+17
19626.0	6.049819703377919e+17
19627.0	6.048782302401876e+17
19628.0	6.047673439573332e+17
19629.0	6.046600253494612e+17
19630.0	6.045301854262612e+17
19631.0	6.041302695149567e+17
19632.0	6.043555947959636e+17
19633.0	6.042520545569449e+17
19634.0	6.041521709820586e+17
19635.0	6.040447586314922e+17
19636.0	6.039427221203626e+17
19637.0	6.038065229332479e+17
19638.0	6.037344394848938e+17
19639.0	6.036294609491284e+17
19640.0	6.035180150762153e+17
19641.0	6.033481638696279e+17
19642.0	6.033151948226559e+17
19643.0	6.032100568334336e+17
19644.0	6.031001283198975e+17
19645.0	6.029777433526271e+17
19646.0	6.028948046959956e+17
19647.0	6.027904221708288e+17
19648.0	6.026850695031465e+17
19649.0	6.025793836679167e+17
19650.0	6.025217798657364e+17
19651.0	6.024242966211242e+17
19652.0	6.023189378717012e+17
19653.0	6.022131901005823e+17
19654.0	6.021067024542378e+17
19655.0	6.02001162371072e+17
19656.0	6.018949872702804e+17
19657.0	6.017895327509161e+17
19658.0	6.016834265066154e+17
19659.0	6.015771401169578e+17
19660.0	6.014710649105065e+17
19661.0	6.013647955776852e+17
19662.0	6.012584206882131e+17
19663.0	6.011482283529556e+17
19664.0	6.010438570825044e+17
19665.0	6.009392152794452e+17
