# Flux units: erg / (cm m2 s)
# Wavelength units: Angstrom
wave	flux
19000.0	6.984643259662335e+17
19001.0	6.983299809411072e+17
19002.0	6.982043539865599e+17
19003.0	6.980742324158463e+17
19004.0	6.979441175560191e+17
19005.0	6.978141591437311e+17
19006.0	6.976840484782079e+17
19007.0	6.975531000004605e+17
19008.0	6.974210582773759e+17
19009.0	6.972893606969343e+17
19010.0	6.971441378841939e+17
19011.0	6.970316952349353e+17
19012.0	6.968983238475775e+17
19013.0	6.967727399545513e+17
19014.0	6.966393129227603e+17
19015.0	6.965102064435199e+17
19016.0	6.963793926728361e+17
19017.0	6.962502228596052e+17
19018.0	6.961204775878655e+17
19019.0	6.959907441999872e+17
19020.0	6.958588318711807e+17
19021.0	6.957297267900415e+17
19022.0	6.955999906059604e+17
19023.0	6.954685840403113e+17
19024.0	6.953380473733117e+17
19025.0	6.952084503003133e+17
19026.0	6.950770242311508e+17
19027.0	6.949460651977385e+17
19028.0	6.948176898555903e+17
19029.0	6.946872524537855e+17
19030.0	6.945568634961919e+17
19031.0	6.944264401453055e+17
19032.0	6.942960108524884e+17
19033.0	6.941616212978345e+17
19034.0	6.940351260524543e+17
19035.0	6.939029932430676e+17
19036.0	6.936375774063274e+17
19037.0	6.936437486256127e+17
19038.0	6.935122504843261e+17
19039.0	6.933829084250111e+17
19040.0	6.932524562732371e+17
19041.0	6.931219348455423e+17
19042.0	6.929880034486953e+17
19043.0	6.928610920584532e+17
19044.0	6.927305291770537e+17
19045.0	6.926001862868991e+17
19046.0	6.924675386966015e+17
19047.0	6.923384257161898e+17
19048.0	6.922001773319507e+17
19049.0	6.920754843789993e+17
19050.0	6.919460763293012e+17
19051.0	6.917958318161917e+17
19052.0	6.916829678490964e+17
19053.0	6.915565273393833e+17
19054.0	6.914260248559615e+17
19055.0	6.91284420399377e+17
19056.0	6.911642714854739e+17
19057.0	6.910343464878079e+17
19058.0	6.90903825199923e+17
19059.0	6.90773839454754e+17
19060.0	6.906424427457194e+17
19061.0	6.905130592326996e+17
19062.0	6.903824317590185e+17
19063.0	6.902520959991807e+17
19064.0	6.901166609443497e+17
19065.0	6.899835501630803e+17
19066.0	6.898583297064959e+17
19067.0	6.897304615256063e+17
19068.0	6.896001804315305e+17
19069.0	6.89469845021218e+17
19070.0	6.893390330680659e+17
19071.0	6.892091072315391e+17
19072.0	6.890787403639465e+17
19073.0	6.889481462349823e+17
19074.0	6.88818040602624e+17
19075.0	6.886876958949375e+17
19076.0	6.885564624142336e+17
19077.0	6.884264282947583e+17
19078.0	6.882954705895423e+17
19079.0	6.88166387318784e+17
19080.0	6.880356921070932e+17
19081.0	6.879040967977642e+17
19082.0	6.877735588724736e+17
19083.0	6.876408448024575e+17
19084.0	6.875043388719104e+17
19085.0	6.873846671998975e+17
19086.0	6.872378643229354e+17
19087.0	6.871196521289044e+17
19088.0	6.869905348143785e+17
19089.0	6.868540712463017e+17
19090.0	6.867325603719849e+17
19091.0	6.866019165405183e+17
19092.0	6.864701398974463e+17
19093.0	6.863428125720575e+17
19094.0	6.862117826549076e+17
19095.0	6.860814074686122e+17
19096.0	6.859515272101887e+17
19097.0	6.858219554428244e+17
19098.0	6.856919482367999e+17
19099.0	6.855617667574441e+17
19100.0	6.854316474236927e+17
19101.0	6.853013475251539e+17
19102.0	6.851673956461225e+17
19103.0	6.85041281662976e+17
19104.0	6.849111735140351e+17
19105.0	6.847810659942399e+17
19106.0	6.846502004938067e+17
19107.0	6.845202413824681e+17
19108.0	6.843907960733695e+17
19109.0	6.842484687983955e+17
19110.0	6.841302474468009e+17
19111.0	6.840006767280128e+17
19112.0	6.838706243633151e+17
19113.0	6.8374059024384e+17
19114.0	6.836105945022463e+17
19115.0	6.834794262429693e+17
19116.0	6.833495422795775e+17
19117.0	6.832195507322879e+17
19118.0	6.830865657102335e+17
19119.0	6.82815228494916e+17
19120.0	6.828295282054484e+17
19121.0	6.826997783199743e+17
19122.0	6.825707493654528e+17
19123.0	6.824407018242047e+17
19124.0	6.823108461723647e+17
19125.0	6.821808933524819e+17
19126.0	6.82050748223761e+17
19127.0	6.818464223548756e+17
19128.0	6.817873574668969e+17
19129.0	6.816577217363965e+17
19130.0	6.815308899680256e+17
19131.0	6.814014384373759e+17
19132.0	6.812714294837247e+17
19133.0	6.81131264512273e+17
19134.0	6.810106085070163e+17
19135.0	6.808820814708735e+17
19136.0	6.807522779682132e+17
19137.0	6.806154945844564e+17
19138.0	6.804917007504723e+17
19139.0	6.803627360387072e+17
19140.0	6.802329967788031e+17
19141.0	6.801031725842431e+17
19142.0	6.799723122567849e+17
19143.0	6.798414027161599e+17
19144.0	6.797132828071252e+17
19145.0	6.795840176433833e+17
19146.0	6.794293547805353e+17
19147.0	6.793200619137705e+17
19148.0	6.79194618040593e+17
19149.0	6.790648690638847e+17
19150.0	6.789347350500691e+17
19151.0	6.788054012395519e+17
19152.0	6.786752795989334e+17
19153.0	6.785450455509673e+17
19154.0	6.784105762346323e+17
19155.0	6.78286410715409e+17
19156.0	6.781565455564799e+17
19157.0	6.780266421594794e+17
19158.0	6.778884522857812e+17
19159.0	6.777666361360383e+17
19160.0	6.776373996333738e+17
19161.0	6.77507909165602e+17
19162.0	6.773590116532223e+17
19163.0	6.77247934529536e+17
19164.0	6.771188667077971e+17
19165.0	6.76988721369361e+17
19166.0	6.768544097588563e+17
19167.0	6.767279133250899e+17
19168.0	6.765977542153555e+17
19169.0	6.764685812563967e+17
19170.0	6.763404984669523e+17
19171.0	6.762096897993385e+17
19172.0	6.760810934173695e+17
19173.0	6.759513793931946e+17
19174.0	6.758192297366867e+17
19175.0	6.756919792369661e+17
19176.0	6.755622515113983e+17
19177.0	6.754259391479807e+17
19178.0	6.753022415732735e+17
19179.0	6.751715101507583e+17
19180.0	6.75042581230387e+17
19181.0	6.749090837342889e+17
19182.0	6.747822471424681e+17
19183.0	6.746538790005418e+17
19184.0	6.745222194484564e+17
19185.0	6.743940680821417e+17
19186.0	6.742645443395583e+17
19187.0	6.741320339030015e+17
19188.0	6.740048640737279e+17
19189.0	6.738753034911743e+17
19190.0	6.737453994650281e+17
19191.0	6.736154239259987e+17
19192.0	6.734857575071743e+17
19193.0	6.733556418783913e+17
19194.0	6.732259479868756e+17
19195.0	6.730961114890239e+17
19196.0	6.72965721063424e+17
19197.0	6.728357991415807e+17
19198.0	6.727058596036607e+17
19199.0	6.724616175921833e+17
19200.0	6.72366336217361e+17
19201.0	6.723161354316458e+17
19202.0	6.721865544368127e+17
19203.0	6.720566560030719e+17
19204.0	6.719255816962047e+17
19205.0	6.717966062190591e+17
19206.0	6.716659628769279e+17
19207.0	6.7153332011008e+17
19208.0	6.713980357705727e+17
19209.0	6.712763579629567e+17
19210.0	6.711462055641087e+17
19211.0	6.710160009461759e+17
19212.0	6.708858644856831e+17
19213.0	6.707520015958015e+17
19214.0	6.706199893027497e+17
19215.0	6.704946807657812e+17
19216.0	6.703645129179133e+17
19217.0	6.702344794275839e+17
19218.0	6.700685274557097e+17
19219.0	6.69966817960482e+17
19220.0	6.698422568484864e+17
19221.0	6.696990698810026e+17
19222.0	6.69581931848226e+17
19223.0	6.694517077966847e+17
19224.0	6.693195591188479e+17
19225.0	6.691843225944063e+17
19226.0	6.690600560623615e+17
19227.0	6.689284471215444e+17
19228.0	6.68798687449361e+17
19229.0	6.686679099594067e+17
19230.0	6.685369516949504e+17
19231.0	6.684063117781674e+17
19232.0	6.682745524016468e+17
19233.0	6.68141240783121e+17
19234.0	6.680123650605055e+17
19235.0	6.678813561148756e+17
19236.0	6.677512192349524e+17
19237.0	6.676193637389651e+17
19238.0	6.674848828882943e+17
19239.0	6.673576165201235e+17
19240.0	6.672220928256681e+17
19241.0	6.670924727539027e+17
19242.0	6.669625711045289e+17
19243.0	6.668244865777663e+17
19244.0	6.667004094884521e+17
19245.0	6.665687488178858e+17
19246.0	6.664363398834857e+17
19247.0	6.663051584121514e+17
19248.0	6.661733733804714e+17
19249.0	6.660413610175145e+17
19250.0	6.659091075519827e+17
19251.0	6.657713569617236e+17
19252.0	6.656329648526676e+17
19253.0	6.65512364352034e+17
19254.0	6.653798069392723e+17
19255.0	6.65240178139682e+17
19256.0	6.651134454966953e+17
19257.0	6.649828580786175e+17
19258.0	6.64850083750434e+17
19259.0	6.64714213466658e+17
19260.0	6.645816111748436e+17
19261.0	6.6445127464605e+17
19262.0	6.643160049866068e+17
19263.0	6.641821089617236e+17
19264.0	6.640289084429652e+17
19265.0	6.639097874830676e+17
19266.0	6.637773317122729e+17
19267.0	6.636506789707775e+17
19268.0	6.635168137740287e+17
19269.0	6.633828149886975e+17
19270.0	6.632485771280383e+17
19271.0	6.631002469651796e+17
19272.0	6.629783962823337e+17
19273.0	6.627239913324541e+17
19274.0	6.626384271813289e+17
19275.0	6.625758144015017e+17
19276.0	6.624399701224105e+17
19277.0	6.623056985675091e+17
19278.0	6.621703562767017e+17
19279.0	6.620346369179647e+17
19280.0	6.618958320194899e+17
19281.0	6.617631175300435e+17
19282.0	6.616271927203156e+17
19283.0	6.614892456269139e+17
19284.0	6.613523399092905e+17
19285.0	6.612096691208191e+17
19286.0	6.610796767346687e+17
19287.0	6.609439973616298e+17
19288.0	6.607667822155092e+17
19289.0	6.605833471961769e+17
19290.0	6.605315861293737e+17
19291.0	6.60382144336145e+17
19292.0	6.602554154680319e+17
19293.0	6.601166452424703e+17
19294.0	6.599783040942079e+17
19295.0	6.598393388335103e+17
19296.0	6.597001015022932e+17
19297.0	6.595604667607721e+17
19298.0	6.594199922496852e+17
19299.0	6.59280682426914e+17
19300.0	6.59140180582946e+17
19301.0	6.589992355408553e+17
19302.0	6.588576626813609e+17
19303.0	6.587136743221929e+17
19304.0	6.585733894635519e+17
19305.0	6.584324176478205e+17
19306.0	6.582909613899775e+17
19307.0	6.581457306779647e+17
19308.0	6.580033987892564e+17
19309.0	6.578572928658089e+17
19310.0	6.577112413984084e+17
19311.0	6.575711594042708e+17
19312.0	6.574283439822163e+17
19313.0	6.572821327817385e+17
19314.0	6.570498941692586e+17
19315.0	6.569079283034794e+17
19316.0	6.568444935798783e+17
19317.0	6.566977944420351e+17
19318.0	6.565494532341759e+17
19319.0	6.564022003782996e+17
19320.0	6.561965176520703e+17
19321.0	6.560291247270569e+17
19322.0	6.558751089055059e+17
19323.0	6.557273579760297e+17
19324.0	6.555813483118591e+17
19325.0	6.554265970191018e+17
19326.0	6.552779055868585e+17
19327.0	6.551244651539114e+17
19328.0	6.549715760622249e+17
19329.0	6.548174253938004e+17
19330.0	6.546608470622205e+17
19331.0	6.545048903264938e+17
19332.0	6.543501641296554e+17
19333.0	6.541931646200489e+17
19334.0	6.54034854949683e+17
19335.0	6.53876305994274e+17
19336.0	6.537164624669353e+17
19337.0	6.53555656626449e+17
19338.0	6.533852432433151e+17
19339.0	6.532319935812948e+17
19340.0	6.530659663216639e+17
19341.0	6.529029763672746e+17
19342.0	6.5272290490013e+17
19343.0	6.52572033548288e+17
19344.0	6.524043984721235e+17
19345.0	6.52156667708484e+17
19346.0	6.520274561619284e+17
19347.0	6.518918253030057e+17
19348.0	6.517226978934783e+17
19349.0	6.515480224683348e+17
19350.0	6.513731186633386e+17
19351.0	6.511968047333376e+17
19352.0	6.510170112786431e+17
19353.0	6.50778689876787e+17
19354.0	6.505517409107965e+17
19355.0	6.503655652633257e+17
19356.0	6.501848991836842e+17
19357.0	6.499990254561961e+17
19358.0	6.498101390999551e+17
19359.0	6.496154567049215e+17
19360.0	6.494287084650495e+17
19361.0	6.492356800238932e+17
19362.0	6.490421012900521e+17
19363.0	6.488446493261823e+17
19364.0	6.486450024131242e+17
19365.0	6.484432327628116e+17
19366.0	6.482390820061184e+17
19367.0	6.480202907516928e+17
19368.0	6.476764048698025e+17
19369.0	6.474608405730644e+17
19370.0	6.472362397881684e+17
19371.0	6.470207776227327e+17
19372.0	6.467926683724457e+17
19373.0	6.465682925420543e+17
19374.0	6.463424412254207e+17
19375.0	6.46112280261427e+17
19376.0	6.458049347365545e+17
19377.0	6.454487356364116e+17
19378.0	6.452067015065597e+17
19379.0	6.449605739457193e+17
19380.0	6.447102691377151e+17
19381.0	6.444556137878868e+17
19382.0	6.440856603066367e+17
19383.0	6.436846804402175e+17
19384.0	6.434183641563135e+17
19385.0	6.4314156267165e+17
19386.0	6.428576396782249e+17
19387.0	6.422759827570684e+17
19388.0	6.419790079983615e+17
19389.0	6.416762613181097e+17
19390.0	6.411704023209299e+17
19391.0	6.405801404355923e+17
19392.0	6.403635154692778e+17
19393.0	6.397371095187455e+17
19394.0	6.392657597868714e+17
19395.0	6.387465947796824e+17
19396.0	6.380541054025727e+17
19397.0	6.374909220836687e+17
19398.0	6.367162084797098e+17
19399.0	6.360908223741953e+17
19400.0	6.355529230887593e+17
19401.0	6.351104198224553e+17
19402.0	6.346515566733993e+17
19403.0	6.341795229204479e+17
19404.0	6.336543875312297e+17
19405.0	6.331412119901524e+17
19406.0	6.32622368755985e+17
19407.0	6.320881589900627e+17
19408.0	6.315066181812223e+17
19409.0	6.309620009489748e+17
19410.0	6.303712757328553e+17
19411.0	6.29758842896384e+17
19412.0	6.290493275111424e+17
19413.0	6.283790673160874e+17
19414.0	6.27699333866018e+17
19415.0	6.269965044809728e+17
19416.0	6.26161695728162e+17
19417.0	6.25367460155665e+17
19418.0	6.24574304476638e+17
19419.0	6.235646544838655e+17
19420.0	6.226905922884948e+17
19421.0	6.215471293180585e+17
19422.0	6.204259793458516e+17
19423.0	6.191674323632124e+17
19424.0	6.177342510596099e+17
19425.0	6.160745451137702e+17
19426.0	6.141966065947988e+17
19427.0	6.11732260825771e+17
19428.0	6.089187629465592e+17
19429.0	6.067960342205779e+17
19430.0	6.050387136785066e+17
19431.0	6.031519648841728e+17
19432.0	6.011659457221971e+17
19433.0	5.99075671961327e+17
19434.0	5.968316480181588e+17
19435.0	5.944279402108243e+17
19436.0	5.919165763638612e+17
19437.0	5.891680165167101e+17
19438.0	5.858623683734184e+17
19439.0	5.822368979091456e+17
19440.0	5.773989781001563e+17
19441.0	5.7088972881046144e+17
19442.0	5.654653586898945e+17
19443.0	5.6011050510363296e+17
19444.0	5.5390267080267046e+17
19445.0	5.462152249518765e+17
19446.0	5.3593689977869696e+17
19447.0	5.243019701780475e+17
19448.0	5.101430026622299e+17
19449.0	4.899130917431977e+17
19450.0	4.5859909853511194e+17
19451.0	4.500854470781612e+17
19452.0	4.74750054476459e+17
19453.0	5.010257972210357e+17
19454.0	5.1748713557305965e+17
19455.0	5.2954393686835194e+17
19456.0	5.407065794499933e+17
19457.0	5.492660255763109e+17
19458.0	5.557411201591979e+17
19459.0	5.613549462923949e+17
19460.0	5.662719390777342e+17
19461.0	5.72376731213278e+17
19462.0	5.778247127487832e+17
19463.0	5.817928790310912e+17
19464.0	5.84968366596642e+17
19465.0	5.876967690381994e+17
19466.0	5.901069973804371e+17
19467.0	5.922840239581865e+17
19468.0	5.944000364150784e+17
19469.0	5.963108775013033e+17
19470.0	5.981364441929044e+17
19471.0	5.99849731883008e+17
19472.0	6.01421311377408e+17
19473.0	6.029879777340074e+17
19474.0	6.053805012899162e+17
19475.0	6.077513279209473e+17
19476.0	6.096768032134477e+17
19477.0	6.112177600244398e+17
19478.0	6.124744365572095e+17
19479.0	6.135587056648191e+17
19480.0	6.145908645298176e+17
19481.0	6.153998473450834e+17
19482.0	6.161796359170729e+17
19483.0	6.168781028065277e+17
19484.0	6.175394551387475e+17
19485.0	6.180739081043967e+17
19486.0	6.186827732658857e+17
19487.0	6.191926752225961e+17
19488.0	6.196437940087465e+17
19489.0	6.200652188002985e+17
19490.0	6.204763811785385e+17
19491.0	6.20943333532194e+17
19492.0	6.213061681610751e+17
19493.0	6.216470725219667e+17
19494.0	6.219685665527124e+17
19495.0	6.22269533659682e+17
19496.0	6.225407907637929e+17
19497.0	6.228228421888682e+17
19498.0	6.23084693426449e+17
19499.0	6.231842446726483e+17
19500.0	6.235848980125012e+17
19501.0	6.237952884954451e+17
19502.0	6.23992066155042e+17
19503.0	6.244383147950079e+17
19504.0	6.246993838647976e+17
19505.0	6.253254579759785e+17
19506.0	6.254918983745537e+17
19507.0	6.26047538307618e+17
19508.0	6.261588605883732e+17
19509.0	6.265130793478826e+17
19510.0	6.267403897929727e+17
19511.0	6.266484045818537e+17
19512.0	6.271264458364247e+17
19513.0	6.27239732589363e+17
19514.0	6.273202815412905e+17
19515.0	6.274452043421011e+17
19516.0	6.277355731419133e+17
19517.0	6.277710381492906e+17
19518.0	6.278050631122944e+17
19519.0	6.278309827925332e+17
19520.0	6.279868191517356e+17
19521.0	6.280948313576788e+17
19522.0	6.281040396025855e+17
19523.0	6.281107906144938e+17
19524.0	6.281125555077119e+17
19525.0	6.281094162109779e+17
19526.0	6.281683503065769e+17
19527.0	6.282745140128425e+17
19528.0	6.282605446736554e+17
19529.0	6.282433259372543e+17
19530.0	6.282229863590569e+17
19531.0	6.2819964303005e+17
19532.0	6.281733978718207e+17
19533.0	6.281443918828884e+17
19534.0	6.281186910055082e+17
19535.0	6.281019525868202e+17
19536.0	6.28193175413282e+17
19537.0	6.281555286687743e+17
19538.0	6.281087822419284e+17
19539.0	6.280482105502378e+17
19540.0	6.280226436808704e+17
19541.0	6.279759245869055e+17
19542.0	6.279259187664212e+17
19543.0	6.278740125067946e+17
19544.0	6.278202580271104e+17
19545.0	6.277453667718484e+17
19546.0	6.276730470443689e+17
19547.0	6.276501111919956e+17
19548.0	6.275895104897023e+17
19549.0	6.275235022809769e+17
19550.0	6.274642143958356e+17
19551.0	6.273993877924521e+17
19552.0	6.274029988085759e+17
19553.0	6.273633256559956e+17
19554.0	6.272936414893398e+17
19555.0	6.27224676016674e+17
19556.0	6.271529653720403e+17
19557.0	6.270799149268992e+17
19558.0	6.270060931492521e+17
19559.0	6.269308566328659e+17
19560.0	6.268539537195007e+17
19561.0	6.267781467777706e+17
19562.0	6.267001060196351e+17
19563.0	6.266210448572416e+17
19564.0	6.265411116990464e+17
19565.0	6.26460256702737e+17
19566.0	6.26377663516945e+17
19567.0	6.262958118841001e+17
19568.0	6.26211247235618e+17
19569.0	6.261278936924159e+17
19570.0	6.260432447384234e+17
19571.0	6.259572431213908e+17
19572.0	6.258697191817215e+17
19573.0	6.257827407112873e+17
19574.0	6.256919886255444e+17
19575.0	6.256073327509503e+17
19576.0	6.255182112008874e+17
19577.0	6.254274997998932e+17
19578.0	6.253361268872531e+17
19579.0	6.252458885338452e+17
19580.0	6.251543294640127e+17
19581.0	6.250625922760703e+17
19582.0	6.249706028007423e+17
19583.0	6.248774134748499e+17
19584.0	6.24783334187554e+17
19585.0	6.246849121178964e+17
19586.0	6.245888025777492e+17
19587.0	6.244989371678719e+17
19588.0	6.243843683560106e+17
19589.0	6.243074865539753e+17
19590.0	6.242085773858132e+17
19591.0	6.241151602393087e+17
19592.0	6.24017877901858e+17
19593.0	6.239194178737492e+17
19594.0	6.23812658995746e+17
19595.0	6.237220029595647e+17
19596.0	6.236109106664788e+17
19597.0	6.235439745378985e+17
19598.0	6.234804797658452e+17
19599.0	6.233933956688553e+17
19600.0	6.232932911939583e+17
19601.0	6.23189905515042e+17
19602.0	6.230897687440042e+17
19603.0	6.229730795716605e+17
19604.0	6.228872322351103e+17
19605.0	6.22775549104401e+17
19606.0	6.226862595724627e+17
19607.0	6.225843922315945e+17
19608.0	6.224818053578751e+17
19609.0	6.223774952543572e+17
19610.0	6.222766018308777e+17
19611.0	6.221732954942121e+17
19612.0	6.220702733216425e+17
19613.0	6.219667594368339e+17
19614.0	6.218611923004074e+17
19615.0	6.217590588309503e+17
19616.0	6.216539550952106e+17
19617.0	6.215506200974676e+17
19618.0	6.214221175980031e+17
19619.0	6.213124117321044e+17
19620.0	6.212085340613289e+17
19621.0	6.211314275844095e+17
19622.0	6.210262149365759e+17
19623.0	6.209208250094932e+17
19624.0	6.208152698268329e+17
19625.0	6.207095412097023e+17
19626.0	6.206036796331348e+17
19627.0	6.204976389597865e+17
19628.0	6.203888116607657e+17
19629.0	6.202813382830761e+17
19630.0	6.201700753517226e+17
19631.0	6.199500910275242e+17
19632.0	6.199653058652841e+17
19633.0	6.198576571656873e+17
19634.0	6.197516748630698e+17
19635.0	6.196428501505364e+17
19636.0	6.19537450087219e+17
19637.0	6.194132405977087e+17
19638.0	6.193223649897129e+17
19639.0	6.192143971734868e+17
19640.0	6.19102754447906e+17
19641.0	6.189712158315862e+17
19642.0	6.188920663790932e+17
19643.0	6.187838826960212e+17
19644.0	6.186733191648596e+17
19645.0	6.185564436256084e+17
19646.0	6.184598499928746e+17
19647.0	6.183515799770452e+17
19648.0	6.182432239779839e+17
19649.0	6.181346668620457e+17
19650.0	6.180262697588052e+17
19651.0	6.179176784592896e+17
19652.0	6.178090101243904e+17
19653.0	6.177001853419519e+17
19654.0	6.175914599645183e+17
19655.0	6.174823792596308e+17
19656.0	6.173733386103465e+17
19657.0	6.172646356025343e+17
19658.0	6.171555611891027e+17
19659.0	6.170463617854121e+17
19660.0	6.169372401860608e+17
19661.0	6.168279950644563e+17
19662.0	6.167186882865833e+17
19663.0	6.166074624049151e+17
19664.0	6.1649947983872e+17
19665.0	6.163904645649748e+17
