# Flux units: erg / (cm m2 s)
# Wavelength units: Angstrom
wave	flux
19000.0	5.300856477275476e+17
19001.0	5.2997626517258234e+17
19002.0	5.2988987019973965e+17
19003.0	5.2979103659895456e+17
19004.0	5.296927437138602e+17
19005.0	5.295947455485268e+17
19006.0	5.294978536308736e+17
19007.0	5.2939439077676365e+17
19008.0	5.2929425106971296e+17
19009.0	5.291910855917567e+17
19010.0	5.290486088597503e+17
19011.0	5.2900177225536845e+17
19012.0	5.2886078988397216e+17
19013.0	5.288112401241428e+17
19014.0	5.287075104423935e+17
19015.0	5.286107680516778e+17
19016.0	5.285106647651668e+17
19017.0	5.2841967598086816e+17
19018.0	5.283191805968383e+17
19019.0	5.282229206908928e+17
19020.0	5.281238944317439e+17
19021.0	5.280281397297151e+17
19022.0	5.2792985006025376e+17
19023.0	5.2782826863110816e+17
19024.0	5.2773181327059616e+17
19025.0	5.2763398273761274e+17
19026.0	5.275321930612735e+17
19027.0	5.274053407408126e+17
19028.0	5.273434102344361e+17
19029.0	5.272431373582334e+17
19030.0	5.271489470616917e+17
19031.0	5.270514315908437e+17
19032.0	5.2695285950491296e+17
19033.0	5.268453231427583e+17
19034.0	5.267564893219499e+17
19035.0	5.266541100662783e+17
19036.0	5.238397867480404e+17
19037.0	5.2646244980708685e+17
19038.0	5.263643947390292e+17
19039.0	5.262691207042388e+17
19040.0	5.261719915287894e+17
19041.0	5.260732556552874e+17
19042.0	5.259531047141374e+17
19043.0	5.2587917640116896e+17
19044.0	5.257799997063166e+17
19045.0	5.25682622997026e+17
19046.0	5.255791424569343e+17
19047.0	5.254860062588926e+17
19048.0	5.253623961354238e+17
19049.0	5.252598346372436e+17
19050.0	5.2518958151325005e+17
19051.0	5.2473004412982554e+17
19052.0	5.2492898926591994e+17
19053.0	5.249019337681578e+17
19054.0	5.248057752245588e+17
19055.0	5.246755846575445e+17
19056.0	5.2460611391105696e+17
19057.0	5.245126278381567e+17
19058.0	5.244001203169961e+17
19059.0	5.243127456246442e+17
19060.0	5.2421832492100256e+17
19061.0	5.2412385835963725e+17
19062.0	5.2402583565762554e+17
19063.0	5.239286893554346e+17
19064.0	5.238164307662164e+17
19065.0	5.2371488659647136e+17
19066.0	5.236257470808064e+17
19067.0	5.235379269533694e+17
19068.0	5.2344212324788896e+17
19069.0	5.2334499120633165e+17
19070.0	5.2324425353134086e+17
19071.0	5.2314873336081056e+17
19072.0	5.2304764063798605e+17
19073.0	5.229553876205567e+17
19074.0	5.2285879091199994e+17
19075.0	5.2276157197844474e+17
19076.0	5.22661963899426e+17
19077.0	5.225651185385471e+17
19078.0	5.2246536337926816e+17
19079.0	5.223723449013588e+17
19080.0	5.222737933675177e+17
19081.0	5.221737536946175e+17
19082.0	5.220763304285525e+17
19083.0	5.219735140564991e+17
19084.0	5.218629409483434e+17
19085.0	5.217883061747711e+17
19086.0	5.216445354300757e+17
19087.0	5.215178292112043e+17
19088.0	5.2148153554916685e+17
19089.0	5.213479947119274e+17
19090.0	5.2130158278082554e+17
19091.0	5.21203054874897e+17
19092.0	5.210806851469311e+17
19093.0	5.21014034440738e+17
19094.0	5.2091701522595834e+17
19095.0	5.2082005836649805e+17
19096.0	5.2072125957843616e+17
19097.0	5.2062607411336525e+17
19098.0	5.2052363040522234e+17
19099.0	5.204252849515177e+17
19100.0	5.203305171692202e+17
19101.0	5.202370445180926e+17
19102.0	5.2012776961693e+17
19103.0	5.2004502844211194e+17
19104.0	5.1994862760755194e+17
19105.0	5.198393569705983e+17
19106.0	5.197423293672107e+17
19107.0	5.196526158610432e+17
19108.0	5.1955670023755085e+17
19109.0	5.192849180065789e+17
19110.0	5.193628961996798e+17
19111.0	5.192669546414078e+17
19112.0	5.1917042476209485e+17
19113.0	5.1907767709641376e+17
19114.0	5.1897887621119994e+17
19115.0	5.188736497920681e+17
19116.0	5.187858513352021e+17
19117.0	5.1868918779740154e+17
19118.0	5.18574853586944e+17
19119.0	5.1758538651511334e+17
19120.0	5.18380078637602e+17
19121.0	5.182899059949566e+17
19122.0	5.1820894355455994e+17
19123.0	5.181124236017662e+17
19124.0	5.180051113552554e+17
19125.0	5.179177820312915e+17
19126.0	5.178221928644607e+17
19127.0	5.175105569860267e+17
19128.0	5.175934647446185e+17
19129.0	5.1752513638673043e+17
19130.0	5.1743490020037965e+17
19131.0	5.173396902685353e+17
19132.0	5.172439692607487e+17
19133.0	5.171323544971946e+17
19134.0	5.1703546132125005e+17
19135.0	5.1695412146339834e+17
19136.0	5.168591827632127e+17
19137.0	5.1674343262562976e+17
19138.0	5.1666366814836045e+17
19139.0	5.16570149289984e+17
19140.0	5.164740802248703e+17
19141.0	5.1637779725025274e+17
19142.0	5.1627810290838176e+17
19143.0	5.1617845917777914e+17
19144.0	5.160846696469844e+17
19145.0	5.1599267856384e+17
19146.0	5.1582680768184314e+17
19147.0	5.157874466553855e+17
19148.0	5.156987989218644e+17
19149.0	5.156016061328041e+17
19150.0	5.1551118903214086e+17
19151.0	5.154153565956778e+17
19152.0	5.153169717155157e+17
19153.0	5.152129530462206e+17
19154.0	5.151111818248191e+17
19155.0	5.150309739397119e+17
19156.0	5.149352683110398e+17
19157.0	5.148337541305683e+17
19158.0	5.146172319247017e+17
19159.0	5.146447878029311e+17
19160.0	5.145478698106879e+17
19161.0	5.144521335635967e+17
19162.0	5.140809624059905e+17
19163.0	5.1425580154879994e+17
19164.0	5.1416724937550496e+17
19165.0	5.140549442295124e+17
19166.0	5.139531135888041e+17
19167.0	5.138534029590527e+17
19168.0	5.1378198437778765e+17
19169.0	5.13681408463121e+17
19170.0	5.135919364789589e+17
19171.0	5.1347824322805754e+17
19172.0	5.1339890992523936e+17
19173.0	5.133034809808212e+17
19174.0	5.132014430715904e+17
19175.0	5.1311273528961696e+17
19176.0	5.1301680086166176e+17
19177.0	5.1290382770285216e+17
19178.0	5.1281876218456736e+17
19179.0	5.127047909911209e+17
19180.0	5.1263098675964576e+17
19181.0	5.125220676752725e+17
19182.0	5.124389932630014e+17
19183.0	5.1234668047674003e+17
19184.0	5.122495776555007e+17
19185.0	5.1215410026687136e+17
19186.0	5.120594235708756e+17
19187.0	5.1195609598306976e+17
19188.0	5.1186705908804256e+17
19189.0	5.11771103269137e+17
19190.0	5.116743092884821e+17
19191.0	5.115748744342185e+17
19192.0	5.114853503008766e+17
19193.0	5.113870437143893e+17
19194.0	5.1129048845953683e+17
19195.0	5.1119820741017594e+17
19196.0	5.111003941437439e+17
19197.0	5.11005067260723e+17
19198.0	5.109071797551102e+17
19199.0	5.0921501688681766e+17
19200.0	5.096170781846192e+17
19201.0	5.1062103783505914e+17
19202.0	5.1052828471678285e+17
19203.0	5.1042850530044576e+17
19204.0	5.103340608290815e+17
19205.0	5.102412032027306e+17
19206.0	5.10145191809297e+17
19207.0	5.1003761839745696e+17
19208.0	5.0992839047249914e+17
19209.0	5.09859151950643e+17
19210.0	5.0976347421409274e+17
19211.0	5.096693892644864e+17
19212.0	5.0957347510900045e+17
19213.0	5.094556819958441e+17
19214.0	5.093519846801406e+17
19215.0	5.092808095083178e+17
19216.0	5.091915575154004e+17
19217.0	5.090954844656981e+17
19218.0	5.089022947535528e+17
19219.0	5.088887812653055e+17
19220.0	5.088060379234303e+17
19221.0	5.0867564267438074e+17
19222.0	5.0861710906490874e+17
19223.0	5.085204500010325e+17
19224.0	5.0842211510299296e+17
19225.0	5.0831394519121914e+17
19226.0	5.0823384356181325e+17
19227.0	5.081381916202324e+17
19228.0	5.080452672345428e+17
19229.0	5.079496395500202e+17
19230.0	5.0785193163052365e+17
19231.0	5.077562107625471e+17
19232.0	5.076615757998762e+17
19233.0	5.075591829127166e+17
19234.0	5.074689690260821e+17
19235.0	5.0737244348088314e+17
19236.0	5.07280531460369e+17
19237.0	5.0718305380816205e+17
19238.0	5.070762099255977e+17
19239.0	5.069938184159232e+17
19240.0	5.068955252512085e+17
19241.0	5.0679938418387616e+17
19242.0	5.067048653335211e+17
19243.0	5.0659382994315936e+17
19244.0	5.065156423843839e+17
19245.0	5.064193993255594e+17
19246.0	5.063221550863701e+17
19247.0	5.0622753333575674e+17
19248.0	5.061323443754324e+17
19249.0	5.060353285860009e+17
19250.0	5.059370155682475e+17
19251.0	5.058285738655743e+17
19252.0	5.0572051342513485e+17
19253.0	5.056508712714239e+17
19254.0	5.055576701315753e+17
19255.0	5.054429192869204e+17
19256.0	5.053605260995242e+17
19257.0	5.052703480042836e+17
19258.0	5.051744555892735e+17
19259.0	5.050710484495017e+17
19260.0	5.049261325200041e+17
19261.0	5.048848366611114e+17
19262.0	5.047838230708223e+17
19263.0	5.046862748144982e+17
19264.0	5.0453115239574176e+17
19265.0	5.0447702958626125e+17
19266.0	5.043723227015849e+17
19267.0	5.0430989104578554e+17
19268.0	5.042128644210688e+17
19269.0	5.041169132158975e+17
19270.0	5.040207871082494e+17
19271.0	5.0388264917401606e+17
19272.0	5.038241359069184e+17
19273.0	5.036281354518527e+17
19274.0	5.0355658901422054e+17
19275.0	5.0353884410238285e+17
19276.0	5.0343996792941216e+17
19277.0	5.033440087550634e+17
19278.0	5.0324726384776525e+17
19279.0	5.031476892532734e+17
19280.0	5.03044223602961e+17
19281.0	5.0295650232128845e+17
19282.0	5.0286161968496634e+17
19283.0	5.027396789643945e+17
19284.0	5.0265438478663674e+17
19285.0	5.025500017022291e+17
19286.0	5.024692361844051e+17
19287.0	5.0237580163153914e+17
19288.0	5.014820422855328e+17
19289.0	5.004447282014864e+17
19290.0	5.020837781787989e+17
19291.0	5.0195832913264646e+17
19292.0	5.018891081569622e+17
19293.0	5.017906228931241e+17
19294.0	5.016925664968703e+17
19295.0	5.015958722707456e+17
19296.0	5.014916020131156e+17
19297.0	5.0139494148123296e+17
19298.0	5.0129825193874765e+17
19299.0	5.011968249997993e+17
19300.0	5.0110378813685766e+17
19301.0	5.010058428896596e+17
19302.0	5.009058436218878e+17
19303.0	5.007998920075946e+17
19304.0	5.007060724875262e+17
19305.0	5.0060893639147514e+17
19306.0	5.005098876928e+17
19307.0	5.004054640634538e+17
19308.0	5.003086036030804e+17
19309.0	5.001510572261375e+17
19310.0	5.000338796969982e+17
19311.0	5.000031344001023e+17
19312.0	4.9991288765808634e+17
19313.0	4.9981362854516045e+17
19314.0	4.955740241046219e+17
19315.0	4.9574350768046445e+17
19316.0	4.994993724151125e+17
19317.0	4.994107269185535e+17
19318.0	4.99309460132113e+17
19319.0	4.992101946578261e+17
19320.0	4.991059253089621e+17
19321.0	4.9900209468429645e+17
19322.0	4.98893082066944e+17
19323.0	4.9877709739786234e+17
19324.0	4.986984179171327e+17
19325.0	4.985393710279338e+17
19326.0	4.984947248988159e+17
19327.0	4.9838995824530765e+17
19328.0	4.982778165373609e+17
19329.0	4.9818518456456525e+17
19330.0	4.98076628497203e+17
19331.0	4.9797165289745056e+17
19332.0	4.9787109348037965e+17
19333.0	4.9776473103400954e+17
19334.0	4.9766105133438285e+17
19335.0	4.975348222874964e+17
19336.0	4.974483680351573e+17
19337.0	4.973432001265662e+17
19338.0	4.9721271295235405e+17
19339.0	4.9712884756425376e+17
19340.0	4.970026637459455e+17
19341.0	4.9689965149989536e+17
19342.0	4.9675442337437e+17
19343.0	4.9669589465825274e+17
19344.0	4.965787025189545e+17
19345.0	4.9623437791286566e+17
19346.0	4.962530780774398e+17
19347.0	4.9623695447381325e+17
19348.0	4.9614408160815763e+17
19349.0	4.960269695101611e+17
19350.0	4.959111014427306e+17
19351.0	4.9580074951420576e+17
19352.0	4.956712974243156e+17
19353.0	4.9557599256139085e+17
19354.0	4.9546086415947085e+17
19355.0	4.953333744446122e+17
19356.0	4.952270630988457e+17
19357.0	4.951093633788585e+17
19358.0	4.9498893190867616e+17
19359.0	4.9486066869425485e+17
19360.0	4.947371374936064e+17
19361.0	4.946239644063061e+17
19362.0	4.945063842938879e+17
19363.0	4.9438265868724896e+17
19364.0	4.942577749633706e+17
19365.0	4.9413225755006285e+17
19366.0	4.940052851326975e+17
19367.0	4.938772043005952e+17
19368.0	4.937479466866004e+17
19369.0	4.936101813463722e+17
19370.0	4.934731295970645e+17
19371.0	4.933456262507178e+17
19372.0	4.9321641708093434e+17
19373.0	4.93077111312657e+17
19374.0	4.929409891609258e+17
19375.0	4.9280140272380576e+17
19376.0	4.9266015778897914e+17
19377.0	4.925154114491732e+17
19378.0	4.9237041995229856e+17
19379.0	4.922236193822037e+17
19380.0	4.9207432760524794e+17
19381.0	4.9192233616452256e+17
19382.0	4.917611550736384e+17
19383.0	4.9159977300568736e+17
19384.0	4.9145310707275085e+17
19385.0	4.912925489758207e+17
19386.0	4.9112912609935354e+17
19387.0	4.9096235428085754e+17
19388.0	4.9079265812370765e+17
19389.0	4.9061977981801805e+17
19390.0	4.9044337410266445e+17
19391.0	4.878356282955059e+17
19392.0	4.900259074058918e+17
19393.0	4.8989621253570554e+17
19394.0	4.897050494413482e+17
19395.0	4.895062218855764e+17
19396.0	4.8931198226923514e+17
19397.0	4.891170762478932e+17
19398.0	4.88905256346146e+17
19399.0	4.8861001760986445e+17
19400.0	4.8847769731508896e+17
19401.0	4.882703899951103e+17
19402.0	4.8804893507802445e+17
19403.0	4.878190855411028e+17
19404.0	4.87588509061393e+17
19405.0	4.8734912433356794e+17
19406.0	4.8710870983420576e+17
19407.0	4.8685937691634336e+17
19408.0	4.8651555052366515e+17
19409.0	4.863519814757034e+17
19410.0	4.8609170736633165e+17
19411.0	4.858235672592383e+17
19412.0	4.855490541868372e+17
19413.0	4.8526662709193376e+17
19414.0	4.8498058597498874e+17
19415.0	4.8466959105611085e+17
19416.0	4.8433564015220045e+17
19417.0	4.840328378275155e+17
19418.0	4.8375694524852896e+17
19419.0	4.8344309268043085e+17
19420.0	4.8312604803727354e+17
19421.0	4.8280011384640845e+17
19422.0	4.824617183783594e+17
19423.0	4.821127901741055e+17
19424.0	4.8169499471380474e+17
19425.0	4.813387132654932e+17
19426.0	4.80975822852369e+17
19427.0	4.805354170176851e+17
19428.0	4.801030436246869e+17
19429.0	4.796275494311254e+17
19430.0	4.79046282510336e+17
19431.0	4.780104367822173e+17
19432.0	4.776781849209515e+17
19433.0	4.766242150460075e+17
19434.0	4.75232740852805e+17
19435.0	4.730317580184226e+17
19436.0	4.700807108056408e+17
19437.0	4.687719777173504e+17
19438.0	4.6301402760915776e+17
19439.0	4.654906011025409e+17
19440.0	4.6390506527129594e+17
19441.0	4.6203344875683814e+17
19442.0	4.599313221025791e+17
19443.0	4.575454150612307e+17
19444.0	4.537936884968102e+17
19445.0	4.4573509266964685e+17
19446.0	4.39249988170547e+17
19447.0	4.329006608416765e+17
19448.0	4.243502992982021e+17
19449.0	4.051450160218111e+17
19450.0	3.573583546679303e+17
19451.0	3.36093787735107e+17
19452.0	3.873155808493592e+17
19453.0	4.15734138282531e+17
19454.0	4.290800246587388e+17
19455.0	4.3560828162539526e+17
19456.0	4.414816036847618e+17
19457.0	4.493859987914745e+17
19458.0	4.43524624486687e+17
19459.0	4.568854662829436e+17
19460.0	4.595649330107731e+17
19461.0	4.6138907748379296e+17
19462.0	4.6302225214996474e+17
19463.0	4.6456224608856736e+17
19464.0	4.6591738111153485e+17
19465.0	4.671266275459072e+17
19466.0	4.691284086226945e+17
19467.0	4.715882351689725e+17
19468.0	4.7311826316165165e+17
19469.0	4.740837874685267e+17
19470.0	4.7482417167291757e+17
19471.0	4.753433604478294e+17
19472.0	4.757244838499667e+17
19473.0	4.761102706890068e+17
19474.0	4.76327684533999e+17
19475.0	4.7653674535266963e+17
19476.0	4.768326929263274e+17
19477.0	4.7702385294486176e+17
19478.0	4.772271503704064e+17
19479.0	4.774401453064191e+17
19480.0	4.7760656333537274e+17
19481.0	4.777572878865749e+17
19482.0	4.7790528236530336e+17
19483.0	4.780460005654527e+17
19484.0	4.7817607529977165e+17
19485.0	4.7829498388807674e+17
19486.0	4.7840669127584416e+17
19487.0	4.785533493095083e+17
19488.0	4.786786345680896e+17
19489.0	4.7876560485963085e+17
19490.0	4.787047775950164e+17
19491.0	4.789657625690111e+17
19492.0	4.790557784844971e+17
19493.0	4.7913565494968314e+17
19494.0	4.792092554777941e+17
19495.0	4.792776154327721e+17
19496.0	4.7928825260714656e+17
19497.0	4.7939684516495354e+17
19498.0	4.791086859244885e+17
19499.0	4.7568813852808416e+17
19500.0	4.7954770470283936e+17
19501.0	4.795871954731007e+17
19502.0	4.7962068146804045e+17
19503.0	4.7965367197586765e+17
19504.0	4.7967964142851405e+17
19505.0	4.7970065531098445e+17
19506.0	4.797193209424553e+17
19507.0	4.797300792623103e+17
19508.0	4.7974289803400525e+17
19509.0	4.7974923793421645e+17
19510.0	4.797259641607509e+17
19511.0	4.7266284108949926e+17
19512.0	4.7910462730622234e+17
19513.0	4.7865448103935834e+17
19514.0	4.789191256134985e+17
19515.0	4.796397842857984e+17
19516.0	4.797001527634602e+17
19517.0	4.7967708863528954e+17
19518.0	4.7966232021128525e+17
19519.0	4.796365293660842e+17
19520.0	4.7960387880659616e+17
19521.0	4.7958710166050125e+17
19522.0	4.7955168251084794e+17
19523.0	4.7952153609065805e+17
19524.0	4.794838006366207e+17
19525.0	4.794516960357034e+17
19526.0	4.794151848290987e+17
19527.0	4.7937446834339834e+17
19528.0	4.7933170902193485e+17
19529.0	4.792877188819626e+17
19530.0	4.7924562191100576e+17
19531.0	4.7919928995130016e+17
19532.0	4.791515224910506e+17
19533.0	4.7910238034766496e+17
19534.0	4.7905154181802656e+17
19535.0	4.7899850197783885e+17
19536.0	4.7894250704076794e+17
19537.0	4.788931175033513e+17
19538.0	4.788153509128875e+17
19539.0	4.7871535653847046e+17
19540.0	4.787210724660564e+17
19541.0	4.7866367194781005e+17
19542.0	4.7860495679487994e+17
19543.0	4.785378708597419e+17
19544.0	4.7848414133616634e+17
19545.0	4.783617825832959e+17
19546.0	4.7825314927083514e+17
19547.0	4.782974666364244e+17
19548.0	4.782328972137813e+17
19549.0	4.781575740151123e+17
19550.0	4.781026321279658e+17
19551.0	4.7803671388706125e+17
19552.0	4.779697156128768e+17
19553.0	4.7789922837681485e+17
19554.0	4.7782945948521805e+17
19555.0	4.777628856046932e+17
19556.0	4.776958723708244e+17
19557.0	4.776262583888553e+17
19558.0	4.775559829651455e+17
19559.0	4.7748535263341216e+17
19560.0	4.7740878841009485e+17
19561.0	4.773398402039807e+17
19562.0	4.772673248122196e+17
19563.0	4.771986729336832e+17
19564.0	4.771258579987114e+17
19565.0	4.7705266075293005e+17
19566.0	4.7697547479394976e+17
19567.0	4.76904968893235e+17
19568.0	4.768280949904723e+17
19569.0	4.767536007959893e+17
19570.0	4.7668123017762125e+17
19571.0	4.7660514480401043e+17
19572.0	4.7652670146259616e+17
19573.0	4.764507682024106e+17
19574.0	4.763683392935253e+17
19575.0	4.7630194080481274e+17
19576.0	4.762243907103401e+17
19577.0	4.761433919892138e+17
19578.0	4.7606604881373856e+17
19579.0	4.75990805516561e+17
19580.0	4.759131507742036e+17
19581.0	4.758387006898175e+17
19582.0	4.757653182655146e+17
19583.0	4.756870821227177e+17
19584.0	4.756068322945707e+17
19585.0	4.7551764650175123e+17
19586.0	4.754348433910442e+17
19587.0	4.7536172360007674e+17
19588.0	4.752357694199126e+17
19589.0	4.7521102463412896e+17
19590.0	4.75119441097523e+17
19591.0	4.75053443654178e+17
19592.0	4.749744576397311e+17
19593.0	4.7489184837577376e+17
19594.0	4.747865607198036e+17
19595.0	4.747292475828906e+17
19596.0	4.745809251095894e+17
19597.0	4.7456959804211194e+17
19598.0	4.7443486818959354e+17
19599.0	4.744119785444693e+17
19600.0	4.7433215709457056e+17
19601.0	4.7424335011730765e+17
19602.0	4.7416380556137805e+17
19603.0	4.740138950546772e+17
19604.0	4.739990642753536e+17
19605.0	4.7389245800011085e+17
19606.0	4.738443517799082e+17
19607.0	4.7376382960162125e+17
19608.0	4.7368006305928525e+17
19609.0	4.7359443445568845e+17
19610.0	4.735146318801577e+17
19611.0	4.734301562907306e+17
19612.0	4.733551705238187e+17
19613.0	4.7327204654885536e+17
19614.0	4.7318674796707834e+17
19615.0	4.7310823597888845e+17
19616.0	4.730012996818261e+17
19617.0	4.7293771151660365e+17
19618.0	4.727897595401555e+17
19619.0	4.726915422923433e+17
19620.0	4.7261209742103885e+17
19621.0	4.7260767270993914e+17
19622.0	4.725327838314495e+17
19623.0	4.72449779044625e+17
19624.0	4.723653056222549e+17
19625.0	4.7228483699124896e+17
19626.0	4.7220167981137914e+17
19627.0	4.7211912094897485e+17
19628.0	4.71994578571537e+17
19629.0	4.719237077663743e+17
19630.0	4.717528946660693e+17
19631.0	4.6996986730468704e+17
19632.0	4.717029352625492e+17
19633.0	4.716139455534421e+17
19634.0	4.7153892546314234e+17
19635.0	4.714504836699476e+17
19636.0	4.7136377349515936e+17
19637.0	4.7124418682770765e+17
19638.0	4.712042667005268e+17
19639.0	4.711219687937364e+17
19640.0	4.7102329562507936e+17
19641.0	4.70817580043469e+17
19642.0	4.7087231501161805e+17
19643.0	4.7078814497723725e+17
19644.0	4.706999031125332e+17
19645.0	4.70590044643874e+17
19646.0	4.705315160675668e+17
19647.0	4.704570038375764e+17
19648.0	4.703741870953813e+17
19649.0	4.702899056323242e+17
19650.0	4.702072183543124e+17
19651.0	4.7012331955159034e+17
19652.0	4.700395637746346e+17
19653.0	4.699558957984425e+17
19654.0	4.698727076506282e+17
19655.0	4.6978874523429536e+17
19656.0	4.697057767981055e+17
