# Flux units: erg / (cm m2 s)
# Wavelength units: Angstrom
wave	flux
19000.0	7.501054435743059e+17
19001.0	7.499593949730131e+17
19002.0	7.498201895185068e+17
19003.0	7.496774864338944e+17
19004.0	7.495347924369407e+17
19005.0	7.493922691481599e+17
19006.0	7.492496590372863e+17
19007.0	7.490958337769471e+17
19008.0	7.489613888574804e+17
19009.0	7.488184110459561e+17
19010.0	7.486655314613587e+17
19011.0	7.485351674598739e+17
19012.0	7.483835907659092e+17
19013.0	7.482513292612948e+17
19014.0	7.481065852283561e+17
19015.0	7.479651660201983e+17
19016.0	7.478224278432425e+17
19017.0	7.476578353851049e+17
19018.0	7.475382121573033e+17
19019.0	7.473963823267837e+17
19020.0	7.472509613331796e+17
19021.0	7.471103063272106e+17
19022.0	7.469701041662633e+17
19023.0	7.468260485584211e+17
19024.0	7.466844801728511e+17
19025.0	7.465413945677139e+17
19026.0	7.463989862028628e+17
19027.0	7.462531448001876e+17
19028.0	7.461159730238804e+17
19029.0	7.459736156897279e+17
19030.0	7.458320246549161e+17
19031.0	7.456898680881151e+17
19032.0	7.455477164146687e+17
19033.0	7.454024668282879e+17
19034.0	7.452626922067283e+17
19035.0	7.451196010091862e+17
19036.0	7.443758515049812e+17
19037.0	7.448371606323197e+17
19038.0	7.44694342483968e+17
19039.0	7.445532607774717e+17
19040.0	7.444112823287807e+17
19041.0	7.442692602593279e+17
19042.0	7.441246347853824e+17
19043.0	7.43985518949171e+17
19044.0	7.438434162092713e+17
19045.0	7.4370139567773e+17
19046.0	7.435575166500863e+17
19047.0	7.434173860719274e+17
19048.0	7.432699326584148e+17
19049.0	7.431320488290986e+17
19050.0	7.429913250365437e+17
19051.0	7.427957661717844e+17
19052.0	7.426971677316436e+17
19053.0	7.425645811684692e+17
19054.0	7.424258637911378e+17
19055.0	7.422754764619775e+17
19056.0	7.421419689694547e+17
19057.0	7.420004457425576e+17
19058.0	7.418564235493375e+17
19059.0	7.417179074985983e+17
19060.0	7.415756694224893e+17
19061.0	7.414349192058194e+17
19062.0	7.412933515193e+17
19063.0	7.411519616712701e+17
19064.0	7.410065577345024e+17
19065.0	7.408627662280019e+17
19066.0	7.407255752977064e+17
19067.0	7.405863532057939e+17
19068.0	7.404451371417599e+17
19069.0	7.403038317390505e+17
19070.0	7.401615670990163e+17
19071.0	7.400210629481812e+17
19072.0	7.398800059880786e+17
19073.0	7.397387275687254e+17
19074.0	7.395977405136893e+17
19075.0	7.394565873642152e+17
19076.0	7.393147627066708e+17
19077.0	7.391739251086676e+17
19078.0	7.390287497614676e+17
19079.0	7.388921212873386e+17
19080.0	7.387504866317651e+17
19081.0	7.386083809558527e+17
19082.0	7.38466184962594e+17
19083.0	7.383235910696957e+17
19084.0	7.381782478105258e+17
19085.0	7.38046409511185e+17
19086.0	7.378912149504e+17
19087.0	7.377515527361876e+17
19088.0	7.376207079276543e+17
19089.0	7.374698726468266e+17
19090.0	7.373411145045331e+17
19091.0	7.371998760708777e+17
19092.0	7.370561179789994e+17
19093.0	7.369200975391404e+17
19094.0	7.367757767114751e+17
19095.0	7.366341354848255e+17
19096.0	7.364949743501311e+17
19097.0	7.363569042937172e+17
19098.0	7.362169561677824e+17
19099.0	7.360758680300202e+17
19100.0	7.359348590247935e+17
19101.0	7.357950233062057e+17
19102.0	7.356523581101395e+17
19103.0	7.355145815151956e+17
19104.0	7.353741632077823e+17
19105.0	7.352337637747369e+17
19106.0	7.350910591522132e+17
19107.0	7.349525375090684e+17
19108.0	7.348126959184553e+17
19109.0	7.346046411035987e+17
19110.0	7.345297743151101e+17
19111.0	7.343919602510505e+17
19112.0	7.342517713720659e+17
19113.0	7.341115908816896e+17
19114.0	7.339714330405545e+17
19115.0	7.338292817865385e+17
19116.0	7.336903348409684e+17
19117.0	7.335500738199552e+17
19118.0	7.334053149671423e+17
19119.0	7.332040031950164e+17
19120.0	7.331274996492969e+17
19121.0	7.329886651110739e+17
19122.0	7.32851067892531e+17
19123.0	7.327093183130281e+17
19124.0	7.325686582738943e+17
19125.0	7.324292605804543e+17
19126.0	7.322866592776191e+17
19127.0	7.320959384027135e+17
19128.0	7.319443555571027e+17
19129.0	7.318690939447977e+17
19130.0	7.317314441576447e+17
19131.0	7.315903273588054e+17
19132.0	7.314524967971497e+17
19133.0	7.312738290936489e+17
19134.0	7.311441412139689e+17
19135.0	7.310336213035689e+17
19136.0	7.308943797780479e+17
19137.0	7.307493471769939e+17
19138.0	7.305982076693161e+17
19139.0	7.304754347988308e+17
19140.0	7.303362244509693e+17
19141.0	7.301967762860713e+17
19142.0	7.300565202982227e+17
19143.0	7.299159781190313e+17
19144.0	7.297764719329279e+17
19145.0	7.296383884547412e+17
19146.0	7.294787279388671e+17
19147.0	7.293570325850794e+17
19148.0	7.292207302879913e+17
19149.0	7.290815272102569e+17
19150.0	7.289408347351722e+17
19151.0	7.28803313713152e+17
19152.0	7.286610483740671e+17
19153.0	7.285243610398719e+17
19154.0	7.283815175858858e+17
19155.0	7.282466975558313e+17
19156.0	7.281074600848042e+17
19157.0	7.279674820395007e+17
19158.0	7.277803187732479e+17
19159.0	7.276896211435519e+17
19160.0	7.275477535642963e+17
19161.0	7.274057152768681e+17
19162.0	7.271680183369728e+17
19163.0	7.271309057370793e+17
19164.0	7.269955110873769e+17
19165.0	7.268554460801705e+17
19166.0	7.267131685776041e+17
19167.0	7.2656894310045e+17
19168.0	7.264322317189117e+17
19169.0	7.262958486115667e+17
19170.0	7.261623191688531e+17
19171.0	7.260197157688659e+17
19172.0	7.258836251443199e+17
19173.0	7.257450723235155e+17
19174.0	7.256047851580072e+17
19175.0	7.254679433336147e+17
19176.0	7.25329261887488e+17
19177.0	7.251854944283305e+17
19178.0	7.250504104367444e+17
19179.0	7.24908232478993e+17
19180.0	7.24745313268531e+17
19181.0	7.246329018668372e+17
19182.0	7.244868696233302e+17
19183.0	7.243550103524691e+17
19184.0	7.242125330612223e+17
19185.0	7.240814473598292e+17
19186.0	7.239436847458985e+17
19187.0	7.238022660969812e+17
19188.0	7.236660725721769e+17
19189.0	7.235252464386047e+17
19190.0	7.233864722983594e+17
19191.0	7.23249425092881e+17
19192.0	7.231071161330345e+17
19193.0	7.229351418396671e+17
19194.0	7.228172922432169e+17
19195.0	7.226954567996756e+17
19196.0	7.225596743166633e+17
19197.0	7.224212480240297e+17
19198.0	7.222825075780266e+17
19199.0	7.215226435578536e+17
19200.0	7.215687165891927e+17
19201.0	7.218680718950399e+17
19202.0	7.217306743253674e+17
19203.0	7.215914684514304e+17
19204.0	7.214538442495316e+17
19205.0	7.213160202589523e+17
19206.0	7.211778857500671e+17
19207.0	7.210369452518058e+17
19208.0	7.208955773539668e+17
19209.0	7.207637422702591e+17
19210.0	7.206258938129066e+17
19211.0	7.204870854191785e+17
19212.0	7.203501300689577e+17
19213.0	7.202047898856105e+17
19214.0	7.200624821840553e+17
19215.0	7.199335354378921e+17
19216.0	7.197935677385385e+17
19217.0	7.196601033075369e+17
19218.0	7.194949258838015e+17
19219.0	7.193785852581203e+17
19220.0	7.192452368695296e+17
19221.0	7.190973914284032e+17
19222.0	7.189702864011263e+17
19223.0	7.188323213421225e+17
19224.0	7.186856493274451e+17
19225.0	7.185500171403263e+17
19226.0	7.184182000921257e+17
19227.0	7.182801020736854e+17
19228.0	7.181433550405632e+17
19229.0	7.180054878486525e+17
19230.0	7.178644266942463e+17
19231.0	7.177262508015615e+17
19232.0	7.175850815739219e+17
19233.0	7.174515082308266e+17
19234.0	7.173154552152063e+17
19235.0	7.171776061986131e+17
19236.0	7.17040567661363e+17
19237.0	7.169021814942377e+17
19238.0	7.167609420819113e+17
19239.0	7.166270808697514e+17
19240.0	7.164746514737833e+17
19241.0	7.163453157758292e+17
19242.0	7.162111581661866e+17
19243.0	7.160690888409087e+17
19244.0	7.159375645551272e+17
19245.0	7.157999730687999e+17
19246.0	7.156616215745876e+17
19247.0	7.155233852839251e+17
19248.0	7.153865838646611e+17
19249.0	7.152485916824916e+17
19250.0	7.151101416221352e+17
19251.0	7.149679319274836e+17
19252.0	7.148226704572416e+17
19253.0	7.146963617884841e+17
19254.0	7.145568888771923e+17
19255.0	7.14414973203251e+17
19256.0	7.142797768043178e+17
19257.0	7.141450779896489e+17
19258.0	7.14007041347857e+17
19259.0	7.138669041986217e+17
19260.0	7.137255136515412e+17
19261.0	7.135925507194879e+17
19262.0	7.134529719719251e+17
19263.0	7.133144289378304e+17
19264.0	7.131608153500329e+17
19265.0	7.130345370200745e+17
19266.0	7.128984760352765e+17
19267.0	7.127641552672084e+17
19268.0	7.126259627371177e+17
19269.0	7.124877444819625e+17
19270.0	7.123488459106985e+17
19271.0	7.12200149864721e+17
19272.0	7.120716663095296e+17
19273.0	7.115596404970833e+17
19274.0	7.115882319489702e+17
19275.0	7.116576757820074e+17
19276.0	7.115185456851625e+17
19277.0	7.113801268024659e+17
19278.0	7.112416837326164e+17
19279.0	7.110985103267155e+17
19280.0	7.109622152997545e+17
19281.0	7.108254630936573e+17
19282.0	7.1068736829085e+17
19283.0	7.105378512797696e+17
19284.0	7.103841919740585e+17
19285.0	7.102624609686867e+17
19286.0	7.101304950226943e+17
19287.0	7.099927241599658e+17
19288.0	7.096719742686546e+17
19289.0	7.093409544841892e+17
19290.0	7.095751832939177e+17
19291.0	7.094264302054058e+17
19292.0	7.09296352535074e+17
19293.0	7.09156628804403e+17
19294.0	7.090168622918314e+17
19295.0	7.088776292947284e+17
19296.0	7.087378865498793e+17
19297.0	7.085977075974143e+17
19298.0	7.084574727208959e+17
19299.0	7.083180172858708e+17
19300.0	7.081777687079594e+17
19301.0	7.080373067797844e+17
19302.0	7.078964398216531e+17
19303.0	7.07752964006434e+17
19304.0	7.076130368520191e+17
19305.0	7.074743519106387e+17
19306.0	7.073335186467497e+17
19307.0	7.071903513924947e+17
19308.0	7.070500449331881e+17
19309.0	7.068914030739455e+17
19310.0	7.067392577721683e+17
19311.0	7.066218487174483e+17
19312.0	7.064820630508883e+17
19313.0	7.063266429763583e+17
19314.0	7.060702093814442e+17
19315.0	7.05929825886754e+17
19316.0	7.059140502705492e+17
19317.0	7.057720761559722e+17
19318.0	7.056288227786752e+17
19319.0	7.054862776795135e+17
19320.0	7.053391433127252e+17
19321.0	7.051992172767914e+17
19322.0	7.050477123054249e+17
19323.0	7.049014205743101e+17
19324.0	7.047667906860372e+17
19325.0	7.046108624016723e+17
19326.0	7.044771551204691e+17
19327.0	7.043315238524244e+17
19328.0	7.04186462310673e+17
19329.0	7.040406499885055e+17
19330.0	7.038931842717011e+17
19331.0	7.037464314467668e+17
19332.0	7.036007491480234e+17
19333.0	7.034534409273343e+17
19334.0	7.033016846472532e+17
19335.0	7.031581011083261e+17
19336.0	7.03009529073937e+17
19337.0	7.028602049309353e+17
19338.0	7.027040954526378e+17
19339.0	7.025613727247017e+17
19340.0	7.024100042779306e+17
19341.0	7.022598523890345e+17
19342.0	7.0209321856314e+17
19343.0	7.019567858231978e+17
19344.0	7.018043755113129e+17
19345.0	7.015940427000489e+17
19346.0	7.014686855091539e+17
19347.0	7.013406893320874e+17
19348.0	7.011881009020927e+17
19349.0	7.010303290114047e+17
19350.0	7.00873214857489e+17
19351.0	7.007161212556627e+17
19352.0	7.005562364843348e+17
19353.0	7.003999036593492e+17
19354.0	7.00239124242978e+17
19355.0	7.000748978776746e+17
19356.0	6.999163347315368e+17
19357.0	6.997532553685673e+17
19358.0	6.995848627311958e+17
19359.0	6.994044436261546e+17
19360.0	6.992566662725631e+17
19361.0	6.9908866021021e+17
19362.0	6.989226106508627e+17
19363.0	6.98752372449826e+17
19364.0	6.985806772873898e+17
19365.0	6.984078479152467e+17
19366.0	6.982335899631615e+17
19367.0	6.980574488384852e+17
19368.0	6.978795872802131e+17
19369.0	6.976893254718804e+17
19370.0	6.974721554557609e+17
19371.0	6.973327418239657e+17
19372.0	6.971487700036265e+17
19373.0	6.969598598796628e+17
19374.0	6.967700419685034e+17
19375.0	6.965769636151295e+17
19376.0	6.963811944060244e+17
19377.0	6.961833008518484e+17
19378.0	6.959822303221075e+17
19379.0	6.957779271723689e+17
19380.0	6.955695369530026e+17
19381.0	6.953580813265577e+17
19382.0	6.951397392121855e+17
19383.0	6.949192338855254e+17
19384.0	6.946987577092778e+17
19385.0	6.944727818917204e+17
19386.0	6.942412748357631e+17
19387.0	6.940046408723113e+17
19388.0	6.937627647279104e+17
19389.0	6.935153185477972e+17
19390.0	6.932596370614953e+17
19391.0	6.924865490299555e+17
19392.0	6.927164153440936e+17
19393.0	6.924593800063657e+17
19394.0	6.921778603491327e+17
19395.0	6.918880580599807e+17
19396.0	6.915889897144319e+17
19397.0	6.912831258973523e+17
19398.0	6.909613136587433e+17
19399.0	6.906113928724479e+17
19400.0	6.902900278165504e+17
19401.0	6.899409105190911e+17
19402.0	6.895742966824959e+17
19403.0	6.891921020551167e+17
19404.0	6.88798257189137e+17
19405.0	6.883842171688275e+17
19406.0	6.879527356945748e+17
19407.0	6.875045989187583e+17
19408.0	6.870107805100714e+17
19409.0	6.865346880689494e+17
19410.0	6.860201495188819e+17
19411.0	6.854782597027155e+17
19412.0	6.849087914289834e+17
19413.0	6.843000729982291e+17
19414.0	6.836674346614783e+17
19415.0	6.829928857206783e+17
19416.0	6.822712394995028e+17
19417.0	6.81517113217297e+17
19418.0	6.807320971444223e+17
19419.0	6.798724488844628e+17
19420.0	6.789591907084969e+17
19421.0	6.779931459584e+17
19422.0	6.769454311189161e+17
19423.0	6.758361900340563e+17
19424.0	6.746272053242538e+17
19425.0	6.733640284591444e+17
19426.0	6.720062018813951e+17
19427.0	6.705366578495488e+17
19428.0	6.689566698941097e+17
19429.0	6.672294968907091e+17
19430.0	6.653252248535041e+17
19431.0	6.631822081392639e+17
19432.0	6.61023042515763e+17
19433.0	6.587199854215167e+17
19434.0	6.562510512936276e+17
19435.0	6.535210452298408e+17
19436.0	6.504940161029462e+17
19437.0	6.471932529257129e+17
19438.0	6.428633111461885e+17
19439.0	6.392333765443585e+17
19440.0	6.351156376065363e+17
19441.0	6.305272910490278e+17
19442.0	6.253037955142998e+17
19443.0	6.192442188846422e+17
19444.0	6.128010121270609e+17
19445.0	6.058298117018967e+17
19446.0	5.97655827915298e+17
19447.0	5.886011090752849e+17
19448.0	5.77986209810569e+17
19449.0	5.6329465160007686e+17
19450.0	5.2933074298251725e+17
19451.0	5.162878867516083e+17
19452.0	5.4879775369461805e+17
19453.0	5.715942605935963e+17
19454.0	5.830593533181947e+17
19455.0	5.925095511949311e+17
19456.0	6.00967848185037e+17
19457.0	6.082384102774098e+17
19458.0	6.144533268004864e+17
19459.0	6.207005549832877e+17
19460.0	6.260703156153001e+17
19461.0	6.306961147210409e+17
19462.0	6.34795292954897e+17
19463.0	6.386119878901759e+17
19464.0	6.42402609144354e+17
19465.0	6.45697129799134e+17
19466.0	6.485762293192018e+17
19467.0	6.511883994879316e+17
19468.0	6.535130421482838e+17
19469.0	6.555651434785449e+17
19470.0	6.576402810448553e+17
19471.0	6.595536310938282e+17
19472.0	6.612476271525885e+17
19473.0	6.627940421511849e+17
19474.0	6.64178747646498e+17
19475.0	6.654101423827625e+17
19476.0	6.665717919252479e+17
19477.0	6.676133595927891e+17
19478.0	6.685867019425108e+17
19479.0	6.694706801016831e+17
19480.0	6.702878952172202e+17
19481.0	6.710256772055039e+17
19482.0	6.716970944692223e+17
19483.0	6.723194648002559e+17
19484.0	6.728749003309055e+17
19485.0	6.733841839773011e+17
19486.0	6.738443353369257e+17
19487.0	6.742794030110035e+17
19488.0	6.746642663342079e+17
19489.0	6.750126109010602e+17
19490.0	6.753020181566804e+17
19491.0	6.756295662458195e+17
19492.0	6.758943264429398e+17
19493.0	6.761364718616575e+17
19494.0	6.763534094434303e+17
19495.0	6.765428923695104e+17
19496.0	6.767081464091987e+17
19497.0	6.768803228680191e+17
19498.0	6.769302041176746e+17
19499.0	6.763297091092477e+17
19500.0	6.772539340619775e+17
19501.0	6.773488501129215e+17
19502.0	6.774313301224105e+17
19503.0	6.775016343470079e+17
19504.0	6.77558643466786e+17
19505.0	6.776152331561641e+17
19506.0	6.776549352494419e+17
19507.0	6.776850172870656e+17
19508.0	6.777080212269738e+17
19509.0	6.777226016063487e+17
19510.0	6.777236748588372e+17
19511.0	6.772489241056595e+17
19512.0	6.775817585557503e+17
19513.0	6.77483335087991e+17
19514.0	6.775222744470865e+17
19515.0	6.77651748626978e+17
19516.0	6.776459189638484e+17
19517.0	6.776119143432191e+17
19518.0	6.775770183630847e+17
19519.0	6.775354786054143e+17
19520.0	6.774897758612137e+17
19521.0	6.77443342119731e+17
19522.0	6.773902891373907e+17
19523.0	6.773363236143103e+17
19524.0	6.772776400584703e+17
19525.0	6.772137767469055e+17
19526.0	6.771524610555903e+17
19527.0	6.770863428861951e+17
19528.0	6.770168380260351e+17
19529.0	6.769451868007081e+17
19530.0	6.768713146215081e+17
19531.0	6.767950942612138e+17
19532.0	6.76716784857907e+17
19533.0	6.766367148954964e+17
19534.0	6.765545840618153e+17
19535.0	6.764705942426964e+17
19536.0	6.763844625323348e+17
19537.0	6.762992181269843e+17
19538.0	6.762069017755647e+17
19539.0	6.761053095111337e+17
19540.0	6.760288394499411e+17
19541.0	6.759373422460927e+17
19542.0	6.758435811666602e+17
19543.0	6.757488541390163e+17
19544.0	6.756529731884372e+17
19545.0	6.755407799604564e+17
19546.0	6.754318352209236e+17
19547.0	6.753573224316927e+17
19548.0	6.752588078077268e+17
19549.0	6.751549248940714e+17
19550.0	6.750571130956457e+17
19551.0	6.749548064014333e+17
19552.0	6.748516157576532e+17
19553.0	6.747469215257939e+17
19554.0	6.746420906994345e+17
19555.0	6.745373848633341e+17
19556.0	6.744319815144787e+17
19557.0	6.743252931706879e+17
19558.0	6.742181952531113e+17
19559.0	6.741091198610089e+17
19560.0	6.740012600481108e+17
19561.0	6.738925580189696e+17
19562.0	6.737841600069631e+17
19563.0	6.736736835775146e+17
19564.0	6.73564114166306e+17
19565.0	6.734537126750889e+17
19566.0	6.733416357691391e+17
19567.0	6.732304056931668e+17
19568.0	6.731188088253097e+17
19569.0	6.730077723164671e+17
19570.0	6.728954076812627e+17
19571.0	6.7278221620893e+17
19572.0	6.726680966070271e+17
19573.0	6.725546445286057e+17
19574.0	6.724381262741503e+17
19575.0	6.723269679207764e+17
19576.0	6.722129050118825e+17
19577.0	6.72093540922163e+17
19578.0	6.719808553527978e+17
19579.0	6.718668861166931e+17
19580.0	6.717513640094378e+17
19581.0	6.716359780073472e+17
19582.0	6.715204617721171e+17
19583.0	6.71404222648593e+17
19584.0	6.712874077170346e+17
19585.0	6.711669743594153e+17
19586.0	6.71043119358498e+17
19587.0	6.709247976232276e+17
19588.0	6.70801805320738e+17
19589.0	6.706879572301139e+17
19590.0	6.705818097418239e+17
19591.0	6.704673468361386e+17
19592.0	6.703494515217748e+17
19593.0	6.70230377468177e+17
19594.0	6.701046405529599e+17
19595.0	6.699933029629951e+17
19596.0	6.697177204828842e+17
19597.0	6.697497767794004e+17
19598.0	6.696317091490474e+17
19599.0	6.695215780506281e+17
19600.0	6.694027607583402e+17
19601.0	6.692814756773887e+17
19602.0	6.691627612154538e+17
19603.0	6.690242523649364e+17
19604.0	6.689224649255593e+17
19605.0	6.68796934230289e+17
19606.0	6.686866475231914e+17
19607.0	6.685682857323178e+17
19608.0	6.684482336369321e+17
19609.0	6.683270432074409e+17
19610.0	6.68208975716898e+17
19611.0	6.680889146037588e+17
19612.0	6.679690600600916e+17
19613.0	6.678483793084416e+17
19614.0	6.677273799994025e+17
19615.0	6.67608460436002e+17
19616.0	6.67484162167057e+17
19617.0	6.673678488043519e+17
19618.0	6.672304942962004e+17
19619.0	6.671066184635732e+17
19620.0	6.669865179239764e+17
19621.0	6.66886306144802e+17
19622.0	6.667657266855936e+17
19623.0	6.666451080096426e+17
19624.0	6.665244419380564e+17
19625.0	6.664035555257001e+17
19626.0	6.662829214007295e+17
19627.0	6.661620406506835e+17
19628.0	6.660271183495165e+17
19629.0	6.659174021376682e+17
19630.0	6.657503686645075e+17
19631.0	6.650474236564822e+17
19632.0	6.655571811893247e+17
19633.0	6.654350494182057e+17
19634.0	6.653154781298687e+17
19635.0	6.651930272421204e+17
19636.0	6.650735020911274e+17
19637.0	6.649377033202346e+17
19638.0	6.648309487763455e+17
19639.0	6.647091532485972e+17
19640.0	6.645854256846166e+17
19641.0	6.64452685959441e+17
19642.0	6.643465337176063e+17
19643.0	6.642241554612223e+17
19644.0	6.641018409582591e+17
19645.0	6.639744681246719e+17
19646.0	6.638616093305514e+17
19647.0	6.637403298420052e+17
19648.0	6.636190379802623e+17
19649.0	6.634976290974377e+17
19650.0	6.633764179760468e+17
19651.0	6.632550913015807e+17
19652.0	6.631337593143295e+17
19653.0	6.630123543461888e+17
19654.0	6.628910726905855e+17
19655.0	6.627695572025343e+17
19656.0	6.626481264394237e+17
19657.0	6.625269253144575e+17
19658.0	6.624053395718143e+17
19659.0	6.622842063945727e+17
19660.0	6.621628844736511e+17
19661.0	6.620415099142143e+17
19662.0	6.619201317896191e+17
19663.0	6.617970247729151e+17
19664.0	6.616749671710719e+17
19665.0	6.615559999324159e+17
