# Flux units: erg / (cm m2 s)
# Wavelength units: Angstrom
wave	flux
19000.0	5.972253201487188e+17
19001.0	5.971114268994218e+17
19002.0	5.970014469357567e+17
19003.0	5.968894851634516e+17
19004.0	5.967775233911466e+17
19005.0	5.966655467290623e+17
19006.0	5.965537971885398e+17
19007.0	5.96439110586641e+17
19008.0	5.963287666971988e+17
19009.0	5.962177970175999e+17
19010.0	5.960962732807508e+17
19011.0	5.9599392618141e+17
19012.0	5.958775160001876e+17
19013.0	5.957706687621802e+17
19014.0	5.956577597063167e+17
19015.0	5.955464524551508e+17
19016.0	5.954344676141737e+17
19017.0	5.953222170640383e+17
19018.0	5.952115683186004e+17
19019.0	5.951001880166399e+17
19020.0	5.949875076202495e+17
19021.0	5.948763692597247e+17
19022.0	5.947653343586986e+17
19023.0	5.946528021610495e+17
19024.0	5.945415943148884e+17
19025.0	5.944302482664105e+17
19026.0	5.943179673075712e+17
19027.0	5.94204182061602e+17
19028.0	5.9409566807709e+17
19029.0	5.939840461133139e+17
19030.0	5.93872860357154e+17
19031.0	5.937613587699028e+17
19032.0	5.936498169173334e+17
19033.0	5.935365583361364e+17
19034.0	5.934264787577513e+17
19035.0	5.933146134544383e+17
19036.0	5.929577802454354e+17
19037.0	5.930922907358548e+17
19038.0	5.929806557697366e+17
19039.0	5.928697866835283e+17
19040.0	5.927584456682154e+17
19041.0	5.926469538676736e+17
19042.0	5.925339917538644e+17
19043.0	5.924245375462058e+17
19044.0	5.923130107232255e+17
19045.0	5.922018689373524e+17
19046.0	5.920897858098516e+17
19047.0	5.919795424438953e+17
19048.0	5.918639674884095e+17
19049.0	5.917558351855615e+17
19050.0	5.916451981142697e+17
19051.0	5.914971304449363e+17
19052.0	5.914219668395348e+17
19053.0	5.913119773687807e+17
19054.0	5.912016173312682e+17
19055.0	5.910855401777834e+17
19056.0	5.909789140495017e+17
19057.0	5.908682813123241e+17
19058.0	5.907565456829098e+17
19059.0	5.906465155973119e+17
19060.0	5.905350567220563e+17
19061.0	5.904246048991914e+17
19062.0	5.903135906201599e+17
19063.0	5.9018057889437e+17
19064.0	5.900659587721897e+17
19065.0	5.899540648077994e+17
19066.0	5.898455290129065e+17
19067.0	5.897359593919828e+17
19068.0	5.896251545485311e+17
19069.0	5.895144138779305e+17
19070.0	5.894031650674004e+17
19071.0	5.892928023035903e+17
19072.0	5.891822061267626e+17
19073.0	5.890714319017299e+17
19074.0	5.889608757805055e+17
19075.0	5.888502296914601e+17
19076.0	5.887391446685012e+17
19077.0	5.88628814340642e+17
19078.0	5.885175065302356e+17
19079.0	5.884078358265855e+17
19080.0	5.882970360862036e+17
19081.0	5.881858357897898e+17
19082.0	5.880750568112127e+17
19083.0	5.879636946146644e+17
19084.0	5.87850637709585e+17
19085.0	5.877448974882131e+17
19086.0	5.876267744930473e+17
19087.0	5.875171057467391e+17
19088.0	5.874123740457641e+17
19089.0	5.872960367056212e+17
19090.0	5.871923441434623e+17
19091.0	5.870822305213098e+17
19092.0	5.869696983935657e+17
19093.0	5.868620972993193e+17
19094.0	5.867513878762835e+17
19095.0	5.866410305650687e+17
19096.0	5.865307418307242e+17
19097.0	5.864211636114772e+17
19098.0	5.863110365675519e+17
19099.0	5.862008478673578e+17
19100.0	5.860902865731584e+17
19101.0	5.859805098934271e+17
19102.0	5.858686853447679e+17
19103.0	5.857605024306516e+17
19104.0	5.856504565465087e+17
19105.0	5.85540427649297e+17
19106.0	5.854291626207914e+17
19107.0	5.853201483257172e+17
19108.0	5.85210472379187e+17
19109.0	5.850778132545535e+17
19110.0	5.849905438392319e+17
19111.0	5.848807208124415e+17
19112.0	5.847708465452371e+17
19113.0	5.846609886358186e+17
19114.0	5.845511380664319e+17
19115.0	5.844400177414144e+17
19116.0	5.843310931345408e+17
19117.0	5.842214884212736e+17
19118.0	5.841092900203178e+17
19119.0	5.839357183961769e+17
19120.0	5.838903469320874e+17
19121.0	5.837816586043391e+17
19122.0	5.836732159229951e+17
19123.0	5.835634325323775e+17
19124.0	5.834526808866815e+17
19125.0	5.833441808132778e+17
19126.0	5.832341315736916e+17
19127.0	5.830916667954516e+17
19128.0	5.829985271720618e+17
19129.0	5.829043089833983e+17
19130.0	5.827963361340074e+17
19131.0	5.826865217754452e+17
19132.0	5.825775821389823e+17
19133.0	5.824578769125376e+17
19134.0	5.82350319788578e+17
19135.0	5.822492279745193e+17
19136.0	5.821400283611135e+17
19137.0	5.820274728850772e+17
19138.0	5.819193763736234e+17
19139.0	5.818119954104319e+17
19140.0	5.817027191111679e+17
19141.0	5.815934541365247e+17
19142.0	5.814837173026815e+17
19143.0	5.813738074537983e+17
19144.0	5.812651256971264e+17
19145.0	5.811564884699817e+17
19146.0	5.810354416254975e+17
19147.0	5.809364148770134e+17
19148.0	5.808289447149568e+17
19149.0	5.807198795988991e+17
19150.0	5.806106502758399e+17
19151.0	5.80501822767104e+17
19152.0	5.803922495111167e+17
19153.0	5.802832657645567e+17
19154.0	5.801722064666623e+17
19155.0	5.800657166532607e+17
19156.0	5.7995667439616e+17
19157.0	5.798475709721257e+17
19158.0	5.797232064331776e+17
19159.0	5.796294856889684e+17
19160.0	5.795202688789161e+17
19161.0	5.794104477395626e+17
19162.0	5.79268154298641e+17
19163.0	5.791943390920701e+17
19164.0	5.790856386707455e+17
19165.0	5.789762015199231e+17
19166.0	5.788652040880127e+17
19167.0	5.787559830836564e+17
19168.0	5.786482697218729e+17
19169.0	5.785401242069674e+17
19170.0	5.784331011577171e+17
19171.0	5.783224324194304e+17
19172.0	5.782156238389248e+17
19173.0	5.781070381318144e+17
19174.0	5.779973954600959e+17
19175.0	5.778899020196522e+17
19176.0	5.777813115589971e+17
19177.0	5.776697932644351e+17
19178.0	5.775638164843178e+17
19179.0	5.774525778799274e+17
19180.0	5.773438015417001e+17
19181.0	5.772363383701504e+17
19182.0	5.771289139959124e+17
19183.0	5.770212897630889e+17
19184.0	5.769109290265258e+17
19185.0	5.768046033502207e+17
19186.0	5.766963147396438e+17
19187.0	5.765864485814271e+17
19188.0	5.764793200454314e+17
19189.0	5.763704686990677e+17
19190.0	5.762619561825622e+17
19191.0	5.7615350895738874e+17
19192.0	5.760461086304939e+17
19193.0	5.759362152792063e+17
19194.0	5.758285992252756e+17
19195.0	5.757210966272681e+17
19196.0	5.7561275775494816e+17
19197.0	5.75504679838242e+17
19198.0	5.753965241171967e+17
19199.0	5.750769660373673e+17
19200.0	5.7504925483008006e+17
19201.0	5.750720199742805e+17
19202.0	5.749640006380202e+17
19203.0	5.748554184261631e+17
19204.0	5.747472747287892e+17
19205.0	5.746394592357034e+17
19206.0	5.7453137516735136e+17
19207.0	5.744218363046569e+17
19208.0	5.743109674281642e+17
19209.0	5.742071702880255e+17
19210.0	5.740992025417043e+17
19211.0	5.739913071471273e+17
19212.0	5.7388338490900474e+17
19213.0	5.7377199482033485e+17
19214.0	5.736631408874836e+17
19215.0	5.7355873305668256e+17
19216.0	5.7345103332638714e+17
19217.0	5.7334354701626016e+17
19218.0	5.732196113448958e+17
19219.0	5.731246201460052e+17
19220.0	5.730191893943636e+17
19221.0	5.729053463369045e+17
19222.0	5.728040549438804e+17
19223.0	5.726956943310847e+17
19224.0	5.7258670729898656e+17
19225.0	5.72477325582882e+17
19226.0	5.723721281044479e+17
19227.0	5.722642438247764e+17
19228.0	5.7215702161599136e+17
19229.0	5.7204920521413965e+17
19230.0	5.719406740329813e+17
19231.0	5.7183286720812365e+17
19232.0	5.7172509680380576e+17
19233.0	5.7161663273151136e+17
19234.0	5.7150977402907296e+17
19235.0	5.7140208813998074e+17
19236.0	5.7129478029748896e+17
19237.0	5.7118672859518285e+17
19238.0	5.710772586588842e+17
19239.0	5.70971629237043e+17
19240.0	5.7085941454820685e+17
19241.0	5.707545988213418e+17
19242.0	5.70647949554483e+17
19243.0	5.705373284914516e+17
19244.0	5.7043300286900896e+17
19245.0	5.703252367289002e+17
19246.0	5.702173275630249e+17
19247.0	5.7010992360106656e+17
19248.0	5.700023155163135e+17
19249.0	5.698945998476628e+17
19250.0	5.697865272437418e+17
19251.0	5.69677692604689e+17
19252.0	5.6955725253618336e+17
19253.0	5.694410229197481e+17
19254.0	5.6933315269099514e+17
19255.0	5.692220260046164e+17
19256.0	5.691177226119849e+17
19257.0	5.6901078519644154e+17
19258.0	5.68903070786082e+17
19259.0	5.6879386509093536e+17
19260.0	5.686790234395988e+17
19261.0	5.685673944154111e+17
19262.0	5.6845876417877325e+17
19263.0	5.6835126060209485e+17
19264.0	5.682344823706964e+17
19265.0	5.6813296777079456e+17
19266.0	5.6802578855362554e+17
19267.0	5.679214058886485e+17
19268.0	5.6781366610274963e+17
19269.0	5.6770591876710394e+17
19270.0	5.675981393450323e+17
19271.0	5.674839927597737e+17
19272.0	5.673819016527871e+17
19273.0	5.671535668188498e+17
19274.0	5.671084432381267e+17
19275.0	5.670591375168852e+17
19276.0	5.6695089742042445e+17
19277.0	5.6684310478629536e+17
19278.0	5.6673530131688083e+17
19279.0	5.6662653189925536e+17
19280.0	5.6651792515072e+17
19281.0	5.664113883611135e+17
19282.0	5.663037493084158e+17
19283.0	5.661924649162068e+17
19284.0	5.660814658764799e+17
19285.0	5.6597544274930336e+17
19286.0	5.658709013299199e+17
19287.0	5.6576344270219936e+17
19288.0	5.6560270718621005e+17
19289.0	5.653721285394428e+17
19290.0	5.6543889752500896e+17
19291.0	5.653254884382036e+17
19292.0	5.652223407860394e+17
19293.0	5.651138340017492e+17
19294.0	5.650053890834431e+17
19295.0	5.648971953340415e+17
19296.0	5.6478872154494285e+17
19297.0	5.64679836504337e+17
19298.0	5.64571062612787e+17
19299.0	5.6446300098396154e+17
19300.0	5.6435426554019834e+17
19301.0	5.6424540804218874e+17
19302.0	5.641366213580117e+17
19303.0	5.640259587713706e+17
19304.0	5.6391779578019834e+17
19305.0	5.6380954883304096e+17
19306.0	5.637011399857491e+17
19307.0	5.6359128815807136e+17
19308.0	5.634826849047892e+17
19309.0	5.6336703543050234e+17
19310.0	5.6325425863502496e+17
19311.0	5.6315410187113805e+17
19312.0	5.630452549287934e+17
19313.0	5.6293454788253e+17
19314.0	5.626764766915239e+17
19315.0	5.6258126843740186e+17
19316.0	5.6260609899670176e+17
19317.0	5.624962432543402e+17
19318.0	5.6238599094053536e+17
19319.0	5.6225972232738125e+17
19320.0	5.6212585468395514e+17
19321.0	5.6201569576331936e+17
19322.0	5.6190246926854816e+17
19323.0	5.617907059567274e+17
19324.0	5.6168317343935136e+17
19325.0	5.6156606259964576e+17
19326.0	5.6146091615191034e+17
19327.0	5.613492102321492e+17
19328.0	5.6123797092870816e+17
19329.0	5.6112622726021114e+17
19330.0	5.6101345179293e+17
19331.0	5.6090128813479245e+17
19332.0	5.607898263235241e+17
19333.0	5.606771431309311e+17
19334.0	5.605641083857577e+17
19335.0	5.604516178515284e+17
19336.0	5.6033837192314874e+17
19337.0	5.6022482938757114e+17
19338.0	5.601071449767935e+17
19339.0	5.5999723051417594e+17
19340.0	5.598814598944083e+17
19341.0	5.597684299726847e+17
19342.0	5.5964573826198176e+17
19343.0	5.595385914108585e+17
19344.0	5.594231179575294e+17
19345.0	5.592642164708692e+17
19346.0	5.591811594649599e+17
19347.0	5.590734795177983e+17
19348.0	5.589580208144383e+17
19349.0	5.588400938330794e+17
19350.0	5.58722452623633e+17
19351.0	5.58604154376465e+17
19352.0	5.584848897616554e+17
19353.0	5.5836729210306554e+17
19354.0	5.5824772521874765e+17
19355.0	5.581257642257066e+17
19356.0	5.5800699020465485e+17
19357.0	5.578857469968383e+17
19358.0	5.577631458131967e+17
19359.0	5.5763521101277856e+17
19360.0	5.575178123040085e+17
19361.0	5.5736596437838496e+17
19362.0	5.572210195780947e+17
19363.0	5.5709571502571514e+17
19364.0	5.569695080688298e+17
19365.0	5.568427891272362e+17
19366.0	5.567150463560362e+17
19367.0	5.5658639125381114e+17
19368.0	5.564567792910335e+17
19369.0	5.5632375421337594e+17
19370.0	5.5618015389723296e+17
19371.0	5.5606047208898554e+17
19372.0	5.5592756312364365e+17
19373.0	5.5579178651265696e+17
19374.0	5.556557446119423e+17
19375.0	5.555177498432852e+17
19376.0	5.553784051378858e+17
19377.0	5.5518604442992614e+17
19378.0	5.550340748694867e+17
19379.0	5.5488972649922554e+17
19380.0	5.5474351606770323e+17
19381.0	5.545951298409811e+17
19382.0	5.5444342221482643e+17
19383.0	5.5429079785362765e+17
19384.0	5.541384303935487e+17
19385.0	5.539813440618496e+17
19386.0	5.537491696921258e+17
19387.0	5.5358635967337805e+17
19388.0	5.5342116197717325e+17
19389.0	5.532529213134164e+17
19390.0	5.530812752942421e+17
19391.0	5.5267418334822355e+17
19392.0	5.52640382570769e+17
19393.0	5.5245798179689805e+17
19394.0	5.5227087040020474e+17
19395.0	5.5207916267547296e+17
19396.0	5.5179589518185805e+17
19397.0	5.5158015409520634e+17
19398.0	5.513726481050283e+17
19399.0	5.510810194761044e+17
19400.0	5.5078468316037114e+17
19401.0	5.505498876302676e+17
19402.0	5.501915211934376e+17
19403.0	5.49937986212113e+17
19404.0	5.4957808018609485e+17
19405.0	5.4927637914583014e+17
19406.0	5.4893112151681696e+17
19407.0	5.486427231311189e+17
19408.0	5.483379017383935e+17
19409.0	5.480488019951616e+17
19410.0	5.4773567804757325e+17
19411.0	5.4738539948714643e+17
19412.0	5.470002367605418e+17
19413.0	5.466415071668906e+17
19414.0	5.4626749164202643e+17
19415.0	5.4587478720730445e+17
19416.0	5.4544666068691616e+17
19417.0	5.449351967014911e+17
19418.0	5.4447982041716045e+17
19419.0	5.439945314052777e+17
19420.0	5.4337767336837114e+17
19421.0	5.4282758928029005e+17
19422.0	5.421464265512276e+17
19423.0	5.414858968618323e+17
19424.0	5.406778751713279e+17
19425.0	5.398187815381672e+17
19426.0	5.3885987122926944e+17
19427.0	5.3777276810035226e+17
19428.0	5.364586037379072e+17
19429.0	5.3499091274956794e+17
19430.0	5.331976844214273e+17
19431.0	5.316176050301611e+17
19432.0	5.303821537727828e+17
19433.0	5.290027372948139e+17
19434.0	5.2745438459767456e+17
19435.0	5.2584452264209056e+17
19436.0	5.239761447594666e+17
19437.0	5.219812133306367e+17
19438.0	5.193113747674449e+17
19439.0	5.169054915144365e+17
19440.0	5.133845203866966e+17
19441.0	5.085660492857343e+17
19442.0	5.0387646432324275e+17
19443.0	4.9971249262100474e+17
19444.0	4.949017277846865e+17
19445.0	4.889234357179734e+17
19446.0	4.803742541720235e+17
19447.0	4.707804919103483e+17
19448.0	4.592896653830831e+17
19449.0	4.4162441826795526e+17
19450.0	4.071574031652169e+17
19451.0	3.971930837221368e+17
19452.0	4.257430850502661e+17
19453.0	4.51580309956199e+17
19454.0	4.653070227778212e+17
19455.0	4.7493383881140845e+17
19456.0	4.843835224664748e+17
19457.0	4.911559304981161e+17
19458.0	4.9598990759144154e+17
19459.0	5.005090694539947e+17
19460.0	5.044468166863533e+17
19461.0	5.0945600383877094e+17
19462.0	5.1331574827144544e+17
19463.0	5.161646719412904e+17
19464.0	5.18472882716672e+17
19465.0	5.204447805658454e+17
19466.0	5.221464763880789e+17
19467.0	5.23678249980177e+17
19468.0	5.250491942436864e+17
19469.0	5.262933284093949e+17
19470.0	5.2743099918581754e+17
19471.0	5.285487971401729e+17
19472.0	5.301319795474436e+17
19473.0	5.315154378664616e+17
19474.0	5.3269787640681786e+17
19475.0	5.3364442211723936e+17
19476.0	5.344873206338901e+17
19477.0	5.352014911373313e+17
19478.0	5.357913563813204e+17
19479.0	5.363188605736277e+17
19480.0	5.3680285263680845e+17
19481.0	5.3719686960906234e+17
19482.0	5.3757153797734394e+17
19483.0	5.379199867027455e+17
19484.0	5.381853013169492e+17
19485.0	5.3844617038834323e+17
19486.0	5.387284736114687e+17
19487.0	5.389261562620585e+17
19488.0	5.3910293799676576e+17
19489.0	5.392630213683881e+17
19490.0	5.393805217191252e+17
19491.0	5.3958939833794554e+17
19492.0	5.397151107164841e+17
19493.0	5.398174355860138e+17
19494.0	5.3990776432667296e+17
19495.0	5.399861214751402e+17
19496.0	5.4008202891973965e+17
19497.0	5.401956570191188e+17
19498.0	5.4031482684265805e+17
19499.0	5.400595844300794e+17
19500.0	5.404995730014207e+17
19501.0	5.4061718736732154e+17
19502.0	5.4063438932650656e+17
19503.0	5.407273307690324e+17
19504.0	5.408087238246399e+17
19505.0	5.4080815381872634e+17
19506.0	5.408052810001066e+17
19507.0	5.40886860702242e+17
19508.0	5.408712557243049e+17
19509.0	5.4085096969338874e+17
19510.0	5.4082285268718925e+17
19511.0	5.404984881446908e+17
19512.0	5.4080830285632826e+17
19513.0	5.4070881829956243e+17
19514.0	5.407095634875732e+17
19515.0	5.4072216135925766e+17
19516.0	5.4069072029723296e+17
19517.0	5.4064893496306336e+17
19518.0	5.4066432596159136e+17
19519.0	5.406128033409706e+17
19520.0	5.405588346721621e+17
19521.0	5.4050387258245114e+17
19522.0	5.404456622140075e+17
19523.0	5.4038711686048403e+17
19524.0	5.403260916946262e+17
19525.0	5.402625577058303e+17
19526.0	5.401990843247273e+17
19527.0	5.401333978191189e+17
19528.0	5.401195625578494e+17
19529.0	5.4005436343036576e+17
19530.0	5.399847367955796e+17
19531.0	5.399138552250367e+17
19532.0	5.398418391651668e+17
19533.0	5.397687710340436e+17
19534.0	5.396946650223957e+17
19535.0	5.396193645428734e+17
19536.0	5.395428828075347e+17
19537.0	5.394668618164905e+17
19538.0	5.3938865412505594e+17
19539.0	5.3929905085917856e+17
19540.0	5.3923098240832845e+17
19541.0	5.391515968165204e+17
19542.0	5.390708772962304e+17
19543.0	5.389896915790505e+17
19544.0	5.389078494532949e+17
19545.0	5.388190580648617e+17
19546.0	5.387230942068735e+17
19547.0	5.3865874750177274e+17
19548.0	5.3859522455797754e+17
19549.0	5.3853307378073594e+17
19550.0	5.384500044715349e+17
19551.0	5.383645172858879e+17
19552.0	5.3827852804205216e+17
19553.0	5.381918038862505e+17
19554.0	5.381045840336213e+17
19555.0	5.380179589332992e+17
19556.0	5.3793074495269536e+17
19557.0	5.378427996252842e+17
19558.0	5.3775465905302176e+17
19559.0	5.3766580516945914e+17
19560.0	5.375768298607955e+17
19561.0	5.3748772452870816e+17
19562.0	5.373989269886292e+17
19563.0	5.373092244575572e+17
19564.0	5.372193975653717e+17
19565.0	5.3712926190250656e+17
19566.0	5.3703826458978976e+17
19567.0	5.369482026068649e+17
19568.0	5.368569164464128e+17
19569.0	5.367661057802239e+17
19570.0	5.366751950798847e+17
19571.0	5.3658375386999456e+17
19572.0	5.36491517350161e+17
19573.0	5.3640009599330976e+17
19574.0	5.363064088035326e+17
19575.0	5.362162887294975e+17
19576.0	5.361240402558975e+17
19577.0	5.3602996670081696e+17
19578.0	5.3593822748562765e+17
19579.0	5.358457102270462e+17
19580.0	5.357529880068094e+17
19581.0	5.356601510024532e+17
19582.0	5.3556741487110816e+17
19583.0	5.354742005192021e+17
19584.0	5.353808622955178e+17
19585.0	5.3528519350681594e+17
19586.0	5.3519082516206925e+17
19587.0	5.3509847986995194e+17
19588.0	5.3499699812543136e+17
19589.0	5.3491160524171936e+17
19590.0	5.3481690540714656e+17
19591.0	5.3472454641363616e+17
19592.0	5.34630567649826e+17
19593.0	5.3453600433984845e+17
19594.0	5.3443692837819725e+17
19595.0	5.343474168976725e+17
19596.0	5.3421388277131936e+17
19597.0	5.3415856004136954e+17
19598.0	5.3405835476336634e+17
19599.0	5.3396970570164896e+17
19600.0	5.338752299128149e+17
19601.0	5.3377918950877856e+17
19602.0	5.3368494175027194e+17
19603.0	5.335798311638356e+17
19604.0	5.334951007005354e+17
19605.0	5.3339512715782816e+17
19606.0	5.333058677549738e+17
19607.0	5.3321115617634976e+17
19608.0	5.3311575330652154e+17
19609.0	5.3301990751819085e+17
19610.0	5.329258711526057e+17
19611.0	5.328305756569599e+17
19612.0	5.3273548652107085e+17
19613.0	5.32639952998673e+17
19614.0	5.325441449590783e+17
19615.0	5.324496493172052e+17
19616.0	5.323524244417193e+17
19617.0	5.322588686734677e+17
19618.0	5.3215379912130554e+17
19619.0	5.3205423683010554e+17
19620.0	5.3196006638660256e+17
19621.0	5.3187722287076685e+17
19622.0	5.3178173331865594e+17
19623.0	5.3168622489217696e+17
19624.0	5.315904966841685e+17
19625.0	5.31495087313169e+17
19626.0	5.313995667931134e+17
19627.0	5.313039833584981e+17
19628.0	5.3120355732029434e+17
19629.0	5.311110540427262e+17
19630.0	5.310149596020736e+17
19631.0	5.3069297441832934e+17
19632.0	5.308257281944234e+17
19633.0	5.30729293455906e+17
19634.0	5.30634479046929e+17
19635.0	5.305380138997076e+17
19636.0	5.304431117598719e+17
19637.0	5.303399185296042e+17
19638.0	5.3025153168179194e+17
19639.0	5.3015577313498445e+17
19640.0	5.300590287170219e+17
19641.0	5.2995039239864314e+17
19642.0	5.298685746697556e+17
19643.0	5.2977254614958074e+17
19644.0	5.296760891113471e+17
19645.0	5.2957631270092794e+17
19646.0	5.294858044440575e+17
19647.0	5.2939005309747194e+17
19648.0	5.292942992343039e+17
19649.0	5.291984950394879e+17
19650.0	5.291027952828415e+17
19651.0	5.2900689671618554e+17
19652.0	5.28911252394257e+17
19653.0	5.288154974126079e+17
19654.0	5.287196077938004e+17
19655.0	5.286239587882325e+17
19656.0	5.285281438280362e+17
19657.0	5.2843254256762854e+17
19658.0	5.283368111439871e+17
