# Flux units: erg / (cm m2 s)
# Wavelength units: Angstrom
wave	flux
19000.0	4.5606270734609056e+17
19001.0	4.559661975295317e+17
19002.0	4.5589473064386554e+17
19003.0	4.5580999067347616e+17
19004.0	4.557257809330174e+17
19005.0	4.55640577352226e+17
19006.0	4.5555769993243296e+17
19007.0	4.5547243553423354e+17
19008.0	4.553805772707157e+17
19009.0	4.552870526102185e+17
19010.0	4.551572193279998e+17
19011.0	4.551308241534975e+17
19012.0	4.550329385353215e+17
19013.0	4.549670367920127e+17
19014.0	4.548766474436607e+17
19015.0	4.547930365100031e+17
19016.0	4.547062633507498e+17
19017.0	4.546306159323818e+17
19018.0	4.5454522724297376e+17
19019.0	4.544612003042645e+17
19020.0	4.543761710667093e+17
19021.0	4.542943204824405e+17
19022.0	4.542096215463253e+17
19023.0	4.5412187691636045e+17
19024.0	4.540393128809812e+17
19025.0	4.5395699001808205e+17
19026.0	4.5387023063012685e+17
19027.0	4.5378123609757005e+17
19028.0	4.5370637287424e+17
19029.0	4.5362016846260896e+17
19030.0	4.5353983880287565e+17
19031.0	4.5345606205439994e+17
19032.0	4.533710261059583e+17
19033.0	4.532759898882047e+17
19034.0	4.532023716741119e+17
19035.0	4.531149852377086e+17
19036.0	4.52216469061632e+17
19037.0	4.529512110882815e+17
19038.0	4.528661221517993e+17
19039.0	4.527848512902485e+17
19040.0	4.527015921188863e+17
19041.0	4.526164083212287e+17
19042.0	4.525141218295807e+17
19043.0	4.524503819703638e+17
19044.0	4.5236516154245114e+17
19045.0	4.5228262064564896e+17
19046.0	4.521911590933844e+17
19047.0	4.5211130478810445e+17
19048.0	4.520015901840725e+17
19049.0	4.5192322094202874e+17
19050.0	4.5185791688704e+17
19051.0	4.51675868574515e+17
19052.0	4.5167192411122336e+17
19053.0	4.516139234579797e+17
19054.0	4.515299185393664e+17
19055.0	4.514121394072234e+17
19056.0	4.5135858310840314e+17
19057.0	4.5127879647122765e+17
19058.0	4.5118606837896525e+17
19059.0	4.5110845145524896e+17
19060.0	4.510261666906111e+17
19061.0	4.509459079146153e+17
19062.0	4.508617509524821e+17
19063.0	4.507785744089087e+17
19064.0	4.50678697754624e+17
19065.0	4.5059104414105594e+17
19066.0	4.5051902605393914e+17
19067.0	4.5044342833807354e+17
19068.0	4.503618738017621e+17
19069.0	4.50278688100625e+17
19070.0	4.501916855828478e+17
19071.0	4.5011125316266656e+17
19072.0	4.500253482243412e+17
19073.0	4.499450259745449e+17
19074.0	4.498624712365397e+17
19075.0	4.4977923660185594e+17
19076.0	4.4969346336467635e+17
19077.0	4.4961007542818125e+17
19078.0	4.495239584677887e+17
19079.0	4.494458238970538e+17
19080.0	4.4936109706881696e+17
19081.0	4.49274897830161e+17
19082.0	4.49191582175505e+17
19083.0	4.491024311255039e+17
19084.0	4.490048916772181e+17
19085.0	4.48945843147025e+17
19086.0	4.4881808171117216e+17
19087.0	4.487539480767145e+17
19088.0	4.486841321390079e+17
19089.0	4.48586059874304e+17
19090.0	4.48529536385024e+17
19091.0	4.4844483192640845e+17
19092.0	4.4835163595953485e+17
19093.0	4.482837947700564e+17
19094.0	4.4820084073431034e+17
19095.0	4.4811792172100256e+17
19096.0	4.480329558873429e+17
19097.0	4.4795167083506336e+17
19098.0	4.478653861025109e+17
19099.0	4.4778138474905594e+17
19100.0	4.4770011444674554e+17
19101.0	4.4761923442442234e+17
19102.0	4.475214159151102e+17
19103.0	4.474548559456938e+17
19104.0	4.473725189619712e+17
19105.0	4.4728134940317005e+17
19106.0	4.472035215059626e+17
19107.0	4.471196426960896e+17
19108.0	4.470386642474323e+17
19109.0	4.468953162885802e+17
19110.0	4.4673686121567565e+17
19111.0	4.466541064093695e+17
19112.0	4.465712350014121e+17
19113.0	4.4649075805170336e+17
19114.0	4.464070049311402e+17
19115.0	4.463188826041002e+17
19116.0	4.4624112684892154e+17
19117.0	4.4615793590490445e+17
19118.0	4.46063220551407e+17
19119.0	4.447116393622172e+17
19120.0	4.4590677392097254e+17
19121.0	4.4582677120723616e+17
19122.0	4.457491326828544e+17
19123.0	4.456667227182419e+17
19124.0	4.4558156513498445e+17
19125.0	4.4550140625332896e+17
19126.0	4.454190338277375e+17
19127.0	4.4509194739165856e+17
19128.0	4.452466965872639e+17
19129.0	4.4516392507364685e+17
19130.0	4.450875068121087e+17
19131.0	4.450074943116628e+17
19132.0	4.4492527749474976e+17
19133.0	4.448320869804714e+17
19134.0	4.4475768072656205e+17
19135.0	4.4467845102305274e+17
19136.0	4.445971229791572e+17
19137.0	4.4449341210187085e+17
19138.0	4.4443022533154125e+17
19139.0	4.4435049266107725e+17
19140.0	4.442686043979775e+17
19141.0	4.441863984163497e+17
19142.0	4.441012548840106e+17
19143.0	4.4401481740888736e+17
19144.0	4.439350618794666e+17
19145.0	4.438581059780608e+17
19146.0	4.437008202072063e+17
19147.0	4.436773499305983e+17
19148.0	4.436088915492863e+17
19149.0	4.4352579036337485e+17
19150.0	4.434471632415401e+17
19151.0	4.433655729138346e+17
19152.0	4.4328290611800736e+17
19153.0	4.4319452017896096e+17
19154.0	4.431025596443306e+17
19155.0	4.4303866207928314e+17
19156.0	4.42956458893858e+17
19157.0	4.4287182853461325e+17
19158.0	4.427559799007914e+17
19159.0	4.427087658090496e+17
19160.0	4.426276883049129e+17
19161.0	4.425472621062826e+17
19162.0	4.4239084183005856e+17
19163.0	4.4238088650970445e+17
19164.0	4.4230203163716256e+17
19165.0	4.422113190477823e+17
19166.0	4.421190909864618e+17
19167.0	4.420501483028479e+17
19168.0	4.419740547503444e+17
19169.0	4.418911541220693e+17
19170.0	4.4181205353321805e+17
19171.0	4.4172562864100685e+17
19172.0	4.4164854082874016e+17
19173.0	4.4156704109800096e+17
19174.0	4.4147727733009056e+17
19175.0	4.4140359046922234e+17
19176.0	4.413220913676287e+17
19177.0	4.412212051443711e+17
19178.0	4.411573540661929e+17
19179.0	4.4107119963668474e+17
19180.0	4.4099488630265165e+17
19181.0	4.40896178950417e+17
19182.0	4.408290870733483e+17
19183.0	4.4075192802781856e+17
19184.0	4.406690131389098e+17
19185.0	4.4058766985570976e+17
19186.0	4.40507322929425e+17
19187.0	4.404187365725525e+17
19188.0	4.4034419358433274e+17
19189.0	4.402633207622313e+17
19190.0	4.4018157084125856e+17
19191.0	4.4009669623371085e+17
19192.0	4.400192193298431e+17
19193.0	4.3993629500375034e+17
19194.0	4.398540806335146e+17
19195.0	4.397752250619219e+17
19196.0	4.396919074499243e+17
19197.0	4.3961160938728096e+17
19198.0	4.3953084680546976e+17
19199.0	4.3901765700375885e+17
19200.0	4.3906381580861446e+17
19201.0	4.392873596988075e+17
19202.0	4.3920668960139936e+17
19203.0	4.391242641178623e+17
19204.0	4.390409427309909e+17
19205.0	4.3896166493279565e+17
19206.0	4.3887969921488205e+17
19207.0	4.387838836954453e+17
19208.0	4.386889712795647e+17
19209.0	4.384611013143208e+17
19210.0	4.383227182929236e+17
19211.0	4.382431691232597e+17
19212.0	4.381617532086953e+17
19213.0	4.380687048114176e+17
19214.0	4.379815522074624e+17
19215.0	4.379173413279061e+17
19216.0	4.3783786569837216e+17
19217.0	4.3775628949149e+17
19218.0	4.3756727094476774e+17
19219.0	4.375780992395946e+17
19220.0	4.375109589183146e+17
19221.0	4.373914611701077e+17
19222.0	4.373497253986304e+17
19223.0	4.372684851554985e+17
19224.0	4.3718444409596576e+17
19225.0	4.370894594681514e+17
19226.0	4.370258601181183e+17
19227.0	4.3694490299050656e+17
19228.0	4.368665930978645e+17
19229.0	4.3678565456500045e+17
19230.0	4.367037357533866e+17
19231.0	4.3662249998417914e+17
19232.0	4.3654175355043834e+17
19233.0	4.364538052870142e+17
19234.0	4.3637830718586874e+17
19235.0	4.362966043809108e+17
19236.0	4.362196029713066e+17
19237.0	4.361366999662592e+17
19238.0	4.36045733761297e+17
19239.0	4.359771730389674e+17
19240.0	4.3589414930786976e+17
19241.0	4.358124374152533e+17
19242.0	4.357323142550868e+17
19243.0	4.356354849723732e+17
19244.0	4.355734356972884e+17
19245.0	4.354920927636137e+17
19246.0	4.354096165289983e+17
19247.0	4.353299662067029e+17
19248.0	4.352504351424511e+17
19249.0	4.351688222354091e+17
19250.0	4.3508519683140256e+17
19251.0	4.3498950888871245e+17
19252.0	4.3489716128972794e+17
19253.0	4.3484301107746125e+17
19254.0	4.3476555430625274e+17
19255.0	4.346653407095465e+17
19256.0	4.3459797878920525e+17
19257.0	4.345237428939434e+17
19258.0	4.3444292970086394e+17
19259.0	4.343546047889408e+17
19260.0	4.342622277599231e+17
19261.0	4.341988593762302e+17
19262.0	4.341130333607253e+17
19263.0	4.340288440325461e+17
19264.0	4.338828765910355e+17
19265.0	4.338479347531775e+17
19266.0	4.337546279867733e+17
19267.0	4.3371636852435635e+17
19268.0	4.336347772878847e+17
19269.0	4.3355432962839885e+17
19270.0	4.334734631676585e+17
19271.0	4.333459144529238e+17
19272.0	4.3330793349229216e+17
19273.0	4.33132129170227e+17
19274.0	4.330719225926995e+17
19275.0	4.330701665774249e+17
19276.0	4.3298681897615354e+17
19277.0	4.3290679941529594e+17
19278.0	4.328261281295018e+17
19279.0	4.327437503911253e+17
19280.0	4.3265385492206925e+17
19281.0	4.325828176030378e+17
19282.0	4.3250441466675194e+17
19283.0	4.324165783912447e+17
19284.0	4.3233847723513165e+17
19285.0	4.3224003726977696e+17
19286.0	4.321761783622314e+17
19287.0	4.320995743629312e+17
19288.0	4.317614011929937e+17
19289.0	4.314335849480186e+17
19290.0	4.318568947995989e+17
19291.0	4.317455166646955e+17
19292.0	4.3169471064091296e+17
19293.0	4.3155510945382394e+17
19294.0	4.3145795797865805e+17
19295.0	4.31378093117713e+17
19296.0	4.312928606661289e+17
19297.0	4.3121221258881696e+17
19298.0	4.311311199851861e+17
19299.0	4.310495757948245e+17
19300.0	4.3097069184177485e+17
19301.0	4.3089038329337165e+17
19302.0	4.3080712482106016e+17
19303.0	4.307193948012542e+17
19304.0	4.306425271200427e+17
19305.0	4.305631978717183e+17
19306.0	4.304830551381332e+17
19307.0	4.3039634713040205e+17
19308.0	4.303171462976853e+17
19309.0	4.302212462630229e+17
19310.0	4.3013366311376205e+17
19311.0	4.300700734805333e+17
19312.0	4.299931210044757e+17
19313.0	4.2991261902875296e+17
19314.0	4.282179905388558e+17
19315.0	4.282291148117343e+17
19316.0	4.296604761369259e+17
19317.0	4.295839479147178e+17
19318.0	4.295015854156457e+17
19319.0	4.2942139032316576e+17
19320.0	4.293371628268202e+17
19321.0	4.2925373853969056e+17
19322.0	4.291640729184938e+17
19323.0	4.290848483180544e+17
19324.0	4.29008566231586e+17
19325.0	4.2891122517387936e+17
19326.0	4.2884416028016634e+17
19327.0	4.285984337646933e+17
19328.0	4.284099042738175e+17
19329.0	4.283337862545408e+17
19330.0	4.282454779101183e+17
19331.0	4.2816100099249485e+17
19332.0	4.280822316138496e+17
19333.0	4.2799737650981536e+17
19334.0	4.279144208662526e+17
19335.0	4.278175573300565e+17
19336.0	4.277458893974185e+17
19337.0	4.276615764071764e+17
19338.0	4.275509607268351e+17
19339.0	4.2749240495745696e+17
19340.0	4.27381293650193e+17
19341.0	4.2730637981559456e+17
19342.0	4.271855117183657e+17
19343.0	4.271510929801214e+17
19344.0	4.2706052341650765e+17
19345.0	4.267169670671014e+17
19346.0	4.2675452048834534e+17
19347.0	4.267918511920468e+17
19348.0	4.26721073500433e+17
19349.0	4.2662967549187405e+17
19350.0	4.2654069745691296e+17
19351.0	4.264542685102079e+17
19352.0	4.26354808000785e+17
19353.0	4.2628271861050016e+17
19354.0	4.2619484374739616e+17
19355.0	4.260938526665387e+17
19356.0	4.2597912740713805e+17
19357.0	4.256276611596288e+17
19358.0	4.255358110050985e+17
19359.0	4.254361018433536e+17
19360.0	4.2534273572754765e+17
19361.0	4.252563896882517e+17
19362.0	4.251683524356778e+17
19363.0	4.250746709082111e+17
19364.0	4.249803619827711e+17
19365.0	4.248861009423018e+17
19366.0	4.247908122973525e+17
19367.0	4.2469494358016e+17
19368.0	4.245984933926229e+17
19369.0	4.244942847912618e+17
19370.0	4.2437805608359264e+17
19371.0	4.241270347486548e+17
19372.0	4.2403235945076045e+17
19373.0	4.239283459544406e+17
19374.0	4.238273477432661e+17
19375.0	4.237238872659285e+17
19376.0	4.2361951557604685e+17
19377.0	4.235121252455765e+17
19378.0	4.2340526612370765e+17
19379.0	4.2329712228652365e+17
19380.0	4.231871165278889e+17
19381.0	4.230753074282494e+17
19382.0	4.229547127996415e+17
19383.0	4.228340312790355e+17
19384.0	4.227299795446443e+17
19385.0	4.226132203973289e+17
19386.0	4.2249370545247565e+17
19387.0	4.2237146148372474e+17
19388.0	4.2224702948638714e+17
19389.0	4.221201424930133e+17
19390.0	4.219908114786986e+17
19391.0	4.2114266756546477e+17
19392.0	4.216943660411561e+17
19393.0	4.2158680024896845e+17
19394.0	4.214446220115967e+17
19395.0	4.212982567403519e+17
19396.0	4.2115210286202874e+17
19397.0	4.21002213466658e+17
19398.0	4.208416118188714e+17
19399.0	4.205854440030206e+17
19400.0	4.2050659633070074e+17
19401.0	4.203508005863423e+17
19402.0	4.201773956857855e+17
19403.0	4.1999426824874656e+17
19404.0	4.1980952481628154e+17
19405.0	4.1961464081503565e+17
19406.0	4.1941587624372896e+17
19407.0	4.1920679599144954e+17
19408.0	4.188853685802326e+17
19409.0	4.1876665880193696e+17
19410.0	4.1853724833873914e+17
19411.0	4.1829483784000845e+17
19412.0	4.180413916381183e+17
19413.0	4.1778206802793805e+17
19414.0	4.175051864320682e+17
19415.0	4.1722152166795936e+17
19416.0	4.1690300482409805e+17
19417.0	4.1660218983055354e+17
19418.0	4.162821370325675e+17
19419.0	4.159385920077823e+17
19420.0	4.155799028192596e+17
19421.0	4.152052267614208e+17
19422.0	4.148091121478314e+17
19423.0	4.144045327996245e+17
19424.0	4.1397910209822714e+17
19425.0	4.135353080348672e+17
19426.0	4.130727000014848e+17
19427.0	4.1259321380918605e+17
19428.0	4.121023601442815e+17
19429.0	4.1159346635844256e+17
19430.0	4.11051159908079e+17
19431.0	4.103879399920981e+17
19432.0	4.099555632436564e+17
19433.0	4.0940116510419616e+17
19434.0	4.088359536994987e+17
19435.0	4.0824115902982816e+17
19436.0	4.076046232758953e+17
19437.0	4.069909329171796e+17
19438.0	4.049884145516548e+17
19439.0	4.0552519193067526e+17
19440.0	4.0469187998515206e+17
19441.0	4.033145106071549e+17
19442.0	4.005850955907072e+17
19443.0	3.9579732134242963e+17
19444.0	3.92954247258658e+17
19445.0	3.898994444992512e+17
19446.0	3.8643758271911245e+17
19447.0	3.820650876283549e+17
19448.0	3.7023264147155686e+17
19449.0	3.5762564972762394e+17
19450.0	3.123293305438202e+17
19451.0	2.9256071005252134e+17
19452.0	3.40814820889943e+17
19453.0	3.643601108074502e+17
19454.0	3.7673671121523846e+17
19455.0	3.840913573587629e+17
19456.0	3.8757026821570554e+17
19457.0	3.906890673859241e+17
19458.0	3.887215991412098e+17
19459.0	3.9664460066980026e+17
19460.0	4.0098307701910144e+17
19461.0	4.026807272254125e+17
19462.0	4.036254233176746e+17
19463.0	4.0427070454497274e+17
19464.0	4.048147424040276e+17
19465.0	4.052984221313706e+17
19466.0	4.057893783470079e+17
19467.0	4.0623055984831136e+17
19468.0	4.0665310018491725e+17
19469.0	4.070185952608255e+17
19470.0	4.07459939221504e+17
19471.0	4.07867426340864e+17
19472.0	4.0826036202154656e+17
19473.0	4.0862082798714874e+17
19474.0	4.089713037497685e+17
19475.0	4.0918850137838925e+17
19476.0	4.096128829445461e+17
19477.0	4.0992125027177805e+17
19478.0	4.102044403804842e+17
19479.0	4.1046215708289696e+17
19480.0	4.1070879746730656e+17
19481.0	4.109323443634176e+17
19482.0	4.111492525850624e+17
19483.0	4.1134820184555514e+17
19484.0	4.115272956903423e+17
19485.0	4.1168610028858016e+17
19486.0	4.1183333343122765e+17
19487.0	4.119810921900714e+17
19488.0	4.1210771508210336e+17
19489.0	4.121913841068714e+17
19490.0	4.121268214650195e+17
19491.0	4.124056106303486e+17
19492.0	4.124926859193002e+17
19493.0	4.1256573014289056e+17
19494.0	4.126293661231786e+17
19495.0	4.126853502249642e+17
19496.0	4.126723086658218e+17
19497.0	4.127718310412288e+17
19498.0	4.1266849548424525e+17
19499.0	4.117173218486954e+17
19500.0	4.128617077058218e+17
19501.0	4.12879542096145e+17
19502.0	4.128913435394048e+17
19503.0	4.1290011466792954e+17
19504.0	4.1290353050910714e+17
19505.0	4.1290207061169485e+17
19506.0	4.128980863025151e+17
19507.0	4.128866076109482e+17
19508.0	4.1287813162161485e+17
19509.0	4.1286285932189e+17
19510.0	4.1281638098097485e+17
19511.0	4.10225439512985e+17
19512.0	4.1258962180724045e+17
19513.0	4.124159945386662e+17
19514.0	4.124894127543634e+17
19515.0	4.126520939380736e+17
19516.0	4.12678666391825e+17
19517.0	4.1263870264388256e+17
19518.0	4.126102600198827e+17
19519.0	4.1257078134319776e+17
19520.0	4.125247694787923e+17
19521.0	4.1249184216514554e+17
19522.0	4.124440626113193e+17
19523.0	4.124028642000895e+17
19524.0	4.123554197012479e+17
19525.0	4.123104578109438e+17
19526.0	4.122638607712255e+17
19527.0	4.122135777072468e+17
19528.0	4.1216250087123616e+17
19529.0	4.121107686053206e+17
19530.0	4.120609876694357e+17
19531.0	4.120078661801301e+17
19532.0	4.1195388723527674e+17
19533.0	4.1189909802079565e+17
19534.0	4.1184308973185696e+17
19535.0	4.117991245479935e+17
19536.0	4.118843771322368e+17
19537.0	4.1183115036590074e+17
19538.0	4.117467783058774e+17
19539.0	4.116410085146624e+17
19540.0	4.116489284790953e+17
19541.0	4.115902275867989e+17
19542.0	4.1152927302505805e+17
19543.0	4.1146349312628045e+17
19544.0	4.1140585779691514e+17
19545.0	4.11270798971153e+17
19546.0	4.1116399486457165e+17
19547.0	4.1121836164273485e+17
19548.0	4.111539171404459e+17
19549.0	4.1107954639831034e+17
19550.0	4.1102614193329485e+17
19551.0	4.109618431131647e+17
19552.0	4.1089672514546336e+17
19553.0	4.1082782587289594e+17
19554.0	4.107607520313343e+17
19555.0	4.1069765879398394e+17
19556.0	4.1089756855009274e+17
19557.0	4.1084277409273165e+17
19558.0	4.1077542021147296e+17
19559.0	4.1070803319521274e+17
19560.0	4.106359656153087e+17
19561.0	4.105695301468159e+17
19562.0	4.1050231160176634e+17
19563.0	4.1043684641559885e+17
19564.0	4.103684974357161e+17
19565.0	4.102999677512362e+17
19566.0	4.102273965053268e+17
19567.0	4.101621619359743e+17
19568.0	4.100911218906453e+17
19569.0	4.1002386210160634e+17
19570.0	4.0995742963903136e+17
19571.0	4.09886940725248e+17
19572.0	4.0981469397865805e+17
19573.0	4.0974501309754016e+17
19574.0	4.0966891164576416e+17
19575.0	4.096090898956287e+17
19576.0	4.0953856134567245e+17
19577.0	4.0946439577490765e+17
19578.0	4.0939306387592525e+17
19579.0	4.093255429215574e+17
19580.0	4.092549346099199e+17
19581.0	4.091859723528874e+17
19582.0	4.091176981714261e+17
19583.0	4.090471313833983e+17
19584.0	4.0897490281212576e+17
19585.0	4.0889255925732685e+17
19586.0	4.088176361952597e+17
19587.0	4.087612558016511e+17
19588.0	4.086287016045227e+17
19589.0	4.086193523610964e+17
19590.0	4.085338286850047e+17
19591.0	4.0847887078959776e+17
19592.0	4.0840833573847034e+17
19593.0	4.0833475233710074e+17
19594.0	4.082375866712063e+17
19595.0	4.0818785089399456e+17
19596.0	4.0810604994232314e+17
19597.0	4.080495261734229e+17
19598.0	4.079066562254164e+17
19599.0	4.079085712048127e+17
19600.0	4.078381463939755e+17
19601.0	4.077579640242176e+17
19602.0	4.0768640675130016e+17
19603.0	4.0756333105206605e+17
19604.0	4.075440770995542e+17
19605.0	4.0744336815554554e+17
19606.0	4.074074115058346e+17
19607.0	4.073367151138132e+17
19608.0	4.0726246971146234e+17
19609.0	4.071865765767849e+17
19610.0	4.0711846702175565e+17
19611.0	4.0704441260004685e+17
19612.0	4.0697759670818125e+17
19613.0	4.0690452186617165e+17
19614.0	4.0682918077180576e+17
19615.0	4.0676160752844806e+17
19616.0	4.0668120957146445e+17
19617.0	4.0661230435696634e+17
19618.0	4.0646193674103443e+17
19619.0	4.0637422832189414e+17
19620.0	4.0630766178140154e+17
19621.0	4.063254108176383e+17
19622.0	4.0625816396103674e+17
19623.0	4.061858819822932e+17
19624.0	4.0611225635826336e+17
19625.0	4.060419873658196e+17
19626.0	4.05969403117568e+17
19627.0	4.0589772672641696e+17
19628.0	4.058137605352106e+17
19629.0	4.0573049821812045e+17
19630.0	4.056356321492992e+17
19631.0	4.0512152875827206e+17
19632.0	4.0553663315312634e+17
19633.0	4.0545988787568634e+17
19634.0	4.053929006465024e+17
19635.0	4.053155872505855e+17
19636.0	4.052426212507648e+17
19637.0	4.0513251706579616e+17
19638.0	4.05101863833873e+17
19639.0	4.05030375067921e+17
19640.0	4.049316455557803e+17
19641.0	4.047141940319575e+17
19642.0	4.048143769403392e+17
19643.0	4.047417747963904e+17
19644.0	4.046627190865919e+17
19645.0	4.045613425491968e+17
19646.0	4.0452147282356896e+17
19647.0	4.044546925832874e+17
19648.0	4.0438254111730336e+17
19649.0	4.043099012246186e+17
19650.0	4.0423854122379936e+17
19651.0	4.041659296426666e+17
19652.0	4.0409340788954445e+17
19653.0	4.040217774959274e+17
19654.0	4.039492465852415e+17
19655.0	4.038765061690708e+17
19656.0	4.0380496357621754e+17
