# Flux units: erg / (cm m2 s)
# Wavelength units: Angstrom
wave	flux
19000.0	4.654083359113215e+17
19001.0	4.6531599537274874e+17
19002.0	4.6523662641834656e+17
19003.0	4.6514915763377485e+17
19004.0	4.650626761184597e+17
19005.0	4.6497803149858125e+17
19006.0	4.648923540313429e+17
19007.0	4.647781743110826e+17
19008.0	4.6471629707236685e+17
19009.0	4.646308931436544e+17
19010.0	4.645137780397396e+17
19011.0	4.644589342993066e+17
19012.0	4.642761246507007e+17
19013.0	4.642904056266752e+17
19014.0	4.6420159137928525e+17
19015.0	4.6411641757805216e+17
19016.0	4.640296091167402e+17
19017.0	4.639469912544596e+17
19018.0	4.6385590215639034e+17
19019.0	4.637755272680789e+17
19020.0	4.63688361452066e+17
19021.0	4.636040955778389e+17
19022.0	4.6351841419591674e+17
19023.0	4.634306028765183e+17
19024.0	4.633453289013247e+17
19025.0	4.6325341897796256e+17
19026.0	4.6316500151173114e+17
19027.0	4.630096385496403e+17
19028.0	4.6300480852896416e+17
19029.0	4.6291703628649805e+17
19030.0	4.6283368525987814e+17
19031.0	4.6274879331587405e+17
19032.0	4.626625230536704e+17
19033.0	4.625714278738602e+17
19034.0	4.62490908631586e+17
19035.0	4.624036423619924e+17
19036.0	4.5662330382799936e+17
19037.0	4.6223398108747085e+17
19038.0	4.6214853081169914e+17
19039.0	4.620643967085225e+17
19040.0	4.619792920434005e+17
19041.0	4.6189300696132256e+17
19042.0	4.6179615391088634e+17
19043.0	4.6172330360395085e+17
19044.0	4.616364832587774e+17
19045.0	4.615494011890346e+17
19046.0	4.614629210019157e+17
19047.0	4.6138134297750176e+17
19048.0	4.6128009198960634e+17
19049.0	4.611949374122665e+17
19050.0	4.611224102764543e+17
19051.0	4.6018507469837485e+17
19052.0	4.608669909341526e+17
19053.0	4.6086338061707936e+17
19054.0	4.607851219648511e+17
19055.0	4.60681602208017e+17
19056.0	4.606121992694442e+17
19057.0	4.605285849803433e+17
19058.0	4.6043075808242336e+17
19059.0	4.6035657881026554e+17
19060.0	4.6027169588401485e+17
19061.0	4.601891849065812e+17
19062.0	4.6010376301226656e+17
19063.0	4.6001888071516154e+17
19064.0	4.5992488838976845e+17
19065.0	4.598377757715113e+17
19066.0	4.597580170264575e+17
19067.0	4.5967809463364256e+17
19068.0	4.595939211040085e+17
19069.0	4.595088713842687e+17
19070.0	4.594220968269141e+17
19071.0	4.5933546941972474e+17
19072.0	4.592513026009771e+17
19073.0	4.5916908214900045e+17
19074.0	4.590845776887807e+17
19075.0	4.5899972656933536e+17
19076.0	4.5891340206079994e+17
19077.0	4.588287705131689e+17
19078.0	4.5874222929892685e+17
19079.0	4.586602902148436e+17
19080.0	4.585746486788095e+17
19081.0	4.584880502123178e+17
19082.0	4.5840304516191565e+17
19083.0	4.5831515862466554e+17
19084.0	4.5822269253659296e+17
19085.0	4.5815113295680845e+17
19086.0	4.5803646508946765e+17
19087.0	4.5782504490489184e+17
19088.0	4.578894232070825e+17
19089.0	4.577219445784574e+17
19090.0	4.5772690720904525e+17
19091.0	4.576422119079934e+17
19092.0	4.575155626617514e+17
19093.0	4.5747525211477325e+17
19094.0	4.573906823632212e+17
19095.0	4.5730613008793594e+17
19096.0	4.5721922858298016e+17
19097.0	4.571370767078741e+17
19098.0	4.570499396927487e+17
19099.0	4.5696474107521696e+17
19100.0	4.568747004133376e+17
19101.0	4.567962549048661e+17
19102.0	4.5670695684450976e+17
19103.0	4.5663028280033274e+17
19104.0	4.5654648501043194e+17
19105.0	4.564562498027519e+17
19106.0	4.563490654126079e+17
19107.0	4.562906967790932e+17
19108.0	4.562069372971689e+17
19109.0	4.5569435336267014e+17
19110.0	4.560376989483007e+17
19111.0	4.5595288264157856e+17
19112.0	4.558701475485012e+17
19113.0	4.557878461464575e+17
19114.0	4.55702453752081e+17
19115.0	4.556038470631424e+17
19116.0	4.555342442659839e+17
19117.0	4.554500868145151e+17
19118.0	4.5533627206860794e+17
19119.0	4.548438706356217e+17
19120.0	4.551515247214591e+17
19121.0	4.5508356252631034e+17
19122.0	4.550310941600425e+17
19123.0	4.5494702989202765e+17
19124.0	4.54836935074338e+17
19125.0	4.5477685090058234e+17
19126.0	4.546924244544169e+17
19127.0	4.544900128658772e+17
19128.0	4.543488478325415e+17
19129.0	4.544379133886463e+17
19130.0	4.5435835771781114e+17
19131.0	4.542692979638272e+17
19132.0	4.541913357090815e+17
19133.0	4.5407473363845126e+17
19134.0	4.539393914175489e+17
19135.0	4.5393781939240954e+17
19136.0	4.5385633622917114e+17
19137.0	4.537613362222421e+17
19138.0	4.536798737509034e+17
19139.0	4.536049265016832e+17
19140.0	4.5352130011900576e+17
19141.0	4.5343758859195725e+17
19142.0	4.533506609425066e+17
19143.0	4.5326594802537805e+17
19144.0	4.5318423130931194e+17
19145.0	4.531017048828585e+17
19146.0	4.529744459246251e+17
19147.0	4.5292900525451936e+17
19148.0	4.528472128312661e+17
19149.0	4.5276378407021216e+17
19150.0	4.5268417527152634e+17
19151.0	4.526009078513664e+17
19152.0	4.5251192219675296e+17
19153.0	4.524287836116308e+17
19154.0	4.5234171796957856e+17
19155.0	4.5226559309960525e+17
19156.0	4.521835563581438e+17
19157.0	4.520957962791593e+17
19158.0	4.517269757493243e+17
19159.0	4.519317711705428e+17
19160.0	4.5184323116072954e+17
19161.0	4.51751850348817e+17
19162.0	4.510210478921052e+17
19163.0	4.51595417489681e+17
19164.0	4.5151651333406714e+17
19165.0	4.514150580835668e+17
19166.0	4.513243226352297e+17
19167.0	4.5120337764242765e+17
19168.0	4.5118096398090234e+17
19169.0	4.51085957402897e+17
19170.0	4.510164164018174e+17
19171.0	4.508907832956246e+17
19172.0	4.5084730751713274e+17
19173.0	4.5076472572586656e+17
19174.0	4.506800172127573e+17
19175.0	4.5060048761651194e+17
19176.0	4.5051765353786016e+17
19177.0	4.5042475291989325e+17
19178.0	4.503420106265941e+17
19179.0	4.5020581570368864e+17
19180.0	4.501705711768917e+17
19181.0	4.500928755400702e+17
19182.0	4.500164460238165e+17
19183.0	4.499345217596074e+17
19184.0	4.49849102242065e+17
19185.0	4.4976959676306765e+17
19186.0	4.496873100410879e+17
19187.0	4.4959861267496954e+17
19188.0	4.4951878828905805e+17
19189.0	4.4943080031955616e+17
19190.0	4.493450929329492e+17
19191.0	4.4926259348985165e+17
19192.0	4.491891891852629e+17
19193.0	4.4910127734237856e+17
19194.0	4.4901950665960096e+17
19195.0	4.4893981949733536e+17
19196.0	4.4885696200048634e+17
19197.0	4.487742622793727e+17
19198.0	4.486903917182976e+17
19199.0	4.4495262799189235e+17
19200.0	4.461538320580623e+17
19201.0	4.484424293591723e+17
19202.0	4.4836132011813536e+17
19203.0	4.4826820929563296e+17
19204.0	4.4819264073018016e+17
19205.0	4.481130804456106e+17
19206.0	4.48030059790336e+17
19207.0	4.4794192292304205e+17
19208.0	4.4784936302237005e+17
19209.0	4.4778083585447245e+17
19210.0	4.476998008526165e+17
19211.0	4.476180865133226e+17
19212.0	4.475352894144511e+17
19213.0	4.474132940281172e+17
19214.0	4.473150678324565e+17
19215.0	4.4727369542751565e+17
19216.0	4.472049648358741e+17
19217.0	4.4712199765797536e+17
19218.0	4.4698264022985376e+17
19219.0	4.4694784344500896e+17
19220.0	4.468707847831552e+17
19221.0	4.467684741043541e+17
19222.0	4.467101383961259e+17
19223.0	4.466268102284628e+17
19224.0	4.465427687494996e+17
19225.0	4.4645338729239885e+17
19226.0	4.4637951539281914e+17
19227.0	4.46297277604386e+17
19228.0	4.462165506042538e+17
19229.0	4.4605689582059514e+17
19230.0	4.459011350287699e+17
19231.0	4.45819797967121e+17
19232.0	4.4574148947258016e+17
19233.0	4.4565514825673376e+17
19234.0	4.45576600686865e+17
19235.0	4.4549382791495674e+17
19236.0	4.4541374495020365e+17
19237.0	4.453302635506346e+17
19238.0	4.4523704416556365e+17
19239.0	4.451668063507797e+17
19240.0	4.4508067149469e+17
19241.0	4.449999457528489e+17
19242.0	4.4491942336484685e+17
19243.0	4.448279112712191e+17
19244.0	4.4475631394269856e+17
19245.0	4.4467388887859194e+17
19246.0	4.4459091708695885e+17
19247.0	4.4450943469267616e+17
19248.0	4.444267766349823e+17
19249.0	4.4434317485888845e+17
19250.0	4.4426141130642765e+17
19251.0	4.441736690532351e+17
19252.0	4.4408113963117216e+17
19253.0	4.4401564878984525e+17
19254.0	4.439343102601898e+17
19255.0	4.438411580538879e+17
19256.0	4.437653348941824e+17
19257.0	4.43688823099665e+17
19258.0	4.4360718796281165e+17
19259.0	4.435205830650539e+17
19260.0	4.433304500218536e+17
19261.0	4.433601974938282e+17
19262.0	4.43275368604194e+17
19263.0	4.4319339911140685e+17
19264.0	4.4307778123421e+17
19265.0	4.4301940393246714e+17
19266.0	4.429336434879147e+17
19267.0	4.428693392151893e+17
19268.0	4.4278671869651616e+17
19269.0	4.427051474528938e+17
19270.0	4.4262320417450656e+17
19271.0	4.425177625875798e+17
19272.0	4.4245717279047674e+17
19273.0	4.422399414676136e+17
19274.0	4.422123702102697e+17
19275.0	4.4221365716254714e+17
19276.0	4.421303787672917e+17
19277.0	4.420484773620394e+17
19278.0	4.419665599485268e+17
19279.0	4.4187800337121274e+17
19280.0	4.417973850035541e+17
19281.0	4.4172080505159674e+17
19282.0	4.4163990475680416e+17
19283.0	4.414974225022976e+17
19284.0	4.4141935049659725e+17
19285.0	4.4138089662818976e+17
19286.0	4.4130981890402976e+17
19287.0	4.4122992789858976e+17
19288.0	4.3973282959632954e+17
19289.0	4.372193240678327e+17
19290.0	4.409841123240617e+17
19291.0	4.408859671483734e+17
19292.0	4.408203474720085e+17
19293.0	4.4073783041283405e+17
19294.0	4.4065564763968845e+17
19295.0	4.405743260969642e+17
19296.0	4.404891728478207e+17
19297.0	4.404053936526677e+17
19298.0	4.403261387134293e+17
19299.0	4.4024299593400314e+17
19300.0	4.401635739216553e+17
19301.0	4.4008143924319565e+17
19302.0	4.3999899257842336e+17
19303.0	4.399105197473791e+17
19304.0	4.3983272442593274e+17
19305.0	4.3975184426379936e+17
19306.0	4.396672154424661e+17
19307.0	4.3958019740576416e+17
19308.0	4.3950115903242234e+17
19309.0	4.392829045790036e+17
19310.0	4.39153129248085e+17
19311.0	4.392453263414612e+17
19312.0	4.3917631829661005e+17
19313.0	4.390939407679487e+17
19314.0	4.322586961903611e+17
19315.0	4.327321102188648e+17
19316.0	4.388335945864534e+17
19317.0	4.3876439171618125e+17
19318.0	4.386817366644053e+17
19319.0	4.3860020163160736e+17
19320.0	4.3851628017964365e+17
19321.0	4.3843265966899194e+17
19322.0	4.383424972324864e+17
19323.0	4.382049102899884e+17
19324.0	4.3818355338335565e+17
19325.0	4.3796865010892794e+17
19326.0	4.380204055134208e+17
19327.0	4.3793666749235194e+17
19328.0	4.378502811877376e+17
19329.0	4.377722451132415e+17
19330.0	4.3768603329167354e+17
19331.0	4.3760294433914874e+17
19332.0	4.3752107075611296e+17
19333.0	4.374359298102613e+17
19334.0	4.3735539050523315e+17
19335.0	4.3726233574659405e+17
19336.0	4.371861504786431e+17
19337.0	4.3710465172657485e+17
19338.0	4.370073863760553e+17
19339.0	4.3693596422963194e+17
19340.0	4.3684323655679994e+17
19341.0	4.367636074157396e+17
19342.0	4.366507237354153e+17
19343.0	4.3660058397682336e+17
19344.0	4.365121859442004e+17
19345.0	4.3628386613985235e+17
19346.0	4.362966876378452e+17
19347.0	4.362524511524181e+17
19348.0	4.3617736598050125e+17
19349.0	4.360885014014634e+17
19350.0	4.360013519432362e+17
19351.0	4.359189510662826e+17
19352.0	4.3582618256889165e+17
19353.0	4.3575048880346445e+17
19354.0	4.356646326588757e+17
19355.0	4.355720708707668e+17
19356.0	4.35491455439121e+17
19357.0	4.354054593445887e+17
19358.0	4.353159243060565e+17
19359.0	4.3522268136297805e+17
19360.0	4.351376791786838e+17
19361.0	4.350531749281791e+17
19362.0	4.349689543524351e+17
19363.0	4.348808651603968e+17
19364.0	4.3479182868479994e+17
19365.0	4.347035870997161e+17
19366.0	4.346147639743829e+17
19367.0	4.3452456763391994e+17
19368.0	4.3443574492801696e+17
19369.0	4.3433829390964045e+17
19370.0	4.3423747975850656e+17
19371.0	4.341605729304575e+17
19372.0	4.3407267870365005e+17
19373.0	4.339783260176383e+17
19374.0	4.33882069606946e+17
19375.0	4.336238732159659e+17
19376.0	4.335310466274644e+17
19377.0	4.3343599020714656e+17
19378.0	4.3334132679311354e+17
19379.0	4.3324590071480314e+17
19380.0	4.3314968750544205e+17
19381.0	4.33052321911057e+17
19382.0	4.3294990980000416e+17
19383.0	4.3284881092553376e+17
19384.0	4.32755924078865e+17
19385.0	4.3265618870271994e+17
19386.0	4.3255510814337696e+17
19387.0	4.3245200844608845e+17
19388.0	4.323491998334975e+17
19389.0	4.322444881952768e+17
19390.0	4.3213748835450874e+17
19391.0	4.267804814824708e+17
19392.0	4.318957880912551e+17
19393.0	4.318129255612415e+17
19394.0	4.315202791145472e+17
19395.0	4.313681178045098e+17
19396.0	4.312532998509909e+17
19397.0	4.311471964028928e+17
19398.0	4.3102106431433376e+17
19399.0	4.308506735105364e+17
19400.0	4.3077602223936845e+17
19401.0	4.3065328159511885e+17
19402.0	4.304393414726993e+17
19403.0	4.3014535340796576e+17
19404.0	4.3000895016796154e+17
19405.0	4.2986673613919565e+17
19406.0	4.297232969542315e+17
19407.0	4.295046183867735e+17
19408.0	4.2908299464540166e+17
19409.0	4.2897463682880845e+17
19410.0	4.2881023444254714e+17
19411.0	4.2840028533664403e+17
19412.0	4.2813176522560845e+17
19413.0	4.278837275787267e+17
19414.0	4.2737174825314976e+17
19415.0	4.2711431068166835e+17
19416.0	4.264909748218537e+17
19417.0	4.259947462961833e+17
19418.0	4.2554141089027437e+17
19419.0	4.2502158835602784e+17
19420.0	4.2472937392264525e+17
19421.0	4.244117856277845e+17
19422.0	4.240725412326057e+17
19423.0	4.23717313183744e+17
19424.0	4.2333789993915725e+17
19425.0	4.229336696968534e+17
19426.0	4.2250116649014605e+17
19427.0	4.220344827816617e+17
19428.0	4.215157729962666e+17
19429.0	4.209533185075882e+17
19430.0	4.2031068989795014e+17
19431.0	4.188254029654718e+17
19432.0	4.191682606836394e+17
19433.0	4.184856558130517e+17
19434.0	4.176995360090794e+17
19435.0	4.167689962520575e+17
19436.0	4.155222621072034e+17
19437.0	4.1500924811673594e+17
19438.0	4.047286436189539e+17
19439.0	4.121852639182861e+17
19440.0	4.10059224977682e+17
19441.0	4.0623253417710886e+17
19442.0	4.023553318628011e+17
19443.0	3.996180200904021e+17
19444.0	3.965776031645694e+17
19445.0	3.93209129799953e+17
19446.0	3.8934419281892717e+17
19447.0	3.8227624874475456e+17
19448.0	3.710748856068784e+17
19449.0	3.5717215364492096e+17
19450.0	3.092555114392235e+17
19451.0	2.9284056607402586e+17
19452.0	3.375030107548333e+17
19453.0	3.659324839340721e+17
19454.0	3.761714936588964e+17
19455.0	3.8626770984195437e+17
19456.0	3.9072575866798074e+17
19457.0	3.9417617293421203e+17
19458.0	3.813057368512114e+17
19459.0	3.9969614662205824e+17
19460.0	4.027642917421042e+17
19461.0	4.07063393713085e+17
19462.0	4.0976928469592806e+17
19463.0	4.113985833358677e+17
19464.0	4.125434254633643e+17
19465.0	4.1344202671390726e+17
19466.0	4.1415925311733734e+17
19467.0	4.148939878039551e+17
19468.0	4.1560272745267206e+17
19469.0	4.161171962374825e+17
19470.0	4.166550117067434e+17
19471.0	4.171187337472683e+17
19472.0	4.175310458541397e+17
19473.0	4.1791600837263354e+17
19474.0	4.1832340433578656e+17
19475.0	4.185932986406227e+17
19476.0	4.1893604604859725e+17
19477.0	4.191998484763987e+17
19478.0	4.194350167403178e+17
19479.0	4.196397203062783e+17
19480.0	4.1983116085384525e+17
19481.0	4.2000085603232416e+17
19482.0	4.201545216993962e+17
19483.0	4.2036831271430835e+17
19484.0	4.2065070975003296e+17
19485.0	4.2114791519900954e+17
19486.0	4.2135595484446726e+17
19487.0	4.2173455502322336e+17
19488.0	4.2183026959974394e+17
19489.0	4.2217819983926605e+17
19490.0	4.221057462435838e+17
19491.0	4.223626737177937e+17
19492.0	4.2255866927950483e+17
19493.0	4.225648059656874e+17
19494.0	4.225656727186091e+17
19495.0	4.2277012071164563e+17
19496.0	4.227936991313919e+17
19497.0	4.228089587083946e+17
19498.0	4.224469817447773e+17
19499.0	4.1464400945260544e+17
19500.0	4.228120260728148e+17
19501.0	4.2295357761126394e+17
19502.0	4.229191215437141e+17
19503.0	4.2288942111784954e+17
19504.0	4.2285210299706016e+17
19505.0	4.2281684644659194e+17
19506.0	4.227767364572502e+17
19507.0	4.227343233755818e+17
19508.0	4.226926805778431e+17
19509.0	4.2264750785385805e+17
19510.0	4.2271292466571936e+17
19511.0	4.099217507221406e+17
19512.0	4.215446179938269e+17
19513.0	4.203190813720535e+17
19514.0	4.209365696730429e+17
19515.0	4.2244160220037126e+17
19516.0	4.2248503009389216e+17
19517.0	4.2242574912935245e+17
19518.0	4.2237322420988576e+17
19519.0	4.223117853458431e+17
19520.0	4.222527345087829e+17
19521.0	4.221995120066559e+17
19522.0	4.221366881135274e+17
19523.0	4.220780945255082e+17
19524.0	4.2201471432785914e+17
19525.0	4.2195455535568205e+17
19526.0	4.218936264491008e+17
19527.0	4.2183028994211834e+17
19528.0	4.217662462754815e+17
19529.0	4.217018785289557e+17
19530.0	4.2163883772040525e+17
19531.0	4.2157388892296525e+17
19532.0	4.21508505735441e+17
19533.0	4.2144249193431034e+17
19534.0	4.2137632650909005e+17
19535.0	4.213086475692714e+17
19536.0	4.2127473711076685e+17
19537.0	4.2133551201648634e+17
19538.0	4.212595702977877e+17
19539.0	4.211584486342656e+17
19540.0	4.211293188434601e+17
19541.0	4.21061413900561e+17
19542.0	4.209926669511338e+17
19543.0	4.209202757806762e+17
19544.0	4.2085419878536525e+17
19545.0	4.207555794436094e+17
19546.0	4.2064961356868256e+17
19547.0	4.206453755740159e+17
19548.0	4.2057501081163085e+17
19549.0	4.2049818304621216e+17
19550.0	4.204341561567914e+17
19551.0	4.203635572823381e+17
19552.0	4.20292555964416e+17
19553.0	4.202200499399338e+17
19554.0	4.201471534257493e+17
19555.0	4.200774947045376e+17
19556.0	4.200067923705855e+17
19557.0	4.1993545397043206e+17
19558.0	4.198634600005631e+17
19559.0	4.197916410729813e+17
19560.0	4.1971707732295674e+17
19561.0	4.196462355983017e+17
19562.0	4.195740804273493e+17
19563.0	4.1950363988787194e+17
19564.0	4.194312880040618e+17
19565.0	4.1935863902371834e+17
19566.0	4.1928415915977376e+17
19567.0	4.192135684642132e+17
19568.0	4.191393255085396e+17
19569.0	4.190666401775615e+17
19570.0	4.189952200583849e+17
19571.0	4.189220139346602e+17
19572.0	4.18847069901073e+17
19573.0	4.187745484974762e+17
19574.0	4.1869696596705274e+17
19575.0	4.1862978992428365e+17
19576.0	4.185562332965546e+17
19577.0	4.1847912542153376e+17
19578.0	4.184068965706411e+17
19579.0	4.1833487701551763e+17
19580.0	4.182614879502336e+17
19581.0	4.1818864749991245e+17
19582.0	4.181164011727529e+17
19583.0	4.1804285384239776e+17
19584.0	4.179671649004202e+17
19585.0	4.1788823250315936e+17
19586.0	4.1781185898086394e+17
19587.0	4.1772288031675725e+17
19588.0	4.1764171899644576e+17
19589.0	4.1759759421931514e+17
19590.0	4.1751716767115936e+17
19591.0	4.1745230912116045e+17
19592.0	4.1737916961696416e+17
19593.0	4.173038318780415e+17
19594.0	4.172113178350932e+17
19595.0	4.171556226509482e+17
19596.0	4.167232298243415e+17
19597.0	4.1700544028344314e+17
19598.0	4.1690579522464416e+17
19599.0	4.1686160459694074e+17
19600.0	4.1678825495811405e+17
19601.0	4.1670976282296314e+17
19602.0	4.1663703939372365e+17
19603.0	4.164714813369001e+17
19604.0	4.1648550953615354e+17
19605.0	4.163978875196757e+17
19606.0	4.1634340595739296e+17
19607.0	4.162699733412523e+17
19608.0	4.1619442854352205e+17
19609.0	4.161174557949951e+17
19610.0	4.160458802768555e+17
19611.0	4.159702225125376e+17
19612.0	4.1589949473314125e+17
19613.0	4.158245663582891e+17
19614.0	4.157486749712383e+17
19615.0	4.156765534246228e+17
19616.0	4.1555257951518714e+17
19617.0	4.155256334887594e+17
19618.0	4.15415882883618e+17
19619.0	4.153301706735614e+17
19620.0	4.152586958886228e+17
19621.0	4.152278527945386e+17
19622.0	4.151581232594943e+17
19623.0	4.1508344668269216e+17
19624.0	4.1500865727911245e+17
19625.0	4.149351899900586e+17
19626.0	4.1486105028416845e+17
19627.0	4.147869617487872e+17
19628.0	4.1461614116864026e+17
19629.0	4.1462371552242336e+17
19630.0	4.1446960302216557e+17
19631.0	4.103064613726879e+17
19632.0	4.144150656057343e+17
19633.0	4.1433229744756045e+17
19634.0	4.142680838417066e+17
19635.0	4.1419054416308896e+17
19636.0	4.141141518363306e+17
19637.0	4.1401918328668154e+17
19638.0	4.1396995397167776e+17
19639.0	4.1389464510354765e+17
19640.0	4.138178533392383e+17
19641.0	4.136738809883309e+17
19642.0	4.136738191922516e+17
19643.0	4.135982044195498e+17
19644.0	4.135224537513983e+17
19645.0	4.134333293352277e+17
19646.0	4.133741116347733e+17
19647.0	4.133043037361493e+17
19648.0	4.1323009957778765e+17
19649.0	4.131558331340117e+17
19650.0	4.1308220932751354e+17
19651.0	4.13007875215633e+17
19652.0	4.1293373879528096e+17
19653.0	4.128580016188074e+17
19654.0	4.127857037716138e+17
