# Flux units: erg / (cm m2 s)
# Wavelength units: Angstrom
wave	flux
19000.0	6.735713468241236e+17
19001.0	6.734456812120746e+17
19002.0	6.733217382006783e+17
19003.0	6.731968665703764e+17
19004.0	6.73071968026624e+17
19005.0	6.729470854212265e+17
19006.0	6.728221466121555e+17
19007.0	6.72697178722577e+17
19008.0	6.725716641054719e+17
19009.0	6.724465030681939e+17
19010.0	6.723179597441705e+17
19011.0	6.721968009117695e+17
19012.0	6.720713242531155e+17
19013.0	6.719469005045759e+17
19014.0	6.718225509253119e+17
19015.0	6.717085784735743e+17
19016.0	6.715828660950356e+17
19017.0	6.71458094289169e+17
19018.0	6.713328931962879e+17
19019.0	6.712076760252415e+17
19020.0	6.710823697252351e+17
19021.0	6.709570980282367e+17
19022.0	6.708318303857322e+17
19023.0	6.707065122717695e+17
19024.0	6.705810890904915e+17
19025.0	6.704558316541267e+17
19026.0	6.703302084744532e+17
19027.0	6.702044628211027e+17
19028.0	6.700797616193535e+17
19029.0	6.699543770955775e+17
19030.0	6.698290196250623e+17
19031.0	6.697036116131839e+17
19032.0	6.695781922766847e+17
19033.0	6.694519644880895e+17
19034.0	6.693273068371967e+17
19035.0	6.692016964501503e+17
19036.0	6.690318351073279e+17
19037.0	6.689508437262333e+17
19038.0	6.688255003066365e+17
19039.0	6.687000499322879e+17
19040.0	6.685745771883178e+17
19041.0	6.684491009490943e+17
19042.0	6.683236171601236e+17
19043.0	6.681981282680831e+17
19044.0	6.680726141403135e+17
19045.0	6.679471308406783e+17
19046.0	6.678211865870335e+17
19047.0	6.676959947915263e+17
19048.0	6.675687997964287e+17
19049.0	6.674450942525439e+17
19050.0	6.673195646058496e+17
19051.0	6.671872206831615e+17
19052.0	6.670674380718079e+17
19053.0	6.669430230614015e+17
19054.0	6.668175158542335e+17
19055.0	6.666904315887615e+17
19056.0	6.665664813072381e+17
19057.0	6.664409600491519e+17
19058.0	6.663154398396415e+17
19059.0	6.661899032024404e+17
19060.0	6.660641925016233e+17
19061.0	6.659388752265215e+17
19062.0	6.658133193654271e+17
19063.0	6.656878132068351e+17
19064.0	6.655614707739306e+17
19065.0	6.654362183008255e+17
19066.0	6.65311296758306e+17
19067.0	6.651857829101565e+17
19068.0	6.650602710892543e+17
19069.0	6.649347756261375e+17
19070.0	6.648091897757695e+17
19071.0	6.646837725364223e+17
19072.0	6.645582772830207e+17
19073.0	6.64432737989427e+17
19074.0	6.643072943259647e+17
19075.0	6.641818041057279e+17
19076.0	6.640561370955775e+17
19077.0	6.639307241204393e+17
19078.0	6.638051322582355e+17
19079.0	6.636798962827263e+17
19080.0	6.635544308088831e+17
19081.0	6.634289647058943e+17
19082.0	6.633031187387732e+17
19083.0	6.631779239373482e+17
19084.0	6.630505602613245e+17
19085.0	6.62927148388625e+17
19086.0	6.627988596588543e+17
19087.0	6.626751171351892e+17
19088.0	6.625506585040212e+17
19089.0	6.624233284523348e+17
19090.0	6.62299939578402e+17
19091.0	6.621745070997503e+17
19092.0	6.620489017458687e+17
19093.0	6.619237751717887e+17
19094.0	6.617982174931626e+17
19095.0	6.61672785224226e+17
19096.0	6.615474664112127e+17
19097.0	6.614222155459242e+17
19098.0	6.612968680019284e+17
19099.0	6.611714923560959e+17
19100.0	6.610461292931753e+17
19101.0	6.609207562338303e+17
19102.0	6.607945363445076e+17
19103.0	6.606700790415359e+17
19104.0	6.605447394667178e+17
19105.0	6.604193965364564e+17
19106.0	6.60293851231027e+17
19107.0	6.601686114107391e+17
19108.0	6.600433954979839e+17
19109.0	6.599146674847744e+17
19110.0	6.597926107916969e+17
19111.0	6.596675138573652e+17
19112.0	6.595422342610943e+17
19113.0	6.594169520783359e+17
19114.0	6.592916686372863e+17
19115.0	6.591661199764137e+17
19116.0	6.590411165750612e+17
19117.0	6.589158057312255e+17
19118.0	6.587901333383849e+17
19119.0	6.586271883329535e+17
19120.0	6.585396854347092e+17
19121.0	6.58414571163921e+17
19122.0	6.582896258536788e+17
19123.0	6.581643938627583e+17
19124.0	6.580390720438271e+17
19125.0	6.579136932522666e+17
19126.0	6.577883727615316e+17
19127.0	6.576481190805504e+17
19128.0	6.575379307997865e+17
19129.0	6.574128133133651e+17
19130.0	6.572876830343167e+17
19131.0	6.571624657234602e+17
19132.0	6.570372595275092e+17
19133.0	6.569116418703359e+17
19134.0	6.567869429754538e+17
19135.0	6.566617606870356e+17
19136.0	6.565365909815295e+17
19137.0	6.56410032611874e+17
19138.0	6.562861351086761e+17
19139.0	6.561611034656767e+17
19140.0	6.560359590658047e+17
19141.0	6.559108064870399e+17
19142.0	6.55785641325363e+17
19143.0	6.556600377890131e+17
19144.0	6.555352844380842e+17
19145.0	6.554102205688489e+17
19146.0	6.552798943161001e+17
19147.0	6.551591767943849e+17
19148.0	6.550347787709097e+17
19149.0	6.549096533852159e+17
19150.0	6.547844606809427e+17
19151.0	6.546593998176255e+17
19152.0	6.545342547886079e+17
19153.0	6.544091261173759e+17
19154.0	6.54282902802705e+17
19155.0	6.541588577998163e+17
19156.0	6.540336943857663e+17
19157.0	6.539084294695593e+17
19158.0	6.537812039958527e+17
19159.0	6.536580918760788e+17
19160.0	6.535331264331776e+17
19161.0	6.534079924491604e+17
19162.0	6.532775077915305e+17
19163.0	6.531574823299753e+17
19164.0	6.530326274069844e+17
19165.0	6.529073794777087e+17
19166.0	6.527812504649725e+17
19167.0	6.526566890034516e+17
19168.0	6.525319094381225e+17
19169.0	6.524067098831529e+17
19170.0	6.522817107460095e+17
19171.0	6.521562529617236e+17
19172.0	6.520313681193641e+17
19173.0	6.51906201559586e+17
19174.0	6.517805375553533e+17
19175.0	6.516558422256297e+17
19176.0	6.515306461659135e+17
19177.0	6.514041049929044e+17
19178.0	6.512800524402687e+17
19179.0	6.511545766903807e+17
19180.0	6.510297017745407e+17
19181.0	6.509034938389844e+17
19182.0	6.507791291602259e+17
19183.0	6.50654010974754e+17
19184.0	6.505286414106623e+17
19185.0	6.504034142431914e+17
19186.0	6.50278151004706e+17
19187.0	6.501528114997929e+17
19188.0	6.500275110019071e+17
19189.0	6.499022249743699e+17
19190.0	6.497768526839805e+17
19191.0	6.496514504043178e+17
19192.0	6.49526125928994e+17
19193.0	6.494007144218623e+17
19194.0	6.492753051516927e+17
19195.0	6.491498486956032e+17
19196.0	6.49024269136691e+17
19197.0	6.488987220836351e+17
19198.0	6.487728044638205e+17
19199.0	6.486151597304489e+17
19200.0	6.484989248711337e+17
19201.0	6.483963321952938e+17
19202.0	6.482712082776063e+17
19203.0	6.481457323180031e+17
19204.0	6.480199411564543e+17
19205.0	6.478945465663487e+17
19206.0	6.477688013324287e+17
19207.0	6.476430089125887e+17
19208.0	6.47515627061248e+17
19209.0	6.473917870899197e+17
19210.0	6.472660244496383e+17
19211.0	6.470012600582143e+17
19212.0	6.468351507300351e+17
19213.0	6.467085184008191e+17
19214.0	6.465824098003625e+17
19215.0	6.464575693477204e+17
19216.0	6.463318136979453e+17
19217.0	6.462058752464211e+17
19218.0	6.460729601294335e+17
19219.0	6.459525700430505e+17
19220.0	6.458279389560831e+17
19221.0	6.45699133837585e+17
19222.0	6.455756812801363e+17
19223.0	6.454495890374655e+17
19224.0	6.453233962014035e+17
19225.0	6.451959610124969e+17
19226.0	6.450708958150655e+17
19227.0	6.449445797363711e+17
19228.0	6.448181982265343e+17
19229.0	6.446917541516627e+17
19230.0	6.445652338802685e+17
19231.0	6.444387406621353e+17
19232.0	6.443120626849108e+17
19233.0	6.441852951592959e+17
19234.0	6.440585678989993e+17
19235.0	6.439320132343124e+17
19236.0	6.437447797833727e+17
19237.0	6.43606635417873e+17
19238.0	6.434794260223316e+17
19239.0	6.43352715329536e+17
19240.0	6.432253673122474e+17
19241.0	6.430982845846868e+17
19242.0	6.429710748396201e+17
19243.0	6.428423001997311e+17
19244.0	6.427162870895956e+17
19245.0	6.425887725584383e+17
19246.0	6.424610384554665e+17
19247.0	6.423334884125356e+17
19248.0	6.422057283747839e+17
19249.0	6.420778632697172e+17
19250.0	6.419498714966697e+17
19251.0	6.418209260787027e+17
19252.0	6.416912328163327e+17
19253.0	6.415654345943721e+17
19254.0	6.414371733372927e+17
19255.0	6.413071070614867e+17
19256.0	6.40974701269265e+17
19257.0	6.4082975653888e+17
19258.0	6.407010890634579e+17
19259.0	6.405723081321129e+17
19260.0	6.404426083685716e+17
19261.0	6.403143929692159e+17
19262.0	6.401852529355433e+17
19263.0	6.400556834051412e+17
19264.0	6.399221328510975e+17
19265.0	6.397953805647872e+17
19266.0	6.396656866033663e+17
19267.0	6.395376353411071e+17
19268.0	6.394077016752127e+17
19269.0	6.392776109326335e+17
19270.0	6.391473339629567e+17
19271.0	6.390141169259859e+17
19272.0	6.388861085155327e+17
19273.0	6.387482514598569e+17
19274.0	6.386189724549119e+17
19275.0	6.384937906558292e+17
19276.0	6.383625837390506e+17
19277.0	6.382311796200788e+17
19278.0	6.38099596124706e+17
19279.0	6.379678020752723e+17
19280.0	6.376576310575105e+17
19281.0	6.374326404819625e+17
19282.0	6.373003675129172e+17
19283.0	6.371674482715306e+17
19284.0	6.370350141713066e+17
19285.0	6.36900818882833e+17
19286.0	6.367690432883369e+17
19287.0	6.366356605064532e+17
19288.0	6.364903814201344e+17
19289.0	6.363389381050365e+17
19290.0	6.362340484186111e+17
19291.0	6.360974869135359e+17
19292.0	6.359651364197716e+17
19293.0	6.358301897916415e+17
19294.0	6.356950965725865e+17
19295.0	6.355596552262998e+17
19296.0	6.352910331936767e+17
19297.0	6.35124846760209e+17
19298.0	6.349885469797033e+17
19299.0	6.348519172472831e+17
19300.0	6.347149402264916e+17
19301.0	6.345776017965055e+17
19302.0	6.343747681910783e+17
19303.0	6.341936508043264e+17
19304.0	6.3405500137472e+17
19305.0	6.339162647035903e+17
19306.0	6.337768668004351e+17
19307.0	6.336368448547497e+17
19308.0	6.334967739056127e+17
19309.0	6.333549998593364e+17
19310.0	6.332135505919999e+17
19311.0	6.330734056833023e+17
19312.0	6.329315677437951e+17
19313.0	6.327890507464703e+17
19314.0	6.326050497058131e+17
19315.0	6.324648770448042e+17
19316.0	6.323586536396116e+17
19317.0	6.322143504979284e+17
19318.0	6.320693649429844e+17
19319.0	6.31923824202001e+17
19320.0	6.317777005925716e+17
19321.0	6.316310046703616e+17
19322.0	6.314830066264746e+17
19323.0	6.313353286778879e+17
19324.0	6.311872329766227e+17
19325.0	6.310372568290644e+17
19326.0	6.30888507515426e+17
19327.0	6.305922275431764e+17
19328.0	6.304319363437908e+17
19329.0	6.302792496272724e+17
19330.0	6.301254476453204e+17
19331.0	6.299714433581055e+17
19332.0	6.298164642447359e+17
19333.0	6.296606508843005e+17
19334.0	6.295040123644585e+17
19335.0	6.293465216319487e+17
19336.0	6.291881029096788e+17
19337.0	6.2902874158749e+17
19338.0	6.288667137365331e+17
19339.0	6.287072718837075e+17
19340.0	6.285439078673066e+17
19341.0	6.281729729888256e+17
19342.0	6.280027160532308e+17
19343.0	6.278384445292543e+17
19344.0	6.27669991493905e+17
19345.0	6.274835434263891e+17
19346.0	6.273227275195732e+17
19347.0	6.271567260549119e+17
19348.0	6.269838247504553e+17
19349.0	6.268089786171391e+17
19350.0	6.264341844197373e+17
19351.0	6.261790883184639e+17
19352.0	6.259972950196223e+17
19353.0	6.258141673029631e+17
19354.0	6.256292622499839e+17
19355.0	6.25441925968691e+17
19356.0	6.252542565897556e+17
19357.0	6.247465995643558e+17
19358.0	6.245204902281215e+17
19359.0	6.243213800461652e+17
19360.0	6.241206462491305e+17
19361.0	6.239175885979647e+17
19362.0	6.234287640674299e+17
19363.0	6.230729119760383e+17
19364.0	6.228564755436884e+17
19365.0	6.22637371953425e+17
19366.0	6.221916650078209e+17
19367.0	6.216699719538004e+17
19368.0	6.21433369936964e+17
19369.0	6.211930375061503e+17
19370.0	6.203453349735078e+17
19371.0	6.200788671354195e+17
19372.0	6.198185783459839e+17
19373.0	6.192012527140863e+17
19374.0	6.189198189701801e+17
19375.0	6.186349593187667e+17
19376.0	6.183473312869033e+17
19377.0	6.180554447781887e+17
19378.0	6.177581406967124e+17
19379.0	6.17455175143697e+17
19380.0	6.171465482589524e+17
19381.0	6.168318773821439e+17
19382.0	6.165103079238314e+17
19383.0	6.161827011144361e+17
19384.0	6.158495852964521e+17
19385.0	6.155087577612287e+17
19386.0	6.151609309113001e+17
19387.0	6.148053936723284e+17
19388.0	6.144364006866944e+17
19389.0	6.140591712064852e+17
19390.0	6.136760933984938e+17
19391.0	6.132516128467625e+17
19392.0	6.128926433389225e+17
19393.0	6.124936366828202e+17
19394.0	6.120888868361556e+17
19395.0	6.11679730803234e+17
19396.0	6.112661904643412e+17
19397.0	6.10848462672145e+17
19398.0	6.104266962545321e+17
19399.0	6.099958447647401e+17
19400.0	6.095692658027178e+17
19401.0	6.091148346348883e+17
19402.0	6.086489135906813e+17
19403.0	6.081752548944553e+17
19404.0	6.076939290804221e+17
19405.0	6.07204810039842e+17
19406.0	6.067043845537791e+17
19407.0	6.061785585025023e+17
19408.0	6.056609509801983e+17
19409.0	6.051465166585855e+17
19410.0	6.046181893341183e+17
19411.0	6.040801731674111e+17
19412.0	6.035321844137983e+17
19413.0	6.029746274041856e+17
19414.0	6.02363918286848e+17
19415.0	6.01766768026146e+17
19416.0	6.011766349059412e+17
19417.0	6.005763129824595e+17
19418.0	5.998740887655764e+17
19419.0	5.992178191608489e+17
19420.0	5.985259686461437e+17
19421.0	5.977200251633664e+17
19422.0	5.96925503119906e+17
19423.0	5.960415520139948e+17
19424.0	5.949589186849449e+17
19425.0	5.93776513419401e+17
19426.0	5.923799000154106e+17
19427.0	5.906579491302054e+17
19428.0	5.887205369184255e+17
19429.0	5.860193174115672e+17
19430.0	5.832953095520253e+17
19431.0	5.816191129310548e+17
19432.0	5.799707656497833e+17
19433.0	5.782391452860415e+17
19434.0	5.7642401954529274e+17
19435.0	5.744996426711038e+17
19436.0	5.724387729386154e+17
19437.0	5.702640460977494e+17
19438.0	5.6785887287050214e+17
19439.0	5.6521555684884474e+17
19440.0	5.6191185276545696e+17
19441.0	5.5763120174748896e+17
19442.0	5.5181826319537504e+17
19443.0	5.4512927267007174e+17
19444.0	5.398380465356796e+17
19445.0	5.336470743154691e+17
19446.0	5.258341594256724e+17
19447.0	5.153091547212453e+17
19448.0	5.009221679229615e+17
19449.0	4.8029724276599443e+17
19450.0	4.443206092237472e+17
19451.0	4.277946747453426e+17
19452.0	4.646142311312046e+17
19453.0	4.9166980998321594e+17
19454.0	5.0837714160844755e+17
19455.0	5.204515103266128e+17
19456.0	5.291589820394156e+17
19457.0	5.358731509716305e+17
19458.0	5.4118117955775155e+17
19459.0	5.4688549353553926e+17
19460.0	5.532850167567697e+17
19461.0	5.5799608319672326e+17
19462.0	5.615303994813101e+17
19463.0	5.642328754618367e+17
19464.0	5.6654149483233274e+17
19465.0	5.685824114917377e+17
19466.0	5.704533555893587e+17
19467.0	5.722437540205908e+17
19468.0	5.738849017091413e+17
19469.0	5.7543218164312723e+17
19470.0	5.769125902505302e+17
19471.0	5.782952166293504e+17
19472.0	5.802223363686399e+17
19473.0	5.828846223884288e+17
19474.0	5.849938195906563e+17
19475.0	5.865224548646917e+17
19476.0	5.878027508514813e+17
19477.0	5.888742063603713e+17
19478.0	5.897426000936961e+17
19479.0	5.904555764088831e+17
19480.0	5.911506925387775e+17
19481.0	5.916651143473833e+17
19482.0	5.922201280009556e+17
19483.0	5.926411112022015e+17
19484.0	5.931170521590442e+17
19485.0	5.935295179172521e+17
19486.0	5.938987555007146e+17
19487.0	5.942576263725055e+17
19488.0	5.946512355885055e+17
19489.0	5.949989071093759e+17
19490.0	5.953145344273065e+17
19491.0	5.956408433093289e+17
19492.0	5.959457906010794e+17
19493.0	5.962416583431508e+17
19494.0	5.965288651969876e+17
19495.0	5.968131221968212e+17
19496.0	5.970999545692159e+17
19497.0	5.973656712773631e+17
19498.0	5.976173498597375e+17
19499.0	5.978100140255914e+17
19500.0	5.9810648176285e+17
19501.0	5.983371391926271e+17
19502.0	5.985483988052649e+17
19503.0	5.987444539959978e+17
19504.0	5.989367108250282e+17
19505.0	5.991247574816083e+17
19506.0	5.99308338532625e+17
19507.0	5.994871233970176e+17
19508.0	5.996615045917353e+17
19509.0	5.998306024314195e+17
19510.0	5.999927163355135e+17
19511.0	6.000785812881407e+17
19512.0	6.002956488234324e+17
19513.0	6.00431887716625e+17
19514.0	6.005784220183209e+17
19515.0	6.007139805254996e+17
19516.0	6.008353406844927e+17
19517.0	6.009453532239188e+17
19518.0	6.010492817156777e+17
19519.0	6.011459188293631e+17
19520.0	6.012358904250367e+17
19521.0	6.013198215238996e+17
19522.0	6.013973795875497e+17
19523.0	6.01469171671586e+17
19524.0	6.015352667723092e+17
19525.0	6.015957343753556e+17
19526.0	6.016509054113108e+17
19527.0	6.017005092077568e+17
19528.0	6.017451238795945e+17
19529.0	6.019148089218388e+17
19530.0	6.021547846270975e+17
19531.0	6.021799549250217e+17
19532.0	6.02388345493914e+17
19533.0	6.027856862423721e+17
19534.0	6.027905072452948e+17
19535.0	6.027920213890387e+17
19536.0	6.031657335958185e+17
19537.0	6.032567824285695e+17
19538.0	6.032406068155732e+17
19539.0	6.032187976231593e+17
19540.0	6.03374962815795e+17
19541.0	6.035714545636692e+17
19542.0	6.035404371962538e+17
19543.0	6.035073138687999e+17
19544.0	6.034721244971007e+17
19545.0	6.034310851898025e+17
19546.0	6.03698363507234e+17
19547.0	6.0366864791197e+17
19548.0	6.036216703789737e+17
19549.0	6.035722125443071e+17
19550.0	6.035227987498324e+17
19551.0	6.034709930835967e+17
19552.0	6.034178970397354e+17
19553.0	6.035647946380627e+17
19554.0	6.035552667172864e+17
19555.0	6.034958305634986e+17
19556.0	6.034347751287465e+17
19557.0	6.033724302251348e+17
19558.0	6.033089216118781e+17
19559.0	6.032442270591658e+17
19560.0	6.031783908169044e+17
19561.0	6.031114267262976e+17
19562.0	6.030433794566825e+17
19563.0	6.031402874525012e+17
19564.0	6.030924273680383e+17
19565.0	6.030198095653546e+17
19566.0	6.029461005445801e+17
19567.0	6.028718294870697e+17
19568.0	6.027965323629907e+17
19569.0	6.027203131211775e+17
19570.0	6.026434980784809e+17
19571.0	6.025658325707434e+17
19572.0	6.024873699355306e+17
19573.0	6.024081036716714e+17
19574.0	6.0232823223965e+17
19575.0	6.022475734668627e+17
19576.0	6.02166213406447e+17
19577.0	6.020841598877696e+17
19578.0	6.020390790889472e+17
19579.0	6.020555287298047e+17
19580.0	6.019709148681556e+17
19581.0	6.018856115328339e+17
19582.0	6.018000032716116e+17
19583.0	6.017136858933929e+17
19584.0	6.016268130495145e+17
19585.0	6.015387842554537e+17
19586.0	6.014503579112788e+17
19587.0	6.013629589618687e+17
19588.0	6.012704003893929e+17
19589.0	6.01184903696657e+17
19590.0	6.01094591873024e+17
19591.0	6.01004888433186e+17
19592.0	6.009141922015914e+17
19593.0	6.008231107231744e+17
19594.0	6.007295101457748e+17
19595.0	6.006395546981716e+17
19596.0	6.005457990713344e+17
19597.0	6.004546311203498e+17
19598.0	6.003589895946239e+17
19599.0	6.002681761322324e+17
19600.0	6.001744298027689e+17
19601.0	6.000800183965012e+17
19602.0	5.999855109406719e+17
19603.0	5.998873752021674e+17
19604.0	5.997960200454143e+17
19605.0	5.996983524611412e+17
19606.0	5.996051834776234e+17
19607.0	5.995092819050495e+17
19608.0	5.994136538710015e+17
19609.0	5.994095551971328e+17
19610.0	5.993128739034452e+17
19611.0	5.993531892039677e+17
19612.0	5.992606365035178e+17
19613.0	5.991627943662932e+17
19614.0	5.990647097283924e+17
19615.0	5.989663931454804e+17
19616.0	5.988675245222569e+17
19617.0	5.987690967902889e+17
19618.0	5.986710186535593e+17
19619.0	5.98577965572642e+17
19620.0	5.984790085195092e+17
19621.0	5.983850867283284e+17
19622.0	5.982853379304105e+17
19623.0	5.981853879457107e+17
19624.0	5.980852513144831e+17
19625.0	5.979849355165695e+17
19626.0	5.978844494299133e+17
19627.0	5.977837739704319e+17
19628.0	5.976821852012544e+17
19629.0	5.977780229505025e+17
19630.0	5.977111535812608e+17
19631.0	5.975771070507689e+17
19632.0	5.975106097162921e+17
19633.0	5.974091153189546e+17
19634.0	5.973073479423318e+17
19635.0	5.972054157295615e+17
19636.0	5.971033369258665e+17
19637.0	5.969979275651754e+17
19638.0	5.968987085777578e+17
19639.0	5.967963241491114e+17
19640.0	5.96693408022528e+17
19641.0	5.96583799394577e+17
19642.0	5.964882557359444e+17
19643.0	5.963853331081897e+17
19644.0	5.962820395641514e+17
19645.0	5.961768527112874e+17
19646.0	5.960759813778089e+17
19647.0	5.959726690992127e+17
19648.0	5.958692637070676e+17
19649.0	5.957657205320361e+17
19650.0	5.956621444317183e+17
19651.0	5.955584544560468e+17
19652.0	5.954546784971434e+17
19653.0	5.953508014555135e+17
19654.0	5.952468803736916e+17
19655.0	5.951428201807871e+17
19656.0	5.950387032948735e+17
19657.0	5.949345945878527e+17
19658.0	5.948303500552874e+17
19659.0	5.947260204482559e+17
19660.0	5.946216512050516e+17
19661.0	5.9464962015232e+17
19662.0	5.945978093830143e+17
19663.0	5.944927710085119e+17
19664.0	5.943882896375808e+17
19665.0	5.942836279115776e+17
