# Flux units: erg / (cm m2 s)
# Wavelength units: Angstrom
wave	flux
19000.0	3.1302521209924256e+17
19001.0	3.1297652496793594e+17
19002.0	3.1292604201041914e+17
19003.0	3.1287569243176954e+17
19004.0	3.127935341253973e+17
19005.0	3.1275778726079136e+17
19006.0	3.12706925592576e+17
19007.0	3.126628251424085e+17
19008.0	3.126099343048704e+17
19009.0	3.12559217479953e+17
19010.0	3.1249281343378765e+17
19011.0	3.124388411648682e+17
19012.0	3.123567911763967e+17
19013.0	3.123535114403839e+17
19014.0	3.1227938389797536e+17
19015.0	3.1222013795587405e+17
19016.0	3.1217664882551456e+17
19017.0	3.1214261086016845e+17
19018.0	3.1208504022794234e+17
19019.0	3.120348562543957e+17
19020.0	3.1197989444430496e+17
19021.0	3.1192813320273914e+17
19022.0	3.118823315778218e+17
19023.0	3.1181118587098445e+17
19024.0	3.1176925978296314e+17
19025.0	3.117176579599018e+17
19026.0	3.116673853467306e+17
19027.0	3.1161471359167136e+17
19028.0	3.115539857670144e+17
19029.0	3.114925305801386e+17
19030.0	3.114314460648789e+17
19031.0	3.1140107626304845e+17
19032.0	3.113578243205802e+17
19033.0	3.1128537886883834e+17
19034.0	3.1124446147597645e+17
19035.0	3.1120059006975994e+17
19036.0	3.1098639542299283e+17
19037.0	3.1108612199109965e+17
19038.0	3.11035429982481e+17
19039.0	3.109831475986432e+17
19040.0	3.1092424842062496e+17
19041.0	3.108775775611562e+17
19042.0	3.099833558280862e+17
19043.0	3.1077651196149754e+17
19044.0	3.1073564801105914e+17
19045.0	3.1067325847306234e+17
19046.0	3.106189567765162e+17
19047.0	3.105618006114304e+17
19048.0	3.104251295651156e+17
19049.0	3.0870964143827405e+17
19050.0	3.104136538095615e+17
19051.0	3.1034067400349005e+17
19052.0	3.1030689094696954e+17
19053.0	3.1025877588377594e+17
19054.0	3.1019098901053434e+17
19055.0	3.098764809076735e+17
19056.0	3.100257903706108e+17
19057.0	3.100538556121088e+17
19058.0	3.090981476892657e+17
19059.0	3.0954906140890426e+17
19060.0	3.098984844012203e+17
19061.0	3.0983215281165645e+17
19062.0	3.0976785074094074e+17
19063.0	3.097424600672938e+17
19064.0	3.096894837009066e+17
19065.0	3.09635060404497e+17
19066.0	3.092332116880047e+17
19067.0	3.09499132449041e+17
19068.0	3.094861926017706e+17
19069.0	3.094295244090026e+17
19070.0	3.0935689133206176e+17
19071.0	3.093160784472746e+17
19072.0	3.089064133307045e+17
19073.0	3.092300409689429e+17
19074.0	3.0915249014046714e+17
19075.0	3.09121770393873e+17
19076.0	3.0906228261519354e+17
19077.0	3.09013693665553e+17
19078.0	3.0895889106425165e+17
19079.0	3.0889932174131194e+17
19080.0	3.0885910098739194e+17
19081.0	3.0880992120012794e+17
19082.0	3.087641473974272e+17
19083.0	3.087024006365184e+17
19084.0	3.0865286527713274e+17
19085.0	3.0859823750840314e+17
19086.0	3.081419079286782e+17
19087.0	3.0780365356400544e+17
19088.0	3.080538174084431e+17
19089.0	3.083924039619925e+17
19090.0	3.083456865457493e+17
19091.0	3.082425746500271e+17
19092.0	3.075905431098728e+17
19093.0	3.0818437043322874e+17
19094.0	3.081375930034858e+17
19095.0	3.0807497648373754e+17
19096.0	3.080338182329685e+17
19097.0	3.0797750327050234e+17
19098.0	3.07596410836309e+17
19099.0	3.0746604225604314e+17
19100.0	3.078292210275669e+17
19101.0	3.077666209005567e+17
19102.0	3.077224314612394e+17
19103.0	3.07659868348962e+17
19104.0	3.0762826563147085e+17
19105.0	3.068241179399533e+17
19106.0	3.075142196396032e+17
19107.0	3.072979038983505e+17
19108.0	3.071447486081708e+17
19109.0	3.0735510620078074e+17
19110.0	3.07307153527057e+17
19111.0	3.070414111987026e+17
19112.0	3.0696008755882624e+17
19113.0	3.071577468611242e+17
19114.0	3.0697654202313363e+17
19115.0	3.0703449971971405e+17
19116.0	3.0698837764997126e+17
19117.0	3.0694524779670176e+17
19118.0	3.0689913589814605e+17
19119.0	3.0605607114724563e+17
19120.0	3.067974019011925e+17
19121.0	3.0673510858751994e+17
19122.0	3.067034196071765e+17
19123.0	3.0665663857732256e+17
19124.0	3.0660096628708685e+17
19125.0	3.0654726039142394e+17
19126.0	3.0649319399533216e+17
19127.0	3.063957132673023e+17
19128.0	3.0638476298813434e+17
19129.0	3.063435083382783e+17
19130.0	3.062960478311765e+17
19131.0	3.062413229293567e+17
19132.0	3.0618294206245536e+17
19133.0	3.061388480435541e+17
19134.0	3.060847958731434e+17
19135.0	3.060406852517887e+17
19136.0	3.059794664139434e+17
19137.0	3.059110229923157e+17
19138.0	3.0587846593085434e+17
19139.0	3.058372669254314e+17
19140.0	3.0578632409743354e+17
19141.0	3.0573366653310285e+17
19142.0	3.0567792503685114e+17
19143.0	3.0562207784413856e+17
19144.0	3.0556488092439885e+17
19145.0	3.0551948226723834e+17
19146.0	3.054659799700821e+17
19147.0	3.054171599841962e+17
19148.0	3.05076271806328e+17
19149.0	3.049584564983125e+17
19150.0	3.0527392579584e+17
19151.0	3.052168194381141e+17
19152.0	3.05172495536401e+17
19153.0	3.044810671783925e+17
19154.0	3.050141377713493e+17
19155.0	3.0502066840753485e+17
19156.0	3.0496385939101005e+17
19157.0	3.047144419229701e+17
19158.0	3.044100822532103e+17
19159.0	3.047933557604352e+17
19160.0	3.047503620123306e+17
19161.0	3.0470577659576314e+17
19162.0	3.046451105322325e+17
19163.0	3.046064264664405e+17
19164.0	3.045512685726377e+17
19165.0	3.038108774825973e+17
19166.0	3.0443487107918496e+17
19167.0	3.044048822949204e+17
19168.0	3.0434960175267834e+17
19169.0	3.042990645138773e+17
19170.0	3.04250333237521e+17
19171.0	3.0419394504949754e+17
19172.0	3.04146565562368e+17
19173.0	3.041048287423146e+17
19174.0	3.040456193955157e+17
19175.0	3.039929284864683e+17
19176.0	3.0394877780951034e+17
19177.0	3.038942012462421e+17
19178.0	3.038422225300138e+17
19179.0	3.037917462484309e+17
19180.0	3.0374512683909114e+17
19181.0	3.0368857975685114e+17
19182.0	3.03630953025809e+17
19183.0	3.035885954487637e+17
19184.0	3.0354308260167674e+17
19185.0	3.034856876408832e+17
19186.0	3.034369566441471e+17
19187.0	3.0339215183052794e+17
19188.0	3.0334212360546976e+17
19189.0	3.032929998820693e+17
19190.0	3.03238949703953e+17
19191.0	3.0319003450736634e+17
19192.0	3.0314117687760205e+17
19193.0	3.030247387693056e+17
19194.0	3.0294179217844915e+17
19195.0	3.0299079923029325e+17
19196.0	3.029370641143125e+17
19197.0	3.0286959499455136e+17
19198.0	3.0281484164136966e+17
19199.0	3.027223597197994e+17
19200.0	3.026924092435114e+17
19201.0	3.026812181064362e+17
19202.0	3.026380517976746e+17
19203.0	3.025817429519018e+17
19204.0	3.0253975325026976e+17
19205.0	3.0248592285368314e+17
19206.0	3.0243191696042656e+17
19207.0	3.023442663527764e+17
19208.0	3.0232245614673914e+17
19209.0	3.022792870767274e+17
19210.0	3.022171081626965e+17
19211.0	3.0217726175040845e+17
19212.0	3.0212846430890656e+17
19213.0	3.020794313572351e+17
19214.0	3.020273954936149e+17
19215.0	3.019782281145003e+17
19216.0	3.0192668424273914e+17
19217.0	3.018851229193557e+17
19218.0	3.0180816111097165e+17
19219.0	3.0176844461725005e+17
19220.0	3.0173091922793805e+17
19221.0	3.0167010094612474e+17
19222.0	3.01613346001169e+17
19223.0	3.015727672634026e+17
19224.0	3.015191551104341e+17
19225.0	3.0147491554918394e+17
19226.0	3.0143183609746765e+17
19227.0	3.0137696610768205e+17
19228.0	3.0132820375852365e+17
19229.0	3.012454581447338e+17
19230.0	3.012180336880298e+17
19231.0	3.011845000178346e+17
19232.0	3.011324526548309e+17
19233.0	3.0107432792009376e+17
19234.0	3.0102245102059514e+17
19235.0	3.0097479554826234e+17
19236.0	3.009271310931285e+17
19237.0	3.008629646731946e+17
19238.0	3.0081219024650234e+17
19239.0	3.0077545894379514e+17
19240.0	3.0071386600898554e+17
19241.0	3.0068026005695136e+17
19242.0	3.006001453902506e+17
19243.0	3.00572102693137e+17
19244.0	3.005205178570069e+17
19245.0	3.004765101359104e+17
19246.0	3.004286451231402e+17
19247.0	3.0038118807633914e+17
19248.0	3.0032414092820474e+17
19249.0	3.0025187852287994e+17
19250.0	3.00118260650257e+17
19251.0	3.000791256268798e+17
19252.0	3.0012833491408205e+17
19253.0	3.0007311938355194e+17
19254.0	3.000271519438165e+17
19255.0	2.999690475514538e+17
19256.0	2.999156496225621e+17
19257.0	2.99873628918033e+17
19258.0	2.9981911726161914e+17
19259.0	2.997821796690602e+17
19260.0	2.9971648725647354e+17
19261.0	2.996768225973589e+17
19262.0	2.9962602905163085e+17
19263.0	2.995659506100906e+17
19264.0	2.9951156635566074e+17
19265.0	2.9946255874457594e+17
19266.0	2.99409620930833e+17
19267.0	2.993781119210837e+17
19268.0	2.9930901691432966e+17
19269.0	2.992732978020351e+17
19270.0	2.9922673819647994e+17
19271.0	2.991558850772992e+17
19272.0	2.9912832136970234e+17
19273.0	2.9908019907133434e+17
19274.0	2.9902698992107514e+17
19275.0	2.9898322581913594e+17
19276.0	2.989318087901184e+17
19277.0	2.98885572984832e+17
19278.0	2.9882937731536205e+17
19279.0	2.98784524407057e+17
19280.0	2.9873734505813325e+17
19281.0	2.986858434090325e+17
19282.0	2.986364017923413e+17
19283.0	2.985804207663786e+17
19284.0	2.985375703586133e+17
19285.0	2.9847910508134394e+17
19286.0	2.9842527290217805e+17
19287.0	2.9836375759694496e+17
19288.0	2.9830597385912314e+17
19289.0	2.98173167584324e+17
19290.0	2.9823783469929805e+17
19291.0	2.981822518525952e+17
19292.0	2.9813526981072205e+17
19293.0	2.9807884216128845e+17
19294.0	2.980403610998101e+17
19295.0	2.9797928759459834e+17
19296.0	2.9760431950834445e+17
19297.0	2.9783453831877997e+17
19298.0	2.978339081595562e+17
19299.0	2.974211259061593e+17
19300.0	2.977411150905344e+17
19301.0	2.976907698459989e+17
19302.0	2.9764296250490874e+17
19303.0	2.975770659695274e+17
19304.0	2.975358972679509e+17
19305.0	2.9748586380001274e+17
19306.0	2.974434442521258e+17
19307.0	2.973912155903317e+17
19308.0	2.9734206816911354e+17
19309.0	2.9728516275350176e+17
19310.0	2.9723380489912314e+17
19311.0	2.971840220758016e+17
19312.0	2.971329926004735e+17
19313.0	2.9709873062434125e+17
19314.0	2.9551545520837677e+17
19315.0	2.9557288728876685e+17
19316.0	2.9652791451101946e+17
19317.0	2.96908301533184e+17
19318.0	2.9685211718833485e+17
19319.0	2.9678689499217914e+17
19320.0	2.966270605175463e+17
19321.0	2.96407873810159e+17
19322.0	2.96653849432337e+17
19323.0	2.9661078249362765e+17
19324.0	2.9655510076620794e+17
19325.0	2.9651022381055994e+17
19326.0	2.964558585703082e+17
19327.0	2.9641263340148045e+17
19328.0	2.956700407911773e+17
19329.0	2.9631187146943136e+17
19330.0	2.9626711943413754e+17
19331.0	2.9621935714686285e+17
19332.0	2.961648879228245e+17
19333.0	2.961241692001621e+17
19334.0	2.9603834661000544e+17
19335.0	2.946132157835965e+17
19336.0	2.95957007695872e+17
19337.0	2.959192455031466e+17
19338.0	2.958613123781973e+17
19339.0	2.9580415111004154e+17
19340.0	2.9572969938288634e+17
19341.0	2.9523573221621875e+17
19342.0	2.955349550170117e+17
19343.0	2.9562720670624416e+17
19344.0	2.9506497822064723e+17
19345.0	2.9525511727568256e+17
19346.0	2.954515636202155e+17
19347.0	2.948214641306282e+17
19348.0	2.953843006155434e+17
19349.0	2.953324091058858e+17
19350.0	2.950864484084395e+17
19351.0	2.9523065277426336e+17
19352.0	2.945282039174474e+17
19353.0	2.9513180928191136e+17
19354.0	2.9509119041863674e+17
19355.0	2.9503974839855776e+17
19356.0	2.9498271180608845e+17
19357.0	2.9494236005007354e+17
19358.0	2.948918928911018e+17
19359.0	2.9470639399458074e+17
19360.0	2.9427519696404454e+17
19361.0	2.9474575488122874e+17
19362.0	2.946953973683541e+17
19363.0	2.946453536942762e+17
19364.0	2.9460224351928314e+17
19365.0	2.945497976973994e+17
19366.0	2.944705598149972e+17
19367.0	2.944488766614186e+17
19368.0	2.9440356545549645e+17
19369.0	2.9436109882654714e+17
19370.0	2.943135841430186e+17
19371.0	2.942511983099904e+17
19372.0	2.942111782884693e+17
19373.0	2.9415162249215994e+17
19374.0	2.9409979578449914e+17
19375.0	2.9406194711920634e+17
19376.0	2.940162231238655e+17
19377.0	2.9396919791561376e+17
19378.0	2.9392239584433485e+17
19379.0	2.938726555232938e+17
19380.0	2.937963348492288e+17
19381.0	2.9375302890509645e+17
19382.0	2.9371883907099296e+17
19383.0	2.93667559964672e+17
19384.0	2.9359610761925965e+17
19385.0	2.9357994672127994e+17
19386.0	2.935244101517312e+17
19387.0	2.9347060090142714e+17
19388.0	2.934199521290922e+17
19389.0	2.933798776515242e+17
19390.0	2.9332930755734176e+17
19391.0	2.931173431618216e+17
19392.0	2.932344741691391e+17
19393.0	2.9318166193984845e+17
19394.0	2.9313830646797645e+17
19395.0	2.928773919932421e+17
19396.0	2.929923646466732e+17
19397.0	2.9297786028905805e+17
19398.0	2.92787732803311e+17
19399.0	2.92621983031842e+17
19400.0	2.927255075422209e+17
19401.0	2.9279009423141536e+17
19402.0	2.9275277957092685e+17
19403.0	2.9270574062632954e+17
19404.0	2.9263692646318074e+17
19405.0	2.925844902182912e+17
19406.0	2.925551777305941e+17
19407.0	2.922406335567185e+17
19408.0	2.924430138627414e+17
19409.0	2.9240786489617056e+17
19410.0	2.9236311488812365e+17
19411.0	2.9230911916605434e+17
19412.0	2.9225531970245965e+17
19413.0	2.919465782782635e+17
19414.0	2.9217306999521274e+17
19415.0	2.92119736029457e+17
19416.0	2.9205445402951674e+17
19417.0	2.9202415158121805e+17
19418.0	2.9197306219724794e+17
19419.0	2.919235658798421e+17
19420.0	2.918768222841514e+17
19421.0	2.9182590126653434e+17
19422.0	2.9176978780542285e+17
19423.0	2.917333111319211e+17
19424.0	2.916841153014442e+17
19425.0	2.916288016941056e+17
19426.0	2.9158915161019725e+17
19427.0	2.915401679066453e+17
19428.0	2.914719919418026e+17
19429.0	2.9144373096611834e+17
19430.0	2.913851302128298e+17
19431.0	2.913060896374784e+17
19432.0	2.912822034257237e+17
19433.0	2.9122893268910074e+17
19434.0	2.911898024891733e+17
19435.0	2.911282856110762e+17
19436.0	2.910561044004864e+17
19437.0	2.91032528846848e+17
19438.0	2.906355072499711e+17
19439.0	2.909394306422101e+17
19440.0	2.90882232848657e+17
19441.0	2.9082641770741754e+17
19442.0	2.9076786053993805e+17
19443.0	2.907031219470336e+17
19444.0	2.9062717229410976e+17
19445.0	2.9054676154449914e+17
19446.0	2.904333128215211e+17
19447.0	2.9026971280561485e+17
19448.0	2.899346559685973e+17
19449.0	2.8892105927557114e+17
19450.0	2.7916878811409e+17
19451.0	2.6649413787757248e+17
19452.0	2.8349567766364195e+17
19453.0	2.891840288544085e+17
19454.0	2.8976306688709965e+17
19455.0	2.8993280876216314e+17
19456.0	2.899785510726314e+17
19457.0	2.899816911732736e+17
19458.0	2.8406258202925504e+17
19459.0	2.898585938733745e+17
19460.0	2.8988658337273165e+17
19461.0	2.898701594219861e+17
19462.0	2.898295057110357e+17
19463.0	2.8978751429672954e+17
19464.0	2.8973611733046605e+17
19465.0	2.896958646299306e+17
19466.0	2.896544962095786e+17
19467.0	2.8960601459916794e+17
19468.0	2.8956420004468045e+17
19469.0	2.890126052382029e+17
19470.0	2.8947157740421114e+17
19471.0	2.894193989692074e+17
19472.0	2.8937822855495674e+17
19473.0	2.8933095784011085e+17
19474.0	2.887554475666082e+17
19475.0	2.891988225141418e+17
19476.0	2.89189096132881e+17
19477.0	2.8913476406258336e+17
19478.0	2.8909668977868794e+17
19479.0	2.885514938023927e+17
19480.0	2.8900075335843834e+17
19481.0	2.8893201217617914e+17
19482.0	2.888831077100202e+17
19483.0	2.888554011514197e+17
19484.0	2.8879197359308794e+17
19485.0	2.887616386738858e+17
19486.0	2.8817748303107568e+17
19487.0	2.8865339564141216e+17
19488.0	2.8861979017871354e+17
19489.0	2.885755263604053e+17
19490.0	2.8848049594477216e+17
19491.0	2.8846586729594874e+17
19492.0	2.884251325650261e+17
19493.0	2.883704495712939e+17
19494.0	2.883211775792469e+17
19495.0	2.882902183378944e+17
19496.0	2.8822133738045437e+17
19497.0	2.881978695854762e+17
19498.0	2.881485713790293e+17
19499.0	2.8784555919933405e+17
19500.0	2.880506640902826e+17
19501.0	2.8800934407918928e+17
19502.0	2.879540731838464e+17
19503.0	2.8790965071598928e+17
19504.0	2.8785823990852266e+17
19505.0	2.8779725308559354e+17
19506.0	2.8776465900939942e+17
19507.0	2.8772152873669965e+17
19508.0	2.8767132207895885e+17
19509.0	2.876259531314517e+17
19510.0	2.8753703682266445e+17
19511.0	2.8530451505916294e+17
19512.0	2.874544994910206e+17
19513.0	2.8733137111831866e+17
19514.0	2.8730960488256845e+17
19515.0	2.873308034542251e+17
19516.0	2.872421504778239e+17
19517.0	2.8723477420004685e+17
19518.0	2.8707906195729046e+17
19519.0	2.870272664272894e+17
19520.0	2.8669108967615085e+17
19521.0	2.8706068583765322e+17
19522.0	2.8696039443660784e+17
19523.0	2.8688220981384557e+17
19524.0	2.865893306881374e+17
19525.0	2.868670176253269e+17
19526.0	2.8680977530224637e+17
19527.0	2.8677315305144314e+17
19528.0	2.866946844393471e+17
19529.0	2.866369492505941e+17
19530.0	2.866309216512682e+17
19531.0	2.865771225022463e+17
19532.0	2.8652525437583347e+17
19533.0	2.864601916331349e+17
19534.0	2.8644173935192746e+17
19535.0	2.8639904137215994e+17
19536.0	2.863455237308415e+17
19537.0	2.8630117588664314e+17
19538.0	2.858546296258565e+17
19539.0	2.8619858625167366e+17
19540.0	2.861645638402047e+17
19541.0	2.8604091893896534e+17
19542.0	2.860312594918058e+17
19543.0	2.8559346939985936e+17
19544.0	2.8593938092086605e+17
19545.0	2.8591745411317744e+17
19546.0	2.858517164370603e+17
19547.0	2.858364657729535e+17
19548.0	2.857869994797738e+17
19549.0	2.8573295562806605e+17
19550.0	2.8566833297271456e+17
19551.0	2.8564507936686074e+17
19552.0	2.8558187753198925e+17
19553.0	2.855498314416128e+17
19554.0	2.8548678727761917e+17
19555.0	2.8540413170155526e+17
19556.0	2.8536976095313914e+17
19557.0	2.853577656980821e+17
19558.0	2.8530914494163622e+17
19559.0	2.8526437518540797e+17
19560.0	2.8507584656834534e+17
19561.0	2.8517093018173437e+17
19562.0	2.849941280697001e+17
19563.0	2.8508018526126074e+17
19564.0	2.8499125913081168e+17
19565.0	2.8497294606554445e+17
19566.0	2.8491250425746765e+17
19567.0	2.8489097468532045e+17
19568.0	2.848436485008042e+17
19569.0	2.848000591964842e+17
19570.0	2.8475130880109222e+17
19571.0	2.8470070466314234e+17
19572.0	2.8465363233887568e+17
19573.0	2.8457160049076893e+17
19574.0	2.8454845635624957e+17
19575.0	2.8451753633163946e+17
19576.0	2.844578496730453e+17
19577.0	2.8438157800243197e+17
19578.0	2.8437618538577914e+17
19579.0	2.8433459613532154e+17
19580.0	2.842717753879211e+17
19581.0	2.8420813482885114e+17
19582.0	2.841876690720085e+17
19583.0	2.8414836323560106e+17
19584.0	2.8408424948913488e+17
19585.0	2.840515699539967e+17
19586.0	2.8400573323673597e+17
19587.0	2.8396217947914234e+17
19588.0	2.8389774312079354e+17
19589.0	2.8386882832302077e+17
19590.0	2.8381473606205437e+17
19591.0	2.8377015019110394e+17
19592.0	2.8372111975601488e+17
19593.0	2.8365018736448848e+17
19594.0	2.8360228663022922e+17
19595.0	2.8358360547983354e+17
19596.0	2.835179064262655e+17
19597.0	2.8349318142361594e+17
19598.0	2.83389860511744e+17
19599.0	2.83396704043008e+17
19600.0	2.8334187085823994e+17
19601.0	2.8330034088727885e+17
19602.0	2.832500869038079e+17
19603.0	2.8319678533905062e+17
19604.0	2.8316452886937597e+17
19605.0	2.8310251143604902e+17
19606.0	2.8305850308580682e+17
19607.0	2.8302503502151674e+17
19608.0	2.8294593188113062e+17
19609.0	2.8292621201134925e+17
19610.0	2.8267379523147133e+17
19611.0	2.825080552467116e+17
19612.0	2.8279331587358717e+17
19613.0	2.8272337221932365e+17
19614.0	2.8269572707232426e+17
19615.0	2.8265670519029757e+17
19616.0	2.8239910054570714e+17
19617.0	2.822426449674242e+17
19618.0	2.8247871678928202e+17
19619.0	2.824144502652928e+17
19620.0	2.822930219488592e+17
19621.0	2.8187768973339277e+17
19622.0	2.8232765840643408e+17
19623.0	2.8227179520546125e+17
19624.0	2.8220091513787734e+17
19625.0	2.8218999082844154e+17
19626.0	2.821315703603199e+17
19627.0	2.8209730310635514e+17
19628.0	2.8204844257553072e+17
19629.0	2.808936062604622e+17
19630.0	2.819572564492287e+17
19631.0	2.8182442752518822e+17
19632.0	2.8186487529581226e+17
19633.0	2.8181993804704426e+17
19634.0	2.8176985952529062e+17
19635.0	2.8167150208286685e+17
19636.0	2.8111953884173587e+17
19637.0	2.810880639456591e+17
19638.0	2.815450955120637e+17
19639.0	2.8152715234945702e+17
19640.0	2.8148835800842234e+17
19641.0	2.8137343572159174e+17
19642.0	2.8138280628606288e+17
19643.0	2.8133508671078394e+17
19644.0	2.813080082841599e+17
19645.0	2.8126303601295354e+17
19646.0	2.8063711083451645e+17
19647.0	2.8113424927948784e+17
19648.0	2.8112731312401062e+17
19649.0	2.810726496687445e+17
19650.0	2.8102857686603088e+17
19651.0	2.8098645084951885e+17
19652.0	2.809425625961813e+17
19653.0	2.808879500667562e+17
