# Flux units: erg / (cm m2 s)
# Wavelength units: Angstrom
wave	flux
19000.0	7.708064013265577e+17
19001.0	7.70625453040162e+17
19002.0	7.705269986044586e+17
19003.0	7.703850152624127e+17
19004.0	7.70245029667362e+17
19005.0	7.701023867011071e+17
19006.0	7.699611505044138e+17
19007.0	7.698094653177855e+17
19008.0	7.696536869098836e+17
19009.0	7.6950199627066e+17
19010.0	7.692137294462971e+17
19011.0	7.692422828698281e+17
19012.0	7.690585327883603e+17
19013.0	7.689701315401042e+17
19014.0	7.688027589574655e+17
19015.0	7.686724229180074e+17
19016.0	7.685272011538432e+17
19017.0	7.683901928155816e+17
19018.0	7.682568565904722e+17
19019.0	7.681154747116202e+17
19020.0	7.679651621808809e+17
19021.0	7.678337370204841e+17
19022.0	7.676933273812991e+17
19023.0	7.675346063895208e+17
19024.0	7.674021878781267e+17
19025.0	7.67265360454178e+17
19026.0	7.671133516070911e+17
19027.0	7.669587154479785e+17
19028.0	7.668399115075583e+17
19029.0	7.66690610782754e+17
19030.0	7.665596681071274e+17
19031.0	7.664196858675199e+17
19032.0	7.662761566448297e+17
19033.0	7.66094866522658e+17
19034.0	7.659830652523859e+17
19035.0	7.658296371926356e+17
19036.0	7.637444964210002e+17
19037.0	7.655548336646825e+17
19038.0	7.654089907240957e+17
19039.0	7.652747492283731e+17
19040.0	7.651342029946876e+17
19041.0	7.649876611432448e+17
19042.0	7.648093436641279e+17
19043.0	7.64705744634948e+17
19044.0	7.645569138120019e+17
19045.0	7.644180381695999e+17
19046.0	7.642492634311338e+17
19047.0	7.641245950148607e+17
19048.0	7.63902940029474e+17
19049.0	7.638148488800936e+17
19050.0	7.636803195153068e+17
19051.0	7.632281739635364e+17
19052.0	7.63355001188079e+17
19053.0	7.632681535100242e+17
19054.0	7.63126976173397e+17
19055.0	7.628765818170029e+17
19056.0	7.628297086522708e+17
19057.0	7.6269409533952e+17
19058.0	7.625450757728938e+17
19059.0	7.624087843809961e+17
19060.0	7.622572051704489e+17
19061.0	7.621240825752234e+17
19062.0	7.619772462836393e+17
19063.0	7.618353290717866e+17
19064.0	7.616353052306089e+17
19065.0	7.614697584285011e+17
19066.0	7.613778828984319e+17
19067.0	7.612542532714493e+17
19068.0	7.611151207978323e+17
19069.0	7.609722117728938e+17
19070.0	7.60815946965538e+17
19071.0	7.606817432185513e+17
19072.0	7.605411175727103e+17
19073.0	7.603934885576701e+17
19074.0	7.602534993275561e+17
19075.0	7.601094349116756e+17
19076.0	7.599566143269545e+17
19077.0	7.598159696669354e+17
19078.0	7.596588908849834e+17
19079.0	7.595309091083604e+17
19080.0	7.593808692073811e+17
19081.0	7.592259240678739e+17
19082.0	7.590802777003348e+17
19083.0	7.589033239292586e+17
19084.0	7.587051796955137e+17
19085.0	7.586604330429097e+17
19086.0	7.583521217795414e+17
19087.0	7.583166516690944e+17
19088.0	7.581929877886292e+17
19089.0	7.579790587112106e+17
19090.0	7.579297875230719e+17
19091.0	7.577868959743999e+17
19092.0	7.576184061689853e+17
19093.0	7.575092032700415e+17
19094.0	7.573653355670185e+17
19095.0	7.572216364750164e+17
19096.0	7.570715247116287e+17
19097.0	7.569328218745514e+17
19098.0	7.5678751916032e+17
19099.0	7.56642344791791e+17
19100.0	7.564955704360956e+17
19101.0	7.563535377410728e+17
19102.0	7.56172709831202e+17
19103.0	7.560632394754728e+17
19104.0	7.559217506418687e+17
19105.0	7.557751531459926e+17
19106.0	7.556211792674812e+17
19107.0	7.554785283320489e+17
19108.0	7.553411991295318e+17
19109.0	7.550101906696872e+17
19110.0	7.550430554182995e+17
19111.0	7.549072646864896e+17
19112.0	7.547634540260009e+17
19113.0	7.54618008146193e+17
19114.0	7.544713220106922e+17
19115.0	7.543060265872041e+17
19116.0	7.541737564143616e+17
19117.0	7.540272373519699e+17
19118.0	7.538518913974272e+17
19119.0	7.525968123352389e+17
19120.0	7.53579330703633e+17
19121.0	7.534457588984489e+17
19122.0	7.533142102857044e+17
19123.0	7.531672081793024e+17
19124.0	7.530124531815764e+17
19125.0	7.528756401580714e+17
19126.0	7.527301516361725e+17
19127.0	7.518870213143209e+17
19128.0	7.523513111937021e+17
19129.0	7.522608506819923e+17
19130.0	7.521435193617064e+17
19131.0	7.520035354443773e+17
19132.0	7.518599125488978e+17
19133.0	7.516206346360148e+17
19134.0	7.515295621753514e+17
19135.0	7.514235227602943e+17
19136.0	7.512812277814612e+17
19137.0	7.510697386704896e+17
19138.0	7.509814438177449e+17
19139.0	7.508441529232041e+17
19140.0	7.506999612801021e+17
19141.0	7.505544710804819e+17
19142.0	7.503985416776361e+17
19143.0	7.502395511319209e+17
19144.0	7.501002771704489e+17
19145.0	7.499697349110441e+17
19146.0	7.495784903737345e+17
19147.0	7.496403904714068e+17
19148.0	7.495329076565332e+17
19149.0	7.493859269410816e+17
19150.0	7.492391890758314e+17
19151.0	7.490952381857792e+17
19152.0	7.48947217842176e+17
19153.0	7.487977668214783e+17
19154.0	7.486072851617106e+17
19155.0	7.485141114945535e+17
19156.0	7.483664877922986e+17
19157.0	7.482124363191638e+17
19158.0	7.47951056381542e+17
19159.0	7.479189081598633e+17
19160.0	7.477744363372543e+17
19161.0	7.476260853426858e+17
19162.0	7.471985325331799e+17
19163.0	7.473299537788927e+17
19164.0	7.47198743786291e+17
19165.0	7.470446417018879e+17
19166.0	7.468587734969002e+17
19167.0	7.467329933104468e+17
19168.0	7.465939301826557e+17
19169.0	7.464514285644457e+17
19170.0	7.463205552346454e+17
19171.0	7.461577963864064e+17
19172.0	7.460240874274812e+17
19173.0	7.458814204138836e+17
19174.0	7.457111070649002e+17
19175.0	7.455886949045587e+17
19176.0	7.454400375859881e+17
19177.0	7.452318484135935e+17
19178.0	7.451400334213117e+17
19179.0	7.44979229118737e+17
19180.0	7.448441371579731e+17
19181.0	7.446668847524522e+17
19182.0	7.445482554348883e+17
19183.0	7.444123757838333e+17
19184.0	7.442486802077012e+17
19185.0	7.441123200292182e+17
19186.0	7.439711464674644e+17
19187.0	7.437889682713257e+17
19188.0	7.436748520248659e+17
19189.0	7.435263777177599e+17
19190.0	7.433774687409492e+17
19191.0	7.432332323586045e+17
19192.0	7.431014392179369e+17
19193.0	7.429474206001834e+17
19194.0	7.427963645591551e+17
19195.0	7.426550904739158e+17
19196.0	7.424993070328488e+17
19197.0	7.423509505856854e+17
19198.0	7.421852796321791e+17
19199.0	7.403323567811237e+17
19200.0	7.406727287450287e+17
19201.0	7.417445344783017e+17
19202.0	7.416145286703785e+17
19203.0	7.414664707178493e+17
19204.0	7.413123931002195e+17
19205.0	7.411695053264211e+17
19206.0	7.410182055963306e+17
19207.0	7.40833794352742e+17
19208.0	7.406507431821308e+17
19209.0	7.405740759187455e+17
19210.0	7.404263001030655e+17
19211.0	7.402830805598207e+17
19212.0	7.401327511120553e+17
19213.0	7.3994015356573e+17
19214.0	7.397738877201066e+17
19215.0	7.396785142803114e+17
19216.0	7.395336325343914e+17
19217.0	7.39381969297954e+17
19218.0	7.388990610429262e+17
19219.0	7.390156576609619e+17
19220.0	7.389247378729642e+17
19221.0	7.386514445740714e+17
19222.0	7.386318873733802e+17
19223.0	7.384744365566634e+17
19224.0	7.383110498211156e+17
19225.0	7.381203199983615e+17
19226.0	7.380211165997738e+17
19227.0	7.378696840500563e+17
19228.0	7.377305018040319e+17
19229.0	7.375802214296233e+17
19230.0	7.374215826462036e+17
19231.0	7.372684874743807e+17
19232.0	7.371190638564691e+17
19233.0	7.369427094514345e+17
19234.0	7.368100722769919e+17
19235.0	7.366210057753939e+17
19236.0	7.364637817307135e+17
19237.0	7.363034836806313e+17
19238.0	7.361196311183357e+17
19239.0	7.360066376870569e+17
19240.0	7.358190783386964e+17
19241.0	7.3567905541434e+17
19242.0	7.355382369703251e+17
19243.0	7.353167528329215e+17
19244.0	7.352404444621481e+17
19245.0	7.350842594863786e+17
19246.0	7.349249128442538e+17
19247.0	7.347738054929066e+17
19248.0	7.346244905074688e+17
19249.0	7.344679491556692e+17
19250.0	7.34306221826594e+17
19251.0	7.341026595307517e+17
19252.0	7.338820234816169e+17
19253.0	7.338395925042516e+17
19254.0	7.336883302432765e+17
19255.0	7.334583744506536e+17
19256.0	7.333619051790335e+17
19257.0	7.332236936347647e+17
19258.0	7.330677930328063e+17
19259.0	7.328805285440169e+17
19260.0	7.327136395646292e+17
19261.0	7.325902065106943e+17
19262.0	7.324135722057727e+17
19263.0	7.322560463110143e+17
19264.0	7.319100258779131e+17
19265.0	7.318883323783849e+17
19266.0	7.317452775314774e+17
19267.0	7.316467343163391e+17
19268.0	7.314840986408275e+17
19269.0	7.313247264134484e+17
19270.0	7.311660609262931e+17
19271.0	7.308710930022401e+17
19272.0	7.30828203168017e+17
19273.0	7.297164796843338e+17
19274.0	7.299329527469388e+17
19275.0	7.30360372457199e+17
19276.0	7.301910257554772e+17
19277.0	7.300302552869545e+17
19278.0	7.298685355076266e+17
19279.0	7.296939991935658e+17
19280.0	7.295067949629437e+17
19281.0	7.293746296477011e+17
19282.0	7.29216573313297e+17
19283.0	7.290275736409427e+17
19284.0	7.288440585803091e+17
19285.0	7.28638037303842e+17
19286.0	7.285382425083904e+17
19287.0	7.283886602059775e+17
19288.0	7.27665825598668e+17
19289.0	7.268171021724311e+17
19290.0	7.278872438854995e+17
19291.0	7.276072890531843e+17
19292.0	7.275498210765481e+17
19293.0	7.273780571974314e+17
19294.0	7.272063340030633e+17
19295.0	7.270407501512701e+17
19296.0	7.268668526297087e+17
19297.0	7.266858973528063e+17
19298.0	7.265124477829119e+17
19299.0	7.263521105859926e+17
19300.0	7.261781419010729e+17
19301.0	7.260018908157267e+17
19302.0	7.258217323167743e+17
19303.0	7.256219822238377e+17
19304.0	7.25403432980753e+17
19305.0	7.252089797345279e+17
19306.0	7.250348076258644e+17
19307.0	7.248378055010985e+17
19308.0	7.246666088316927e+17
19309.0	7.244384140875091e+17
19310.0	7.242272858264918e+17
19311.0	7.241184247633236e+17
19312.0	7.239505355822419e+17
19313.0	7.23767695245312e+17
19314.0	7.225503910636206e+17
19315.0	7.224145256731999e+17
19316.0	7.232132237754368e+17
19317.0	7.230291352136361e+17
19318.0	7.228395433055572e+17
19319.0	7.226572726949203e+17
19320.0	7.224672859630249e+17
19321.0	7.222765044105215e+17
19322.0	7.22044423503872e+17
19323.0	7.218621830922239e+17
19324.0	7.216921455886335e+17
19325.0	7.214537136668671e+17
19326.0	7.213017491395922e+17
19327.0	7.211021402548905e+17
19328.0	7.209103554248704e+17
19329.0	7.206085651857405e+17
19330.0	7.203730151702525e+17
19331.0	7.201677740343293e+17
19332.0	7.19980772528401e+17
19333.0	7.197694524478804e+17
19334.0	7.195680553915731e+17
19335.0	7.193621865081513e+17
19336.0	7.191523783344127e+17
19337.0	7.189407210318505e+17
19338.0	7.186445924040701e+17
19339.0	7.185154931250516e+17
19340.0	7.182770546322089e+17
19341.0	7.180755025264639e+17
19342.0	7.177078748566866e+17
19343.0	7.175025380906327e+17
19344.0	7.172479814467583e+17
19345.0	7.16298527196227e+17
19346.0	7.164699121898833e+17
19347.0	7.165458636253866e+17
19348.0	7.163408818372607e+17
19349.0	7.160926174882474e+17
19350.0	7.158588725613908e+17
19351.0	7.156160108953597e+17
19352.0	7.152347082566313e+17
19353.0	7.149256983620266e+17
19354.0	7.146781903858344e+17
19355.0	7.143883297259519e+17
19356.0	7.141746321741139e+17
19357.0	7.139178528287402e+17
19358.0	7.136489821437951e+17
19359.0	7.131427914470739e+17
19360.0	7.128306565163689e+17
19361.0	7.125642635466068e+17
19362.0	7.123064557578922e+17
19363.0	7.120287019565055e+17
19364.0	7.115919541141505e+17
19365.0	7.111094276805972e+17
19366.0	7.108191287159465e+17
19367.0	7.105229951948116e+17
19368.0	7.101318060223145e+17
19369.0	7.09458684542976e+17
19370.0	7.090763531812863e+17
19371.0	7.088386236656297e+17
19372.0	7.081672194741585e+17
19373.0	7.076703776014335e+17
19374.0	7.07333918503731e+17
19375.0	7.065608638169083e+17
19376.0	7.060499998266708e+17
19377.0	7.056495155172687e+17
19378.0	7.049745911862611e+17
19379.0	7.045935635540649e+17
19380.0	7.04204972053845e+17
19381.0	7.038063081422847e+17
19382.0	7.033753782190079e+17
19383.0	7.02950246851106e+17
19384.0	7.025720436632234e+17
19385.0	7.021431156812457e+17
19386.0	7.017065611263999e+17
19387.0	7.012579961820499e+17
19388.0	7.008003628029268e+17
19389.0	7.003300933839529e+17
19390.0	6.998014415601663e+17
19391.0	6.978118992527337e+17
19392.0	6.987743814309203e+17
19393.0	6.982939674585769e+17
19394.0	6.977691767712426e+17
19395.0	6.972367543380649e+17
19396.0	6.966964258515625e+17
19397.0	6.961171163425449e+17
19398.0	6.954813262659583e+17
19399.0	6.946724582348115e+17
19400.0	6.9429607020189e+17
19401.0	6.93715272344098e+17
19402.0	6.930256211826006e+17
19403.0	6.92307413172224e+17
19404.0	6.916506637391187e+17
19405.0	6.90930716211063e+17
19406.0	6.900631721039188e+17
19407.0	6.893446275006463e+17
19408.0	6.882099515271853e+17
19409.0	6.875492230277801e+17
19410.0	6.865991674538664e+17
19411.0	6.855927295290025e+17
19412.0	6.844053126993239e+17
19413.0	6.832398645854212e+17
19414.0	6.818844453284524e+17
19415.0	6.803253854819667e+17
19416.0	6.784487007802716e+17
19417.0	6.764177661449551e+17
19418.0	6.743559789783724e+17
19419.0	6.728415335241044e+17
19420.0	6.715177269460991e+17
19421.0	6.70153541873391e+17
19422.0	6.687379302995283e+17
19423.0	6.672589897684308e+17
19424.0	6.656778244019539e+17
19425.0	6.640425457330858e+17
19426.0	6.623634336514047e+17
19427.0	6.605634206870185e+17
19428.0	6.58711013036305e+17
19429.0	6.567113265949354e+17
19430.0	6.545507802065578e+17
19431.0	6.520038745265496e+17
19432.0	6.496742287605756e+17
19433.0	6.468364477486417e+17
19434.0	6.436453570925903e+17
19435.0	6.398322788357463e+17
19436.0	6.35219913107047e+17
19437.0	6.307864385683455e+17
19438.0	6.255682923790339e+17
19439.0	6.22744716496077e+17
19440.0	6.18291358929169e+17
19441.0	6.132085208470867e+17
19442.0	6.072793638633473e+17
19443.0	6.004461762423468e+17
19444.0	5.925197472683346e+17
19445.0	5.83541530785656e+17
19446.0	5.73804730454289e+17
19447.0	5.6221726604438125e+17
19448.0	5.482748536597168e+17
19449.0	5.3127841061710496e+17
19450.0	5.0926633496521e+17
19451.0	5.010203892252678e+17
19452.0	5.206438762774531e+17
19453.0	5.4016153160253504e+17
19454.0	5.55194624228283e+17
19455.0	5.6765756550239565e+17
19456.0	5.78007532813244e+17
19457.0	5.869789372568915e+17
19458.0	5.943498143083194e+17
19459.0	6.023602755338244e+17
19460.0	6.085210276539046e+17
19461.0	6.137698783155539e+17
19462.0	6.182680917966849e+17
19463.0	6.223177020254888e+17
19464.0	6.260591799478954e+17
19465.0	6.298692508887731e+17
19466.0	6.343594733120168e+17
19467.0	6.382879222617427e+17
19468.0	6.414273379041275e+17
19469.0	6.441162880931154e+17
19470.0	6.466449208683178e+17
19471.0	6.488301682819072e+17
19472.0	6.507937373618175e+17
19473.0	6.526270920370857e+17
19474.0	6.542627349812566e+17
19475.0	6.556651637178364e+17
19476.0	6.573089602491731e+17
19477.0	6.587129380121258e+17
19478.0	6.600900626524841e+17
19479.0	6.613575939041962e+17
19480.0	6.625299647867561e+17
19481.0	6.636598693898921e+17
19482.0	6.647454974519977e+17
19483.0	6.658010112502441e+17
19484.0	6.674391663028909e+17
19485.0	6.69322712955836e+17
19486.0	6.709338039123969e+17
19487.0	6.723076768486746e+17
19488.0	6.734495027123537e+17
19489.0	6.744761164977492e+17
19490.0	6.750446554535244e+17
19491.0	6.761197186230952e+17
19492.0	6.770004032749565e+17
19493.0	6.775230000616787e+17
19494.0	6.782642896764927e+17
19495.0	6.787396727909034e+17
19496.0	6.791378573634214e+17
19497.0	6.798001411107497e+17
19498.0	6.800260146571948e+17
19499.0	6.782783010286241e+17
19500.0	6.810982630992552e+17
19501.0	6.814512632736425e+17
19502.0	6.817799640973311e+17
19503.0	6.820982289334272e+17
19504.0	6.824110749384701e+17
19505.0	6.82783714452002e+17
19506.0	6.830686440783871e+17
19507.0	6.833304702200489e+17
19508.0	6.835973698617343e+17
19509.0	6.838450743410687e+17
19510.0	6.840177601282045e+17
19511.0	6.821354680614903e+17
19512.0	6.841528306980177e+17
19513.0	6.840113093585567e+17
19514.0	6.844671165377187e+17
19515.0	6.84992892816589e+17
19516.0	6.853357141841236e+17
19517.0	6.854867746990761e+17
19518.0	6.856634861092861e+17
19519.0	6.858088799098196e+17
19520.0	6.859381458425172e+17
19521.0	6.860812583611049e+17
19522.0	6.861901067714559e+17
19523.0	6.863218683849385e+17
19524.0	6.865379039117307e+17
19525.0	6.868403922228563e+17
19526.0	6.869398345569619e+17
19527.0	6.873887604211715e+17
19528.0	6.876474729212585e+17
19529.0	6.877150144976212e+17
19530.0	6.880958349312e+17
19531.0	6.883297448340137e+17
19532.0	6.883757036404735e+17
19533.0	6.884462261086893e+17
19534.0	6.888498916578644e+17
19535.0	6.888726901467817e+17
19536.0	6.888905415939411e+17
19537.0	6.889257041919997e+17
19538.0	6.891345862634156e+17
19539.0	6.890806320649562e+17
19540.0	6.892742223331327e+17
19541.0	6.892876018133673e+17
19542.0	6.892856010604543e+17
19543.0	6.893553776416083e+17
19544.0	6.8953598080669e+17
19545.0	6.893434507187538e+17
19546.0	6.891810424444244e+17
19547.0	6.894938304981674e+17
19548.0	6.894736821103273e+17
19549.0	6.894095241489065e+17
19550.0	6.894618792689661e+17
19551.0	6.896026159240531e+17
19552.0	6.895707938794153e+17
19553.0	6.89527921381649e+17
19554.0	6.894856807557802e+17
19555.0	6.894573836741289e+17
19556.0	6.894217743127892e+17
19557.0	6.893777618031955e+17
19558.0	6.893320199820628e+17
19559.0	6.89283264483601e+17
19560.0	6.89277104309316e+17
19561.0	6.89327682162961e+17
19562.0	6.892838275689129e+17
19563.0	6.892323078143999e+17
19564.0	6.891754994619732e+17
19565.0	6.891177689918121e+17
19566.0	6.890463862019412e+17
19567.0	6.889987010199551e+17
19568.0	6.889239263663444e+17
19569.0	6.888641502642175e+17
19570.0	6.88808516456721e+17
19571.0	6.887416330365609e+17
19572.0	6.886613481160703e+17
19573.0	6.885985534432596e+17
19574.0	6.884996283367423e+17
19575.0	6.884670698422272e+17
19576.0	6.8850342166528e+17
19577.0	6.884200599431849e+17
19578.0	6.883397772596564e+17
19579.0	6.882696523415551e+17
19580.0	6.881937418704212e+17
19581.0	6.881223439111508e+17
19582.0	6.88050445361698e+17
19583.0	6.8797075043997e+17
19584.0	6.87886594875938e+17
19585.0	6.877622094353748e+17
19586.0	6.876661382731094e+17
19587.0	6.876301649160874e+17
19588.0	6.873738765139969e+17
19589.0	6.874610703619411e+17
19590.0	6.873533683946836e+17
19591.0	6.872956975535443e+17
19592.0	6.87210778206754e+17
19593.0	6.871137279541247e+17
19594.0	6.86935136027716e+17
19595.0	6.869252599098025e+17
19596.0	6.866538956412244e+17
19597.0	6.867493882691583e+17
19598.0	6.865522595463167e+17
19599.0	6.865736399410516e+17
19600.0	6.864829665684137e+17
19601.0	6.863614395460266e+17
19602.0	6.862734307448148e+17
19603.0	6.860192861913084e+17
19604.0	6.860777345865044e+17
19605.0	6.859122441977855e+17
19606.0	6.859782303165098e+17
19607.0	6.858819658667348e+17
19608.0	6.857786328962388e+17
19609.0	6.856635502122323e+17
19610.0	6.855874968551423e+17
19611.0	6.854847230552746e+17
19612.0	6.853887041819988e+17
19613.0	6.852831866082644e+17
19614.0	6.85168863093282e+17
19615.0	6.850839032714582e+17
19616.0	6.84968552501521e+17
19617.0	6.848791067317587e+17
19618.0	6.845553365221371e+17
19619.0	6.844045501049508e+17
19620.0	6.84308114387763e+17
19621.0	6.84463655887394e+17
19622.0	6.843615531062612e+17
19623.0	6.842578033617578e+17
19624.0	6.841483118247933e+17
19625.0	6.840469805159764e+17
19626.0	6.839361999295827e+17
19627.0	6.838338639451476e+17
19628.0	6.836819408016724e+17
19629.0	6.835800717830825e+17
19630.0	6.833767452770303e+17
19631.0	6.81572137033182e+17
19632.0	6.832894872562346e+17
19633.0	6.831684694223529e+17
19634.0	6.830811131849385e+17
19635.0	6.829550828781567e+17
19636.0	6.828591156647252e+17
19637.0	6.82583318925585e+17
19638.0	6.826407196535465e+17
19639.0	6.825279098628778e+17
19640.0	6.82385807122978e+17
19641.0	6.820696890714799e+17
19642.0	6.821992361623552e+17
19643.0	6.820856894324735e+17
19644.0	6.819558104323412e+17
19645.0	6.81762762277956e+17
19646.0	6.817595536353961e+17
19647.0	6.816479131467775e+17
19648.0	6.815338844214612e+17
19649.0	6.81420472188928e+17
19650.0	6.813112416075775e+17
19651.0	6.811958504325119e+17
19652.0	6.810815598428159e+17
19653.0	6.809711258457427e+17
19654.0	6.808540690426537e+17
19655.0	6.80739019353839e+17
19656.0	6.806288108006057e+17
19657.0	6.805147522957311e+17
19658.0	6.804032769927849e+17
19659.0	6.802886978349738e+17
19660.0	6.801762531584681e+17
19661.0	6.800598051586047e+17
19662.0	6.79947170619938e+17
19663.0	6.798120946674346e+17
19664.0	6.797077224183124e+17
19665.0	6.796025452123476e+17
19666.0	6.794805486376275e+17
