# Flux units: erg / (cm m2 s)
# Wavelength units: Angstrom
wave	flux
19000.0	6.789256062173183e+17
19001.0	6.787911330562047e+17
19002.0	6.786741226700799e+17
19003.0	6.785481243099135e+17
19004.0	6.784221358063615e+17
19005.0	6.782965006729215e+17
19006.0	6.781705566289919e+17
19007.0	6.780416716789075e+17
19008.0	6.779133244385962e+17
19009.0	6.777858766667775e+17
19010.0	6.776248735541929e+17
19011.0	6.775370304978943e+17
19012.0	6.773914589287764e+17
19013.0	6.772871474271572e+17
19014.0	6.771561472895657e+17
19015.0	6.770356297662463e+17
19016.0	6.76916821631522e+17
19017.0	6.7679514801821e+17
19018.0	6.76667219649058e+17
19019.0	6.765419548027561e+17
19020.0	6.764142028739923e+17
19021.0	6.762897170497535e+17
19022.0	6.761637729359188e+17
19023.0	6.760334495492777e+17
19024.0	6.759089153507327e+17
19025.0	6.757830915435177e+17
19026.0	6.756540538508627e+17
19027.0	6.755155911376895e+17
19028.0	6.754049363804159e+17
19029.0	6.752782415560703e+17
19030.0	6.751532680740863e+17
19031.0	6.75026816868898e+17
19032.0	6.74900002017553e+17
19033.0	6.747657649258495e+17
19034.0	6.746455647016276e+17
19035.0	6.745131422056447e+17
19036.0	6.732880504597158e+17
19037.0	6.742635388250793e+17
19038.0	6.741388271375699e+17
19039.0	6.740149159329791e+17
19040.0	6.738885610569727e+17
19041.0	6.737613606791849e+17
19042.0	6.736257446401364e+17
19043.0	6.735091826251092e+17
19044.0	6.733815208738815e+17
19045.0	6.732554571524778e+17
19046.0	6.731251436224511e+17
19047.0	6.730017699878228e+17
19048.0	6.728579707218602e+17
19049.0	6.727403110574761e+17
19050.0	6.726189606152874e+17
19051.0	6.723200531212966e+17
19052.0	6.723422240025258e+17
19053.0	6.7224264521373e+17
19054.0	6.721171061997565e+17
19055.0	6.71967706489378e+17
19056.0	6.718613004921514e+17
19057.0	6.717368107532287e+17
19058.0	6.716081955667965e+17
19059.0	6.71483707855121e+17
19060.0	6.713558942700883e+17
19061.0	6.712313882432852e+17
19062.0	6.711043997477545e+17
19063.0	6.709779986644991e+17
19064.0	6.708408949757268e+17
19065.0	6.707095204265983e+17
19066.0	6.705925841398442e+17
19067.0	6.70471948337152e+17
19068.0	6.70345427296802e+17
19069.0	6.702189649767081e+17
19070.0	6.700902710771711e+17
19071.0	6.699653345749674e+17
19072.0	6.698385343337812e+17
19073.0	6.697123711374676e+17
19074.0	6.695862925961898e+17
19075.0	6.69459762118656e+17
19076.0	6.693314158570153e+17
19077.0	6.692055230534996e+17
19078.0	6.690772151697407e+17
19079.0	6.689535233272489e+17
19080.0	6.688257632894975e+17
19081.0	6.686967380399444e+17
19082.0	6.685702048361129e+17
19083.0	6.684380031003305e+17
19084.0	6.683006050413226e+17
19085.0	6.681943076066644e+17
19086.0	6.680324777967615e+17
19087.0	6.679106805213865e+17
19088.0	6.678042908120404e+17
19089.0	6.676567410693462e+17
19090.0	6.675580799243604e+17
19091.0	6.674326365405183e+17
19092.0	6.6729659086493e+17
19093.0	6.671824509905578e+17
19094.0	6.670561354711039e+17
19095.0	6.6692970460829e+17
19096.0	6.668020188097193e+17
19097.0	6.666768683980116e+17
19098.0	6.665498869628927e+17
19099.0	6.664233276844713e+17
19100.0	6.662955268920659e+17
19101.0	6.661706029028692e+17
19102.0	6.660361544881491e+17
19103.0	6.659186013590868e+17
19104.0	6.657921693777919e+17
19105.0	6.656638222772906e+17
19106.0	6.655338573638314e+17
19107.0	6.654107852297555e+17
19108.0	6.652848708255743e+17
19109.0	6.650733040500733e+17
19110.0	6.650285246119935e+17
19111.0	6.649066578509823e+17
19112.0	6.647805279294803e+17
19113.0	6.646548700768938e+17
19114.0	6.645283897212927e+17
19115.0	6.643960522997759e+17
19116.0	6.64273820983842e+17
19117.0	6.641474859608746e+17
19118.0	6.640111698225833e+17
19119.0	6.635156824304292e+17
19120.0	6.637595466050217e+17
19121.0	6.636372462927872e+17
19122.0	6.635180024397823e+17
19123.0	6.633917052354559e+17
19124.0	6.63259461067298e+17
19125.0	6.631385125093375e+17
19126.0	6.630116946520745e+17
19127.0	6.627355405582335e+17
19128.0	6.627431077117951e+17
19129.0	6.626264959942655e+17
19130.0	6.625062299194708e+17
19131.0	6.623813010369193e+17
19132.0	6.622548953399296e+17
19133.0	6.621186752511999e+17
19134.0	6.619940520635049e+17
19135.0	6.618757993944403e+17
19136.0	6.617502891114495e+17
19137.0	6.616101531506004e+17
19138.0	6.614962924071593e+17
19139.0	6.613715690455039e+17
19140.0	6.612455058833408e+17
19141.0	6.611192929845247e+17
19142.0	6.609908633261398e+17
19143.0	6.608621085392895e+17
19144.0	6.607373632973482e+17
19145.0	6.606142835436202e+17
19146.0	6.604359513844394e+17
19147.0	6.603538531265193e+17
19148.0	6.602345966206976e+17
19149.0	6.601084378284031e+17
19150.0	6.599825747345407e+17
19151.0	6.598570450878463e+17
19152.0	6.597293857133908e+17
19153.0	6.596015088642729e+17
19154.0	6.594672329053523e+17
19155.0	6.593518961863338e+17
19156.0	6.592251295694847e+17
19157.0	6.590949465522175e+17
19158.0	6.5891652875933e+17
19159.0	6.588433691224746e+17
19160.0	6.58718205288994e+17
19161.0	6.585913415740074e+17
19162.0	6.583335820197888e+17
19163.0	6.583344511494825e+17
19164.0	6.582153274632874e+17
19165.0	6.580856030931625e+17
19166.0	6.579504102593876e+17
19167.0	6.578243446505471e+17
19168.0	6.577091701811881e+17
19169.0	6.575610639941631e+17
19170.0	6.573885119354196e+17
19171.0	6.572550256241321e+17
19172.0	6.571351190011904e+17
19173.0	6.570097546100733e+17
19174.0	6.568791576150015e+17
19175.0	6.567578373718015e+17
19176.0	6.566315449909247e+17
19177.0	6.564918272720895e+17
19178.0	6.563746381387091e+17
19179.0	6.5624160614045e+17
19180.0	6.561241998120275e+17
19181.0	6.559895516785321e+17
19182.0	6.558720875386196e+17
19183.0	6.557471304843263e+17
19184.0	6.556197802999807e+17
19185.0	6.554939346124799e+17
19186.0	6.553678290878463e+17
19187.0	6.552352026787839e+17
19188.0	6.551147875663871e+17
19189.0	6.548960325926911e+17
19190.0	6.546855469689513e+17
19191.0	6.545562715990697e+17
19192.0	6.544338650311338e+17
19193.0	6.543067868474026e+17
19194.0	6.541792066054825e+17
19195.0	6.54053429285137e+17
19196.0	6.539248784812714e+17
19197.0	6.537957283812692e+17
19198.0	6.536573633953791e+17
19199.0	6.527300859680082e+17
19200.0	6.528365532719789e+17
19201.0	6.532797768400895e+17
19202.0	6.531640789215914e+17
19203.0	6.530379451553108e+17
19204.0	6.529123199483903e+17
19205.0	6.527873254948863e+17
19206.0	6.526608542269439e+17
19207.0	6.525268785102847e+17
19208.0	6.523900327712084e+17
19209.0	6.522809704513535e+17
19210.0	6.521545745410729e+17
19211.0	6.520285225637204e+17
19212.0	6.519015028905302e+17
19213.0	6.517614462719315e+17
19214.0	6.5163074994176e+17
19215.0	6.515172310340947e+17
19216.0	6.513935233231529e+17
19217.0	6.512662823305215e+17
19218.0	6.510694193867433e+17
19219.0	6.509983815783766e+17
19220.0	6.508827888670036e+17
19221.0	6.507307278008319e+17
19222.0	6.506299515382441e+17
19223.0	6.505015266334036e+17
19224.0	6.503719874418004e+17
19225.0	6.502365388952916e+17
19226.0	6.501192078546259e+17
19227.0	6.499915238735872e+17
19228.0	6.498664338598569e+17
19229.0	6.497387398124884e+17
19230.0	6.496101122528596e+17
19231.0	6.494821549430099e+17
19232.0	6.49354816922146e+17
19233.0	6.4922154186397e+17
19234.0	6.490977601934676e+17
19235.0	6.489698713206783e+17
19236.0	6.488437481799679e+17
19237.0	6.487142918258687e+17
19238.0	6.485785317124777e+17
19239.0	6.484594025037823e+17
19240.0	6.483290203968852e+17
19241.0	6.482001318816425e+17
19242.0	6.480728051154944e+17
19243.0	6.479311822738771e+17
19244.0	6.478172433066665e+17
19245.0	6.476413611103572e+17
19246.0	6.473412989943807e+17
19247.0	6.472140292008617e+17
19248.0	6.470852774199296e+17
19249.0	6.469561387144534e+17
19250.0	6.468254875429546e+17
19251.0	6.466885190505811e+17
19252.0	6.465437657202688e+17
19253.0	6.464374844336809e+17
19254.0	6.463099046810964e+17
19255.0	6.461641063399423e+17
19256.0	6.460484031086591e+17
19257.0	6.459213402341376e+17
19258.0	6.457914153762815e+17
19259.0	6.456550024194729e+17
19260.0	6.455099878539263e+17
19261.0	6.453999298762068e+17
19262.0	6.45265603306018e+17
19263.0	6.451349072554665e+17
19264.0	6.44963638653747e+17
19265.0	6.448620303111508e+17
19266.0	6.447308686229503e+17
19267.0	6.44617166983441e+17
19268.0	6.444860294124884e+17
19269.0	6.443546900955133e+17
19270.0	6.442228329917097e+17
19271.0	6.440629707298134e+17
19272.0	6.439564809164116e+17
19273.0	6.436368311211348e+17
19274.0	6.433706807219539e+17
19275.0	6.432976786511188e+17
19276.0	6.431637503300947e+17
19277.0	6.430316410787156e+17
19278.0	6.428992048813396e+17
19279.0	6.427653086467411e+17
19280.0	6.42626692981282e+17
19281.0	6.424991044905642e+17
19282.0	6.4236673302528e+17
19283.0	6.422223428517887e+17
19284.0	6.420910610666835e+17
19285.0	6.419494017346217e+17
19286.0	6.417465122750463e+17
19287.0	6.415908104131923e+17
19288.0	6.411643295279784e+17
19289.0	6.405969786088093e+17
19290.0	6.411846661701631e+17
19291.0	6.409048915531094e+17
19292.0	6.407536547375785e+17
19293.0	6.406167448256511e+17
19294.0	6.4047978395293e+17
19295.0	6.40343862219025e+17
19296.0	6.402057694434644e+17
19297.0	6.400672666746879e+17
19298.0	6.399287275552768e+17
19299.0	6.397919826193065e+17
19300.0	6.3965396219549e+17
19301.0	6.395148787253247e+17
19302.0	6.393749547166378e+17
19303.0	6.392299501475156e+17
19304.0	6.390934879076351e+17
19305.0	6.389543692752211e+17
19306.0	6.388140705753769e+17
19307.0	6.386687199761748e+17
19308.0	6.385287537448275e+17
19309.0	6.38361044918818e+17
19310.0	6.382072330103465e+17
19311.0	6.380982820492627e+17
19312.0	6.379602930827264e+17
19313.0	6.378171038782804e+17
19314.0	6.366727512959656e+17
19315.0	6.366053120606222e+17
19316.0	6.373784146324138e+17
19317.0	6.372366019985407e+17
19318.0	6.36948204102178e+17
19319.0	6.367940604941652e+17
19320.0	6.366453974433791e+17
19321.0	6.364961511746217e+17
19322.0	6.363391007042217e+17
19323.0	6.361855554835796e+17
19324.0	6.360453974327295e+17
19325.0	6.358707833842345e+17
19326.0	6.357422652959401e+17
19327.0	6.355896840661673e+17
19328.0	6.354363442965161e+17
19329.0	6.352838549919059e+17
19330.0	6.351256715001855e+17
19331.0	6.349693729286826e+17
19332.0	6.348167211646975e+17
19333.0	6.346590104409428e+17
19334.0	6.3444080932509e+17
19335.0	6.341331876052991e+17
19336.0	6.339744645163689e+17
19337.0	6.338118110849706e+17
19338.0	6.336310077117779e+17
19339.0	6.334841331122176e+17
19340.0	6.333113012933972e+17
19341.0	6.331489272725503e+17
19342.0	6.329516658698921e+17
19343.0	6.328153082778964e+17
19344.0	6.326440103160489e+17
19345.0	6.321247631704063e+17
19346.0	6.31960163791667e+17
19347.0	6.318455730296147e+17
19348.0	6.316752999459497e+17
19349.0	6.314937056668329e+17
19350.0	6.313138685913769e+17
19351.0	6.311315468102313e+17
19352.0	6.309347260192086e+17
19353.0	6.30420739858978e+17
19354.0	6.302302442181972e+17
19355.0	6.300296071697748e+17
19356.0	6.298430392150697e+17
19357.0	6.296466261803007e+17
19358.0	6.293474315162962e+17
19359.0	6.288129526857727e+17
19360.0	6.28600917266705e+17
19361.0	6.283910816202751e+17
19362.0	6.281809293038932e+17
19363.0	6.276467124775596e+17
19364.0	6.272222739387731e+17
19365.0	6.269926023801514e+17
19366.0	6.267598308114432e+17
19367.0	6.260086162150746e+17
19368.0	6.256575951929343e+17
19369.0	6.253992567548585e+17
19370.0	6.249037709705219e+17
19371.0	6.245173854644905e+17
19372.0	6.242512307311956e+17
19373.0	6.239746672732842e+17
19374.0	6.236963963142143e+17
19375.0	6.23411280880162e+17
19376.0	6.231212268628649e+17
19377.0	6.228253394774697e+17
19378.0	6.225245816662697e+17
19379.0	6.222181076478634e+17
19380.0	6.219056786964479e+17
19381.0	6.215866481202516e+17
19382.0	6.21256293622306e+17
19383.0	6.209227564864851e+17
19384.0	6.205935940097363e+17
19385.0	6.202493818809002e+17
19386.0	6.198973130517161e+17
19387.0	6.195318230788777e+17
19388.0	6.191594807317844e+17
19389.0	6.187814411916627e+17
19390.0	6.183968228857171e+17
19391.0	6.171209939724957e+17
19392.0	6.176016817629865e+17
19393.0	6.172173891447465e+17
19394.0	6.168143598714879e+17
19395.0	6.16406297223714e+17
19396.0	6.159951884626601e+17
19397.0	6.155823384363005e+17
19398.0	6.151616243695613e+17
19399.0	6.146842268008447e+17
19400.0	6.142882394144767e+17
19401.0	6.138354839410004e+17
19402.0	6.13371624886545e+17
19403.0	6.128946688382292e+17
19404.0	6.12396835152418e+17
19405.0	6.11908020478498e+17
19406.0	6.114147870354089e+17
19407.0	6.109131039571968e+17
19408.0	6.103471209403734e+17
19409.0	6.098847368828244e+17
19410.0	6.093600014903978e+17
19411.0	6.088234643750912e+17
19412.0	6.082410717730134e+17
19413.0	6.076645920210943e+17
19414.0	6.070951127722666e+17
19415.0	6.065198447547732e+17
19416.0	6.058839394746368e+17
19417.0	6.052158848543401e+17
19418.0	6.046089787823444e+17
19419.0	6.038832705874601e+17
19420.0	6.031505811832831e+17
19421.0	6.02345672085777e+17
19422.0	6.015105906333012e+17
19423.0	6.004648280326141e+17
19424.0	5.993293863190529e+17
19425.0	5.980268182984019e+17
19426.0	5.964247633406624e+17
19427.0	5.944914407849983e+17
19428.0	5.922135739116207e+17
19429.0	5.892539300533592e+17
19430.0	5.874588835643393e+17
19431.0	5.857390360526849e+17
19432.0	5.842329508249599e+17
19433.0	5.8250219225088e+17
19434.0	5.806843328724991e+17
19435.0	5.786998342156285e+17
19436.0	5.766166495275688e+17
19437.0	5.744924658674345e+17
19438.0	5.707924144564908e+17
19439.0	5.6922799387006285e+17
19440.0	5.657851053735943e+17
19441.0	5.6118514010466963e+17
19442.0	5.549382826983413e+17
19443.0	5.488038557777919e+17
19444.0	5.436040913354748e+17
19445.0	5.3729462653201075e+17
19446.0	5.293537201487866e+17
19447.0	5.185848420422991e+17
19448.0	5.0400251958613395e+17
19449.0	4.832928988484949e+17
19450.0	4.470532205794635e+17
19451.0	4.304576420599111e+17
19452.0	4.6748305942992256e+17
19453.0	4.947098721408348e+17
19454.0	5.115458855021219e+17
19455.0	5.238395100637871e+17
19456.0	5.3275665531316915e+17
19457.0	5.395838480853671e+17
19458.0	5.431863654307188e+17
19459.0	5.500882741362691e+17
19460.0	5.566271778542925e+17
19461.0	5.61749660917214e+17
19462.0	5.654658366308352e+17
19463.0	5.6837459001999334e+17
19464.0	5.7071068830324045e+17
19465.0	5.727738080701098e+17
19466.0	5.746703560168788e+17
19467.0	5.764558232748031e+17
19468.0	5.781201032489642e+17
19469.0	5.796539976209747e+17
19470.0	5.811382522653354e+17
19471.0	5.825429845835776e+17
19472.0	5.83870700812151e+17
19473.0	5.861332697306447e+17
19474.0	5.886485773418496e+17
19475.0	5.904042906965334e+17
19476.0	5.919218606276608e+17
19477.0	5.931355903535786e+17
19478.0	5.94139304916855e+17
19479.0	5.949535406784513e+17
19480.0	5.956142636553556e+17
19481.0	5.963077693822294e+17
19482.0	5.967570754600959e+17
19483.0	5.973341836585642e+17
19484.0	5.977392697485994e+17
19485.0	5.981386539619667e+17
19486.0	5.985869670383617e+17
19487.0	5.989441608176979e+17
19488.0	5.992892532610388e+17
19489.0	5.996163265549652e+17
19490.0	5.998852053488979e+17
19491.0	6.003081010828628e+17
19492.0	6.006134575289684e+17
19493.0	6.009053171242324e+17
19494.0	6.011884674569556e+17
19495.0	6.014629722805588e+17
19496.0	6.016994090418175e+17
19497.0	6.019850040246271e+17
19498.0	6.021554873827328e+17
19499.0	6.010818920098464e+17
19500.0	6.027392889913343e+17
19501.0	6.029690564597076e+17
19502.0	6.031886203748351e+17
19503.0	6.033909680002388e+17
19504.0	6.035780206766764e+17
19505.0	6.037617785875114e+17
19506.0	6.039413064029524e+17
19507.0	6.041146694303743e+17
19508.0	6.042868719637844e+17
19509.0	6.044525548011519e+17
19510.0	6.045965251947178e+17
19511.0	6.029608756794697e+17
19512.0	6.047057136233125e+17
19513.0	6.04648151764172e+17
19514.0	6.049134537954641e+17
19515.0	6.0529105174528e+17
19516.0	6.054593184836265e+17
19517.0	6.055678279942141e+17
19518.0	6.056782338894505e+17
19519.0	6.057758509323603e+17
19520.0	6.058652602116778e+17
19521.0	6.059542256637267e+17
19522.0	6.060312602083327e+17
19523.0	6.061071097222483e+17
19524.0	6.061742591311871e+17
19525.0	6.062364426939049e+17
19526.0	6.062943863745193e+17
19527.0	6.063458133650089e+17
19528.0	6.063917005187753e+17
19529.0	6.064337765881172e+17
19530.0	6.064711565049856e+17
19531.0	6.065036158741162e+17
19532.0	6.067522241560572e+17
19533.0	6.068889249120255e+17
19534.0	6.069050234896383e+17
19535.0	6.071549903066456e+17
19536.0	6.074903477004969e+17
19537.0	6.0748948570112e+17
19538.0	6.074735885200041e+17
19539.0	6.076887765876736e+17
19540.0	6.079313123562835e+17
19541.0	6.079106438048425e+17
19542.0	6.078850578513919e+17
19543.0	6.078566086563156e+17
19544.0	6.081329937864018e+17
19545.0	6.081475073365331e+17
19546.0	6.080714776073556e+17
19547.0	6.08104834277922e+17
19548.0	6.08063483613457e+17
19549.0	6.080123470086143e+17
19550.0	6.081904636504744e+17
19551.0	6.082388071284735e+17
19552.0	6.081851057067347e+17
19553.0	6.081281561460735e+17
19554.0	6.08070580375825e+17
19555.0	6.080151101461844e+17
19556.0	6.07957532418594e+17
19557.0	6.078969626143402e+17
19558.0	6.079873409875967e+17
19559.0	6.08017774088465e+17
19560.0	6.079488283290281e+17
19561.0	6.078818144660138e+17
19562.0	6.078154595281577e+17
19563.0	6.077463859822591e+17
19564.0	6.076758735803731e+17
19565.0	6.076043435005267e+17
19566.0	6.075292275004756e+17
19567.0	6.074583313896788e+17
19568.0	6.073818388190548e+17
19569.0	6.073201329176576e+17
19570.0	6.074178034379433e+17
19571.0	6.073392944556714e+17
19572.0	6.07257968648738e+17
19573.0	6.071792584097791e+17
19574.0	6.070923739616596e+17
19575.0	6.070192616505344e+17
19576.0	6.069374079904426e+17
19577.0	6.068534602541737e+17
19578.0	6.0676817041053e+17
19579.0	6.066851796746239e+17
19580.0	6.06600878358528e+17
19581.0	6.06516848763426e+17
19582.0	6.064327331850922e+17
19583.0	6.063465830197929e+17
19584.0	6.062595825991679e+17
19585.0	6.06162982674978e+17
19586.0	6.060723934680404e+17
19587.0	6.059915840498345e+17
19588.0	6.058787194535936e+17
19589.0	6.059486819123199e+17
19590.0	6.058521188980052e+17
19591.0	6.057688688143018e+17
19592.0	6.056781256065023e+17
19593.0	6.055847528497151e+17
19594.0	6.054737847779327e+17
19595.0	6.053990904452436e+17
19596.0	6.052696111622826e+17
19597.0	6.052137102475263e+17
19598.0	6.050910906089471e+17
19599.0	6.050271204824404e+17
19600.0	6.049334750259881e+17
19601.0	6.048328469621418e+17
19602.0	6.047391165710335e+17
19603.0	6.046019782792531e+17
19604.0	6.045467732694356e+17
19605.0	6.044305612690772e+17
19606.0	6.043594673968468e+17
19607.0	6.042636124509524e+17
19608.0	6.041651420069887e+17
19609.0	6.04064900518161e+17
19610.0	6.039714877057705e+17
19611.0	6.038730331302569e+17
19612.0	6.037764104170153e+17
19613.0	6.036772520372906e+17
19614.0	6.035761672137385e+17
19615.0	6.034808036305578e+17
19616.0	6.034142691065855e+17
19617.0	6.034210519252991e+17
19618.0	6.032750385561599e+17
19619.0	6.031716132410708e+17
19620.0	6.030802101993472e+17
19621.0	6.030357124786857e+17
19622.0	6.029367312383999e+17
19623.0	6.028362967416831e+17
19624.0	6.027347788562431e+17
19625.0	6.026347094736895e+17
19626.0	6.025335579607039e+17
19627.0	6.024317275996159e+17
19628.0	6.023108964821674e+17
19629.0	6.022219376011945e+17
19630.0	6.02150704058641e+17
19631.0	6.012349606876499e+17
19632.0	6.020058791455402e+17
19633.0	6.019044788404223e+17
19634.0	6.01806972527138e+17
19635.0	6.017012474751657e+17
19636.0	6.016010568073213e+17
19637.0	6.016285212497236e+17
19638.0	6.01622387499554e+17
19639.0	6.01518869769967e+17
19640.0	6.014091901883734e+17
19641.0	6.012412836009302e+17
19642.0	6.012088775693652e+17
19643.0	6.011050080774825e+17
19644.0	6.009967333780138e+17
19645.0	6.008750155147945e+17
19646.0	6.007931575205887e+17
19647.0	6.006904250346153e+17
19648.0	6.005863025562963e+17
19649.0	6.004818005633705e+17
19650.0	6.003776629855571e+17
19651.0	6.002726429261821e+17
19652.0	6.001684364918783e+17
19653.0	6.000638546673663e+17
19654.0	5.999585285636095e+17
19655.0	5.998540901143892e+17
19656.0	5.997490084686506e+17
19657.0	5.996446539055104e+17
19658.0	5.99539621962274e+17
19659.0	5.994343769483946e+17
19660.0	5.99329339342848e+17
19661.0	5.992240881074176e+17
19662.0	5.991187362086912e+17
19663.0	5.990092061540351e+17
19664.0	5.989041390485504e+17
19665.0	5.988024182986068e+17
