# Flux units: erg / (cm m2 s)
# Wavelength units: Angstrom
wave	flux
19000.0	4.888625744794966e+17
19001.0	4.887713854870868e+17
19002.0	4.886819734115668e+17
19003.0	4.8859166375499085e+17
19004.0	4.885013740213589e+17
19005.0	4.884111221063679e+17
19006.0	4.8832085257530016e+17
19007.0	4.882322725098836e+17
19008.0	4.881423652967766e+17
19009.0	4.8805123963835725e+17
19010.0	4.879583755108351e+17
19011.0	4.878718235312128e+17
19012.0	4.8778118713835514e+17
19013.0	4.876917380830549e+17
19014.0	4.8760153628999674e+17
19015.0	4.8751126466177696e+17
19016.0	4.874205545889792e+17
19017.0	4.8733089176398496e+17
19018.0	4.8724079084393805e+17
19019.0	4.8715067706135885e+17
19020.0	4.870604793926998e+17
19021.0	4.869703574312277e+17
19022.0	4.8688029139380896e+17
19023.0	4.86790174815027e+17
19024.0	4.86699975189026e+17
19025.0	4.8660996717281274e+17
19026.0	4.8651963892148896e+17
19027.0	4.864291626112341e+17
19028.0	4.863398251943253e+17
19029.0	4.8624978089738234e+17
19030.0	4.8615976428284576e+17
19031.0	4.8606975493843616e+17
19032.0	4.859797431473492e+17
19033.0	4.858889589751807e+17
19034.0	4.8579978905081165e+17
19035.0	4.857095247626239e+17
19036.0	4.855661882682025e+17
19037.0	4.855298725860693e+17
19038.0	4.854400182910975e+17
19039.0	4.8535010988960416e+17
19040.0	4.8526021155444045e+17
19041.0	4.8517027707835725e+17
19042.0	4.8507977343522125e+17
19043.0	4.84990602322466e+17
19044.0	4.8490073775144954e+17
19045.0	4.848109260286634e+17
19046.0	4.847206256694613e+17
19047.0	4.846309523587071e+17
19048.0	4.8453975777389216e+17
19049.0	4.844517410035028e+17
19050.0	4.8436197667635194e+17
19051.0	4.842658793695913e+17
19052.0	4.8418047271458125e+17
19053.0	4.840927796745557e+17
19054.0	4.840030018557268e+17
19055.0	4.839111698765141e+17
19056.0	4.838237050765311e+17
19057.0	4.83734043300113e+17
19058.0	4.836443953648981e+17
19059.0	4.835547307922773e+17
19060.0	4.8346494689170765e+17
19061.0	4.8337553607447885e+17
19062.0	4.832858992541695e+17
19063.0	4.83196336673041e+17
19064.0	4.8310596158532256e+17
19065.0	4.8301658956540576e+17
19066.0	4.82927731347729e+17
19067.0	4.828382067250516e+17
19068.0	4.8274869496490656e+17
19069.0	4.826592251478015e+17
19070.0	4.825696674600277e+17
19071.0	4.824803024306175e+17
19072.0	4.823908556122793e+17
19073.0	4.8230138027267405e+17
19074.0	4.8221201964728314e+17
19075.0	4.821226206440106e+17
19076.0	4.820330700865536e+17
19077.0	4.819436812894207e+17
19078.0	4.8185427487621114e+17
19079.0	4.817651829658964e+17
19080.0	4.81675865821457e+17
19081.0	4.815865616793598e+17
19082.0	4.8149691248585376e+17
19083.0	4.814078198065834e+17
19084.0	4.813168394807977e+17
19085.0	4.812294887658836e+17
19086.0	4.811377599665492e+17
19087.0	4.810496131028309e+17
19088.0	4.8096155187281914e+17
19089.0	4.8087075323030176e+17
19090.0	4.8078347256026445e+17
19091.0	4.806942796371285e+17
19092.0	4.806049049608191e+17
19093.0	4.8051609588640403e+17
19094.0	4.8042677412823046e+17
19095.0	4.803376380379136e+17
19096.0	4.8024868943298554e+17
19097.0	4.801597277558102e+17
19098.0	4.8007073105619616e+17
19099.0	4.799817026895871e+17
19100.0	4.7989269403620685e+17
19101.0	4.798035758415871e+17
19102.0	4.797137341295274e+17
19103.0	4.796257534301526e+17
19104.0	4.795368061534207e+17
19105.0	4.7944787083045536e+17
19106.0	4.793587129996629e+17
19107.0	4.792699224500906e+17
19108.0	4.791811625189375e+17
19109.0	4.7908887797432314e+17
19110.0	4.7900317576069114e+17
19111.0	4.78914600239104e+17
19112.0	4.788257771836757e+17
19113.0	4.787369689481215e+17
19114.0	4.786481695206057e+17
19115.0	4.7855910235668474e+17
19116.0	4.784706198787412e+17
19117.0	4.783818318457515e+17
19118.0	4.7829203934685856e+17
19119.0	4.7813874690293734e+17
19120.0	4.781153491178836e+17
19121.0	4.780267342397439e+17
19122.0	4.7793839101269325e+17
19123.0	4.7784973468084896e+17
19124.0	4.7776109967005005e+17
19125.0	4.776724722089983e+17
19126.0	4.7758381203237536e+17
19127.0	4.7747863391764474e+17
19128.0	4.7740659695615994e+17
19129.0	4.773180895920127e+17
19130.0	4.77229594181632e+17
19131.0	4.7714103774412794e+17
19132.0	4.770524945186815e+17
19133.0	4.7696333242368e+17
19134.0	4.768755634667519e+17
19135.0	4.7678708168785914e+17
19136.0	4.7669863542074016e+17
19137.0	4.7660875267440634e+17
19138.0	4.7652155700893005e+17
19139.0	4.76433347719987e+17
19140.0	4.7634497646100474e+17
19141.0	4.7625659702312954e+17
19142.0	4.761682140200959e+17
19143.0	4.7607943381647354e+17
19144.0	4.759913884549119e+17
19145.0	4.7590322837913594e+17
19146.0	4.7580994377263763e+17
19147.0	4.7572537639785805e+17
19148.0	4.756383337545727e+17
19149.0	4.7555007930695674e+17
19150.0	4.7546177012367354e+17
19151.0	4.753736143820117e+17
19152.0	4.752853847506943e+17
19153.0	4.751971979012777e+17
19154.0	4.7510784860050765e+17
19155.0	4.7502082846665376e+17
19156.0	4.7493264923688954e+17
19157.0	4.748444570047829e+17
19158.0	4.747539312017408e+17
19159.0	4.74668110778641e+17
19160.0	4.745801169371136e+17
19161.0	4.744920549381461e+17
19162.0	4.7439865359018656e+17
19163.0	4.743155582763006e+17
19164.0	4.742278987907072e+17
19165.0	4.7413974290923514e+17
19166.0	4.740505559979348e+17
19167.0	4.7396331810979834e+17
19168.0	4.738756454820523e+17
19169.0	4.737876231192576e+17
19170.0	4.736998877167615e+17
19171.0	4.7361159929528314e+17
19172.0	4.735239939162111e+17
19173.0	4.734360666243071e+17
19174.0	4.7334762783703034e+17
19175.0	4.7326026048471034e+17
19176.0	4.731723778621438e+17
19177.0	4.7308314320568294e+17
19178.0	4.7299645742776314e+17
19179.0	4.729083407630334e+17
19180.0	4.7282085198561274e+17
19181.0	4.7273201907357005e+17
19182.0	4.7264494399433376e+17
19183.0	4.725575189004288e+17
19184.0	4.7246960104570874e+17
19185.0	4.7238192415375354e+17
19186.0	4.722942025924606e+17
19187.0	4.722064162990762e+17
19188.0	4.7211868390249805e+17
19189.0	4.720310070804479e+17
19190.0	4.719432624504832e+17
19191.0	4.718555188690943e+17
19192.0	4.717678797258751e+17
19193.0	4.71680175570944e+17
19194.0	4.7159251217066656e+17
19195.0	4.7150480389133645e+17
19196.0	4.714169855814314e+17
19197.0	4.7132935475691514e+17
19198.0	4.7124177174746445e+17
19199.0	4.711229720013483e+17
19200.0	4.71043427725039e+17
19201.0	4.7097894288752634e+17
19202.0	4.7089137700481696e+17
19203.0	4.7080379979748685e+17
19204.0	4.70715999453184e+17
19205.0	4.7062862601912314e+17
19206.0	4.7054099358679034e+17
19207.0	4.704529754882047e+17
19208.0	4.7036410958097056e+17
19209.0	4.702784888766464e+17
19210.0	4.7019096311944525e+17
19211.0	4.701034486868649e+17
19212.0	4.700159442507092e+17
19213.0	4.69927659254579e+17
19214.0	4.6983963053042336e+17
19215.0	4.6975333076828154e+17
19216.0	4.696659677500757e+17
19217.0	4.6957851084936525e+17
19218.0	4.694834965818025e+17
19219.0	4.694023629438976e+17
19220.0	4.6931614133562016e+17
19221.0	4.6922594345724576e+17
19222.0	4.6914096790678176e+17
19223.0	4.6905378230763514e+17
19224.0	4.6896631687850656e+17
19225.0	4.688776483132755e+17
19226.0	4.6879152569057274e+17
19227.0	4.687041199603711e+17
19228.0	4.686167073095679e+17
19229.0	4.685292789301247e+17
19230.0	4.684418499215359e+17
19231.0	4.68354485714944e+17
19232.0	4.6826696002764794e+17
19233.0	4.6817946803459405e+17
19234.0	4.680920788019881e+17
19235.0	4.6800488020049914e+17
19236.0	4.679174742605823e+17
19237.0	4.678299336835072e+17
19238.0	4.6774228657111034e+17
19239.0	4.676553190058665e+17
19240.0	4.6756759814362445e+17
19241.0	4.6748038695922336e+17
19242.0	4.673930030394025e+17
19243.0	4.6730451161361056e+17
19244.0	4.6721833691163296e+17
19245.0	4.671309357252608e+17
19246.0	4.6704339612685645e+17
19247.0	4.6695610713811616e+17
19248.0	4.6686871287234554e+17
19249.0	4.6678128337442125e+17
19250.0	4.6669380850810874e+17
19251.0	4.6660514756253e+17
19252.0	4.6651691590396576e+17
19253.0	4.6643145479290874e+17
19254.0	4.663440784927402e+17
19255.0	4.6625531471680845e+17
19256.0	4.6616867668404896e+17
19257.0	4.6608174686754125e+17
19258.0	4.6599426235432954e+17
19259.0	4.659067704311806e+17
19260.0	4.658182643952298e+17
19261.0	4.657317619782997e+17
19262.0	4.6564423740948474e+17
19263.0	4.655561340267177e+17
19264.0	4.6546426814354765e+17
19265.0	4.653795212525568e+17
19266.0	4.652916829498026e+17
19267.0	4.652064094639444e+17
19268.0	4.651187951370239e+17
19269.0	4.6503116668927994e+17
19270.0	4.64943423107891e+17
19271.0	4.648527651143679e+17
19272.0	4.64767887151377e+17
19273.0	4.646691759543636e+17
19274.0	4.6458463311626234e+17
19275.0	4.6450500509368314e+17
19276.0	4.644172302647295e+17
19277.0	4.64329425236787e+17
19278.0	4.642415927361534e+17
19279.0	4.6415368347975674e+17
19280.0	4.640651667483306e+17
19281.0	4.639778709787989e+17
19282.0	4.638899714392063e+17
19283.0	4.638014916176555e+17
19284.0	4.637138648476329e+17
19285.0	4.63624454869265e+17
19286.0	4.635378155782144e+17
19287.0	4.6344968779857914e+17
19288.0	4.633434469171198e+17
19289.0	4.6324122963148794e+17
19290.0	4.6318507293409274e+17
19291.0	4.6309462339747834e+17
19292.0	4.630083838935038e+17
19293.0	4.629199797092351e+17
19294.0	4.6283161516113914e+17
19295.0	4.627431259723093e+17
19296.0	4.626545814186666e+17
19297.0	4.625659655618559e+17
19298.0	4.6247732230225914e+17
19299.0	4.6238860871816525e+17
19300.0	4.6229985444932256e+17
19301.0	4.622109908489557e+17
19302.0	4.621220753790293e+17
19303.0	4.620328279299413e+17
19304.0	4.6194375286674765e+17
19305.0	4.6185495637524474e+17
19306.0	4.6176577358834336e+17
19307.0	4.6167627399167994e+17
19308.0	4.6158711497250125e+17
19309.0	4.614964197894826e+17
19310.0	4.614066634315093e+17
19311.0	4.6131833544376314e+17
19312.0	4.612288020130474e+17
19313.0	4.6113891038877005e+17
19314.0	4.609708168052736e+17
19315.0	4.6088433410157216e+17
19316.0	4.608687788960426e+17
19317.0	4.607786495945385e+17
19318.0	4.6068827031251616e+17
19319.0	4.6059779141577376e+17
19320.0	4.6050715998617594e+17
19321.0	4.604164253766998e+17
19322.0	4.6032473886993043e+17
19323.0	4.602340539629568e+17
19324.0	4.6014334892332365e+17
19325.0	4.600508980046506e+17
19326.0	4.599605551431679e+17
19327.0	4.59868792300066e+17
19328.0	4.59777100690227e+17
19329.0	4.59685149802496e+17
19330.0	4.5959266791587834e+17
19331.0	4.595005209444351e+17
19332.0	4.5940810973183994e+17
19333.0	4.5931536758865914e+17
19334.0	4.5922240125992954e+17
19335.0	4.5912925828109645e+17
19336.0	4.5903583680047776e+17
19337.0	4.5894218071845536e+17
19338.0	4.588464850163028e+17
19339.0	4.587542680698879e+17
19340.0	4.586586930238804e+17
19341.0	4.585645074109781e+17
19342.0	4.5845771518825805e+17
19343.0	4.583333344313343e+17
19344.0	4.582378263543807e+17
19345.0	4.581249966407678e+17
19346.0	4.5803581881712634e+17
19347.0	4.579487632414036e+17
19348.0	4.578525166873258e+17
19349.0	4.5775530621228365e+17
19350.0	4.576577121681407e+17
19351.0	4.57559738749201e+17
19352.0	4.574611865862143e+17
19353.0	4.5736249132755616e+17
19354.0	4.572632503899477e+17
19355.0	4.5716278911959034e+17
19356.0	4.5706332078079994e+17
19357.0	4.569626331578368e+17
19358.0	4.568612775919615e+17
19359.0	4.567590784816468e+17
19360.0	4.5665702050966176e+17
19361.0	4.565541153581738e+17
19362.0	4.56450940862464e+17
19363.0	4.563467767207253e+17
19364.0	4.5624195896661325e+17
19365.0	4.5613650374819834e+17
19366.0	4.5603030865455776e+17
19367.0	4.559233700506283e+17
19368.0	4.558156710892884e+17
19369.0	4.5570663477411834e+17
19370.0	4.555967149987157e+17
19371.0	4.5548756347999565e+17
19372.0	4.553764240708949e+17
19373.0	4.552643378675711e+17
19374.0	4.5515127306321914e+17
19375.0	4.5503714122792954e+17
19376.0	4.5492200261986976e+17
19377.0	4.5480568904744954e+17
19378.0	4.546882669204819e+17
19379.0	4.5456961907807565e+17
19380.0	4.544496975653546e+17
19381.0	4.5432847351152634e+17
19382.0	4.542052723326974e+17
19383.0	4.540808261446313e+17
19384.0	4.539563476604245e+17
19385.0	4.538295229524651e+17
19386.0	4.537009772516693e+17
19387.0	4.5357071167651834e+17
19388.0	4.534386944901119e+17
19389.0	4.5330485438928205e+17
19390.0	4.53169115107601e+17
19391.0	4.529851304946345e+17
19392.0	4.528881818140672e+17
19393.0	4.527497585972565e+17
19394.0	4.526055728261802e+17
19395.0	4.524591700159145e+17
19396.0	4.523103699511978e+17
19397.0	4.5215919898623994e+17
19398.0	4.520054603382783e+17
19399.0	4.518429331554304e+17
19400.0	4.516895492756821e+17
19401.0	4.5152887066241696e+17
19402.0	4.5136430623621114e+17
19403.0	4.5119659370523296e+17
19404.0	4.510257928383146e+17
19405.0	4.508516629523113e+17
19406.0	4.5067414043361274e+17
19407.0	4.5049311322439674e+17
19408.0	4.5030111874908154e+17
19409.0	4.501157124767744e+17
19410.0	4.498528053231615e+17
19411.0	4.496564743569407e+17
19412.0	4.494558343725055e+17
19413.0	4.492506972553214e+17
19414.0	4.4904048922460154e+17
19415.0	4.4882602369570125e+17
19416.0	4.486045821304832e+17
19417.0	4.4837989920713376e+17
19418.0	4.480954905832106e+17
19419.0	4.477974181751466e+17
19420.0	4.4755224915258016e+17
19421.0	4.4729942769227085e+17
19422.0	4.4697576800255994e+17
19423.0	4.4660691175123616e+17
19424.0	4.46322060698146e+17
19425.0	4.4583774357640544e+17
19426.0	4.454598843913554e+17
19427.0	4.449126910175914e+17
19428.0	4.443045389576872e+17
19429.0	4.4357997902342835e+17
19430.0	4.426022072090624e+17
19431.0	4.413821086422359e+17
19432.0	4.396465651362475e+17
19433.0	4.381754538328064e+17
19434.0	4.373273997475838e+17
19435.0	4.3639260913336314e+17
19436.0	4.353243330467157e+17
19437.0	4.3422485266650445e+17
19438.0	4.329520158299476e+17
19439.0	4.3163694563764896e+17
19440.0	4.3018510024048634e+17
19441.0	4.2841124931720506e+17
19442.0	4.2588681888508646e+17
19443.0	4.2098488952313197e+17
19444.0	4.1514359817502694e+17
19445.0	4.109725077602305e+17
19446.0	4.062703932932095e+17
19447.0	4.009230742847484e+17
19448.0	3.900670998478849e+17
19449.0	3.7351053793252717e+17
19450.0	3.243107806784147e+17
19451.0	3.065786672698694e+17
19452.0	3.5376397056737434e+17
19453.0	3.8234114140842797e+17
19454.0	3.966857646877348e+17
19455.0	4.032240756107946e+17
19456.0	4.080428011661997e+17
19457.0	4.123264025974099e+17
19458.0	4.1655171844232595e+17
19459.0	4.2276536737682835e+17
19460.0	4.259865171416403e+17
19461.0	4.278388502036479e+17
19462.0	4.292852786571946e+17
19463.0	4.3052779354193914e+17
19464.0	4.3165059397277005e+17
19465.0	4.326345201593002e+17
19466.0	4.3355361722586445e+17
19467.0	4.343933145797973e+17
19468.0	4.351166101411157e+17
19469.0	4.359576078690989e+17
19470.0	4.375893459861507e+17
19471.0	4.389225104758099e+17
19472.0	4.39778523462588e+17
19473.0	4.404520006888107e+17
19474.0	4.409649820336125e+17
19475.0	4.413196308490924e+17
19476.0	4.4165659654881274e+17
19477.0	4.4191452771997005e+17
19478.0	4.4213163873621325e+17
19479.0	4.422530104295422e+17
19480.0	4.425056174910123e+17
19481.0	4.425986080767999e+17
19482.0	4.426839042118996e+17
19483.0	4.427618206788265e+17
19484.0	4.429319659760298e+17
19485.0	4.4300714999371085e+17
19486.0	4.430656694124544e+17
19487.0	4.431190632518996e+17
19488.0	4.4316686615401805e+17
19489.0	4.432072315065684e+17
19490.0	4.4323538689064954e+17
19491.0	4.432815013756927e+17
19492.0	4.4331083403100154e+17
19493.0	4.4340116067450874e+17
19494.0	4.4343019770129056e+17
19495.0	4.43447798538786e+17
19496.0	4.434577823804074e+17
19497.0	4.4347187118735354e+17
19498.0	4.4346624257119565e+17
19499.0	4.434108195973802e+17
19500.0	4.4348367339956896e+17
19501.0	4.4348130194008736e+17
19502.0	4.4347587926425594e+17
19503.0	4.434676941499049e+17
19504.0	4.4345699350173005e+17
19505.0	4.4344382415612576e+17
19506.0	4.434281013182463e+17
19507.0	4.43409885176354e+17
19508.0	4.433895327356245e+17
19509.0	4.4336678541721594e+17
19510.0	4.4333999269259936e+17
19511.0	4.431820772169044e+17
19512.0	4.4327015585327776e+17
19513.0	4.432311588225023e+17
19514.0	4.432043512081066e+17
19515.0	4.4318320513515514e+17
19516.0	4.4315081811776845e+17
19517.0	4.431125272679764e+17
19518.0	4.430734982206804e+17
19519.0	4.430325215483221e+17
19520.0	4.429899587999061e+17
19521.0	4.429463653012821e+17
19522.0	4.429012601754966e+17
19523.0	4.428548923544917e+17
19524.0	4.428072935052628e+17
19525.0	4.427583969383764e+17
19526.0	4.4270862823587846e+17
19527.0	4.426576740832597e+17
19528.0	4.42605683937553e+17
19529.0	4.4255269561739936e+17
19530.0	4.4249876469732685e+17
19531.0	4.424439135469566e+17
19532.0	4.4238819501451936e+17
19533.0	4.4233163223859194e+17
19534.0	4.4227426478544205e+17
19535.0	4.422161315921918e+17
19536.0	4.421571852632063e+17
19537.0	4.420976607494143e+17
19538.0	4.420357344373418e+17
19539.0	4.419718469386239e+17
19540.0	4.4191489702843725e+17
19541.0	4.418527689703423e+17
19542.0	4.41790034555699e+17
19543.0	4.417267408306175e+17
19544.0	4.4166291792418125e+17
19545.0	4.4159330932490234e+17
19546.0	4.4152591531813536e+17
19547.0	4.414684350382079e+17
19548.0	4.414025539867989e+17
19549.0	4.41335716843793e+17
19550.0	4.4126985550561274e+17
19551.0	4.4120286261411834e+17
19552.0	4.4113544190361594e+17
19553.0	4.4106739372523514e+17
19554.0	4.4099919301399885e+17
19555.0	4.40931047248145e+17
19556.0	4.4086222759744845e+17
19557.0	4.4079305101148154e+17
19558.0	4.4072362025069216e+17
19559.0	4.4065388155808416e+17
19560.0	4.405838802321407e+17
19561.0	4.405135806911828e+17
19562.0	4.404430227111934e+17
19563.0	4.4037220503388154e+17
19564.0	4.403011419897854e+17
19565.0	4.402298436452351e+17
19566.0	4.401581464922793e+17
19567.0	4.400865560843604e+17
19568.0	4.400146218833238e+17
19569.0	4.399423798902783e+17
19570.0	4.398701215394474e+17
19571.0	4.397975834285396e+17
19572.0	4.397248403559765e+17
19573.0	4.3965189176251725e+17
19574.0	4.395788986395307e+17
19575.0	4.395056708452351e+17
19576.0	4.3943229079770445e+17
19577.0	4.3935855842863776e+17
19578.0	4.392846364770304e+17
19579.0	4.3921125181576525e+17
19580.0	4.391372431818751e+17
19581.0	4.390630648883882e+17
19582.0	4.3898899585652045e+17
19583.0	4.389146621640702e+17
19584.0	4.388400873690453e+17
19585.0	4.3876500695067296e+17
19586.0	4.3868975834071034e+17
19587.0	4.3861597801676794e+17
19588.0	4.3853689084968954e+17
19589.0	4.3846628750131194e+17
19590.0	4.383904564423338e+17
19591.0	4.3831608667886925e+17
19592.0	4.382408205926399e+17
19593.0	4.3816551438090234e+17
19594.0	4.3808823391027194e+17
19595.0	4.380141509672959e+17
19596.0	4.37937044001041e+17
19597.0	4.3786317315003725e+17
19598.0	4.377837844125012e+17
19599.0	4.377118480444074e+17
19600.0	4.376360340422656e+17
19601.0	4.375597627211775e+17
19602.0	4.374833917853695e+17
19603.0	4.3740414313758714e+17
19604.0	4.373315823075328e+17
19605.0	4.3725350282199034e+17
19606.0	4.3717963861196794e+17
19607.0	4.371034318132565e+17
19608.0	4.370270956202666e+17
19609.0	4.3695057047388154e+17
19610.0	4.3687518142463994e+17
19611.0	4.368008996716543e+17
19612.0	4.367244914065407e+17
19613.0	4.366479708738902e+17
19614.0	4.365714070700031e+17
19615.0	4.3649476273547936e+17
19616.0	4.364177778933759e+17
19617.0	4.363414979040597e+17
19618.0	4.3625904620612256e+17
19619.0	4.361812652152149e+17
19620.0	4.3610512930024096e+17
19621.0	4.36034495053824e+17
19622.0	4.359576719021396e+17
19623.0	4.358808237244415e+17
19624.0	4.3580394220202656e+17
19625.0	4.357270465587882e+17
19626.0	4.356501093919401e+17
19627.0	4.3557314307467936e+17
19628.0	4.3549539640715936e+17
19629.0	4.3541843295600634e+17
19630.0	4.353373775418708e+17
19631.0	4.3523091037771085e+17
19632.0	4.351880899592191e+17
19633.0	4.3511102074170016e+17
19634.0	4.3503395089503565e+17
19635.0	4.349568604962815e+17
19636.0	4.3487973297793696e+17
19637.0	4.347997297049599e+17
19638.0	4.3472534470219085e+17
19639.0	4.346483250473642e+17
19640.0	4.345692561255082e+17
19641.0	4.3448455173679776e+17
19642.0	4.344167963208361e+17
19643.0	4.343395805123925e+17
19644.0	4.342619814843732e+17
19645.0	4.341826348995926e+17
19646.0	4.341079534294357e+17
19647.0	4.3403072398950394e+17
19648.0	4.339534876289706e+17
19649.0	4.338762168751445e+17
19650.0	4.3379898995179514e+17
19651.0	4.33721735975185e+17
19652.0	4.336444742391125e+17
19653.0	4.335671923004757e+17
19654.0	4.3348993951225165e+17
19655.0	4.334126221317461e+17
