# Flux units: erg / (cm m2 s)
# Wavelength units: Angstrom
wave	flux
19000.0	6.296819262117203e+17
19001.0	6.295561049909929e+17
19002.0	6.294501966479359e+17
19003.0	6.293340992918868e+17
19004.0	6.292181349651798e+17
19005.0	6.291017080067411e+17
19006.0	6.289864760055124e+17
19007.0	6.288702949031935e+17
19008.0	6.287487077624489e+17
19009.0	6.28624612008482e+17
19010.0	6.284816111981907e+17
19011.0	6.284030609719295e+17
19012.0	6.282775066487465e+17
19013.0	6.281742345655638e+17
19014.0	6.280532593038675e+17
19015.0	6.27938900976162e+17
19016.0	6.278230854074367e+17
19017.0	6.277112129039018e+17
19018.0	6.275946769634643e+17
19019.0	6.274795819761663e+17
19020.0	6.273625495000404e+17
19021.0	6.272486434581161e+17
19022.0	6.271324270537385e+17
19023.0	6.270133181874175e+17
19024.0	6.26899526230562e+17
19025.0	6.2678533944989e+17
19026.0	6.26667490971921e+17
19027.0	6.265485312131072e+17
19028.0	6.264384125577897e+17
19029.0	6.263213715532457e+17
19030.0	6.262086607481514e+17
19031.0	6.260929883450025e+17
19032.0	6.259767227973631e+17
19033.0	6.258520927589715e+17
19034.0	6.25742716215842e+17
19035.0	6.256123036303359e+17
19036.0	6.25054936482884e+17
19037.0	6.253872621638995e+17
19038.0	6.252799631993514e+17
19039.0	6.251683015294975e+17
19040.0	6.250533368452436e+17
19041.0	6.249373089748308e+17
19042.0	6.248072262014291e+17
19043.0	6.247074931321513e+17
19044.0	6.245909706833919e+17
19045.0	6.244765520975187e+17
19046.0	6.243566595254953e+17
19047.0	6.242418902958079e+17
19048.0	6.24111298683426e+17
19049.0	6.239947930118825e+17
19050.0	6.238929673344339e+17
19051.0	6.237132932775933e+17
19052.0	6.236461963673599e+17
19053.0	6.235532605871444e+17
19054.0	6.234390800280233e+17
19055.0	6.232969343664128e+17
19056.0	6.232054969313961e+17
19057.0	6.2309326665373e+17
19058.0	6.229711465567572e+17
19059.0	6.228604994191359e+17
19060.0	6.22746951291153e+17
19061.0	6.22633659994385e+17
19062.0	6.225181699735551e+17
19063.0	6.224030083667284e+17
19064.0	6.22277540516113e+17
19065.0	6.221559978349908e+17
19066.0	6.220501229764608e+17
19067.0	6.219423118873939e+17
19068.0	6.218286872832682e+17
19069.0	6.217138438144e+17
19070.0	6.215961411583999e+17
19071.0	6.214834773994154e+17
19072.0	6.213667856405844e+17
19073.0	6.212540446365011e+17
19074.0	6.211395989274623e+17
19075.0	6.210247530818218e+17
19076.0	6.20908419027217e+17
19077.0	6.207933531204265e+17
19078.0	6.206772791126697e+17
19079.0	6.205655821407571e+17
19080.0	6.20449604182562e+17
19081.0	6.203315622073684e+17
19082.0	6.202182835634175e+17
19083.0	6.20096335782434e+17
19084.0	6.199698633960105e+17
19085.0	6.198759975288831e+17
19086.0	6.19722074820881e+17
19087.0	6.196345506714964e+17
19088.0	6.195196154871808e+17
19089.0	6.193966099027284e+17
19090.0	6.193002293406376e+17
19091.0	6.191868788342783e+17
19092.0	6.190639626584064e+17
19093.0	6.189609557950463e+17
19094.0	6.188469010650451e+17
19095.0	6.187325511958527e+17
19096.0	6.186169147239082e+17
19097.0	6.185034025271295e+17
19098.0	6.183866679863978e+17
19099.0	6.182717942486358e+17
19100.0	6.181589970408787e+17
19101.0	6.180455773285033e+17
19102.0	6.179220224999423e+17
19103.0	6.178174368306516e+17
19104.0	6.177035791630335e+17
19105.0	6.175829072194218e+17
19106.0	6.174733977867604e+17
19107.0	6.173569474101247e+17
19108.0	6.172421604944553e+17
19109.0	6.171079817734825e+17
19110.0	6.170119246621354e+17
19111.0	6.169017669298858e+17
19112.0	6.167879166722045e+17
19113.0	6.166758206122665e+17
19114.0	6.165605698065748e+17
19115.0	6.164427267112959e+17
19116.0	6.163313022293332e+17
19117.0	6.162168316340905e+17
19118.0	6.160900518051839e+17
19119.0	6.154339257155575e+17
19120.0	6.158686003134463e+17
19121.0	6.157600364167168e+17
19122.0	6.156499708892499e+17
19123.0	6.155362791762601e+17
19124.0	6.154194373312511e+17
19125.0	6.153074162794495e+17
19126.0	6.151876284252159e+17
19127.0	6.149251642600105e+17
19128.0	6.149573700135593e+17
19129.0	6.148440126565033e+17
19130.0	6.147381551344297e+17
19131.0	6.146259827381588e+17
19132.0	6.145121395408895e+17
19133.0	6.143936502431743e+17
19134.0	6.142842759370068e+17
19135.0	6.141711974312618e+17
19136.0	6.140574958616575e+17
19137.0	6.139312066265087e+17
19138.0	6.138287852879872e+17
19139.0	6.137172834910207e+17
19140.0	6.136040751715668e+17
19141.0	6.13490585833745e+17
19142.0	6.133745057442474e+17
19143.0	6.132587790248618e+17
19144.0	6.131456680831657e+17
19145.0	6.130365531947007e+17
19146.0	6.128614559623852e+17
19147.0	6.128023559820627e+17
19148.0	6.126939813882538e+17
19149.0	6.12579684786722e+17
19150.0	6.124691928383487e+17
19151.0	6.123556165386237e+17
19152.0	6.122421473334612e+17
19153.0	6.121223875111594e+17
19154.0	6.120053624449706e+17
19155.0	6.119018659665236e+17
19156.0	6.117886254907391e+17
19157.0	6.116709408702463e+17
19158.0	6.115455908096682e+17
19159.0	6.1144562153117e+17
19160.0	6.113342932385791e+17
19161.0	6.112200456404991e+17
19162.0	6.110712566906879e+17
19163.0	6.109875102810111e+17
19164.0	6.108828085693097e+17
19165.0	6.107642742527316e+17
19166.0	6.106460280149331e+17
19167.0	6.105408096348842e+17
19168.0	6.104308573536255e+17
19169.0	6.103180312051711e+17
19170.0	6.1020572235421e+17
19171.0	6.100913633274538e+17
19172.0	6.099797712830463e+17
19173.0	6.098671604421971e+17
19174.0	6.097496122763944e+17
19175.0	6.096410864779263e+17
19176.0	6.095282181767167e+17
19177.0	6.094006178021375e+17
19178.0	6.093010936791039e+17
19179.0	6.091872208420863e+17
19180.0	6.090757884608512e+17
19181.0	6.089528198561791e+17
19182.0	6.088495367279956e+17
19183.0	6.087389664160426e+17
19184.0	6.086258982562473e+17
19185.0	6.085123969646591e+17
19186.0	6.084005314516308e+17
19187.0	6.08281289695778e+17
19188.0	6.081748042863956e+17
19189.0	6.080625196225875e+17
19190.0	6.079494669817171e+17
19191.0	6.078335174049791e+17
19192.0	6.077239209405098e+17
19193.0	6.076096388792319e+17
19194.0	6.074951546525012e+17
19195.0	6.073835961625257e+17
19196.0	6.072671128606036e+17
19197.0	6.071499086976339e+17
19198.0	6.070146470073683e+17
19199.0	6.066570861565267e+17
19200.0	6.065878834959702e+17
19201.0	6.066769206007124e+17
19202.0	6.06584752587844e+17
19203.0	6.064766173489833e+17
19204.0	6.063652562709161e+17
19205.0	6.062545580326912e+17
19206.0	6.061430786752511e+17
19207.0	6.060192353484799e+17
19208.0	6.059001701029203e+17
19209.0	6.058063397475668e+17
19210.0	6.056941322589524e+17
19211.0	6.055832326242304e+17
19212.0	6.054706199658495e+17
19213.0	6.053480133296127e+17
19214.0	6.052351288104276e+17
19215.0	6.051319738881364e+17
19216.0	6.050206560114004e+17
19217.0	6.049047300625748e+17
19218.0	6.047289924998483e+17
19219.0	6.046642987160915e+17
19220.0	6.04568302002722e+17
19221.0	6.044341448824148e+17
19222.0	6.043430586504532e+17
19223.0	6.042328952558931e+17
19224.0	6.041176739501395e+17
19225.0	6.039989655000403e+17
19226.0	6.038961749928618e+17
19227.0	6.037842493614762e+17
19228.0	6.036747539098282e+17
19229.0	6.03562393468928e+17
19230.0	6.034499833255252e+17
19231.0	6.033366498060969e+17
19232.0	6.032249430474751e+17
19233.0	6.031067429470205e+17
19234.0	6.029995742855167e+17
19235.0	6.028860816621567e+17
19236.0	6.027758573103786e+17
19237.0	6.026620277445972e+17
19238.0	6.025422148643497e+17
19239.0	6.024391208293716e+17
19240.0	6.023266395226111e+17
19241.0	6.022125507488425e+17
19242.0	6.021009834508287e+17
19243.0	6.01974409142818e+17
19244.0	6.018783325978624e+17
19245.0	6.017654618499754e+17
19246.0	6.01652533010978e+17
19247.0	6.01540992766225e+17
19248.0	6.014294927867903e+17
19249.0	6.013171151492436e+17
19250.0	6.01201958645487e+17
19251.0	6.01082153944132e+17
19252.0	6.009508381851647e+17
19253.0	6.008658715126441e+17
19254.0	6.007560658223103e+17
19255.0	6.006242670892372e+17
19256.0	6.005296112249514e+17
19257.0	6.004193518507348e+17
19258.0	6.003069831610367e+17
19259.0	6.001869791603369e+17
19260.0	6.000701139670356e+17
19261.0	5.999630170980351e+17
19262.0	5.998459518364329e+17
19263.0	5.997301420698281e+17
19264.0	5.995782109571753e+17
19265.0	5.994950109254996e+17
19266.0	5.993797097881599e+17
19267.0	5.992901803420329e+17
19268.0	5.991772201156605e+17
19269.0	5.990649727811583e+17
19270.0	5.989505228079103e+17
19271.0	5.988108932393642e+17
19272.0	5.987238405297492e+17
19273.0	5.985830753533951e+17
19274.0	5.984579653468159e+17
19275.0	5.983901112249001e+17
19276.0	5.982758303520084e+17
19277.0	5.981637679164073e+17
19278.0	5.980514343889577e+17
19279.0	5.979364488030889e+17
19280.0	5.978190255576406e+17
19281.0	5.977117920242346e+17
19282.0	5.976006519160831e+17
19283.0	5.974853735677951e+17
19284.0	5.973699527529812e+17
19285.0	5.972491636484778e+17
19286.0	5.971435839990441e+17
19287.0	5.970324938031101e+17
19288.0	5.967761099806035e+17
19289.0	5.965056163097253e+17
19290.0	5.966890272817151e+17
19291.0	5.965536954766678e+17
19292.0	5.964638595667284e+17
19293.0	5.963504807488169e+17
19294.0	5.962365638017021e+17
19295.0	5.961243802206207e+17
19296.0	5.960072422577492e+17
19297.0	5.958950779005609e+17
19298.0	5.957809503993856e+17
19299.0	5.956665634106026e+17
19300.0	5.955555232666964e+17
19301.0	5.954418070869332e+17
19302.0	5.953266677099178e+17
19303.0	5.95206764232704e+17
19304.0	5.950973196020393e+17
19305.0	5.949836426390185e+17
19306.0	5.948699918903978e+17
19307.0	5.947513913038163e+17
19308.0	5.946382009499647e+17
19309.0	5.945164913355434e+17
19310.0	5.943967780001108e+17
19311.0	5.942911770995369e+17
19312.0	5.941801691119613e+17
19313.0	5.940639950700543e+17
19314.0	5.932805870234277e+17
19315.0	5.932253745337695e+17
19316.0	5.93712396701969e+17
19317.0	5.936038961392297e+17
19318.0	5.934888610605737e+17
19319.0	5.933752430275242e+17
19320.0	5.932580098539519e+17
19321.0	5.931399260755284e+17
19322.0	5.930198783142569e+17
19323.0	5.929058569289728e+17
19324.0	5.92791084343842e+17
19325.0	5.926700474957823e+17
19326.0	5.925579184406527e+17
19327.0	5.924408040357887e+17
19328.0	5.923191776083967e+17
19329.0	5.922072433087828e+17
19330.0	5.920864042920618e+17
19331.0	5.919651602453844e+17
19332.0	5.918472777236479e+17
19333.0	5.917274844867242e+17
19334.0	5.916097036768595e+17
19335.0	5.914796938843476e+17
19336.0	5.913707537585492e+17
19337.0	5.912506783847764e+17
19338.0	5.911102230975827e+17
19339.0	5.91009901847074e+17
19340.0	5.908764101530963e+17
19341.0	5.907573417618089e+17
19342.0	5.906138811858941e+17
19343.0	5.905224540968276e+17
19344.0	5.903937763453609e+17
19345.0	5.901034746544124e+17
19346.0	5.900579880566783e+17
19347.0	5.900198810572116e+17
19348.0	5.899093306682025e+17
19349.0	5.897807522518356e+17
19350.0	5.896473153634303e+17
19351.0	5.895225468431017e+17
19352.0	5.893883783282687e+17
19353.0	5.892743739299156e+17
19354.0	5.891476157016746e+17
19355.0	5.890101618584233e+17
19356.0	5.888913574286676e+17
19357.0	5.887625334358015e+17
19358.0	5.886325060971178e+17
19359.0	5.884977164058623e+17
19360.0	5.883535184713044e+17
19361.0	5.882220607351465e+17
19362.0	5.88092410953728e+17
19363.0	5.879589164635476e+17
19364.0	5.878212148767402e+17
19365.0	5.876850669999443e+17
19366.0	5.875487431720959e+17
19367.0	5.874108980002815e+17
19368.0	5.872524885054803e+17
19369.0	5.871088125520553e+17
19370.0	5.869688817625769e+17
19371.0	5.868248227293865e+17
19372.0	5.866871291816618e+17
19373.0	5.865407397931689e+17
19374.0	5.863754726812329e+17
19375.0	5.862205661293225e+17
19376.0	5.860718804991999e+17
19377.0	5.85920205169186e+17
19378.0	5.857641499372202e+17
19379.0	5.855767763266217e+17
19380.0	5.854208601358335e+17
19381.0	5.852620851074388e+17
19382.0	5.850826631981737e+17
19383.0	5.848740792019625e+17
19384.0	5.847153132612265e+17
19385.0	5.845492293085866e+17
19386.0	5.843527558059348e+17
19387.0	5.841775073689599e+17
19388.0	5.840020934666921e+17
19389.0	5.838230770767188e+17
19390.0	5.836368024436735e+17
19391.0	5.830539591636303e+17
19392.0	5.832318786732031e+17
19393.0	5.83061173506321e+17
19394.0	5.828677512200191e+17
19395.0	5.826677568088746e+17
19396.0	5.82465149346338e+17
19397.0	5.822542228313428e+17
19398.0	5.82026450313762e+17
19399.0	5.8172507174557e+17
19400.0	5.815486154888532e+17
19401.0	5.813299456595284e+17
19402.0	5.810930144597331e+17
19403.0	5.808022009937919e+17
19404.0	5.805430061487444e+17
19405.0	5.80277282869521e+17
19406.0	5.799767558848512e+17
19407.0	5.796569927035561e+17
19408.0	5.793038770459988e+17
19409.0	5.790105648234496e+17
19410.0	5.786757447199402e+17
19411.0	5.783163462047059e+17
19412.0	5.779010324441769e+17
19413.0	5.775292659051178e+17
19414.0	5.770512263981737e+17
19415.0	5.766205659589289e+17
19416.0	5.760991746850815e+17
19417.0	5.755603869062485e+17
19418.0	5.7503264853196794e+17
19419.0	5.744831695421439e+17
19420.0	5.74012379050803e+17
19421.0	5.734707384461994e+17
19422.0	5.7291661293649914e+17
19423.0	5.723664736933204e+17
19424.0	5.7171316226129914e+17
19425.0	5.710905189509802e+17
19426.0	5.703730915005779e+17
19427.0	5.696206556626943e+17
19428.0	5.6874213701932365e+17
19429.0	5.678580254812843e+17
19430.0	5.667621114478592e+17
19431.0	5.6558061459865594e+17
19432.0	5.6443194593771514e+17
19433.0	5.6306867962729824e+17
19434.0	5.614690180792319e+17
19435.0	5.598470583528103e+17
19436.0	5.580745780581715e+17
19437.0	5.562455601534291e+17
19438.0	5.5357458961749344e+17
19439.0	5.5213179846437555e+17
19440.0	5.497544507391998e+17
19441.0	5.468930327270737e+17
19442.0	5.436887447633923e+17
19443.0	5.39937745351475e+17
19444.0	5.354487524884478e+17
19445.0	5.301069107516759e+17
19446.0	5.2358130178894496e+17
19447.0	5.1529810643517395e+17
19448.0	5.0424252632924205e+17
19449.0	4.8791106019655686e+17
19450.0	4.575565520568326e+17
19451.0	4.359365081432102e+17
19452.0	4.7568954047419744e+17
19453.0	4.969326143253169e+17
19454.0	5.098326147989499e+17
19455.0	5.1912045123775123e+17
19456.0	5.2614037234865504e+17
19457.0	5.318799019824467e+17
19458.0	5.347311047671837e+17
19459.0	5.403292912495278e+17
19460.0	5.436882388604244e+17
19461.0	5.464738202910719e+17
19462.0	5.4887075646450355e+17
19463.0	5.509474078949375e+17
19464.0	5.52727869390848e+17
19465.0	5.5438936763269114e+17
19466.0	5.5612007678388864e+17
19467.0	5.57533113544431e+17
19468.0	5.588889699876861e+17
19469.0	5.600953505240406e+17
19470.0	5.6122225626972154e+17
19471.0	5.62230095581457e+17
19472.0	5.630684736170667e+17
19473.0	5.6382090365282976e+17
19474.0	5.6452284831935136e+17
19475.0	5.650051120496638e+17
19476.0	5.656408192188413e+17
19477.0	5.6607009994178554e+17
19478.0	5.665129549703849e+17
19479.0	5.6689059423409485e+17
19480.0	5.6721930882908154e+17
19481.0	5.6757258044484256e+17
19482.0	5.678579255170388e+17
19483.0	5.681505040859134e+17
19484.0	5.6844171705931085e+17
19485.0	5.688483093239122e+17
19486.0	5.690855364318547e+17
19487.0	5.6939684655267834e+17
19488.0	5.6959817216600723e+17
19489.0	5.6980754937501e+17
19490.0	5.6985778930756256e+17
19491.0	5.701744358413652e+17
19492.0	5.702866247352319e+17
19493.0	5.704509919592447e+17
19494.0	5.705421348143103e+17
19495.0	5.70615024268083e+17
19496.0	5.707004278472703e+17
19497.0	5.7078464290051405e+17
19498.0	5.707479967771306e+17
19499.0	5.702501589669202e+17
19500.0	5.7094287008290125e+17
19501.0	5.7097267459741005e+17
19502.0	5.709891883412138e+17
19503.0	5.710028565992788e+17
19504.0	5.7103330563850214e+17
19505.0	5.710314513367039e+17
19506.0	5.710281920129706e+17
19507.0	5.710143961781588e+17
19508.0	5.7099937693477536e+17
19509.0	5.70976212492834e+17
19510.0	5.7093805257523194e+17
19511.0	5.698084550650529e+17
19512.0	5.707820703940604e+17
19513.0	5.706609138685266e+17
19514.0	5.7068873293933203e+17
19515.0	5.7076178848754336e+17
19516.0	5.707719556901545e+17
19517.0	5.70741031646003e+17
19518.0	5.706997741649919e+17
19519.0	5.706562492432383e+17
19520.0	5.7064842197292365e+17
19521.0	5.706020163332777e+17
19522.0	5.7054227511377914e+17
19523.0	5.7049278624126285e+17
19524.0	5.704612310941696e+17
19525.0	5.704024603667113e+17
19526.0	5.703403759293781e+17
19527.0	5.702753969329492e+17
19528.0	5.7021841773253965e+17
19529.0	5.7016695481084576e+17
19530.0	5.7010029068288e+17
19531.0	5.7003030340785485e+17
19532.0	5.69959054975522e+17
19533.0	5.6988660487509325e+17
19534.0	5.6981280861279565e+17
19535.0	5.697528253819562e+17
19536.0	5.6967729526429e+17
19537.0	5.696039510081535e+17
19538.0	5.69507520254225e+17
19539.0	5.694015608105643e+17
19540.0	5.6936807495543443e+17
19541.0	5.6929130982495565e+17
19542.0	5.692105801684308e+17
19543.0	5.691380654757204e+17
19544.0	5.690584756912126e+17
19545.0	5.689258230677502e+17
19546.0	5.688146016600062e+17
19547.0	5.688078434478762e+17
19548.0	5.687247477145599e+17
19549.0	5.686298869585236e+17
19550.0	5.6855368770955936e+17
19551.0	5.684673645991253e+17
19552.0	5.6838013887447034e+17
19553.0	5.6829031722516474e+17
19554.0	5.682068495269887e+17
19555.0	5.681222625787902e+17
19556.0	5.680350706881877e+17
19557.0	5.6794570279266976e+17
19558.0	5.678557860724735e+17
19559.0	5.6776588543044256e+17
19560.0	5.6767133316546554e+17
19561.0	5.675818235024724e+17
19562.0	5.674920233140223e+17
19563.0	5.674020447977471e+17
19564.0	5.673102128185344e+17
19565.0	5.672180452250964e+17
19566.0	5.671229281970858e+17
19567.0	5.670326673342463e+17
19568.0	5.669373615625556e+17
19569.0	5.6684457775595514e+17
19570.0	5.6675325167970976e+17
19571.0	5.666593417024852e+17
19572.0	5.665622795659947e+17
19573.0	5.664749979172863e+17
19574.0	5.663762681255253e+17
19575.0	5.662926985057621e+17
19576.0	5.6619745718654285e+17
19577.0	5.661007300351317e+17
19578.0	5.6600419624113485e+17
19579.0	5.659093544293715e+17
19580.0	5.658140411778389e+17
19581.0	5.657198127830356e+17
19582.0	5.6562539585426765e+17
19583.0	5.6552941284229114e+17
19584.0	5.6543311176226125e+17
19585.0	5.653253799455402e+17
19586.0	5.652261143314431e+17
19587.0	5.651408276335273e+17
19588.0	5.650061842535764e+17
19589.0	5.6494614474915834e+17
19590.0	5.648431945788074e+17
19591.0	5.64755606676002e+17
19592.0	5.6465922226913274e+17
19593.0	5.645597330287274e+17
19594.0	5.644392445859155e+17
19595.0	5.643648990096042e+17
19596.0	5.642637923057664e+17
19597.0	5.641704297551188e+17
19598.0	5.6403424874332154e+17
19599.0	5.639753238052862e+17
19600.0	5.638787407282175e+17
19601.0	5.637742591475711e+17
19602.0	5.6367425428739405e+17
19603.0	5.635472385288875e+17
19604.0	5.6347955693267616e+17
19605.0	5.6335997809459194e+17
19606.0	5.63289169994274e+17
19607.0	5.6319199586986656e+17
19608.0	5.63092010373393e+17
19609.0	5.629903844846249e+17
19610.0	5.6289446319882234e+17
19611.0	5.6279418500983456e+17
19612.0	5.626995733255508e+17
19613.0	5.6259980124924576e+17
19614.0	5.6249804715458554e+17
19615.0	5.624028550485332e+17
19616.0	5.622984973396649e+17
19617.0	5.621998952644607e+17
19618.0	5.620487438030164e+17
19619.0	5.619350720828755e+17
19620.0	5.618474650959871e+17
19621.0	5.6180629345839776e+17
19622.0	5.6171312097962656e+17
19623.0	5.616143872032768e+17
19624.0	5.615143724864853e+17
19625.0	5.614160610066432e+17
19626.0	5.6131652262297594e+17
19627.0	5.6121591846666234e+17
19628.0	5.611097988704937e+17
19629.0	5.609950055934634e+17
19630.0	5.60848479260945e+17
19631.0	5.6054652048069965e+17
19632.0	5.607079355438421e+17
19633.0	5.6061680862713165e+17
19634.0	5.6052387913837216e+17
19635.0	5.604213286152873e+17
19636.0	5.60321420923153e+17
19637.0	5.601882677794133e+17
19638.0	5.6012687365461325e+17
19639.0	5.6002742335133e+17
19640.0	5.5991624891979085e+17
19641.0	5.597349935404375e+17
19642.0	5.5972857289987405e+17
19643.0	5.596291762836821e+17
19644.0	5.595234731119956e+17
19645.0	5.594081398183252e+17
19646.0	5.5932733913825274e+17
19647.0	5.592332009908905e+17
19648.0	5.59133918110242e+17
19649.0	5.590338016815785e+17
19650.0	5.589349871648766e+17
19651.0	5.588348319389013e+17
19652.0	5.5873516052589216e+17
19653.0	5.5863629295124474e+17
19654.0	5.5853606956782925e+17
19655.0	5.58436213255919e+17
19656.0	5.5833723837699405e+17
19657.0	5.582382857278804e+17
19658.0	5.5813873902551034e+17
19659.0	5.580395949763242e+17
19660.0	5.5794379273885e+17
19661.0	5.5784421604720634e+17
19662.0	5.5774445277893965e+17
