# Flux units: erg / (cm m2 s)
# Wavelength units: Angstrom
wave	flux
19000.0	7.974286709664426e+17
19001.0	7.972777077593428e+17
19002.0	7.971284561078953e+17
19003.0	7.969782913564671e+17
19004.0	7.968280962662399e+17
19005.0	7.966779273205076e+17
19006.0	7.965277051071148e+17
19007.0	7.963766675210237e+17
19008.0	7.96226572395042e+17
19009.0	7.960766983088809e+17
19010.0	7.959225552601085e+17
19011.0	7.957760595460096e+17
19012.0	7.95624465235968e+17
19013.0	7.95475630358528e+17
19014.0	7.953247658573821e+17
19015.0	7.951748828233725e+17
19016.0	7.950240158056445e+17
19017.0	7.948716853952511e+17
19018.0	7.947235941679101e+17
19019.0	7.945732378765994e+17
19020.0	7.944223075248809e+17
19021.0	7.942719664728745e+17
19022.0	7.941218956738557e+17
19023.0	7.939714216624125e+17
19024.0	7.938208620871679e+17
19025.0	7.936704610566143e+17
19026.0	7.935196825387007e+17
19027.0	7.933687102439424e+17
19028.0	7.932189786243071e+17
19029.0	7.930684643475455e+17
19030.0	7.929179563622399e+17
19031.0	7.927674399883263e+17
19032.0	7.926169131286528e+17
19033.0	7.924656023535615e+17
19034.0	7.923158409543679e+17
19035.0	7.92165308642099e+17
19036.0	7.919541304688637e+17
19037.0	7.918642461147136e+17
19038.0	7.917137268047871e+17
19039.0	7.915631961702397e+17
19040.0	7.914126571470845e+17
19041.0	7.912621248348157e+17
19042.0	7.91110875296563e+17
19043.0	7.909610585325565e+17
19044.0	7.908105027321855e+17
19045.0	7.906599947468799e+17
19046.0	7.905090329378815e+17
19047.0	7.903589242503167e+17
19048.0	7.902066689179647e+17
19049.0	7.900573131079676e+17
19050.0	7.899073826783232e+17
19051.0	7.897484491751421e+17
19052.0	7.896058097041407e+17
19053.0	7.894558364925951e+17
19054.0	7.893053675143167e+17
19055.0	7.891526361284607e+17
19056.0	7.890043892924416e+17
19057.0	7.888539052146685e+17
19058.0	7.887034282672128e+17
19059.0	7.885529574714025e+17
19060.0	7.88402280735266e+17
19061.0	7.882520347541505e+17
19062.0	7.881015544512511e+17
19063.0	7.879511320297471e+17
19064.0	7.877997186340182e+17
19065.0	7.876486315551402e+17
19066.0	7.874992637214719e+17
19067.0	7.873494559053138e+17
19068.0	7.871990467657725e+17
19069.0	7.870486627920553e+17
19070.0	7.868981855649791e+17
19071.0	7.86747897501013e+17
19072.0	7.86597533520145e+17
19073.0	7.864471288545279e+17
19074.0	7.862968269493587e+17
19075.0	7.861464881343148e+17
19076.0	7.859959561016659e+17
19077.0	7.858457678621353e+17
19078.0	7.856949546713085e+17
19079.0	7.855452234711039e+17
19080.0	7.853949064664404e+17
19081.0	7.852442379791017e+17
19082.0	7.850939360739328e+17
19083.0	7.849431937668438e+17
19084.0	7.847915903691433e+17
19085.0	7.846436406296575e+17
19086.0	7.844898317271039e+17
19087.0	7.843414863249408e+17
19088.0	7.841923159031807e+17
19089.0	7.840403071959039e+17
19090.0	7.838925779369983e+17
19091.0	7.83742193823471e+17
19092.0	7.835913969904297e+17
19093.0	7.834421382086655e+17
19094.0	7.832896830876328e+17
19095.0	7.831389892946602e+17
19096.0	7.82991525954628e+17
19097.0	7.828416448779602e+17
19098.0	7.826915854035625e+17
19099.0	7.82541455884288e+17
19100.0	7.823914383529302e+17
19101.0	7.822414015277736e+17
19102.0	7.820906705453053e+17
19103.0	7.819413315125247e+17
19104.0	7.817913156588884e+17
19105.0	7.816413056772777e+17
19106.0	7.814910012555264e+17
19107.0	7.813411963753811e+17
19108.0	7.811913457773226e+17
19109.0	7.810344967034196e+17
19110.0	7.8089136663866e+17
19111.0	7.807415202349053e+17
19112.0	7.805916046251348e+17
19113.0	7.804416975437821e+17
19114.0	7.802917992704681e+17
19115.0	7.801416290664445e+17
19116.0	7.799920325033983e+17
19117.0	7.798420232208383e+17
19118.0	7.796912774184961e+17
19119.0	7.795255266334036e+17
19120.0	7.793921927850664e+17
19121.0	7.792425256179027e+17
19122.0	7.790930228674557e+17
19123.0	7.789430306417321e+17
19124.0	7.787934006640639e+17
19125.0	7.786435784474621e+17
19126.0	7.784936870248447e+17
19127.0	7.783301944530259e+17
19128.0	7.781909374085802e+17
19129.0	7.780438152052736e+17
19130.0	7.778949406217555e+17
19131.0	7.777452306726911e+17
19132.0	7.775954968160938e+17
19133.0	7.774402819828393e+17
19134.0	7.772941167798953e+17
19135.0	7.771464974117545e+17
19136.0	7.76996853592883e+17
19137.0	7.768458222982484e+17
19138.0	7.766966692129449e+17
19139.0	7.765478973898751e+17
19140.0	7.763983227770195e+17
19141.0	7.76248686088465e+17
19142.0	7.760990772221268e+17
19143.0	7.759490184467795e+17
19144.0	7.757998727714132e+17
19145.0	7.75650336466534e+17
19146.0	7.754958409564157e+17
19147.0	7.753504756072447e+17
19148.0	7.7520159389341e+17
19149.0	7.750520512970751e+17
19150.0	7.749024080374441e+17
19151.0	7.747529996588372e+17
19152.0	7.746032540581887e+17
19153.0	7.744539488594602e+17
19154.0	7.743033344786432e+17
19155.0	7.741549116216659e+17
19156.0	7.740053659495081e+17
19157.0	7.738557450594985e+17
19158.0	7.73701625638639e+17
19159.0	7.735566900658173e+17
19160.0	7.734070760265044e+17
19161.0	7.73257246539776e+17
19162.0	7.730977508600489e+17
19163.0	7.729588469759999e+17
19164.0	7.728095003934717e+17
19165.0	7.726593787035647e+17
19166.0	7.725049138118652e+17
19167.0	7.72355414696482e+17
19168.0	7.722054672100009e+17
19169.0	7.720566182117377e+17
19170.0	7.719080165375999e+17
19171.0	7.717580772999165e+17
19172.0	7.71609102053103e+17
19173.0	7.714596461390506e+17
19174.0	7.713097439510528e+17
19175.0	7.711607372469587e+17
19176.0	7.710112676315135e+17
19177.0	7.708605120424617e+17
19178.0	7.707121508417536e+17
19179.0	7.705621163933696e+17
19180.0	7.704119234002943e+17
19181.0	7.702630330182316e+17
19182.0	7.701133423629654e+17
19183.0	7.69964754809651e+17
19184.0	7.698140874407933e+17
19185.0	7.696657891546451e+17
19186.0	7.695162875226794e+17
19187.0	7.693661336764415e+17
19188.0	7.692172295929855e+17
19189.0	7.690677303377917e+17
19190.0	7.689181546064553e+17
19191.0	7.687684892568233e+17
19192.0	7.686188884994728e+17
19193.0	7.684679687733248e+17
19194.0	7.683192718884863e+17
19195.0	7.681702277152765e+17
19196.0	7.680205128728575e+17
19197.0	7.678708328431616e+17
19198.0	7.677211213561853e+17
19199.0	7.67507050930722e+17
19200.0	7.673796433543165e+17
19201.0	7.672721973095081e+17
19202.0	7.671227197248851e+17
19203.0	7.66973042491392e+17
19204.0	7.668230909504169e+17
19205.0	7.666735436005377e+17
19206.0	7.665236560926036e+17
19207.0	7.663738889611945e+17
19208.0	7.662224524967935e+17
19209.0	7.660742413123583e+17
19210.0	7.659243314348032e+17
19211.0	7.657743221522432e+17
19212.0	7.656244873527296e+17
19213.0	7.654733602881536e+17
19214.0	7.653231211577343e+17
19215.0	7.651742367875072e+17
19216.0	7.650239808798719e+17
19217.0	7.648742858904918e+17
19218.0	7.647173003618982e+17
19219.0	7.645725055778816e+17
19220.0	7.644238130271572e+17
19221.0	7.642708067745792e+17
19222.0	7.641232791218858e+17
19223.0	7.639729289822208e+17
19224.0	7.638219098510675e+17
19225.0	7.636707858623144e+17
19226.0	7.635217264498003e+17
19227.0	7.633712458672809e+17
19228.0	7.632206952398847e+17
19229.0	7.630700945604607e+17
19230.0	7.629193974120447e+17
19231.0	7.627687392706557e+17
19232.0	7.626173499222697e+17
19233.0	7.624665189755561e+17
19234.0	7.623160860682921e+17
19235.0	7.62165388640256e+17
19236.0	7.620143886630913e+17
19237.0	7.61863186101043e+17
19238.0	7.617113543933951e+17
19239.0	7.615610431209471e+17
19240.0	7.614068902854655e+17
19241.0	7.612576401719296e+17
19242.0	7.611070691322536e+17
19243.0	7.609539982873939e+17
19244.0	7.608040404549628e+17
19245.0	7.606523941355517e+17
19246.0	7.605005527810047e+17
19247.0	7.603487906988032e+17
19248.0	7.60197012258816e+17
19249.0	7.600450186510335e+17
19250.0	7.598929055055871e+17
19251.0	7.597400112409257e+17
19252.0	7.595853432051027e+17
19253.0	7.594360791105537e+17
19254.0	7.592832628599466e+17
19255.0	7.591292227114326e+17
19256.0	7.589782916606633e+17
19257.0	7.58825637589811e+17
19258.0	7.586726802707796e+17
19259.0	7.585189531571539e+17
19260.0	7.583658132460884e+17
19261.0	7.582132479546708e+17
19262.0	7.580598355536552e+17
19263.0	7.579060895656617e+17
19264.0	7.577486257466026e+17
19265.0	7.575972196210004e+17
19266.0	7.574437873669463e+17
19267.0	7.572906730411347e+17
19268.0	7.571363936774824e+17
19269.0	7.569819505961641e+17
19270.0	7.568273418398377e+17
19271.0	7.566699489045162e+17
19272.0	7.565173267103743e+17
19273.0	7.562891390965075e+17
19274.0	7.561715085825364e+17
19275.0	7.560517054190931e+17
19276.0	7.558960405370194e+17
19277.0	7.557401614658217e+17
19278.0	7.55584072959044e+17
19279.0	7.554275205622441e+17
19280.0	7.552658037189289e+17
19281.0	7.551083256392362e+17
19282.0	7.549513689115304e+17
19283.0	7.547932106555391e+17
19284.0	7.546348576440317e+17
19285.0	7.544772130504701e+17
19286.0	7.543211077664768e+17
19287.0	7.541629163754838e+17
19288.0	7.539909097859752e+17
19289.0	7.538038255124479e+17
19290.0	7.53686641272422e+17
19291.0	7.535249185570816e+17
19292.0	7.533676418039807e+17
19293.0	7.532075962509994e+17
19294.0	7.530473825064274e+17
19295.0	7.528867575802538e+17
19296.0	7.527257901192531e+17
19297.0	7.525644447514624e+17
19298.0	7.524027688725161e+17
19299.0	7.522406918782975e+17
19300.0	7.520782348801363e+17
19301.0	7.519153093782188e+17
19302.0	7.517520283391318e+17
19303.0	7.51587506205491e+17
19304.0	7.514236571178323e+17
19305.0	7.512596672413696e+17
19306.0	7.510946317249193e+17
19307.0	7.509288554943828e+17
19308.0	7.507630268350464e+17
19309.0	7.505946111290025e+17
19310.0	7.504263636145489e+17
19311.0	7.502613900339881e+17
19312.0	7.500936071086079e+17
19313.0	7.499235795315369e+17
19314.0	7.497356579351208e+17
19315.0	7.4956045053242e+17
19316.0	7.494065678101162e+17
19317.0	7.492285024086697e+17
19318.0	7.490566168947369e+17
19319.0	7.488840471500115e+17
19320.0	7.487104028246015e+17
19321.0	7.48536681743428e+17
19322.0	7.483604945513129e+17
19323.0	7.481851997672786e+17
19324.0	7.480097636351997e+17
19325.0	7.478310274247338e+17
19326.0	7.47654260719616e+17
19327.0	7.474750667707732e+17
19328.0	7.472951814608212e+17
19329.0	7.471141920702463e+17
19330.0	7.469318386920104e+17
19331.0	7.467490892316672e+17
19332.0	7.465646287749119e+17
19333.0	7.463690060169215e+17
19334.0	7.461822570080936e+17
19335.0	7.45998828769553e+17
19336.0	7.45810540171537e+17
19337.0	7.456203904210262e+17
19338.0	7.454272554445484e+17
19339.0	7.452362788569087e+17
19340.0	7.450417236890964e+17
19341.0	7.448463025373183e+17
19342.0	7.446458935192233e+17
19343.0	7.444502725787647e+17
19344.0	7.442460212985853e+17
19345.0	7.440170282385407e+17
19346.0	7.4382183511709e+17
19347.0	7.436186280787968e+17
19348.0	7.434115417287338e+17
19349.0	7.432018990901929e+17
19350.0	7.429852326701736e+17
19351.0	7.427647678884522e+17
19352.0	7.425481104162815e+17
19353.0	7.423133945080489e+17
19354.0	7.420926032696662e+17
19355.0	7.418687528457556e+17
19356.0	7.416433074678441e+17
19357.0	7.41414772146176e+17
19358.0	7.411828834784596e+17
19359.0	7.409316195030356e+17
19360.0	7.406910707160403e+17
19361.0	7.404505343721471e+17
19362.0	7.402074265004713e+17
19363.0	7.39960342848034e+17
19364.0	7.397022216050003e+17
19365.0	7.394334634672127e+17
19366.0	7.391674899278505e+17
19367.0	7.389052702905683e+17
19368.0	7.386387860247892e+17
19369.0	7.383664578352468e+17
19370.0	7.380836150848169e+17
19371.0	7.378117019915603e+17
19372.0	7.375261108535293e+17
19373.0	7.372352013380264e+17
19374.0	7.369248583538003e+17
19375.0	7.366123934711807e+17
19376.0	7.36304126248004e+17
19377.0	7.359894483107837e+17
19378.0	7.356681555367251e+17
19379.0	7.353398286352383e+17
19380.0	7.349905102209023e+17
19381.0	7.346288064462847e+17
19382.0	7.342768465990995e+17
19383.0	7.339171614031871e+17
19384.0	7.335491123456684e+17
19385.0	7.331264548481706e+17
19386.0	7.327312205490858e+17
19387.0	7.323332435946153e+17
19388.0	7.319159030764883e+17
19389.0	7.314539235595603e+17
19390.0	7.310228875203923e+17
19391.0	7.305170861948925e+17
19392.0	7.300606226071552e+17
19393.0	7.295909457035263e+17
19394.0	7.29050322706978e+17
19395.0	7.285319830689108e+17
19396.0	7.279442407019858e+17
19397.0	7.273754118498985e+17
19398.0	7.267433664479232e+17
19399.0	7.261412205614419e+17
19400.0	7.255093763462483e+17
19401.0	7.249036100763647e+17
19402.0	7.242542578576041e+17
19403.0	7.235913597146451e+17
19404.0	7.229159017283583e+17
19405.0	7.222146538056361e+17
19406.0	7.214565571253587e+17
19407.0	7.206809310505641e+17
19408.0	7.198869746089983e+17
19409.0	7.1902515167232e+17
19410.0	7.181509573563732e+17
19411.0	7.172259087821481e+17
19412.0	7.162553225095849e+17
19413.0	7.152177466310655e+17
19414.0	7.141493224854867e+17
19415.0	7.129736376833364e+17
19416.0	7.117331008323583e+17
19417.0	7.104289548446376e+17
19418.0	7.090314128916479e+17
19419.0	7.075265849764521e+17
19420.0	7.058773144589652e+17
19421.0	7.043196519448575e+17
19422.0	7.028296227225597e+17
19423.0	7.012533942616061e+17
19424.0	6.99580324843793e+17
19425.0	6.97822720557056e+17
19426.0	6.959227651577171e+17
19427.0	6.939072054427647e+17
19428.0	6.917464375252307e+17
19429.0	6.894257611385513e+17
19430.0	6.869142988652545e+17
19431.0	6.841673632623272e+17
19432.0	6.811747674838358e+17
19433.0	6.778075861745661e+17
19434.0	6.745702931628031e+17
19435.0	6.713091460956157e+17
19436.0	6.678094605014358e+17
19437.0	6.640246768795647e+17
19438.0	6.59841140147268e+17
19439.0	6.552902617268224e+17
19440.0	6.50129872711407e+17
19441.0	6.445309731973798e+17
19442.0	6.389698816988502e+17
19443.0	6.32760085582097e+17
19444.0	6.25790673957683e+17
19445.0	6.180439319729496e+17
19446.0	6.096925211579732e+17
19447.0	6.001803885106513e+17
19448.0	5.893131220287492e+17
19449.0	5.7550048245841914e+17
19450.0	5.5123529904946675e+17
19451.0	5.427495873893721e+17
19452.0	5.644382004838404e+17
19453.0	5.828606513818286e+17
19454.0	5.944777275779749e+17
19455.0	6.043778562741588e+17
19456.0	6.130180953210884e+17
19457.0	6.207879639291217e+17
19458.0	6.279142256760148e+17
19459.0	6.342506783790422e+17
19460.0	6.398488075392338e+17
19461.0	6.45104316378863e+17
19462.0	6.503394436273494e+17
19463.0	6.549118135216808e+17
19464.0	6.590105011617791e+17
19465.0	6.627101783709014e+17
19466.0	6.660655528542205e+17
19467.0	6.6918104446621e+17
19468.0	6.720967202745002e+17
19469.0	6.752112917960015e+17
19470.0	6.781203911453354e+17
19471.0	6.807103706497023e+17
19472.0	6.830427875923282e+17
19473.0	6.851857425803945e+17
19474.0	6.871594169270272e+17
19475.0	6.889672700941652e+17
19476.0	6.906340760879103e+17
19477.0	6.921962042075818e+17
19478.0	6.936241076087465e+17
19479.0	6.949777700814847e+17
19480.0	6.962288648344916e+17
19481.0	6.974586168016895e+17
19482.0	6.987895628540588e+17
19483.0	7.00083221753583e+17
19484.0	7.0126179713024e+17
19485.0	7.023358884795732e+17
19486.0	7.03322588569054e+17
19487.0	7.042299403261268e+17
19488.0	7.050589577936893e+17
19489.0	7.058584456833705e+17
19490.0	7.065357880306345e+17
19491.0	7.072394795548671e+17
19492.0	7.078338557728083e+17
19493.0	7.08437390533154e+17
19494.0	7.089739460334931e+17
19495.0	7.094646905066836e+17
19496.0	7.099598046057812e+17
19497.0	7.104034828364458e+17
19498.0	7.108073189539837e+17
19499.0	7.11110946018645e+17
19500.0	7.115712756361898e+17
19501.0	7.119134710038527e+17
19502.0	7.1224495439872e+17
19503.0	7.1257672412474e+17
19504.0	7.129187317273939e+17
19505.0	7.132102870259027e+17
19506.0	7.135285948536148e+17
19507.0	7.1378056263325e+17
19508.0	7.140366802572627e+17
19509.0	7.142559507808255e+17
19510.0	7.144426919602858e+17
19511.0	7.146079276848467e+17
19512.0	7.148078610688681e+17
19513.0	7.14942364988211e+17
19514.0	7.151253339504637e+17
19515.0	7.152566144073725e+17
19516.0	7.153712149561343e+17
19517.0	7.154863463639722e+17
19518.0	7.156102195402067e+17
19519.0	7.156949518909437e+17
19520.0	7.157681999577088e+17
19521.0	7.158336599009961e+17
19522.0	7.1590963328669e+17
19523.0	7.159715540762623e+17
19524.0	7.160147136042326e+17
19525.0	7.160506702539433e+17
19526.0	7.160810581262335e+17
19527.0	7.161049581092863e+17
19528.0	7.161273619841024e+17
19529.0	7.161577697094313e+17
19530.0	7.161648765381289e+17
19531.0	7.16166856249617e+17
19532.0	7.161639354761215e+17
19533.0	7.161563381934761e+17
19534.0	7.161442643301716e+17
19535.0	7.161278907460265e+17
19536.0	7.161073624241492e+17
19537.0	7.160830135107583e+17
19538.0	7.160638911195817e+17
19539.0	7.160454359023615e+17
19540.0	7.160152798352726e+17
19541.0	7.159769156550653e+17
19542.0	7.159353554152106e+17
19543.0	7.1589073794717e+17
19544.0	7.15853941318178e+17
19545.0	7.158092543645011e+17
19546.0	7.157515172533587e+17
19547.0	7.157034180935679e+17
19548.0	7.156453025163945e+17
19549.0	7.155841108366676e+17
19550.0	7.15522533420783e+17
19551.0	7.154688164102143e+17
19552.0	7.154061063924393e+17
19553.0	7.153369767127722e+17
19554.0	7.152658710964905e+17
19555.0	7.152031020788394e+17
19556.0	7.151291914518527e+17
19557.0	7.15052884758801e+17
19558.0	7.149747904533844e+17
19559.0	7.14894811926801e+17
19560.0	7.148189485716819e+17
19561.0	7.147431804272637e+17
19562.0	7.146589453811711e+17
19563.0	7.145736705671165e+17
19564.0	7.144908506791936e+17
19565.0	7.144025699472726e+17
19566.0	7.14312857419776e+17
19567.0	7.142221797829289e+17
19568.0	7.141302894329855e+17
19569.0	7.140371662372863e+17
19570.0	7.139430590578688e+17
19571.0	7.138478364732074e+17
19572.0	7.137515864238761e+17
19573.0	7.136542257228457e+17
19574.0	7.135625585098752e+17
19575.0	7.134664709199187e+17
19576.0	7.133665551887017e+17
19577.0	7.132652318490623e+17
19578.0	7.131637572348586e+17
19579.0	7.130613972030803e+17
19580.0	7.129582375971498e+17
19581.0	7.128543019051689e+17
19582.0	7.127497475533481e+17
19583.0	7.126443391014228e+17
19584.0	7.125382320182611e+17
19585.0	7.124307945018708e+17
19586.0	7.123226815627263e+17
19587.0	7.122154147545087e+17
19588.0	7.121034369040383e+17
19589.0	7.119979216371711e+17
19590.0	7.118882821111807e+17
19591.0	7.117784047681535e+17
19592.0	7.11667615863057e+17
19593.0	7.115563394400255e+17
19594.0	7.114424445130067e+17
19595.0	7.113322489621161e+17
19596.0	7.112046834002602e+17
19597.0	7.111076796345002e+17
19598.0	7.109982695369385e+17
19599.0	7.10885728391441e+17
19600.0	7.107771965811369e+17
19601.0	7.106621705901395e+17
19602.0	7.105469417346387e+17
19603.0	7.104276154635603e+17
19604.0	7.103152893460479e+17
19605.0	7.101968498906451e+17
19606.0	7.100827196631721e+17
19607.0	7.099658723655679e+17
19608.0	7.098485488746493e+17
19609.0	7.097307711406079e+17
19610.0	7.096130861006847e+17
19611.0	7.09494857478963e+17
19612.0	7.093764237557759e+17
19613.0	7.092576698673833e+17
19614.0	7.091386492212564e+17
19615.0	7.090193676894207e+17
19616.0	7.088993938178045e+17
19617.0	7.087800562221053e+17
19618.0	7.086560616906751e+17
19619.0	7.085342728039081e+17
19620.0	7.084141841481727e+17
19621.0	7.082986467317075e+17
19622.0	7.081777467577684e+17
19623.0	7.080566433600851e+17
19624.0	7.079353419912531e+17
19625.0	7.078138292294995e+17
19626.0	7.076921477169152e+17
19627.0	7.07570279977233e+17
19628.0	7.074468097338025e+17
19629.0	7.073252400693247e+17
19630.0	7.072023139669332e+17
19631.0	7.070141478425939e+17
19632.0	7.069582921564159e+17
19633.0	7.068354890869417e+17
19634.0	7.067125090178387e+17
19635.0	7.06589345657651e+17
19636.0	7.064660552100521e+17
19637.0	7.063388962160637e+17
19638.0	7.062189894533119e+17
19639.0	7.060952423858175e+17
19640.0	7.059710880514047e+17
19641.0	7.058434236437844e+17
19642.0	7.05723536314641e+17
19643.0	7.055991821915475e+17
19644.0	7.054748161845929e+17
19645.0	7.053485379944445e+17
19646.0	7.052261784027133e+17
19647.0	7.051015733204308e+17
19648.0	7.049768709302953e+17
19649.0	7.048520435499007e+17
19650.0	7.04727174086656e+17
19651.0	7.046021938937855e+17
19652.0	7.044771247816704e+17
19653.0	7.043519491342335e+17
19654.0	7.042267256717311e+17
19655.0	7.041013642166272e+17
19656.0	7.039759419441151e+17
19657.0	7.038505146384381e+17
19658.0	7.037249770225664e+17
19659.0	7.035993437765631e+17
19660.0	7.034736639737855e+17
19661.0	7.033479072055295e+17
19662.0	7.032234217308159e+17
19663.0	7.031007079301119e+17
19664.0	7.029748536442879e+17
19665.0	7.028491933450239e+17
19666.0	7.027230416830461e+17
