# Flux units: erg / (cm m2 s)
# Wavelength units: Angstrom
wave	flux
19000.0	4.7289383406359885e+17
19001.0	4.727905198276607e+17
19002.0	4.7272071766125216e+17
19003.0	4.7263327152592205e+17
19004.0	4.7254624719776416e+17
19005.0	4.7245783043058336e+17
19006.0	4.723723855375017e+17
19007.0	4.7228594212044806e+17
19008.0	4.7218824867130016e+17
19009.0	4.7209320937772365e+17
19010.0	4.719361526857727e+17
19011.0	4.71932039401745e+17
19012.0	4.718250838807892e+17
19013.0	4.717644976488447e+17
19014.0	4.716699032311124e+17
19015.0	4.71582431580433e+17
19016.0	4.714925925946708e+17
19017.0	4.714184003201706e+17
19018.0	4.7132901208227834e+17
19019.0	4.712433731327317e+17
19020.0	4.711556035466581e+17
19021.0	4.710717204026709e+17
19022.0	4.709842795102207e+17
19023.0	4.7089251806522016e+17
19024.0	4.7080673014797645e+17
19025.0	4.707240553829716e+17
19026.0	4.7063349518663674e+17
19027.0	4.7054041777875616e+17
19028.0	4.704661444842837e+17
19029.0	4.7037675352009376e+17
19030.0	4.7029436662415354e+17
19031.0	4.7020868062849696e+17
19032.0	4.701205947219968e+17
19033.0	4.7001994414871885e+17
19034.0	4.699469659155114e+17
19035.0	4.6985629310211405e+17
19036.0	4.686790684311551e+17
19037.0	4.69687988195601e+17
19038.0	4.696004915888127e+17
19039.0	4.695175437047125e+17
19040.0	4.694321144703658e+17
19041.0	4.6934426141764256e+17
19042.0	4.6920237398534803e+17
19043.0	4.6917384432954016e+17
19044.0	4.6908577093604685e+17
19045.0	4.690007572873215e+17
19046.0	4.689041015788884e+17
19047.0	4.688253649857194e+17
19048.0	4.686958051721215e+17
19049.0	4.685618152647337e+17
19050.0	4.685606036701183e+17
19051.0	4.683384116041042e+17
19052.0	4.683717287783083e+17
19053.0	4.683131727293098e+17
19054.0	4.6822662578285216e+17
19055.0	4.6808699188019194e+17
19056.0	4.680455912336042e+17
19057.0	4.6796834354845005e+17
19058.0	4.6783728329250125e+17
19059.0	4.677793550609066e+17
19060.0	4.677077225701376e+17
19061.0	4.676261709698389e+17
19062.0	4.6753939795039565e+17
19063.0	4.674539671082325e+17
19064.0	4.6734676852735994e+17
19065.0	4.672555028490921e+17
19066.0	4.6717203773740365e+17
19067.0	4.671091871405396e+17
19068.0	4.670255397863423e+17
19069.0	4.6694009936718483e+17
19070.0	4.668493983121407e+17
19071.0	4.6676754423261856e+17
19072.0	4.6666592344692045e+17
19073.0	4.66596765176081e+17
19074.0	4.665120890290176e+17
19075.0	4.664265150911828e+17
19076.0	4.6633741479226016e+17
19077.0	4.6625193068243616e+17
19078.0	4.66161853600017e+17
19079.0	4.6608370728523085e+17
19080.0	4.659961124618239e+17
19081.0	4.6590582867012256e+17
19082.0	4.6582061131803296e+17
19083.0	4.6572839346285216e+17
19084.0	4.6562412348484256e+17
19085.0	4.6556898460521805e+17
19086.0	4.654091443634176e+17
19087.0	4.6533976393427635e+17
19088.0	4.6528176300141216e+17
19089.0	4.6519132954296314e+17
19090.0	4.6514090030749005e+17
19091.0	4.6505030984226125e+17
19092.0	4.649309870664362e+17
19093.0	4.6488930064793594e+17
19094.0	4.6480372964611405e+17
19095.0	4.647189210988543e+17
19096.0	4.646308183452329e+17
19097.0	4.645480006243668e+17
19098.0	4.6444401781637114e+17
19099.0	4.643558322252458e+17
19100.0	4.64287512395776e+17
19101.0	4.642063995895807e+17
19102.0	4.640990683987966e+17
19103.0	4.6403688252921165e+17
19104.0	4.639529025667071e+17
19105.0	4.6382791803972275e+17
19106.0	4.6377801637778765e+17
19107.0	4.636843026939902e+17
19108.0	4.63598437601553e+17
19109.0	4.634678936644265e+17
19110.0	4.634410252326228e+17
19111.0	4.6334646408970234e+17
19112.0	4.632600189949268e+17
19113.0	4.631872447447039e+17
19114.0	4.630953677466281e+17
19115.0	4.630069539853651e+17
19116.0	4.6293035306188794e+17
19117.0	4.628448698608298e+17
19118.0	4.627447683918506e+17
19119.0	4.606235910690104e+17
19120.0	4.6256864173752314e+17
19121.0	4.6248792550277114e+17
19122.0	4.6240945692562765e+17
19123.0	4.623247927323306e+17
19124.0	4.622362897022974e+17
19125.0	4.6215487924032845e+17
19126.0	4.620696733526697e+17
19127.0	4.616580438687744e+17
19128.0	4.618958741176319e+17
19129.0	4.618049046970368e+17
19130.0	4.617292989420885e+17
19131.0	4.616471191748606e+17
19132.0	4.6156259646941856e+17
19133.0	4.6146818932735994e+17
19134.0	4.6139162622252365e+17
19135.0	4.6130891720403616e+17
19136.0	4.6122542986253645e+17
19137.0	4.6111210186560845e+17
19138.0	4.6105387465004365e+17
19139.0	4.6097218163179514e+17
19140.0	4.608880472489983e+17
19141.0	4.6080364359188474e+17
19142.0	4.607149851628885e+17
19143.0	4.606245287755775e+17
19144.0	4.6054427775904416e+17
19145.0	4.604657900978175e+17
19146.0	4.602794378701483e+17
19147.0	4.60278198313506e+17
19148.0	4.6019842649620474e+17
19149.0	4.6009757068165114e+17
19150.0	4.600292272242687e+17
19151.0	4.5994553862608205e+17
19152.0	4.598605875423914e+17
19153.0	4.597461368700927e+17
19154.0	4.5966718839466656e+17
19155.0	4.596098955302229e+17
19156.0	4.595253665333247e+17
19157.0	4.594294752367957e+17
19158.0	4.592969688547327e+17
19159.0	4.592700305877675e+17
19160.0	4.591874309707094e+17
19161.0	4.591051196421461e+17
19162.0	4.589269984564566e+17
19163.0	4.589348766875647e+17
19164.0	4.588529984208895e+17
19165.0	4.587334337036287e+17
19166.0	4.586587649561941e+17
19167.0	4.5859324818008736e+17
19168.0	4.5851687591608314e+17
19169.0	4.584314490585087e+17
19170.0	4.583503205236736e+17
19171.0	4.582599026540543e+17
19172.0	4.5818237590787405e+17
19173.0	4.58098782310673e+17
19174.0	4.580040922628095e+17
19175.0	4.579307983383211e+17
19176.0	4.57847278211345e+17
19177.0	4.5773806419749536e+17
19178.0	4.5767795359962445e+17
19179.0	4.575880837158228e+17
19180.0	4.5751146825209165e+17
19181.0	4.574015162504532e+17
19182.0	4.5734140013008205e+17
19183.0	4.572622739559764e+17
19184.0	4.5717768693787296e+17
19185.0	4.5709290705169056e+17
19186.0	4.570111613250217e+17
19187.0	4.5691854004770125e+17
19188.0	4.5684379838928205e+17
19189.0	4.567613467612502e+17
19190.0	4.5667748444897274e+17
19191.0	4.5658876855801165e+17
19192.0	4.565106546092714e+17
19193.0	4.564222952341504e+17
19194.0	4.5633592990105594e+17
19195.0	4.562601543467007e+17
19196.0	4.5617390959984634e+17
19197.0	4.5609168257679354e+17
19198.0	4.5600785689477114e+17
19199.0	4.5537252371770016e+17
19200.0	4.554641000540845e+17
19201.0	4.557581352348329e+17
19202.0	4.556767985926143e+17
19203.0	4.555921223756457e+17
19204.0	4.55505948582434e+17
19205.0	4.5542572671631354e+17
19206.0	4.553411732526421e+17
19207.0	4.552403138030249e+17
19208.0	4.551331757599401e+17
19209.0	4.550924956947797e+17
19210.0	4.5500982414540794e+17
19211.0	4.549288357003263e+17
19212.0	4.5484520078923085e+17
19213.0	4.54745780195601e+17
19214.0	4.546555937816575e+17
19215.0	4.545943993057279e+17
19216.0	4.545133829685246e+17
19217.0	4.544293104517119e+17
19218.0	4.5420398062687546e+17
19219.0	4.542422321900202e+17
19220.0	4.541773190441642e+17
19221.0	4.540420298113024e+17
19222.0	4.540137412580692e+17
19223.0	4.5392875668985165e+17
19224.0	4.5384250005913594e+17
19225.0	4.537407362476713e+17
19226.0	4.536801960132608e+17
19227.0	4.5359790313963514e+17
19228.0	4.535185156603904e+17
19229.0	4.534355754658474e+17
19230.0	4.5335140913643514e+17
19231.0	4.532680877495636e+17
19232.0	4.5318592035553274e+17
19233.0	4.5309348083138554e+17
19234.0	4.530176526385151e+17
19235.0	4.5293380787240954e+17
19236.0	4.5285609930315085e+17
19237.0	4.5277030768093856e+17
19238.0	4.526740562335061e+17
19239.0	4.526084109718868e+17
19240.0	4.525244458292565e+17
19241.0	4.524395356400298e+17
19242.0	4.5235772476183885e+17
19243.0	4.522533674024959e+17
19244.0	4.521954875452074e+17
19245.0	4.5211201921788576e+17
19246.0	4.520272791775914e+17
19247.0	4.5194633015896736e+17
19248.0	4.5186535527546874e+17
19249.0	4.517810736026964e+17
19250.0	4.5169107474404685e+17
19251.0	4.51591203402547e+17
19252.0	4.5149434126445216e+17
19253.0	4.514478855727785e+17
19254.0	4.513703475019775e+17
19255.0	4.5126071797241165e+17
19256.0	4.511989281150292e+17
19257.0	4.511229642364245e+17
19258.0	4.510407556683092e+17
19259.0	4.509480458911744e+17
19260.0	4.5084900460243616e+17
19261.0	4.5079157038994765e+17
19262.0	4.507019596442282e+17
19263.0	4.5061656990624416e+17
19264.0	4.504434355382953e+17
19265.0	4.504253088748884e+17
19266.0	4.5031626731683846e+17
19267.0	4.503002115910314e+17
19268.0	4.5021690802995194e+17
19269.0	4.5013512070976845e+17
19270.0	4.5005305614609056e+17
19271.0	4.499071466558805e+17
19272.0	4.4988302584272205e+17
19273.0	4.497268387698004e+17
19274.0	4.496464631824382e+17
19275.0	4.49642672230673e+17
19276.0	4.495571336648021e+17
19277.0	4.49476115370257e+17
19278.0	4.4939367856209914e+17
19279.0	4.4931012439135565e+17
19280.0	4.4921551634213536e+17
19281.0	4.491469926694911e+17
19282.0	4.490679295497557e+17
19283.0	4.4897750280219296e+17
19284.0	4.4889898025833805e+17
19285.0	4.487939086090239e+17
19286.0	4.487334800130047e+17
19287.0	4.486572032393214e+17
19288.0	4.4825648803348435e+17
19289.0	4.4778451223183245e+17
19290.0	4.484113333485568e+17
19291.0	4.4828975305850874e+17
19292.0	4.4824779652683085e+17
19293.0	4.481646826881023e+17
19294.0	4.480820696492715e+17
19295.0	4.4800198969043616e+17
19296.0	4.479016594221739e+17
19297.0	4.478296335755946e+17
19298.0	4.4775116800436896e+17
19299.0	4.4765366490671776e+17
19300.0	4.4758899041675936e+17
19301.0	4.475092207665152e+17
19302.0	4.474253825015807e+17
19303.0	4.473337138905087e+17
19304.0	4.472586712907775e+17
19305.0	4.4717925130567674e+17
19306.0	4.4709893604638714e+17
19307.0	4.4700982833752736e+17
19308.0	4.469315403251711e+17
19309.0	4.468312353625428e+17
19310.0	4.467414766277972e+17
19311.0	4.466829468631039e+17
19312.0	4.4660693440047776e+17
19313.0	4.465266794692607e+17
19314.0	4.43749182419765e+17
19315.0	4.438624118505498e+17
19316.0	4.462545463148543e+17
19317.0	4.461894808458581e+17
19318.0	4.460984362773161e+17
19319.0	4.4601886340983456e+17
19320.0	4.459287690608638e+17
19321.0	4.4583981220713805e+17
19322.0	4.457608886878207e+17
19323.0	4.45682236330257e+17
19324.0	4.4560851248960845e+17
19325.0	4.45507832975633e+17
19326.0	4.45445987963153e+17
19327.0	4.453606064040618e+17
19328.0	4.4524731370919245e+17
19329.0	4.4520047955148794e+17
19330.0	4.451117178727081e+17
19331.0	4.4502871483351034e+17
19332.0	4.449537169730218e+17
19333.0	4.4487002096489805e+17
19334.0	4.4478796485973325e+17
19335.0	4.446387908029098e+17
19336.0	4.4462353583964154e+17
19337.0	4.445429908723028e+17
19338.0	4.444261707677696e+17
19339.0	4.4437865734253216e+17
19340.0	4.4425115916916045e+17
19341.0	4.441750689021951e+17
19342.0	4.440563861072553e+17
19343.0	4.440495117828096e+17
19344.0	4.4394166420329805e+17
19345.0	4.4350179153455725e+17
19346.0	4.4362952647639014e+17
19347.0	4.436763946778623e+17
19348.0	4.4363812500930554e+17
19349.0	4.435503654895615e+17
19350.0	4.434563438040404e+17
19351.0	4.43383542780177e+17
19352.0	4.432561087796564e+17
19353.0	4.432141135205717e+17
19354.0	4.4313240176776525e+17
19355.0	4.430331499948714e+17
19356.0	4.4296603791523846e+17
19357.0	4.4288342368802125e+17
19358.0	4.4279946938067616e+17
19359.0	4.4269979601032525e+17
19360.0	4.426005959671807e+17
19361.0	4.425437184786431e+17
19362.0	4.4246699564072954e+17
19363.0	4.4238321316003834e+17
19364.0	4.4229916979363834e+17
19365.0	4.4221526120420685e+17
19366.0	4.421315642174121e+17
19367.0	4.4204753643984205e+17
19368.0	4.419635343174313e+17
19369.0	4.418709919629312e+17
19370.0	4.417858254318251e+17
19371.0	4.417011450904576e+17
19372.0	4.4162479841170765e+17
19373.0	4.4153670313792845e+17
19374.0	4.414535762968575e+17
19375.0	4.4135595016628896e+17
19376.0	4.412609988831913e+17
19377.0	4.4117321000331936e+17
19378.0	4.4108758517459616e+17
19379.0	4.410016828227583e+17
19380.0	4.409149655176532e+17
19381.0	4.408270983441066e+17
19382.0	4.407294227207509e+17
19383.0	4.4063373421882016e+17
19384.0	4.405617642962944e+17
19385.0	4.404755932992853e+17
19386.0	4.403874645409791e+17
19387.0	4.4029802464324256e+17
19388.0	4.4020808639228576e+17
19389.0	4.40117361639424e+17
19390.0	4.400259152565587e+17
19391.0	4.389212615518877e+17
19392.0	4.3982014004592614e+17
19393.0	4.397494334477652e+17
19394.0	4.396542415514282e+17
19395.0	4.395328752407893e+17
19396.0	4.3942888865791994e+17
19397.0	4.393374473781247e+17
19398.0	4.392263759866538e+17
19399.0	4.389871725925717e+17
19400.0	4.390209431710378e+17
19401.0	4.389405610125993e+17
19402.0	4.3884029135202976e+17
19403.0	4.3873392058695674e+17
19404.0	4.385696344528213e+17
19405.0	4.3845555560557216e+17
19406.0	4.3834822140887034e+17
19407.0	4.382270127341566e+17
19408.0	4.37972532776141e+17
19409.0	4.379516331884544e+17
19410.0	4.3783220289863674e+17
19411.0	4.3771148915179514e+17
19412.0	4.3754861852535456e+17
19413.0	4.373679134386859e+17
19414.0	4.372414901955242e+17
19415.0	4.370179828656811e+17
19416.0	4.3684323187316045e+17
19417.0	4.3660351866142694e+17
19418.0	4.36403944170018e+17
19419.0	4.3614516749707936e+17
19420.0	4.358100393918463e+17
19421.0	4.355407336876715e+17
19422.0	4.352872003840682e+17
19423.0	4.3509690418244256e+17
19424.0	4.3489252903048525e+17
19425.0	4.3467720828299936e+17
19426.0	4.3444186350878714e+17
19427.0	4.341275413184512e+17
19428.0	4.338740236036778e+17
19429.0	4.335434598798677e+17
19430.0	4.331733552638634e+17
19431.0	4.32581312896478e+17
19432.0	4.3225910835063443e+17
19433.0	4.316256291957414e+17
19434.0	4.307194915498661e+17
19435.0	4.293955758500527e+17
19436.0	4.272298789961728e+17
19437.0	4.2558179483757216e+17
19438.0	4.226081868830042e+17
19439.0	4.2341583360273075e+17
19440.0	4.22308513579008e+17
19441.0	4.209560041903445e+17
19442.0	4.195040693146967e+17
19443.0	4.1772615788571283e+17
19444.0	4.142614332833781e+17
19445.0	4.070130189336592e+17
19446.0	4.019092832212308e+17
19447.0	3.966776807959207e+17
19448.0	3.912021265350655e+17
19449.0	3.7600540788872454e+17
19450.0	3.372025856568009e+17
19451.0	3.165791134416894e+17
19452.0	3.616863134853801e+17
19453.0	3.856444901643609e+17
19454.0	3.936617525237075e+17
19455.0	3.988512198098944e+17
19456.0	4.037515311491756e+17
19457.0	4.099425509747367e+17
19458.0	4.0680195848056666e+17
19459.0	4.171073566976712e+17
19460.0	4.1892302539106963e+17
19461.0	4.2016345780387834e+17
19462.0	4.212771173782868e+17
19463.0	4.2225314317380256e+17
19464.0	4.231297332761941e+17
19465.0	4.241338929250304e+17
19466.0	4.262025983863468e+17
19467.0	4.276946967986181e+17
19468.0	4.285696763581778e+17
19469.0	4.29080117842193e+17
19470.0	4.295878984597502e+17
19471.0	4.2987900825326925e+17
19472.0	4.3006156708249594e+17
19473.0	4.3029758881737376e+17
19474.0	4.303878750557523e+17
19475.0	4.303563031314429e+17
19476.0	4.3064158172392096e+17
19477.0	4.307161460331861e+17
19478.0	4.3077299821608954e+17
19479.0	4.307904861569023e+17
19480.0	4.3085576965980154e+17
19481.0	4.3096968639720096e+17
19482.0	4.3110890408509446e+17
19483.0	4.3122483206116685e+17
19484.0	4.31343848722705e+17
19485.0	4.313829714427904e+17
19486.0	4.314056885622102e+17
19487.0	4.3146469382116685e+17
19488.0	4.314933366532778e+17
19489.0	4.314397298130943e+17
19490.0	4.312146459841875e+17
19491.0	4.314673014898687e+17
19492.0	4.3143531642661536e+17
19493.0	4.3140971460471456e+17
19494.0	4.314081810273621e+17
19495.0	4.31361278083072e+17
19496.0	4.3122313399719226e+17
19497.0	4.3125730680941216e+17
19498.0	4.3107567932538874e+17
19499.0	4.2958035884878445e+17
19500.0	4.311639695643989e+17
19501.0	4.3110835295354874e+17
19502.0	4.310495962770089e+17
19503.0	4.309915417269589e+17
19504.0	4.309315974332415e+17
19505.0	4.3086972529759565e+17
19506.0	4.3080928509733536e+17
19507.0	4.307416246124543e+17
19508.0	4.3070609815852365e+17
19509.0	4.306490439499776e+17
19510.0	4.305413951105707e+17
19511.0	4.262081549303789e+17
19512.0	4.30187528742502e+17
19513.0	4.298788669751289e+17
19514.0	4.299719000631973e+17
19515.0	4.3015822565703686e+17
19516.0	4.301739521299795e+17
19517.0	4.3009792442804896e+17
19518.0	4.3003621076718925e+17
19519.0	4.299648562888702e+17
19520.0	4.298744266752e+17
19521.0	4.2983323322722976e+17
19522.0	4.297539573863765e+17
19523.0	4.2968435109396474e+17
19524.0	4.2960309882716166e+17
19525.0	4.295465147301887e+17
19526.0	4.2947754757980166e+17
19527.0	4.2940327575333536e+17
19528.0	4.2932978259940685e+17
19529.0	4.292559456523606e+17
19530.0	4.291886818787327e+17
19531.0	4.291159388760746e+17
19532.0	4.2904302705268045e+17
19533.0	4.2898917666324474e+17
19534.0	4.289166312123051e+17
19535.0	4.288410244087807e+17
19536.0	4.2876338287848096e+17
19537.0	4.2869636929508685e+17
19538.0	4.285768146441558e+17
19539.0	4.2844494698468704e+17
19540.0	4.284704508695893e+17
19541.0	4.283960353882111e+17
19542.0	4.283239266342229e+17
19543.0	4.2822775389989536e+17
19544.0	4.2817600870154234e+17
19545.0	4.280091569116499e+17
19546.0	4.2786269594036896e+17
19547.0	4.279552161349631e+17
19548.0	4.278801459926355e+17
19549.0	4.277905729956521e+17
19550.0	4.2773084086381216e+17
19551.0	4.2765651786683725e+17
19552.0	4.275812538777599e+17
19553.0	4.2750188995652256e+17
19554.0	4.274234398343168e+17
19555.0	4.2735127739323725e+17
19556.0	4.272797503193088e+17
19557.0	4.2720538789587616e+17
19558.0	4.271303344608597e+17
19559.0	4.270555366686719e+17
19560.0	4.269713318914729e+17
19561.0	4.2691017187874125e+17
19562.0	4.268297020593493e+17
19563.0	4.2676430335290016e+17
19564.0	4.266889695985663e+17
19565.0	4.266131644743679e+17
19566.0	4.2653279203273376e+17
19567.0	4.2646257253307725e+17
19568.0	4.263838298581674e+17
19569.0	4.263079748916564e+17
19570.0	4.262361485541375e+17
19571.0	4.2615945325882016e+17
19572.0	4.2608011876761594e+17
19573.0	4.260031291020628e+17
19574.0	4.259194632230228e+17
19575.0	4.2585814494522016e+17
19576.0	4.2578102672424954e+17
19577.0	4.2569919536387405e+17
19578.0	4.256235082394282e+17
19579.0	4.2555194872954874e+17
19580.0	4.2547624426864634e+17
19581.0	4.254020396908543e+17
19582.0	4.2532961748254714e+17
19583.0	4.2525400424775674e+17
19584.0	4.2517681143808e+17
19585.0	4.2508453486264294e+17
19586.0	4.250039092248575e+17
19587.0	4.249477351910057e+17
19588.0	4.24788639018735e+17
19589.0	4.2479647957101203e+17
19590.0	4.2469894718313805e+17
19591.0	4.246473281634302e+17
19592.0	4.2457230066319354e+17
19593.0	4.2449210466194765e+17
19594.0	4.2437988535937696e+17
19595.0	4.2433871330235725e+17
19596.0	4.2425736316846074e+17
19597.0	4.2419240542317216e+17
19598.0	4.240077585995091e+17
19599.0	4.240425687362218e+17
19600.0	4.239684087578623e+17
19601.0	4.238812397262165e+17
19602.0	4.238077107109887e+17
19603.0	4.2365799782591136e+17
19604.0	4.236575193956351e+17
19605.0	4.235397457160874e+17
19606.0	4.2351337095386445e+17
19607.0	4.234393284859222e+17
19608.0	4.2336063823981216e+17
19609.0	4.2327877563187194e+17
19610.0	4.2319980863160314e+17
19611.0	4.23117773148433e+17
19612.0	4.230615349417299e+17
19613.0	4.229843911355049e+17
19614.0	4.2290429467907405e+17
19615.0	4.2283437989560314e+17
19616.0	4.227382066719402e+17
19617.0	4.2266270311819936e+17
19618.0	4.224947571042984e+17
19619.0	4.2239373764198374e+17
19620.0	4.2232216002669216e+17
19621.0	4.2235787920889165e+17
19622.0	4.2230670639322445e+17
19623.0	4.2223012630145696e+17
19624.0	4.2215110868991994e+17
19625.0	4.2208038957875194e+17
19626.0	4.2200386387312634e+17
19627.0	4.2192947537510394e+17
19628.0	4.2183817935803725e+17
19629.0	4.2170356401001805e+17
19630.0	4.216620869571926e+17
19631.0	4.2099047200194554e+17
19632.0	4.215510352789502e+17
19633.0	4.214692018913279e+17
19634.0	4.2140188729671674e+17
19635.0	4.2131676969915725e+17
19636.0	4.2122361057225376e+17
19637.0	4.2109982191124474e+17
19638.0	4.2109494204825594e+17
19639.0	4.210235168260095e+17
19640.0	4.209214574559234e+17
19641.0	4.2059768158399194e+17
19642.0	4.2079679973512525e+17
19643.0	4.2072104235608736e+17
19644.0	4.206384407117823e+17
19645.0	4.2052229428237626e+17
19646.0	4.2046986674066765e+17
19647.0	4.2042289004653216e+17
19648.0	4.203486340186112e+17
19649.0	4.2027283043232416e+17
19650.0	4.201987695793494e+17
19651.0	4.201230989524992e+17
19652.0	4.200476188868608e+17
19653.0	4.1997314846010016e+17
19654.0	4.1989751830828365e+17
