# Flux units: erg / (cm m2 s)
# Wavelength units: Angstrom
wave	flux
19000.0	7.076116960728403e+17
19001.0	7.075168599233875e+17
19002.0	7.075135848710143e+17
19003.0	7.073836892334761e+17
19004.0	7.072537920580266e+17
19005.0	7.071241450029055e+17
19006.0	7.069941972161875e+17
19007.0	7.068636306298198e+17
19008.0	7.067294289799849e+17
19009.0	7.065975404888063e+17
19010.0	7.064372035715071e+17
19011.0	7.0634109417117e+17
19012.0	7.062046548601513e+17
19013.0	7.060819888046079e+17
19014.0	7.059470688103081e+17
19015.0	7.058183891014995e+17
19016.0	7.056872526490281e+17
19017.0	7.055606301065216e+17
19018.0	7.0542915810973e+17
19019.0	7.052988844255914e+17
19020.0	7.051668663304191e+17
19021.0	7.05037863100962e+17
19022.0	7.049098047083859e+17
19023.0	7.047937129447424e+17
19024.0	7.046639662049961e+17
19025.0	7.045347190068564e+17
19026.0	7.04401905811456e+17
19027.0	7.042696940792489e+17
19028.0	7.041414480614739e+17
19029.0	7.040100763085481e+17
19030.0	7.039211433623551e+17
19031.0	7.038369097143635e+17
19032.0	7.037056563806207e+17
19033.0	7.035670911167145e+17
19034.0	7.034417618179412e+17
19035.0	7.033071882731519e+17
19036.0	7.029361050561193e+17
19037.0	7.030469033284948e+17
19038.0	7.029154807545855e+17
19039.0	7.027862098586281e+17
19040.0	7.026548180429481e+17
19041.0	7.025233375177385e+17
19042.0	7.023843900828329e+17
19043.0	7.022603410953555e+17
19044.0	7.021277880866132e+17
19045.0	7.019971623605588e+17
19046.0	7.0186164041373e+17
19047.0	7.017325756678143e+17
19048.0	7.015861106420392e+17
19049.0	7.014649854339753e+17
19050.0	7.013353088090111e+17
19051.0	7.011641035412819e+17
19052.0	7.010685147938815e+17
19053.0	7.009436762985812e+17
19054.0	7.008120275118761e+17
19055.0	7.006597209391103e+17
19056.0	7.005466998953299e+17
19057.0	7.004159723874985e+17
19058.0	7.002839271691604e+17
19059.0	7.001528771193514e+17
19060.0	7.000193650130943e+17
19061.0	6.998892760880467e+17
19062.0	6.997570001829887e+17
19063.0	6.99625198653713e+17
19064.0	6.994847076450303e+17
19065.0	6.99347095396898e+17
19066.0	6.992245966940842e+17
19067.0	6.990975978526036e+17
19068.0	6.989656393864531e+17
19069.0	6.988337169913172e+17
19070.0	6.986997767165268e+17
19071.0	6.985697145651199e+17
19072.0	6.984376806714025e+17
19073.0	6.983052537714003e+17
19074.0	6.981736031671636e+17
19075.0	6.980415331325267e+17
19076.0	6.979078605242367e+17
19077.0	6.977762822018387e+17
19078.0	6.976432406964906e+17
19079.0	6.97513046913843e+17
19080.0	6.973797802442751e+17
19081.0	6.972455541276671e+17
19082.0	6.971133492461567e+17
19083.0	6.969754663955113e+17
19084.0	6.968333636556116e+17
19085.0	6.967201823894185e+17
19086.0	6.9655739774621e+17
19087.0	6.9644969312256e+17
19088.0	6.963171859016362e+17
19089.0	6.961733154723156e+17
19090.0	6.960564079165439e+17
19091.0	6.95924862030097e+17
19092.0	6.95789586288913e+17
19093.0	6.956624904891049e+17
19094.0	6.955301065108136e+17
19095.0	6.953978172538879e+17
19096.0	6.952645716956499e+17
19097.0	6.951333772219731e+17
19098.0	6.950013355687935e+17
19099.0	6.948690409990826e+17
19100.0	6.947362742905513e+17
19101.0	6.946042218719913e+17
19102.0	6.944644666141353e+17
19103.0	6.943397953317546e+17
19104.0	6.942074706329599e+17
19105.0	6.940750521914708e+17
19106.0	6.939415566527146e+17
19107.0	6.938091412171433e+17
19108.0	6.936776353163945e+17
19109.0	6.93526552641536e+17
19110.0	6.934115267204436e+17
19111.0	6.932808145218217e+17
19112.0	6.931485467257513e+17
19113.0	6.930161752604672e+17
19114.0	6.928836326675796e+17
19115.0	6.927475179956905e+17
19116.0	6.92617002300211e+17
19117.0	6.924847514211668e+17
19118.0	6.923463800739155e+17
19119.0	6.919161598967802e+17
19120.0	6.920854431247017e+17
19121.0	6.919275869285033e+17
19122.0	6.917401728428713e+17
19123.0	6.916076798126762e+17
19124.0	6.91473781690641e+17
19125.0	6.91342413013538e+17
19126.0	6.912086739255295e+17
19127.0	6.909437106541908e+17
19128.0	6.909409822594387e+17
19129.0	6.908054892533076e+17
19130.0	6.906786809730388e+17
19131.0	6.905473506039123e+17
19132.0	6.904146004628819e+17
19133.0	6.902749130828457e+17
19134.0	6.901482889325225e+17
19135.0	6.900168132307626e+17
19136.0	6.898845812959913e+17
19137.0	6.897397551945044e+17
19138.0	6.896182385180671e+17
19139.0	6.894867328969385e+17
19140.0	6.893542173573119e+17
19141.0	6.892215514518867e+17
19142.0	6.890868468350975e+17
19143.0	6.88951999472162e+17
19144.0	6.888203710278313e+17
19145.0	6.886907043293865e+17
19146.0	6.885108762716842e+17
19147.0	6.884186238134953e+17
19148.0	6.882923015132499e+17
19149.0	6.881595417253203e+17
19150.0	6.880262108829012e+17
19151.0	6.878939486792361e+17
19152.0	6.877608578908157e+17
19153.0	6.876264503006548e+17
19154.0	6.874856533174953e+17
19155.0	6.873622622765055e+17
19156.0	6.872291698103635e+17
19157.0	6.870952220557311e+17
19158.0	6.869513287674538e+17
19159.0	6.868285047264596e+17
19160.0	6.866971344415401e+17
19161.0	6.865639551533055e+17
19162.0	6.864013626791252e+17
19163.0	6.86161347617314e+17
19164.0	6.860149285890729e+17
19165.0	6.858814156439551e+17
19166.0	6.857399656775677e+17
19167.0	6.856131758522368e+17
19168.0	6.854818096218111e+17
19169.0	6.853486206167721e+17
19170.0	6.852166210464425e+17
19171.0	6.850820688226985e+17
19172.0	6.849503236369066e+17
19173.0	6.848172445925375e+17
19174.0	6.846797458003284e+17
19175.0	6.845508494557183e+17
19176.0	6.844176220028927e+17
19177.0	6.842722394570751e+17
19178.0	6.841498622492671e+17
19179.0	6.840151506419711e+17
19180.0	6.838829694582783e+17
19181.0	6.837418209225385e+17
19182.0	6.836158618490196e+17
19183.0	6.834836178206719e+17
19184.0	6.833492026108586e+17
19185.0	6.832160345773395e+17
19186.0	6.830826874470399e+17
19187.0	6.829431746199551e+17
19188.0	6.828151643220649e+17
19189.0	6.826818262095187e+17
19190.0	6.82547873002291e+17
19191.0	6.824113841285801e+17
19192.0	6.822801974842708e+17
19193.0	6.821460495914326e+17
19194.0	6.820110111779497e+17
19195.0	6.818777844940799e+17
19196.0	6.817424593999187e+17
19197.0	6.816075284305235e+17
19198.0	6.814691002504531e+17
19199.0	6.811553887507796e+17
19200.0	6.810699974748842e+17
19201.0	6.810672285351933e+17
19202.0	6.809370887891625e+17
19203.0	6.808037416588628e+17
19204.0	6.806677089157119e+17
19205.0	6.805343275319296e+17
19206.0	6.803998814939817e+17
19207.0	6.802584460678484e+17
19208.0	6.801152974782464e+17
19209.0	6.799959034691583e+17
19210.0	6.798622416961535e+17
19211.0	6.797273509221716e+17
19212.0	6.795923608829951e+17
19213.0	6.794497342745257e+17
19214.0	6.79313270776354e+17
19215.0	6.791862376114857e+17
19216.0	6.790516349861887e+17
19217.0	6.78915810070801e+17
19218.0	6.787189944527529e+17
19219.0	6.786320865864361e+17
19220.0	6.785078984878761e+17
19221.0	6.782930198200319e+17
19222.0	6.780497081750867e+17
19223.0	6.779134222357844e+17
19224.0	6.777756306811561e+17
19225.0	6.776329598926847e+17
19226.0	6.775058668191743e+17
19227.0	6.773697030040234e+17
19228.0	6.772359530108244e+17
19229.0	6.770996719648768e+17
19230.0	6.769631073839785e+17
19231.0	6.768258731824468e+17
19232.0	6.766897794820777e+17
19233.0	6.765481749555882e+17
19234.0	6.764153354758825e+17
19235.0	6.762784658991786e+17
19236.0	6.761432701293908e+17
19237.0	6.760050175508477e+17
19238.0	6.758618164625405e+17
19239.0	6.757318693748735e+17
19240.0	6.75592675734323e+17
19241.0	6.754544738369535e+17
19242.0	6.753178204766207e+17
19243.0	6.751678235672575e+17
19244.0	6.750434922332159e+17
19245.0	6.749053800939519e+17
19246.0	6.74756910330675e+17
19247.0	6.745076766081023e+17
19248.0	6.743690139664383e+17
19249.0	6.742299121811455e+17
19250.0	6.740765669588991e+17
19251.0	6.737113428350291e+17
19252.0	6.735572671048361e+17
19253.0	6.734394934252884e+17
19254.0	6.733016447582205e+17
19255.0	6.73146812305681e+17
19256.0	6.73020121326114e+17
19257.0	6.728823810818047e+17
19258.0	6.727421714410153e+17
19259.0	6.72595874746641e+17
19260.0	6.724558944643753e+17
19261.0	6.723194434792106e+17
19262.0	6.721747748039338e+17
19263.0	6.720332574490623e+17
19264.0	6.718564506883411e+17
19265.0	6.717403916402688e+17
19266.0	6.715992713461759e+17
19267.0	6.714715952644095e+17
19268.0	6.71329338733363e+17
19269.0	6.711691888820223e+17
19270.0	6.709028033921023e+17
19271.0	6.70735326581009e+17
19272.0	6.706142352769023e+17
19273.0	6.70409174426146e+17
19274.0	6.702775491974482e+17
19275.0	6.701862659031039e+17
19276.0	6.700407836027561e+17
19277.0	6.698967285541546e+17
19278.0	6.697523335572138e+17
19279.0	6.696068486703786e+17
19280.0	6.694562458238975e+17
19281.0	6.693155900489727e+17
19282.0	6.691710084055037e+17
19283.0	6.688700512949588e+17
19284.0	6.687037326011049e+17
19285.0	6.685462280273919e+17
19286.0	6.684085113410899e+17
19287.0	6.68263135715874e+17
19288.0	6.680492526359891e+17
19289.0	6.678070731735036e+17
19290.0	6.678159667757055e+17
19291.0	6.676460049793024e+17
19292.0	6.675162371981311e+17
19293.0	6.673650199560191e+17
19294.0	6.672134887702527e+17
19295.0	6.670628276229459e+17
19296.0	6.669107463542099e+17
19297.0	6.667574082622803e+17
19298.0	6.666033810462036e+17
19299.0	6.664523726804308e+17
19300.0	6.662984578717011e+17
19301.0	6.661437922126505e+17
19302.0	6.65952866725615e+17
19303.0	6.655984460103679e+17
19304.0	6.654445247004672e+17
19305.0	6.652878091452415e+17
19306.0	6.651301001691133e+17
19307.0	6.649677925580799e+17
19308.0	6.648098101832362e+17
19309.0	6.646449673950548e+17
19310.0	6.644811074721108e+17
19311.0	6.643260448920916e+17
19312.0	6.64166150054434e+17
19313.0	6.64004074807842e+17
19314.0	6.636421652327081e+17
19315.0	6.634524840558593e+17
19316.0	6.632114350981119e+17
19317.0	6.6304347747997e+17
19318.0	6.628737779673769e+17
19319.0	6.62705234055441e+17
19320.0	6.625341941830996e+17
19321.0	6.623622749749247e+17
19322.0	6.621835647691433e+17
19323.0	6.620131360767999e+17
19324.0	6.618405255075155e+17
19325.0	6.613799474473645e+17
19326.0	6.611088062458538e+17
19327.0	6.609267141028522e+17
19328.0	6.607453987449514e+17
19329.0	6.605625742065664e+17
19330.0	6.603757885674836e+17
19331.0	6.601898464029353e+17
19332.0	6.59782534325862e+17
19333.0	6.593532361266516e+17
19334.0	6.591590972435113e+17
19335.0	6.589636530230612e+17
19336.0	6.587663303835647e+17
19337.0	6.585673205852842e+17
19338.0	6.580140755998038e+17
19339.0	6.576017028153343e+17
19340.0	6.573854080805546e+17
19341.0	6.571766222684159e+17
19342.0	6.569374959097172e+17
19343.0	6.564903850606592e+17
19344.0	6.561927799679657e+17
19345.0	6.558265556424018e+17
19346.0	6.556794074344106e+17
19347.0	6.555039736791039e+17
19348.0	6.552760219948371e+17
19349.0	6.550383602171901e+17
19350.0	6.547997337496234e+17
19351.0	6.54558177141282e+17
19352.0	6.543105389319508e+17
19353.0	6.540687255622996e+17
19354.0	6.538157110941012e+17
19355.0	6.535510742794239e+17
19356.0	6.532979436290047e+17
19357.0	6.5303542235136e+17
19358.0	6.52769631543842e+17
19359.0	6.524983475961855e+17
19360.0	6.522287591959209e+17
19361.0	6.519562594593449e+17
19362.0	6.516835693013674e+17
19363.0	6.514055582493353e+17
19364.0	6.511250370461696e+17
19365.0	6.508423626970451e+17
19366.0	6.505573305199274e+17
19367.0	6.502700088120659e+17
19368.0	6.499803810059603e+17
19369.0	6.49684575199778e+17
19370.0	6.493883017286998e+17
19371.0	6.490943982490964e+17
19372.0	6.488002640827731e+17
19373.0	6.484966851127978e+17
19374.0	6.481829917884415e+17
19375.0	6.478614203028819e+17
19376.0	6.475363065877844e+17
19377.0	6.472067520135167e+17
19378.0	6.468736119384745e+17
19379.0	6.465361976579411e+17
19380.0	6.461946257735679e+17
19381.0	6.458488631503529e+17
19382.0	6.454911566173524e+17
19383.0	6.451235389439999e+17
19384.0	6.447731491646122e+17
19385.0	6.444109681481044e+17
19386.0	6.440446316249087e+17
19387.0	6.436734959790762e+17
19388.0	6.43297779454225e+17
19389.0	6.429172979204095e+17
19390.0	6.425303902934356e+17
19391.0	6.419484549403986e+17
19392.0	6.417380652963156e+17
19393.0	6.413401225254227e+17
19394.0	6.409326077236566e+17
19395.0	6.405204764611923e+17
19396.0	6.401027283965267e+17
19397.0	6.396670601680212e+17
19398.0	6.392114989148841e+17
19399.0	6.387313806409727e+17
19400.0	6.383321920219817e+17
19401.0	6.378890782048255e+17
19402.0	6.374333084947795e+17
19403.0	6.369662568759295e+17
19404.0	6.364524407248212e+17
19405.0	6.359283609021097e+17
19406.0	6.354350750302207e+17
19407.0	6.349311238821203e+17
19408.0	6.34306928120081e+17
19409.0	6.337469736463017e+17
19410.0	6.332041507373055e+17
19411.0	6.325324618224982e+17
19412.0	6.318749424549887e+17
19413.0	6.312087113782612e+17
19414.0	6.30397113274641e+17
19415.0	6.296584608983721e+17
19416.0	6.287350434889727e+17
19417.0	6.277519050626386e+17
19418.0	6.266714954137595e+17
19419.0	6.254076359256753e+17
19420.0	6.239064297919826e+17
19421.0	6.221603229313706e+17
19422.0	6.201159384214188e+17
19423.0	6.18071111412395e+17
19424.0	6.166639245874516e+17
19425.0	6.154290433359871e+17
19426.0	6.141433824848553e+17
19427.0	6.127960254491306e+17
19428.0	6.113924332126208e+17
19429.0	6.099149755077971e+17
19430.0	6.084160781287424e+17
19431.0	6.068082164367359e+17
19432.0	6.051470812119039e+17
19433.0	6.03328380945476e+17
19434.0	6.01365616333073e+17
19435.0	5.991412125051558e+17
19436.0	5.965881401496916e+17
19437.0	5.936422917767168e+17
19438.0	5.898728515480223e+17
19439.0	5.860407116475052e+17
19440.0	5.811301065075375e+17
19441.0	5.761383665412779e+17
19442.0	5.7163255710569824e+17
19443.0	5.6663911977451514e+17
19444.0	5.6074435901958784e+17
19445.0	5.534746447358638e+17
19446.0	5.4455337389916154e+17
19447.0	5.3332712434783514e+17
19448.0	5.188542455436635e+17
19449.0	4.989131734821546e+17
19450.0	4.6780027596963616e+17
19451.0	4.52183957613227e+17
19452.0	4.8507337187874246e+17
19453.0	5.097849083658247e+17
19454.0	5.262739159820964e+17
19455.0	5.3868434939357875e+17
19456.0	5.484292122258093e+17
19457.0	5.562370357897896e+17
19458.0	5.622274935750662e+17
19459.0	5.6767486973269344e+17
19460.0	5.721560016311634e+17
19461.0	5.765858991975082e+17
19462.0	5.815041261568004e+17
19463.0	5.857526353843544e+17
19464.0	5.89252954248533e+17
19465.0	5.92287624418646e+17
19466.0	5.947895751988562e+17
19467.0	5.969067035503272e+17
19468.0	5.987525931827199e+17
19469.0	6.004237036508499e+17
19470.0	6.019226165488297e+17
19471.0	6.033517469237247e+17
19472.0	6.046407757310633e+17
19473.0	6.058895007023101e+17
19474.0	6.071058309666132e+17
19475.0	6.082000610568873e+17
19476.0	6.093231418769407e+17
19477.0	6.103511518762324e+17
19478.0	6.113261857188521e+17
19479.0	6.129324700729339e+17
19480.0	6.148368171881823e+17
19481.0	6.164188847494491e+17
19482.0	6.177305806241791e+17
19483.0	6.188409536817836e+17
19484.0	6.197858069206356e+17
19485.0	6.206645296168954e+17
19486.0	6.21242614459051e+17
19487.0	6.219114750148607e+17
19488.0	6.223651248537596e+17
19489.0	6.229205830336512e+17
19490.0	6.231846278223186e+17
19491.0	6.237776799683922e+17
19492.0	6.241055216588116e+17
19493.0	6.24417076167748e+17
19494.0	6.248205884850175e+17
19495.0	6.250920607569235e+17
19496.0	6.253269027039914e+17
19497.0	6.255991215620095e+17
19498.0	6.258925489182035e+17
19499.0	6.258386688890194e+17
19500.0	6.263676232619348e+17
19501.0	6.265801931052372e+17
19502.0	6.267839881849514e+17
19503.0	6.269810088345599e+17
19504.0	6.271716121990484e+17
19505.0	6.273929132550826e+17
19506.0	6.27571195711761e+17
19507.0	6.277429725932202e+17
19508.0	6.279120419116372e+17
19509.0	6.280738987048959e+17
19510.0	6.282167313935017e+17
19511.0	6.280191106788006e+17
19512.0	6.284814039995731e+17
19513.0	6.285595481473023e+17
19514.0	6.287369112125439e+17
19515.0	6.289001837232128e+17
19516.0	6.290560310575103e+17
19517.0	6.291732483626324e+17
19518.0	6.292933928026111e+17
19519.0	6.294043649288874e+17
19520.0	6.295197324061353e+17
19521.0	6.296278263311018e+17
19522.0	6.297242556869289e+17
19523.0	6.298207894809258e+17
19524.0	6.299108297233748e+17
19525.0	6.299958521102335e+17
19526.0	6.300783355450708e+17
19527.0	6.301560218845183e+17
19528.0	6.302284926069418e+17
19529.0	6.302918000334164e+17
19530.0	6.303461032678739e+17
19531.0	6.303978114864468e+17
19532.0	6.304473234975402e+17
19533.0	6.304945545063081e+17
19534.0	6.305392473320106e+17
19535.0	6.305809740158292e+17
19536.0	6.306189462383274e+17
19537.0	6.306593064878077e+17
19538.0	6.306874679536298e+17
19539.0	6.306887343538176e+17
19540.0	6.307551047406931e+17
19541.0	6.307845830082559e+17
19542.0	6.308091073833642e+17
19543.0	6.3083145344669e+17
19544.0	6.308508722353491e+17
19545.0	6.308354083957417e+17
19546.0	6.308191151325183e+17
19547.0	6.308942196681385e+17
19548.0	6.309032411267071e+17
19549.0	6.308987284051284e+17
19550.0	6.309050295779327e+17
19551.0	6.309013013310121e+17
19552.0	6.308945234056531e+17
19553.0	6.30883521466641e+17
19554.0	6.308703839977471e+17
19555.0	6.308574296102228e+17
19556.0	6.308414406437545e+17
19557.0	6.308215511842815e+17
19558.0	6.307995767362899e+17
19559.0	6.309010808504321e+17
19560.0	6.310468925434537e+17
19561.0	6.310141009155412e+17
19562.0	6.309816497253034e+17
19563.0	6.30945037296162e+17
19564.0	6.311280377855996e+17
19565.0	6.313710268885674e+17
19566.0	6.313207522131968e+17
19567.0	6.312734118729044e+17
19568.0	6.312203997850282e+17
19569.0	6.311692979230036e+17
19570.0	6.312482243084289e+17
19571.0	6.314773406810111e+17
19572.0	6.314141108491604e+17
19573.0	6.313529548909225e+17
19574.0	6.312841458657961e+17
19575.0	6.312278125882025e+17
19576.0	6.31163002622225e+17
19577.0	6.310965025614506e+17
19578.0	6.312618129446226e+17
19579.0	6.312947519324159e+17
19580.0	6.312227899091625e+17
19581.0	6.311506465521663e+17
19582.0	6.310779375932756e+17
19583.0	6.310030968094719e+17
19584.0	6.309271692815018e+17
19585.0	6.308420629386579e+17
19586.0	6.307624219137363e+17
19587.0	6.30693579264273e+17
19588.0	6.30760674636595e+17
19589.0	6.307976498031273e+17
19590.0	6.307102192566271e+17
19591.0	6.306334992848212e+17
19592.0	6.305494865368403e+17
19593.0	6.304634278772735e+17
19594.0	6.303612014340778e+17
19595.0	6.302917594185727e+17
19596.0	6.30198140735761e+17
19597.0	6.301193703085396e+17
19598.0	6.300073120672425e+17
19599.0	6.299443352917331e+17
19600.0	6.298563652878333e+17
19601.0	6.297618890795689e+17
19602.0	6.297404498946728e+17
19603.0	6.297554311097001e+17
19604.0	6.29691295797521e+17
19605.0	6.295800270640468e+17
19606.0	6.295103532433407e+17
19607.0	6.294176252209833e+17
19608.0	6.293234516317524e+17
19609.0	6.292261218287615e+17
19610.0	6.291359206648489e+17
19611.0	6.290407939899391e+17
19612.0	6.289461876184404e+17
19613.0	6.288498384437248e+17
19614.0	6.287515615668905e+17
19615.0	6.286585271506259e+17
19616.0	6.285601074577408e+17
19617.0	6.284643545033385e+17
19618.0	6.283250952918355e+17
19619.0	6.282161954313555e+17
19620.0	6.281224781124948e+17
19621.0	6.280736398464339e+17
19622.0	6.279754264434004e+17
19623.0	6.278766484870484e+17
19624.0	6.277767389074772e+17
19625.0	6.277559677353983e+17
19626.0	6.277271092461568e+17
19627.0	6.276423593492479e+17
19628.0	6.275371662049279e+17
19629.0	6.274326504407039e+17
19630.0	6.273195726340095e+17
19631.0	6.270403959149908e+17
19632.0	6.271335716793002e+17
19633.0	6.270306274508799e+17
19634.0	6.269314843104596e+17
19635.0	6.26826031329007e+17
19636.0	6.268006392223059e+17
19637.0	6.267143354056701e+17
19638.0	6.266404382004564e+17
19639.0	6.265366718884521e+17
19640.0	6.264274678710272e+17
19641.0	6.262709738449578e+17
19642.0	6.262258478175572e+17
19643.0	6.261216436202153e+17
19644.0	6.260132035952637e+17
19645.0	6.258934163002707e+17
19646.0	6.258094341008042e+17
19647.0	6.257048569599316e+17
19648.0	6.256000151584767e+17
19649.0	6.254948092215295e+17
19650.0	6.253898396336127e+17
19651.0	6.25284511432704e+17
19652.0	6.251790208423251e+17
19653.0	6.250732535676927e+17
19654.0	6.249676133804713e+17
19655.0	6.24861333491985e+17
19656.0	6.247551075003049e+17
19657.0	6.246494531922601e+17
19658.0	6.246819254938282e+17
19659.0	6.246307071000575e+17
19660.0	6.245242717427028e+17
19661.0	6.24417583538722e+17
19662.0	6.243107401454932e+17
19663.0	6.242005675234644e+17
19664.0	6.240960879700649e+17
19665.0	6.239896564574889e+17
