# Flux units: erg / (cm m2 s)
# Wavelength units: Angstrom
wave	flux
19000.0	4.939498409776469e+17
19001.0	4.938410663870462e+17
19002.0	4.9377074272884045e+17
19003.0	4.93679932412177e+17
19004.0	4.9359026161800525e+17
19005.0	4.934967341613055e+17
19006.0	4.934089224923817e+17
19007.0	4.9332166873579514e+17
19008.0	4.932222916930217e+17
19009.0	4.9312485975872845e+17
19010.0	4.9296305308740243e+17
19011.0	4.929577879775914e+17
19012.0	4.927935721679529e+17
19013.0	4.9278564675092486e+17
19014.0	4.9268902921065805e+17
19015.0	4.925982170065577e+17
19016.0	4.925069481825621e+17
19017.0	4.9242825835588256e+17
19018.0	4.923353905233919e+17
19019.0	4.9224942155202554e+17
19020.0	4.921589975307605e+17
19021.0	4.920722460420777e+17
19022.0	4.919822887070378e+17
19023.0	4.918839449310549e+17
19024.0	4.9179034575175674e+17
19025.0	4.9170990592163834e+17
19026.0	4.916141780631551e+17
19027.0	4.914843322679295e+17
19028.0	4.9144712410781005e+17
19029.0	4.9135522397115725e+17
19030.0	4.9127050196637e+17
19031.0	4.911821674774527e+17
19032.0	4.91091222663441e+17
19033.0	4.909874361488724e+17
19034.0	4.909087687617194e+17
19035.0	4.907944431495849e+17
19036.0	4.868224991275671e+17
19037.0	4.906259933298687e+17
19038.0	4.905512481062911e+17
19039.0	4.904677369970687e+17
19040.0	4.903794968799914e+17
19041.0	4.902900495723179e+17
19042.0	4.898272752347813e+17
19043.0	4.9011644830842874e+17
19044.0	4.900251579536723e+17
19045.0	4.899347347712682e+17
19046.0	4.898386680829268e+17
19047.0	4.8975836261034656e+17
19048.0	4.895794647793662e+17
19049.0	4.888259280065868e+17
19050.0	4.8947789404569574e+17
19051.0	4.8884166307785286e+17
19052.0	4.892288809435137e+17
19053.0	4.8922756770693114e+17
19054.0	4.8914019490201594e+17
19055.0	4.8890426753897805e+17
19056.0	4.889230083883006e+17
19057.0	4.8887462946843296e+17
19058.0	4.8840109506341485e+17
19059.0	4.885489128221353e+17
19060.0	4.8860599373441696e+17
19061.0	4.8852105418506234e+17
19062.0	4.8843247607698765e+17
19063.0	4.8834450719156896e+17
19064.0	4.882358889086974e+17
19065.0	4.881412291297279e+17
19066.0	4.8792959985909766e+17
19067.0	4.8798930549691725e+17
19068.0	4.8790328346760525e+17
19069.0	4.878150866916691e+17
19070.0	4.877219699971413e+17
19071.0	4.876356644328789e+17
19072.0	4.874032123303251e+17
19073.0	4.874611202195455e+17
19074.0	4.8737438159339514e+17
19075.0	4.8728620096552954e+17
19076.0	4.8719453396227405e+17
19077.0	4.8710659101163514e+17
19078.0	4.870127460461226e+17
19079.0	4.869331573101908e+17
19080.0	4.868430668059989e+17
19081.0	4.867487033546068e+17
19082.0	4.866622122622975e+17
19083.0	4.865676913147904e+17
19084.0	4.86460900769792e+17
19085.0	4.864014766396757e+17
19086.0	4.8606825183969274e+17
19087.0	4.858313592973991e+17
19088.0	4.859332214652924e+17
19089.0	4.8598208986043725e+17
19090.0	4.8595804300683936e+17
19091.0	4.858436699990699e+17
19092.0	4.854735225312603e+17
19093.0	4.8570148952473594e+17
19094.0	4.856140070387711e+17
19095.0	4.855266854043647e+17
19096.0	4.854360783716351e+17
19097.0	4.853507865706495e+17
19098.0	4.851062840229887e+17
19099.0	4.8498857822126086e+17
19100.0	4.850779552044372e+17
19101.0	4.8499632090644474e+17
19102.0	4.8488822222793376e+17
19103.0	4.848236221868714e+17
19104.0	4.847372841167529e+17
19105.0	4.8431023014980346e+17
19106.0	4.84543166554658e+17
19107.0	4.843865518724435e+17
19108.0	4.842576311309653e+17
19109.0	4.8409065078565504e+17
19110.0	4.8419832583946234e+17
19111.0	4.8402724661056826e+17
19112.0	4.839221356047016e+17
19113.0	4.839476594125483e+17
19114.0	4.8379734814010016e+17
19115.0	4.8374574631703885e+17
19116.0	4.836836063750825e+17
19117.0	4.835949609484286e+17
19118.0	4.834806405092692e+17
19119.0	4.813540994405685e+17
19120.0	4.83301061173794e+17
19121.0	4.8322754299385165e+17
19122.0	4.8316293351560525e+17
19123.0	4.8307603990992205e+17
19124.0	4.829724097030826e+17
19125.0	4.8289994743917216e+17
19126.0	4.828112681085609e+17
19127.0	4.824097343143933e+17
19128.0	4.826260957386068e+17
19129.0	4.825396024093353e+17
19130.0	4.824635114433194e+17
19131.0	4.823780803215359e+17
19132.0	4.822903861630292e+17
19133.0	4.8219474163138554e+17
19134.0	4.8211195550760954e+17
19135.0	4.820284194422783e+17
19136.0	4.8194307150752403e+17
19137.0	4.818279684112384e+17
19138.0	4.8176675855619405e+17
19139.0	4.816825024686762e+17
19140.0	4.815958183684777e+17
19141.0	4.8150855209888416e+17
19142.0	4.81416710263057e+17
19143.0	4.813239900700671e+17
19144.0	4.8124225224267085e+17
19145.0	4.811606881293653e+17
19146.0	4.8097044177005235e+17
19147.0	4.8097078982737914e+17
19148.0	4.8077365026925235e+17
19149.0	4.806661805965311e+17
19150.0	4.807258019288405e+17
19151.0	4.806396102399317e+17
19152.0	4.805496087947946e+17
19153.0	4.802043030011899e+17
19154.0	4.803321986547711e+17
19155.0	4.8029182554275834e+17
19156.0	4.802054549667839e+17
19157.0	4.8002396260925446e+17
19158.0	4.7971844636016646e+17
19159.0	4.7993843152322554e+17
19160.0	4.798544800819882e+17
19161.0	4.797677025187156e+17
19162.0	4.793623698735106e+17
19163.0	4.795800332096853e+17
19164.0	4.795103096864766e+17
19165.0	4.791349327604389e+17
19166.0	4.793071803127125e+17
19167.0	4.792232063620436e+17
19168.0	4.7916530063988045e+17
19169.0	4.790741561769983e+17
19170.0	4.7899456415552845e+17
19171.0	4.788874207996587e+17
19172.0	4.788184798636713e+17
19173.0	4.7873488158283085e+17
19174.0	4.786395423965183e+17
19175.0	4.7856321291441485e+17
19176.0	4.784771025250987e+17
19177.0	4.783650371534846e+17
19178.0	4.782921587447125e+17
19179.0	4.7818870022471686e+17
19180.0	4.7813023819803296e+17
19181.0	4.7801716850032634e+17
19182.0	4.77955032612864e+17
19183.0	4.7787374867906554e+17
19184.0	4.7778777775035725e+17
19185.0	4.7769884718093645e+17
19186.0	4.776156112180564e+17
19187.0	4.7751941157027834e+17
19188.0	4.7744245091532794e+17
19189.0	4.773564859285503e+17
19190.0	4.7726948704583674e+17
19191.0	4.7717654839951354e+17
19192.0	4.7709800649195514e+17
19193.0	4.769779676785323e+17
19194.0	4.768713152659456e+17
19195.0	4.768367824426324e+17
19196.0	4.767459066249214e+17
19197.0	4.7665559696834554e+17
19198.0	4.765412061347839e+17
19199.0	4.7446345020429594e+17
19200.0	4.749614666219526e+17
19201.0	4.762860287339178e+17
19202.0	4.762287939605846e+17
19203.0	4.7614216124061e+17
19204.0	4.760602164942164e+17
19205.0	4.759799490499925e+17
19206.0	4.7589353729993376e+17
19207.0	4.757925725732863e+17
19208.0	4.7567899746194765e+17
19209.0	4.7563784693568845e+17
19210.0	4.75551880061474e+17
19211.0	4.754695273491114e+17
19212.0	4.753830574380373e+17
19213.0	4.7526730289643514e+17
19214.0	4.751710089467221e+17
19215.0	4.7511837483554125e+17
19216.0	4.750412338255189e+17
19217.0	4.749537185540777e+17
19218.0	4.7473133984153574e+17
19219.0	4.7476098741917e+17
19220.0	4.746935618153131e+17
19221.0	4.745600645988351e+17
19222.0	4.7452632470869325e+17
19223.0	4.744395930031445e+17
19224.0	4.743508097936042e+17
19225.0	4.742478762606591e+17
19226.0	4.7418348195020794e+17
19227.0	4.740989437258411e+17
19228.0	4.740170904851796e+17
19229.0	4.7393166991906125e+17
19230.0	4.7384503531165005e+17
19231.0	4.7375911310677325e+17
19232.0	4.736743317525844e+17
19233.0	4.7357906498792096e+17
19234.0	4.73500686168883e+17
19235.0	4.734144989538985e+17
19236.0	4.7333468302650016e+17
19237.0	4.732464212388521e+17
19238.0	4.7314535242356045e+17
19239.0	4.7307945613284685e+17
19240.0	4.729937256076628e+17
19241.0	4.7290556874751994e+17
19242.0	4.728216949708117e+17
19243.0	4.7271469338241696e+17
19244.0	4.7265414839446176e+17
19245.0	4.7256802157745485e+17
19246.0	4.7248113999544314e+17
19247.0	4.7239750557368314e+17
19248.0	4.723132845086036e+17
19249.0	4.722207123745449e+17
19250.0	4.7208904219688954e+17
19251.0	4.719907726600871e+17
19252.0	4.719299075069268e+17
19253.0	4.718841993800362e+17
19254.0	4.718039415827114e+17
19255.0	4.716897852107433e+17
19256.0	4.7163056785981434e+17
19257.0	4.715493803950079e+17
19258.0	4.7146470620528634e+17
19259.0	4.7136809097188685e+17
19260.0	4.7119368090637626e+17
19261.0	4.7120795999491405e+17
19262.0	4.711127326567083e+17
19263.0	4.710254977744895e+17
19264.0	4.708553081574739e+17
19265.0	4.7083276566091085e+17
19266.0	4.707179305107456e+17
19267.0	4.707016176741034e+17
19268.0	4.7061607379544736e+17
19269.0	4.705320608377515e+17
19270.0	4.704469177248426e+17
19271.0	4.7030117950204595e+17
19272.0	4.7027186579101e+17
19273.0	4.701428754939902e+17
19274.0	4.700398204660393e+17
19275.0	4.700249968170324e+17
19276.0	4.699371195072511e+17
19277.0	4.6985366795714554e+17
19278.0	4.697637931799892e+17
19279.0	4.6968105815681696e+17
19280.0	4.69586032145203e+17
19281.0	4.6951379567465805e+17
19282.0	4.694316629535401e+17
19283.0	4.693217438771883e+17
19284.0	4.692539286923946e+17
19285.0	4.691518689028778e+17
19286.0	4.690867865867604e+17
19287.0	4.690035584532479e+17
19288.0	4.679034328492707e+17
19289.0	4.661660264431568e+17
19290.0	4.687492284415998e+17
19291.0	4.686308697964545e+17
19292.0	4.685879585013759e+17
19293.0	4.685032046198783e+17
19294.0	4.684166111166463e+17
19295.0	4.6833634395204256e+17
19296.0	4.680916300813656e+17
19297.0	4.681325623640064e+17
19298.0	4.6807723802623994e+17
19299.0	4.6781483013461344e+17
19300.0	4.6790775759612576e+17
19301.0	4.678282946893141e+17
19302.0	4.6774273242562554e+17
19303.0	4.6764639667268256e+17
19304.0	4.6757116218354336e+17
19305.0	4.674889154472617e+17
19306.0	4.674046275529385e+17
19307.0	4.6731054875497805e+17
19308.0	4.672314119553023e+17
19309.0	4.670756508838569e+17
19310.0	4.669680897753087e+17
19311.0	4.6696874863056205e+17
19312.0	4.668955818633898e+17
19313.0	4.6680341007564794e+17
19314.0	4.573197095665645e+17
19315.0	4.580911471394962e+17
19316.0	4.663335059805528e+17
19317.0	4.6647450869432314e+17
19318.0	4.6639356708563616e+17
19319.0	4.663130535755775e+17
19320.0	4.661627251763881e+17
19321.0	4.660022994097493e+17
19322.0	4.6604564649301325e+17
19323.0	4.659475257840981e+17
19324.0	4.6588735849321805e+17
19325.0	4.657377838104575e+17
19326.0	4.657220915909972e+17
19327.0	4.6563631087397536e+17
19328.0	4.652538167033859e+17
19329.0	4.654743488735914e+17
19330.0	4.653837375067477e+17
19331.0	4.652983226029396e+17
19332.0	4.652213132241577e+17
19333.0	4.651342115110911e+17
19334.0	4.6504444480716806e+17
19335.0	4.6435399889496806e+17
19336.0	4.648779063317845e+17
19337.0	4.6480085417110176e+17
19338.0	4.6468260317975885e+17
19339.0	4.646317622034432e+17
19340.0	4.644974307398997e+17
19341.0	4.642332123070467e+17
19342.0	4.642446615685803e+17
19343.0	4.642952914315945e+17
19344.0	4.6398720239643334e+17
19345.0	4.636418048174757e+17
19346.0	4.6389007531813536e+17
19347.0	4.636633915020629e+17
19348.0	4.638731405361151e+17
19349.0	4.637829749538815e+17
19350.0	4.635956512555007e+17
19351.0	4.636106198876159e+17
19352.0	4.632201529043622e+17
19353.0	4.6345142619777696e+17
19354.0	4.633681390643882e+17
19355.0	4.632675700004182e+17
19356.0	4.63199045488913e+17
19357.0	4.6311459331768314e+17
19358.0	4.6302849767833594e+17
19359.0	4.628683540485458e+17
19360.0	4.626201528937129e+17
19361.0	4.6276912737157114e+17
19362.0	4.626917489639423e+17
19363.0	4.6260684345835514e+17
19364.0	4.6252178975402656e+17
19365.0	4.62435631829265e+17
19366.0	4.623517096782506e+17
19367.0	4.6226579914751994e+17
19368.0	4.6218167203485e+17
19369.0	4.6208653822962336e+17
19370.0	4.620042510882132e+17
19371.0	4.619166791237632e+17
19372.0	4.618389620959913e+17
19373.0	4.6175005690210976e+17
19374.0	4.616675528452778e+17
19375.0	4.6158137814330016e+17
19376.0	4.61496495706385e+17
19377.0	4.6140847467178656e+17
19378.0	4.6132147704736416e+17
19379.0	4.612351562437972e+17
19380.0	4.6114765075906554e+17
19381.0	4.610606158752425e+17
19382.0	4.609627682854229e+17
19383.0	4.608694555770879e+17
19384.0	4.607959647300266e+17
19385.0	4.6071112794111994e+17
19386.0	4.6062316059361274e+17
19387.0	4.605303142219775e+17
19388.0	4.604401901633536e+17
19389.0	4.603497674702847e+17
19390.0	4.6025044299612154e+17
19391.0	4.565152834431603e+17
19392.0	4.6001159199348026e+17
19393.0	4.5998717869752314e+17
19394.0	4.598971124503892e+17
19395.0	4.5971514963176115e+17
19396.0	4.59689396535296e+17
19397.0	4.5962547597148154e+17
19398.0	4.594475782722902e+17
19399.0	4.591903241317033e+17
19400.0	4.5926092915780275e+17
19401.0	4.5924135853533856e+17
19402.0	4.5914598132066976e+17
19403.0	4.59046143463697e+17
19404.0	4.5895050732066125e+17
19405.0	4.588475632320511e+17
19406.0	4.5874107740323834e+17
19407.0	4.585323264038228e+17
19408.0	4.583865707047597e+17
19409.0	4.584254716160681e+17
19410.0	4.583149143064576e+17
19411.0	4.5820449918375245e+17
19412.0	4.580908622763349e+17
19413.0	4.578562381534549e+17
19414.0	4.5784078214321485e+17
19415.0	4.577123825440085e+17
19416.0	4.5753986557760845e+17
19417.0	4.573996686595412e+17
19418.0	4.572988826801493e+17
19419.0	4.571493484025173e+17
19420.0	4.570103399404886e+17
19421.0	4.568639023174997e+17
19422.0	4.566955750413653e+17
19423.0	4.565407506978132e+17
19424.0	4.5637297427360416e+17
19425.0	4.561864256126975e+17
19426.0	4.559895470101845e+17
19427.0	4.5577998490228045e+17
19428.0	4.5554717383720954e+17
19429.0	4.552916134963882e+17
19430.0	4.5494018688505184e+17
19431.0	4.54021769715167e+17
19432.0	4.5429670312673274e+17
19433.0	4.5382563280541e+17
19434.0	4.5321552564060154e+17
19435.0	4.525904687180457e+17
19436.0	4.518857559506938e+17
19437.0	4.516463817785342e+17
19438.0	4.43561938832589e+17
19439.0	4.500151925560665e+17
19440.0	4.491662127879509e+17
19441.0	4.476057274373464e+17
19442.0	4.4515003374851456e+17
19443.0	4.433742098945363e+17
19444.0	4.416353793824085e+17
19445.0	4.3911389817514656e+17
19446.0	4.332725606896993e+17
19447.0	4.256652242976767e+17
19448.0	4.195003071638195e+17
19449.0	4.035471980800672e+17
19450.0	3.7187823837294035e+17
19451.0	3.523303145035151e+17
19452.0	3.916109239549957e+17
19453.0	4.130170636774052e+17
19454.0	4.2265228341848704e+17
19455.0	4.284572125276852e+17
19456.0	4.36227226118826e+17
19457.0	4.396055258289494e+17
19458.0	4.140674075765907e+17
19459.0	4.4225996919931514e+17
19460.0	4.4503779941635424e+17
19461.0	4.4691567152551226e+17
19462.0	4.480246977221975e+17
19463.0	4.4875478386169165e+17
19464.0	4.4928934818611194e+17
19465.0	4.497075281242794e+17
19466.0	4.5002895099166714e+17
19467.0	4.5035329952590483e+17
19468.0	4.507928444097877e+17
19469.0	4.508954238036646e+17
19470.0	4.514206098041513e+17
19471.0	4.5161037228059296e+17
19472.0	4.517416957291179e+17
19473.0	4.518439151818068e+17
19474.0	4.517031500054524e+17
19475.0	4.518131160580093e+17
19476.0	4.5200613184634874e+17
19477.0	4.520494569095166e+17
19478.0	4.520653772991146e+17
19479.0	4.518523683121831e+17
19480.0	4.520570444753579e+17
19481.0	4.520404643217408e+17
19482.0	4.5203105167441914e+17
19483.0	4.520155501559807e+17
19484.0	4.519916022879572e+17
19485.0	4.5196683848799565e+17
19486.0	4.517102095783258e+17
19487.0	4.5191713710407674e+17
19488.0	4.518792495366142e+17
19489.0	4.518204674146304e+17
19490.0	4.515072803427664e+17
19491.0	4.5173519770364576e+17
19492.0	4.516923337342975e+17
19493.0	4.5164093610393594e+17
19494.0	4.515813508426411e+17
19495.0	4.515183604356436e+17
19496.0	4.513669123670014e+17
19497.0	4.5138842732898976e+17
19498.0	4.509950413198681e+17
19499.0	4.4542696525659706e+17
19500.0	4.5118998557928096e+17
19501.0	4.5113756314064205e+17
19502.0	4.510708425992874e+17
19503.0	4.510072466746026e+17
19504.0	4.509423368841898e+17
19505.0	4.508682711378602e+17
19506.0	4.508033865831765e+17
19507.0	4.5072687625666554e+17
19508.0	4.506589907473749e+17
19509.0	4.505821192213845e+17
19510.0	4.504231790073171e+17
19511.0	4.347468042294473e+17
19512.0	4.494954173475475e+17
19513.0	4.4859530244259565e+17
19514.0	4.4901941857921555e+17
19515.0	4.500277228295511e+17
19516.0	4.500424912535551e+17
19517.0	4.4998284936915603e+17
19518.0	4.4986630895479443e+17
19519.0	4.497869879552681e+17
19520.0	4.495632600050343e+17
19521.0	4.497047212261376e+17
19522.0	4.49595654152738e+17
19523.0	4.494990905092779e+17
19524.0	4.4931859255132186e+17
19525.0	4.4939693327209805e+17
19526.0	4.4932736298079565e+17
19527.0	4.492477678835029e+17
19528.0	4.491575662302548e+17
19529.0	4.4907118558795085e+17
19530.0	4.490203283237545e+17
19531.0	4.4894356829634554e+17
19532.0	4.488663078884692e+17
19533.0	4.487892889326934e+17
19534.0	4.487118247515477e+17
19535.0	4.486317393401173e+17
19536.0	4.4855052153651194e+17
19537.0	4.4847647284701856e+17
19538.0	4.481837878826328e+17
19539.0	4.4821737824583706e+17
19540.0	4.482411463879338e+17
19541.0	4.48124260782353e+17
19542.0	4.4807070329514656e+17
19543.0	4.4779880124689075e+17
19544.0	4.479209795048789e+17
19545.0	4.477682997788669e+17
19546.0	4.476078891117226e+17
19547.0	4.477007280734208e+17
19548.0	4.476232581600597e+17
19549.0	4.475296527592105e+17
19550.0	4.4746695022127776e+17
19551.0	4.473893060345856e+17
19552.0	4.473106973676884e+17
19553.0	4.4722870124107085e+17
19554.0	4.471456670242134e+17
19555.0	4.4705064401851725e+17
19556.0	4.469807686615039e+17
19557.0	4.469166887141375e+17
19558.0	4.4684031148687354e+17
19559.0	4.467629492972202e+17
19560.0	4.466060160576169e+17
19561.0	4.4660176177506976e+17
19562.0	4.4645228481959245e+17
19563.0	4.4644992615273805e+17
19564.0	4.46371027100194e+17
19565.0	4.462927193746089e+17
19566.0	4.462095538061312e+17
19567.0	4.461362482074965e+17
19568.0	4.460546750065321e+17
19569.0	4.4597570353233914e+17
19570.0	4.4589882459641165e+17
19571.0	4.458207244189696e+17
19572.0	4.457387286418773e+17
19573.0	4.456382009617065e+17
19574.0	4.455639850592938e+17
19575.0	4.455086059159551e+17
19576.0	4.454173793146196e+17
19577.0	4.453133939201365e+17
19578.0	4.4526573138739194e+17
19579.0	4.451908262210217e+17
19580.0	4.4511273541085856e+17
19581.0	4.450352791289855e+17
19582.0	4.449600795923798e+17
19583.0	4.448817290149887e+17
19584.0	4.448016340964693e+17
19585.0	4.4470590008634016e+17
19586.0	4.446221644420438e+17
19587.0	4.4455456309684896e+17
19588.0	4.4440467495976966e+17
19589.0	4.44407023140864e+17
19590.0	4.443052240273408e+17
19591.0	4.4425254042337274e+17
19592.0	4.44175007944977e+17
19593.0	4.440755027662165e+17
19594.0	4.439597872316415e+17
19595.0	4.439360252411904e+17
19596.0	4.4383988934683296e+17
19597.0	4.4378179453146445e+17
19598.0	4.4359338464815776e+17
19599.0	4.436261414633472e+17
19600.0	4.435493451552085e+17
19601.0	4.4346002290769914e+17
19602.0	4.4338370048600736e+17
19603.0	4.432083924899155e+17
19604.0	4.4322574110993056e+17
19605.0	4.431083296085334e+17
19606.0	4.430801865277439e+17
19607.0	4.4300314674025805e+17
19608.0	4.4292257933339296e+17
19609.0	4.4283777882521594e+17
19610.0	4.4266420188829024e+17
19611.0	4.425391134823766e+17
19612.0	4.426126880757076e+17
19613.0	4.4253285152631456e+17
19614.0	4.424502055621973e+17
19615.0	4.423770253033472e+17
19616.0	4.4216404253081606e+17
19617.0	4.420665089545558e+17
19618.0	4.4202691486460563e+17
19619.0	4.419045495406589e+17
19620.0	4.4180451678836026e+17
19621.0	4.416948325231274e+17
19622.0	4.4183093608011085e+17
19623.0	4.417430304587775e+17
19624.0	4.416447011531434e+17
19625.0	4.4159668958440096e+17
19626.0	4.4151678396880205e+17
19627.0	4.414378826792959e+17
19628.0	4.4130535106150406e+17
19629.0	4.407368521613309e+17
19630.0	4.4102771833569274e+17
19631.0	4.3890293321236454e+17
19632.0	4.4102872790466554e+17
19633.0	4.409515145428992e+17
19634.0	4.408933482845526e+17
19635.0	4.407840357045587e+17
19636.0	4.404944278213969e+17
19637.0	4.403776344905043e+17
19638.0	4.405616813888852e+17
19639.0	4.4050461788296525e+17
19640.0	4.404117424308224e+17
19641.0	4.400583295369225e+17
19642.0	4.402559437504511e+17
19643.0	4.4017759254391456e+17
19644.0	4.401068084909396e+17
19645.0	4.3998994602393594e+17
19646.0	4.3970069046230995e+17
19647.0	4.398798982523561e+17
19648.0	4.398072701736276e+17
19649.0	4.397289169398442e+17
19650.0	4.3965236208380576e+17
19651.0	4.395741328616106e+17
19652.0	4.394963172676949e+17
19653.0	4.3941784610406394e+17
19654.0	4.39341117673745e+17
19655.0	4.3926232634490874e+17
19656.0	4.39186044887586e+17
