# Flux units: erg / (cm m2 s)
# Wavelength units: Angstrom
wave	flux
19000.0	6.545881277573802e+17
19001.0	6.544591513714687e+17
19002.0	6.543447026565119e+17
19003.0	6.542221203472383e+17
19004.0	6.540996668030976e+17
19005.0	6.539793074050388e+17
19006.0	6.538574766451369e+17
19007.0	6.537195452104703e+17
19008.0	6.536093187615402e+17
19009.0	6.534849445057875e+17
19010.0	6.533365078076074e+17
19011.0	6.532425748316159e+17
19012.0	6.530652813219155e+17
19013.0	6.530035506042198e+17
19014.0	6.528775966337705e+17
19015.0	6.527571890012159e+17
19016.0	6.526342608016723e+17
19017.0	6.525157742302548e+17
19018.0	6.523904213734739e+17
19019.0	6.522717166283433e+17
19020.0	6.52148401644066e+17
19021.0	6.520280394498047e+17
19022.0	6.51907153666594e+17
19023.0	6.517822156963839e+17
19024.0	6.516608298822314e+17
19025.0	6.515347326063956e+17
19026.0	6.514110121028265e+17
19027.0	6.512413568401405e+17
19028.0	6.511745711472639e+17
19029.0	6.510518439946921e+17
19030.0	6.50931514306287e+17
19031.0	6.508096499220479e+17
19032.0	6.506873933004797e+17
19033.0	6.505589704228863e+17
19034.0	6.504422936237396e+17
19035.0	6.503146989813759e+17
19036.0	6.464808227089065e+17
19037.0	6.500743710244863e+17
19038.0	6.499537828970496e+17
19039.0	6.498339547774976e+17
19040.0	6.497189700304895e+17
19041.0	6.495980346146815e+17
19042.0	6.494668837617663e+17
19043.0	6.493544308364628e+17
19044.0	6.492320021785257e+17
19045.0	6.491085421412351e+17
19046.0	6.489848378556415e+17
19047.0	6.488653178077183e+17
19048.0	6.487293279862783e+17
19049.0	6.486126406314665e+17
19050.0	6.484972545594708e+17
19051.0	6.47828348914892e+17
19052.0	6.481489958360403e+17
19053.0	6.481309190848511e+17
19054.0	6.480131774917289e+17
19055.0	6.478721276619434e+17
19056.0	6.477677484922195e+17
19057.0	6.476467235979263e+17
19058.0	6.475184869474304e+17
19059.0	6.474029333828948e+17
19060.0	6.47280512274705e+17
19061.0	6.47160422081058e+17
19062.0	6.470382352247465e+17
19063.0	6.469165577666559e+17
19064.0	6.467864268286633e+17
19065.0	6.466603530409299e+17
19066.0	6.465461130625023e+17
19067.0	6.464293744672767e+17
19068.0	6.463077527934291e+17
19069.0	6.461860300368553e+17
19070.0	6.460625108598783e+17
19071.0	6.459408489207123e+17
19072.0	6.458191966284457e+17
19073.0	6.456987357282304e+17
19074.0	6.455774175821823e+17
19075.0	6.454557137698815e+17
19076.0	6.453325088161792e+17
19077.0	6.452112585479508e+17
19078.0	6.450886772173482e+17
19079.0	6.449688241416874e+17
19080.0	6.448460274335743e+17
19081.0	6.447226670110035e+17
19082.0	6.446007539728383e+17
19083.0	6.444744355872767e+17
19084.0	6.443438201372672e+17
19085.0	6.442387927378601e+17
19086.0	6.440851609048404e+17
19087.0	6.438864654696448e+17
19088.0	6.438611956269055e+17
19089.0	6.436828661940223e+17
19090.0	6.436272119742463e+17
19091.0	6.435065518445908e+17
19092.0	6.433568093197652e+17
19093.0	6.43266349507106e+17
19094.0	6.431448863080447e+17
19095.0	6.430233559302144e+17
19096.0	6.429007522299903e+17
19097.0	6.427805634002944e+17
19098.0	6.426582450525524e+17
19099.0	6.425365906631337e+17
19100.0	6.424104905910954e+17
19101.0	6.422929348755455e+17
19102.0	6.421662892643668e+17
19103.0	6.420523974131711e+17
19104.0	6.419309735706623e+17
19105.0	6.418067613548544e+17
19106.0	6.416676495032319e+17
19107.0	6.415645491068927e+17
19108.0	6.414435621011455e+17
19109.0	6.410163560207697e+17
19110.0	6.411916601021779e+17
19111.0	6.410793316078931e+17
19112.0	6.409591873077247e+17
19113.0	6.408391110950911e+17
19114.0	6.407177124184063e+17
19115.0	6.405852324604586e+17
19116.0	6.404737080841556e+17
19117.0	6.403521490452479e+17
19118.0	6.402086248557226e+17
19119.0	6.397889683128315e+17
19120.0	6.399585726846292e+17
19121.0	6.398461412900863e+17
19122.0	6.397482233757696e+17
19123.0	6.39627012603904e+17
19124.0	6.394875875775828e+17
19125.0	6.393818477756413e+17
19126.0	6.392625366739626e+17
19127.0	6.390143441873578e+17
19128.0	6.389205331258024e+17
19129.0	6.38894507888913e+17
19130.0	6.387776947748864e+17
19131.0	6.386548296297129e+17
19132.0	6.385368382657876e+17
19133.0	6.383909091322538e+17
19134.0	6.382501682129578e+17
19135.0	6.381723900881578e+17
19136.0	6.380530198467923e+17
19137.0	6.379201028423679e+17
19138.0	6.37806438322449e+17
19139.0	6.376897894853289e+17
19140.0	6.375691046092799e+17
19141.0	6.374481447966036e+17
19142.0	6.373243291522388e+17
19143.0	6.372022595267241e+17
19144.0	6.370825420668927e+17
19145.0	6.369635733602303e+17
19146.0	6.367984241082368e+17
19147.0	6.367148473581568e+17
19148.0	6.36598787121698e+17
19149.0	6.364782688294228e+17
19150.0	6.363591191385428e+17
19151.0	6.362387902889983e+17
19152.0	6.361139884938579e+17
19153.0	6.359940307004074e+17
19154.0	6.358666080245076e+17
19155.0	6.357541175601833e+17
19156.0	6.356337575329791e+17
19157.0	6.35506143666722e+17
19158.0	6.35184279278933e+17
19159.0	6.352681083163988e+17
19160.0	6.351460509941759e+17
19161.0	6.350201974074026e+17
19162.0	6.344347577832792e+17
19163.0	6.347721337558356e+17
19164.0	6.346671803159892e+17
19165.0	6.345355903194452e+17
19166.0	6.344057064259583e+17
19167.0	6.342600594292736e+17
19168.0	6.341814409756671e+17
19169.0	6.34053974888721e+17
19170.0	6.339425834718548e+17
19171.0	6.33793349156864e+17
19172.0	6.336985370547539e+17
19173.0	6.335792170052265e+17
19174.0	6.334563835969536e+17
19175.0	6.333398963104425e+17
19176.0	6.332191127983444e+17
19177.0	6.330870992470015e+17
19178.0	6.329647070795091e+17
19179.0	6.328167611848022e+17
19180.0	6.32729156854306e+17
19181.0	6.326067181300396e+17
19182.0	6.324918051755347e+17
19183.0	6.323729879531519e+17
19184.0	6.322502065542484e+17
19185.0	6.321320823706964e+17
19186.0	6.320116563531092e+17
19187.0	6.318850577181353e+17
19188.0	6.31768731422993e+17
19189.0	6.316449180854953e+17
19190.0	6.315221329816233e+17
19191.0	6.314001262706687e+17
19192.0	6.312865350112595e+17
19193.0	6.311628647694335e+17
19194.0	6.310424423869097e+17
19195.0	6.309232220919124e+17
19196.0	6.30801114997282e+17
19197.0	6.306776292349267e+17
19198.0	6.305450091173203e+17
19199.0	6.276944047199565e+17
19200.0	6.283925538908851e+17
19201.0	6.301848052957183e+17
19202.0	6.300748350488575e+17
19203.0	6.299492463323818e+17
19204.0	6.298337640011091e+17
19205.0	6.297156640746153e+17
19206.0	6.295949008349866e+17
19207.0	6.294676854975146e+17
19208.0	6.293395001573375e+17
19209.0	6.292329416272553e+17
19210.0	6.291130739414355e+17
19211.0	6.289921543940778e+17
19212.0	6.288163247663786e+17
19213.0	6.284242104003241e+17
19214.0	6.282899777126399e+17
19215.0	6.282005006953129e+17
19216.0	6.280908713055571e+17
19217.0	6.279701064581119e+17
19218.0	6.277882201156265e+17
19219.0	6.277166221579603e+17
19220.0	6.276037188343126e+17
19221.0	6.2746173388445e+17
19222.0	6.273639208277331e+17
19223.0	6.272425158595924e+17
19224.0	6.271185882273108e+17
19225.0	6.269903775814996e+17
19226.0	6.26878005256738e+17
19227.0	6.267564975281492e+17
19228.0	6.26637100163618e+17
19229.0	6.265156900924074e+17
19230.0	6.263904962696532e+17
19231.0	6.262693122015231e+17
19232.0	6.261500942832979e+17
19233.0	6.260241440877226e+17
19234.0	6.259066059882495e+17
19235.0	6.257851281790291e+17
19236.0	6.256650645493075e+17
19237.0	6.255422247097683e+17
19238.0	6.254107628492115e+17
19239.0	6.252999803054761e+17
19240.0	6.251748115087359e+17
19241.0	6.250536717604179e+17
19242.0	6.249331259255465e+17
19243.0	6.248006619758591e+17
19244.0	6.246906554482687e+17
19245.0	6.245686051864576e+17
19246.0	6.244453620645888e+17
19247.0	6.243242722284884e+17
19248.0	6.242013747871744e+17
19249.0	6.24078230720785e+17
19250.0	6.239555826308436e+17
19251.0	6.238252692406271e+17
19252.0	6.236930136779434e+17
19253.0	6.235883734127956e+17
19254.0	6.234670122052265e+17
19255.0	6.233320511766527e+17
19256.0	6.23216513061137e+17
19257.0	6.230990073277098e+17
19258.0	6.229763908348585e+17
19259.0	6.228484127632042e+17
19260.0	6.226621799333887e+17
19261.0	6.226062117000532e+17
19262.0	6.224797733573972e+17
19263.0	6.223560406903466e+17
19264.0	6.221983377260544e+17
19265.0	6.220995364214099e+17
19266.0	6.219759253192703e+17
19267.0	6.218665712855721e+17
19268.0	6.217427757738666e+17
19269.0	6.216188705112063e+17
19270.0	6.214946664043859e+17
19271.0	6.213464247413418e+17
19272.0	6.212438292692991e+17
19273.0	6.210109717173587e+17
19274.0	6.209232615505919e+17
19275.0	6.208729651347455e+17
19276.0	6.207468422037504e+17
19277.0	6.206223219163135e+17
19278.0	6.202330905750181e+17
19279.0	6.200177989080404e+17
19280.0	6.198904968183807e+17
19281.0	6.197694227808255e+17
19282.0	6.196440686657535e+17
19283.0	6.194759901118463e+17
19284.0	6.193571203907583e+17
19285.0	6.192513784217599e+17
19286.0	6.191359172717225e+17
19287.0	6.190110322895529e+17
19288.0	6.178114147887773e+17
19289.0	6.164172307955676e+17
19290.0	6.186289471335082e+17
19291.0	6.184834384090454e+17
19292.0	6.183741805647188e+17
19293.0	6.182455172136959e+17
19294.0	6.181168972737193e+17
19295.0	6.179890926365353e+17
19296.0	6.17858954498321e+17
19297.0	6.17728077533457e+17
19298.0	6.176003850239999e+17
19299.0	6.174705937547263e+17
19300.0	6.173416405073919e+17
19301.0	6.172113276764159e+17
19302.0	6.170799587895978e+17
19303.0	6.169440076256595e+17
19304.0	6.16816385790225e+17
19305.0	6.166861175586815e+17
19306.0	6.162614676968788e+17
19307.0	6.160023873563306e+17
19308.0	6.158703880656212e+17
19309.0	6.156404052197375e+17
19310.0	6.154770418324819e+17
19311.0	6.154573811722921e+17
19312.0	6.153364775632895e+17
19313.0	6.152010960557395e+17
19314.0	6.118880430085484e+17
19315.0	6.11932940935717e+17
19316.0	6.147813398282237e+17
19317.0	6.146548749216425e+17
19318.0	6.145167699826004e+17
19319.0	6.14379759477282e+17
19320.0	6.142401274620586e+17
19321.0	6.141002297376767e+17
19322.0	6.138920358117373e+17
19323.0	6.135358709650772e+17
19324.0	6.134327776291497e+17
19325.0	6.132005494325247e+17
19326.0	6.131481476158803e+17
19327.0	6.130048640395946e+17
19328.0	6.128592050891433e+17
19329.0	6.127160145565012e+17
19330.0	6.125669826166783e+17
19331.0	6.124194555232255e+17
19332.0	6.122733990925652e+17
19333.0	6.121243827415721e+17
19334.0	6.119760595692201e+17
19335.0	6.118216457781247e+17
19336.0	6.116727231698259e+17
19337.0	6.115217463312383e+17
19338.0	6.113538622532265e+17
19339.0	6.112135238473043e+17
19340.0	6.110529872811348e+17
19341.0	6.108988923969536e+17
19342.0	6.107134264257193e+17
19343.0	6.105861975965695e+17
19344.0	6.104249127665663e+17
19345.0	6.101296016785404e+17
19346.0	6.10039238964019e+17
19347.0	6.099327752951124e+17
19348.0	6.097750024956586e+17
19349.0	6.09605588754978e+17
19350.0	6.094368559595519e+17
19351.0	6.092692965206697e+17
19352.0	6.090927305129983e+17
19353.0	6.089275775560361e+17
19354.0	6.087534697600339e+17
19355.0	6.085705985250644e+17
19356.0	6.083994293982548e+17
19357.0	6.082198330758483e+17
19358.0	6.080360499292841e+17
19359.0	6.078477133763924e+17
19360.0	6.076640679428095e+17
19361.0	6.074777719887188e+17
19362.0	6.072910321374548e+17
19363.0	6.070985855161683e+17
19364.0	6.069038804718932e+17
19365.0	6.067072292006569e+17
19366.0	6.065079460036605e+17
19367.0	6.063061105027753e+17
19368.0	6.061016064458751e+17
19369.0	6.0588850951837e+17
19370.0	6.056708661051391e+17
19371.0	6.054667959489876e+17
19372.0	6.052539148184233e+17
19373.0	6.050322866066772e+17
19374.0	6.048110762175146e+17
19375.0	6.045842385403901e+17
19376.0	6.043542055026687e+17
19377.0	6.041199836834473e+17
19378.0	6.038823560893779e+17
19379.0	6.036405367777962e+17
19380.0	6.033945521029119e+17
19381.0	6.031442892379475e+17
19382.0	6.02884844622097e+17
19383.0	6.026240605552639e+17
19384.0	6.023690960852308e+17
19385.0	6.021017229765289e+17
19386.0	6.018295167014228e+17
19387.0	6.015518609768447e+17
19388.0	6.01256089424145e+17
19389.0	6.009493396302505e+17
19390.0	6.006536726555305e+17
19391.0	5.972263969663615e+17
19392.0	5.999757515642191e+17
19393.0	5.997367767597055e+17
19394.0	5.994169356342612e+17
19395.0	5.99086255378705e+17
19396.0	5.987554528591871e+17
19397.0	5.984280229795156e+17
19398.0	5.980826709087572e+17
19399.0	5.976871830639956e+17
19400.0	5.9737422430208e+17
19401.0	5.970159173544618e+17
19402.0	5.966444107224404e+17
19403.0	5.962634565604692e+17
19404.0	5.958610866317994e+17
19405.0	5.954136728141823e+17
19406.0	5.950088614510591e+17
19407.0	5.945937232221524e+17
19408.0	5.941143676824234e+17
19409.0	5.937282121640618e+17
19410.0	5.932866528258729e+17
19411.0	5.927506654440105e+17
19412.0	5.922637471547391e+17
19413.0	5.917939035974313e+17
19414.0	5.913145194665299e+17
19415.0	5.906646249242621e+17
19416.0	5.901300403273727e+17
19417.0	5.894976512720895e+17
19418.0	5.888553266096809e+17
19419.0	5.88149157859601e+17
19420.0	5.873944754825897e+17
19421.0	5.864261226769069e+17
19422.0	5.854305068952229e+17
19423.0	5.842372076939948e+17
19424.0	5.828050857317716e+17
19425.0	5.808974676186464e+17
19426.0	5.786267326698828e+17
19427.0	5.766917909031593e+17
19428.0	5.7547092435927034e+17
19429.0	5.741696121132372e+17
19430.0	5.72704283217101e+17
19431.0	5.7076551072262886e+17
19432.0	5.697507245249876e+17
19433.0	5.681079976110763e+17
19434.0	5.663639111467007e+17
19435.0	5.645249545590099e+17
19436.0	5.62450040968533e+17
19437.0	5.60601095995392e+17
19438.0	5.536517632731832e+17
19439.0	5.548639332073476e+17
19440.0	5.5057631090660755e+17
19441.0	5.4401553668942605e+17
19442.0	5.3940522169576115e+17
19443.0	5.348769747610283e+17
19444.0	5.2978976572484243e+17
19445.0	5.236997355121329e+17
19446.0	5.148440353483441e+17
19447.0	5.024198941125289e+17
19448.0	4.894962783791795e+17
19449.0	4.6812599310527194e+17
19450.0	4.264423596927642e+17
19451.0	4.1272902285612096e+17
19452.0	4.494712188698633e+17
19453.0	4.804605628820152e+17
19454.0	4.961704334415183e+17
19455.0	5.0814391495775654e+17
19456.0	5.19019463372528e+17
19457.0	5.2592656784206464e+17
19458.0	5.252297880414967e+17
19459.0	5.354599326853824e+17
19460.0	5.3984645275975654e+17
19461.0	5.4556417005540826e+17
19462.0	5.509929071454883e+17
19463.0	5.5439262038534765e+17
19464.0	5.5687741862925645e+17
19465.0	5.5891833913344006e+17
19466.0	5.6065634343758464e+17
19467.0	5.622788150089043e+17
19468.0	5.6385338238566394e+17
19469.0	5.652924848581289e+17
19470.0	5.666984078693716e+17
19471.0	5.6798270403379194e+17
19472.0	5.692148972257279e+17
19473.0	5.7033156285781325e+17
19474.0	5.713721807252138e+17
19475.0	5.725120091215186e+17
19476.0	5.747127071626568e+17
19477.0	5.764848257684814e+17
19478.0	5.778716864370006e+17
19479.0	5.789887518561614e+17
19480.0	5.79883778790741e+17
19481.0	5.805905925548718e+17
19482.0	5.811482651874646e+17
19483.0	5.817804477431808e+17
19484.0	5.82144859779891e+17
19485.0	5.826532357089962e+17
19486.0	5.829474081133907e+17
19487.0	5.833074237505536e+17
19488.0	5.836485930516479e+17
19489.0	5.838917012029439e+17
19490.0	5.840498585501695e+17
19491.0	5.84445244543249e+17
19492.0	5.847080548783444e+17
19493.0	5.849245150085119e+17
19494.0	5.85133623152913e+17
19495.0	5.853303671182676e+17
19496.0	5.854892907648339e+17
19497.0	5.85692497453602e+17
19498.0	5.854751123395924e+17
19499.0	5.812025914206876e+17
19500.0	5.862315545067519e+17
19501.0	5.863752227706195e+17
19502.0	5.865082526717267e+17
19503.0	5.866382692450301e+17
19504.0	5.867576362707625e+17
19505.0	5.868719725084671e+17
19506.0	5.869790151311359e+17
19507.0	5.870796555681791e+17
19508.0	5.871766394809001e+17
19509.0	5.872654249973076e+17
19510.0	5.873328298393599e+17
19511.0	5.813367638502038e+17
19512.0	5.866622299755853e+17
19513.0	5.861864567209962e+17
19514.0	5.865729075183599e+17
19515.0	5.876279193982292e+17
19516.0	5.87749224681745e+17
19517.0	5.877898473548457e+17
19518.0	5.878320768658089e+17
19519.0	5.878633955240618e+17
19520.0	5.87891900293666e+17
19521.0	5.879209725526015e+17
19522.0	5.879401370266282e+17
19523.0	5.879591697296042e+17
19524.0	5.879713643189588e+17
19525.0	5.879805083910144e+17
19526.0	5.879868450056873e+17
19527.0	5.879883478947156e+17
19528.0	5.879860786364415e+17
19529.0	5.879811924819967e+17
19530.0	5.879730695831552e+17
19531.0	5.879613725081599e+17
19532.0	5.879465986315603e+17
19533.0	5.87928876229154e+17
19534.0	5.879080466863444e+17
19535.0	5.878841715195903e+17
19536.0	5.878561643342506e+17
19537.0	5.87830537626146e+17
19538.0	5.877897714379434e+17
19539.0	5.877293776546474e+17
19540.0	5.877295433296554e+17
19541.0	5.876938779743572e+17
19542.0	5.876540687166121e+17
19543.0	5.876109933543423e+17
19544.0	5.875688519237631e+17
19545.0	5.874891121229823e+17
19546.0	5.874147250929663e+17
19547.0	5.874270299226112e+17
19548.0	5.873758558486527e+17
19549.0	5.873167318908927e+17
19550.0	5.872691633804628e+17
19551.0	5.872135171298644e+17
19552.0	5.871561132561748e+17
19553.0	5.870956029411327e+17
19554.0	5.870345630952106e+17
19555.0	5.86974616494626e+17
19556.0	5.869128362841428e+17
19557.0	5.868484135922345e+17
19558.0	5.867831998545919e+17
19559.0	5.867165814445396e+17
19560.0	5.866465683046399e+17
19561.0	5.86578309222673e+17
19562.0	5.865100119026346e+17
19563.0	5.864398895011156e+17
19564.0	5.863681566965759e+17
19565.0	5.862954476677802e+17
19566.0	5.862196190554793e+17
19567.0	5.861471542749866e+17
19568.0	5.860700164805972e+17
19569.0	5.859949527695359e+17
19570.0	5.859185181502121e+17
19571.0	5.858402807491241e+17
19572.0	5.857599666782207e+17
19573.0	5.856809807336788e+17
19574.0	5.855962473343657e+17
19575.0	5.855217569147561e+17
19576.0	5.854403853200042e+17
19577.0	5.853572489019391e+17
19578.0	5.852725357051904e+17
19579.0	5.851901604134912e+17
19580.0	5.851062409887743e+17
19581.0	5.850226526344532e+17
19582.0	5.849387750828714e+17
19583.0	5.848531781462698e+17
19584.0	5.847651962585087e+17
19585.0	5.847085741331798e+17
19586.0	5.847990597408084e+17
19587.0	5.847050789497514e+17
19588.0	5.845996953141248e+17
19589.0	5.8454180902557e+17
19590.0	5.844466227216383e+17
19591.0	5.843639205538474e+17
19592.0	5.842737176423082e+17
19593.0	5.841815553616554e+17
19594.0	5.840737101589161e+17
19595.0	5.839968929491625e+17
19596.0	5.837001118274902e+17
19597.0	5.838076293152768e+17
19598.0	5.83697765184307e+17
19599.0	5.836303754417492e+17
19600.0	5.835378276346537e+17
19601.0	5.834394467390804e+17
19602.0	5.833466230166867e+17
19603.0	5.831843185513811e+17
19604.0	5.83152606187793e+17
19605.0	5.83046594175522e+17
19606.0	5.829725052207104e+17
19607.0	5.828777153484116e+17
19608.0	5.831014161754794e+17
19609.0	5.830476403048447e+17
19610.0	5.829539447264598e+17
19611.0	5.828563584417791e+17
19612.0	5.827609131395754e+17
19613.0	5.826629395808255e+17
19614.0	5.825633015824383e+17
19615.0	5.824674447491071e+17
19616.0	5.82341382705425e+17
19617.0	5.82271243456785e+17
19618.0	5.821334293228201e+17
19619.0	5.820262727548927e+17
19620.0	5.819294459188564e+17
19621.0	5.818776856210089e+17
19622.0	5.817805025487529e+17
19623.0	5.816815810772991e+17
19624.0	5.815817857226067e+17
19625.0	5.814830490801492e+17
19626.0	5.813836956652884e+17
19627.0	5.81283462914594e+17
19628.0	5.81116501233937e+17
19629.0	5.810720402134356e+17
19630.0	5.807786573168639e+17
19631.0	5.779243301251758e+17
19632.0	5.807795172889939e+17
19633.0	5.806779959083005e+17
19634.0	5.805843294104234e+17
19635.0	5.804812037783551e+17
19636.0	5.80382277693167e+17
19637.0	5.802555048547668e+17
19638.0	5.80181948436753e+17
19639.0	5.800803778428927e+17
19640.0	5.799729326369449e+17
19641.0	5.798219545400662e+17
19642.0	5.797792784056319e+17
19643.0	5.796766432275113e+17
19644.0	5.795768403230719e+17
19645.0	5.794656228300116e+17
19646.0	5.793821726081023e+17
19647.0	5.792825677447167e+17
19648.0	5.791811861741567e+17
19649.0	5.790794157217108e+17
19650.0	5.789779721453567e+17
19651.0	5.788762662152874e+17
19652.0	5.78774496322082e+17
19653.0	5.786711543338324e+17
19654.0	5.785707619898708e+17
19655.0	5.7846847780509e+17
19656.0	5.783663176318976e+17
19657.0	5.783231058848425e+17
19658.0	5.784614257819648e+17
19659.0	5.783590414232233e+17
19660.0	5.782566272849235e+17
19661.0	5.781540385237674e+17
19662.0	5.780513956560896e+17
19663.0	5.779440643954003e+17
19664.0	5.7783403689629e+17
19665.0	5.777432677537108e+17
