# Flux units: erg / (cm m2 s)
# Wavelength units: Angstrom
wave	flux
19000.0	7.68885780311791e+17
19001.0	7.686916139559594e+17
19002.0	7.686111754540374e+17
19003.0	7.684707198173183e+17
19004.0	7.68332674647108e+17
19005.0	7.68191080117043e+17
19006.0	7.680524601873747e+17
19007.0	7.679109800219987e+17
19008.0	7.677485911113727e+17
19009.0	7.675444080585385e+17
19010.0	7.673289971335167e+17
19011.0	7.673331374708051e+17
19012.0	7.671518983793321e+17
19013.0	7.670768102714026e+17
19014.0	7.669046445779624e+17
19015.0	7.667789958130345e+17
19016.0	7.666507799942486e+17
19017.0	7.665158334360234e+17
19018.0	7.663778371993599e+17
19019.0	7.662391160471548e+17
19020.0	7.661024598906196e+17
19021.0	7.659922500790953e+17
19022.0	7.658501753012221e+17
19023.0	7.656872625220264e+17
19024.0	7.655610067014995e+17
19025.0	7.654237060202496e+17
19026.0	7.652777064923135e+17
19027.0	7.651300711858175e+17
19028.0	7.650056720438611e+17
19029.0	7.648592233059667e+17
19030.0	7.647347904697684e+17
19031.0	7.645995764547583e+17
19032.0	7.644599444395346e+17
19033.0	7.642589073943208e+17
19034.0	7.641425204914858e+17
19035.0	7.638375256642899e+17
19036.0	7.619510911631357e+17
19037.0	7.636103332189522e+17
19038.0	7.635801837229396e+17
19039.0	7.634689746883923e+17
19040.0	7.633374044050772e+17
19041.0	7.631958625834326e+17
19042.0	7.630023403328851e+17
19043.0	7.629189465243647e+17
19044.0	7.627734803720872e+17
19045.0	7.626348874257746e+17
19046.0	7.62467316871987e+17
19047.0	7.623232265912319e+17
19048.0	7.621379876716543e+17
19049.0	7.620089406816253e+17
19050.0	7.618739860144127e+17
19051.0	7.614869742288896e+17
19052.0	7.614985811263487e+17
19053.0	7.614903823805097e+17
19054.0	7.613597976188246e+17
19055.0	7.610775171847515e+17
19056.0	7.610729400806058e+17
19057.0	7.609443688644607e+17
19058.0	7.607939058980182e+17
19059.0	7.606602490882728e+17
19060.0	7.605198281244671e+17
19061.0	7.603842195652607e+17
19062.0	7.60239930614306e+17
19063.0	7.600966894004905e+17
19064.0	7.59906179079646e+17
19065.0	7.597162758144e+17
19066.0	7.596349970535764e+17
19067.0	7.595279596737876e+17
19068.0	7.593942851081555e+17
19069.0	7.592536781968726e+17
19070.0	7.590984731503272e+17
19071.0	7.589667209740287e+17
19072.0	7.588273724937556e+17
19073.0	7.586851651758762e+17
19074.0	7.5854762751645e+17
19075.0	7.584054387933183e+17
19076.0	7.582578588516352e+17
19077.0	7.581125799051263e+17
19078.0	7.579600620093437e+17
19079.0	7.578360023263913e+17
19080.0	7.576866284808872e+17
19081.0	7.575240794876586e+17
19082.0	7.573985415921663e+17
19083.0	7.57197697205316e+17
19084.0	7.569805961155927e+17
19085.0	7.569722494506326e+17
19086.0	7.565993343014227e+17
19087.0	7.566696807486803e+17
19088.0	7.56494273557299e+17
19089.0	7.562888917723822e+17
19090.0	7.562456550692182e+17
19091.0	7.561131768588972e+17
19092.0	7.559444604212564e+17
19093.0	7.558437542035452e+17
19094.0	7.557046056517632e+17
19095.0	7.555655400073898e+17
19096.0	7.5541922199197e+17
19097.0	7.552796934362451e+17
19098.0	7.551347848467795e+17
19099.0	7.54991852613359e+17
19100.0	7.54847354786065e+17
19101.0	7.547020505339222e+17
19102.0	7.545298196889599e+17
19103.0	7.544210680971263e+17
19104.0	7.542835200917503e+17
19105.0	7.541311670321151e+17
19106.0	7.53990675604002e+17
19107.0	7.538387270150825e+17
19108.0	7.536866328838143e+17
19109.0	7.534776941892947e+17
19110.0	7.533825856897024e+17
19111.0	7.532718580214441e+17
19112.0	7.531381974368255e+17
19113.0	7.529981623489875e+17
19114.0	7.528525878438569e+17
19115.0	7.526892218002089e+17
19116.0	7.525547557694121e+17
19117.0	7.524072001546921e+17
19118.0	7.521846168300204e+17
19119.0	7.505779355549677e+17
19120.0	7.519403911763283e+17
19121.0	7.518369183956991e+17
19122.0	7.517130274635773e+17
19123.0	7.515701061353471e+17
19124.0	7.514067196794195e+17
19125.0	7.512674090876925e+17
19126.0	7.510558901971625e+17
19127.0	7.503510800520532e+17
19128.0	7.507291040033449e+17
19129.0	7.506437903220735e+17
19130.0	7.505518588679508e+17
19131.0	7.504214962645672e+17
19132.0	7.502785461354496e+17
19133.0	7.501064903327743e+17
19134.0	7.499806753335978e+17
19135.0	7.498507360752982e+17
19136.0	7.497044001641811e+17
19137.0	7.495165266624511e+17
19138.0	7.494097701612202e+17
19139.0	7.492814082408447e+17
19140.0	7.491409628102653e+17
19141.0	7.489990904774655e+17
19142.0	7.488389369910612e+17
19143.0	7.48691203817472e+17
19144.0	7.485400808073897e+17
19145.0	7.484218780505428e+17
19146.0	7.47930884016265e+17
19147.0	7.481095408145748e+17
19148.0	7.479900150344361e+17
19149.0	7.478457069294931e+17
19150.0	7.477064705769472e+17
19151.0	7.475607185129472e+17
19152.0	7.474155530922666e+17
19153.0	7.472528538031444e+17
19154.0	7.470895664726017e+17
19155.0	7.469746589007871e+17
19156.0	7.468330302570496e+17
19157.0	7.466736970366973e+17
19158.0	7.465046359670783e+17
19159.0	7.463840228835325e+17
19160.0	7.462416614948863e+17
19161.0	7.460791371082409e+17
19162.0	7.458283289138518e+17
19163.0	7.457628931577174e+17
19164.0	7.456731939121833e+17
19165.0	7.455292891594751e+17
19166.0	7.453535946582696e+17
19167.0	7.45240651558639e+17
19168.0	7.451077792235517e+17
19169.0	7.449689314033663e+17
19170.0	7.448295348284074e+17
19171.0	7.446814942123348e+17
19172.0	7.4453790766749e+17
19173.0	7.443980467830783e+17
19174.0	7.442346822773417e+17
19175.0	7.441074136722089e+17
19176.0	7.439641650484564e+17
19177.0	7.43736167576371e+17
19178.0	7.436734248430249e+17
19179.0	7.435261403201536e+17
19180.0	7.4338016442013e+17
19181.0	7.432001338474492e+17
19182.0	7.430831349956607e+17
19183.0	7.429543019151357e+17
19184.0	7.428079172102825e+17
19185.0	7.426576352979625e+17
19186.0	7.425172276161193e+17
19187.0	7.423154284658688e+17
19188.0	7.422142681448447e+17
19189.0	7.420676910612479e+17
19190.0	7.419200393969663e+17
19191.0	7.417529604156074e+17
19192.0	7.416220803749204e+17
19193.0	7.414645059660457e+17
19194.0	7.412983434401108e+17
19195.0	7.411418781450241e+17
19196.0	7.409524126253055e+17
19197.0	7.407329828580008e+17
19198.0	7.403744833918291e+17
19199.0	7.394586703953919e+17
19200.0	7.394234355853994e+17
19201.0	7.399646470427986e+17
19202.0	7.400153237422079e+17
19203.0	7.399391691625811e+17
19204.0	7.398248300587688e+17
19205.0	7.396975278992041e+17
19206.0	7.395641205107369e+17
19207.0	7.393552865340072e+17
19208.0	7.392177899787604e+17
19209.0	7.39138829829188e+17
19210.0	7.389993588752383e+17
19211.0	7.388633243145558e+17
19212.0	7.387092620760403e+17
19213.0	7.385066105034067e+17
19214.0	7.383700078941523e+17
19215.0	7.382622105064787e+17
19216.0	7.381137132705108e+17
19217.0	7.379215628369919e+17
19218.0	7.375525802672127e+17
19219.0	7.375220805468157e+17
19220.0	7.374938210041853e+17
19221.0	7.372802169853268e+17
19222.0	7.371975704619689e+17
19223.0	7.370700169237844e+17
19224.0	7.369048614502399e+17
19225.0	7.367487782562474e+17
19226.0	7.366278090762921e+17
19227.0	7.364851436006058e+17
19228.0	7.363541366123177e+17
19229.0	7.362058651697151e+17
19230.0	7.360550624646483e+17
19231.0	7.359013627538089e+17
19232.0	7.357569843243689e+17
19233.0	7.355721676313939e+17
19234.0	7.354544891625471e+17
19235.0	7.352899667492863e+17
19236.0	7.351631142191101e+17
19237.0	7.350063885975552e+17
19238.0	7.348168189192874e+17
19239.0	7.347146706998612e+17
19240.0	7.345619349798911e+17
19241.0	7.344008176424276e+17
19242.0	7.342544355939668e+17
19243.0	7.340091501794642e+17
19244.0	7.339627613170348e+17
19245.0	7.338077387227133e+17
19246.0	7.33654814958114e+17
19247.0	7.335003019717286e+17
19248.0	7.333554200859987e+17
19249.0	7.332030094245887e+17
19250.0	7.330397939564543e+17
19251.0	7.328398618307237e+17
19252.0	7.325638538384723e+17
19253.0	7.32581174915891e+17
19254.0	7.324397480181757e+17
19255.0	7.321680628154364e+17
19256.0	7.321205915429545e+17
19257.0	7.319775292861097e+17
19258.0	7.318245005241e+17
19259.0	7.316198546997247e+17
19260.0	7.314573507253587e+17
19261.0	7.313388991064745e+17
19262.0	7.311524469145597e+17
19263.0	7.309702320881663e+17
19264.0	7.306677384642556e+17
19265.0	7.306255819341823e+17
19266.0	7.304905561036118e+17
19267.0	7.30412268720401e+17
19268.0	7.302532009994921e+17
19269.0	7.300938374403411e+17
19270.0	7.29915271938048e+17
19271.0	7.29657176420079e+17
19272.0	7.295906325288275e+17
19273.0	7.292514869794131e+17
19274.0	7.290247055758673e+17
19275.0	7.29143398507042e+17
19276.0	7.289811246601556e+17
19277.0	7.288244790099968e+17
19278.0	7.28667223228416e+17
19279.0	7.284875019157501e+17
19280.0	7.283142949164374e+17
19281.0	7.281752060635816e+17
19282.0	7.28022674046976e+17
19283.0	7.278539715903488e+17
19284.0	7.276649242427391e+17
19285.0	7.274868340948991e+17
19286.0	7.273257918354772e+17
19287.0	7.271475365718697e+17
19288.0	7.262552455118843e+17
19289.0	7.256395205662029e+17
19290.0	7.266468283897172e+17
19291.0	7.263725410407771e+17
19292.0	7.263641453024595e+17
19293.0	7.262016574062591e+17
19294.0	7.260301324626602e+17
19295.0	7.258703391271593e+17
19296.0	7.25695700472081e+17
19297.0	7.255150866115241e+17
19298.0	7.253444392561321e+17
19299.0	7.251876308669782e+17
19300.0	7.25018789019648e+17
19301.0	7.248462131232768e+17
19302.0	7.246625898495997e+17
19303.0	7.24461311492096e+17
19304.0	7.243125582637738e+17
19305.0	7.24130313937442e+17
19306.0	7.239406792474624e+17
19307.0	7.23742582968593e+17
19308.0	7.235653385322493e+17
19309.0	7.233662853928276e+17
19310.0	7.231622235553792e+17
19311.0	7.230119988254036e+17
19312.0	7.228527227873961e+17
19313.0	7.226649903540906e+17
19314.0	7.208900185030655e+17
19315.0	7.208180217369957e+17
19316.0	7.221088998828712e+17
19317.0	7.219426628381356e+17
19318.0	7.217609152572072e+17
19319.0	7.215851881802408e+17
19320.0	7.21385446056482e+17
19321.0	7.211746506833917e+17
19322.0	7.209669205076649e+17
19323.0	7.207813700911104e+17
19324.0	7.205985237423444e+17
19325.0	7.204041376049833e+17
19326.0	7.202181828575232e+17
19327.0	7.2002632169117e+17
19328.0	7.198259267938986e+17
19329.0	7.196317706442068e+17
19330.0	7.194222742470653e+17
19331.0	7.192057080709117e+17
19332.0	7.190279147399849e+17
19333.0	7.187847649252692e+17
19334.0	7.185879944658943e+17
19335.0	7.183720890324308e+17
19336.0	7.181704836590249e+17
19337.0	7.179602384388096e+17
19338.0	7.17635368482679e+17
19339.0	7.175289986962772e+17
19340.0	7.172778418154153e+17
19341.0	7.170480469442557e+17
19342.0	7.167454863512916e+17
19343.0	7.166216972009471e+17
19344.0	7.163175381587283e+17
19345.0	7.154516183657126e+17
19346.0	7.154161324567208e+17
19347.0	7.156388848118442e+17
19348.0	7.154620105927338e+17
19349.0	7.15199996895778e+17
19350.0	7.149667333352105e+17
19351.0	7.147203248259071e+17
19352.0	7.144588099715071e+17
19353.0	7.142558548710739e+17
19354.0	7.139686378810025e+17
19355.0	7.136565633482753e+17
19356.0	7.134584676286463e+17
19357.0	7.132009126166527e+17
19358.0	7.129374019725993e+17
19359.0	7.126629372045994e+17
19360.0	7.123901187009194e+17
19361.0	7.121365939956393e+17
19362.0	7.118790848413696e+17
19363.0	7.116062421505364e+17
19364.0	7.112907977741651e+17
19365.0	7.109966818530644e+17
19366.0	7.107184011072851e+17
19367.0	7.10434627920418e+17
19368.0	7.101468701447508e+17
19369.0	7.098317353080148e+17
19370.0	7.095236729066836e+17
19371.0	7.091954770072916e+17
19372.0	7.089138374628692e+17
19373.0	7.085846047315284e+17
19374.0	7.082687874815316e+17
19375.0	7.079434118321492e+17
19376.0	7.07575185215761e+17
19377.0	7.07227056026419e+17
19378.0	7.068821568705876e+17
19379.0	7.06531076149521e+17
19380.0	7.061723538259965e+17
19381.0	7.05802455360034e+17
19382.0	7.053868823216127e+17
19383.0	7.050131696954025e+17
19384.0	7.046584992093523e+17
19385.0	7.042693925087914e+17
19386.0	7.038652415388329e+17
19387.0	7.034379466091178e+17
19388.0	7.029650890249556e+17
19389.0	7.02493323497745e+17
19390.0	7.019930536902655e+17
19391.0	7.001164939089224e+17
19392.0	7.008698023717544e+17
19393.0	7.006320244817919e+17
19394.0	7.001602888739497e+17
19395.0	6.9966309111453e+17
19396.0	6.991578927202301e+17
19397.0	6.9863757840384e+17
19398.0	6.980786810344787e+17
19399.0	6.973396494232233e+17
19400.0	6.969175386532521e+17
19401.0	6.96405907874338e+17
19402.0	6.957525704376319e+17
19403.0	6.951209363570687e+17
19404.0	6.944962158875987e+17
19405.0	6.938339004033704e+17
19406.0	6.931627538819756e+17
19407.0	6.92460290449954e+17
19408.0	6.915321401180159e+17
19409.0	6.909771466670079e+17
19410.0	6.902669585853097e+17
19411.0	6.894766133695827e+17
19412.0	6.886493923923286e+17
19413.0	6.877922864398335e+17
19414.0	6.868924904417961e+17
19415.0	6.859679151248724e+17
19416.0	6.849014451754323e+17
19417.0	6.839664970650966e+17
19418.0	6.829597424003754e+17
19419.0	6.819191755636735e+17
19420.0	6.808275724358995e+17
19421.0	6.796827454078975e+17
19422.0	6.784522701329748e+17
19423.0	6.772011754498729e+17
19424.0	6.758915876323328e+17
19425.0	6.745069797244927e+17
19426.0	6.730553841680381e+17
19427.0	6.715224241471487e+17
19428.0	6.699146143247017e+17
19429.0	6.682297628972371e+17
19430.0	6.663651330446676e+17
19431.0	6.64372522114526e+17
19432.0	6.625918128750591e+17
19433.0	6.604949567133014e+17
19434.0	6.58256068415761e+17
19435.0	6.558265167052797e+17
19436.0	6.532016967254016e+17
19437.0	6.504898502503082e+17
19438.0	6.45725197102831e+17
19439.0	6.44116406861824e+17
19440.0	6.410256229859327e+17
19441.0	6.373205067431933e+17
19442.0	6.33210330345199e+17
19443.0	6.286678004072447e+17
19444.0	6.23594275357764e+17
19445.0	6.178659672347992e+17
19446.0	6.113133993132032e+17
19447.0	6.037017453046437e+17
19448.0	5.946645483793069e+17
19449.0	5.836074569258324e+17
19450.0	5.689757327687671e+17
19451.0	5.598997961332053e+17
19452.0	5.769473676017663e+17
19453.0	5.891933124340399e+17
19454.0	5.988828310754641e+17
19455.0	6.069039598141439e+17
19456.0	6.136952863238829e+17
19457.0	6.195584888558931e+17
19458.0	6.2206065655153e+17
19459.0	6.290537573952178e+17
19460.0	6.333433597569704e+17
19461.0	6.370301249410388e+17
19462.0	6.403686689406976e+17
19463.0	6.434321756498601e+17
19464.0	6.462157205362004e+17
19465.0	6.487881048653824e+17
19466.0	6.511795883737087e+17
19467.0	6.534017002941097e+17
19468.0	6.554410955396436e+17
19469.0	6.572982119257427e+17
19470.0	6.591471359972692e+17
19471.0	6.60825870102255e+17
19472.0	6.623870956077055e+17
19473.0	6.638368281941332e+17
19474.0	6.652099260230314e+17
19475.0	6.662823483189929e+17
19476.0	6.67715797988147e+17
19477.0	6.689225199408468e+17
19478.0	6.700179052822527e+17
19479.0	6.710427062894591e+17
19480.0	6.720091049689087e+17
19481.0	6.729393918793044e+17
19482.0	6.737990060255914e+17
19483.0	6.746117228199936e+17
19484.0	6.753655705305087e+17
19485.0	6.761052556842324e+17
19486.0	6.768339618278058e+17
19487.0	6.775473407961769e+17
19488.0	6.781813949901481e+17
19489.0	6.786556082432681e+17
19490.0	6.78974800999219e+17
19491.0	6.798833749764778e+17
19492.0	6.80441727296034e+17
19493.0	6.809268054043305e+17
19494.0	6.813833310677673e+17
19495.0	6.818099821718185e+17
19496.0	6.82090206418261e+17
19497.0	6.825543444638378e+17
19498.0	6.82373806240563e+17
19499.0	6.810880951276882e+17
19500.0	6.836438199610026e+17
19501.0	6.840994282602496e+17
19502.0	6.844178182963197e+17
19503.0	6.847082829359785e+17
19504.0	6.849833842595155e+17
19505.0	6.852469256617983e+17
19506.0	6.855030428663807e+17
19507.0	6.857306805370879e+17
19508.0	6.859637434002089e+17
19509.0	6.861575681998847e+17
19510.0	6.8624068916893e+17
19511.0	6.83680881739911e+17
19512.0	6.860844168817321e+17
19513.0	6.860641929265147e+17
19514.0	6.864504094719994e+17
19515.0	6.871575772353876e+17
19516.0	6.874548637706921e+17
19517.0	6.875990178747732e+17
19518.0	6.877512764926634e+17
19519.0	6.878700354142205e+17
19520.0	6.879715798635859e+17
19521.0	6.880909988986879e+17
19522.0	6.881688874035881e+17
19523.0	6.882795607556095e+17
19524.0	6.883599804530687e+17
19525.0	6.884369039884287e+17
19526.0	6.885315585245183e+17
19527.0	6.886079634341887e+17
19528.0	6.886686302666751e+17
19529.0	6.887217235143336e+17
19530.0	6.887767325103444e+17
19531.0	6.888251790983167e+17
19532.0	6.888745577305428e+17
19533.0	6.889137792264873e+17
19534.0	6.889359028518911e+17
19535.0	6.889431521471145e+17
19536.0	6.889505950793727e+17
19537.0	6.889764587656532e+17
19538.0	6.8892827334301e+17
19539.0	6.888776411032234e+17
19540.0	6.890321082318847e+17
19541.0	6.890600519434237e+17
19542.0	6.890579594051583e+17
19543.0	6.890471984988159e+17
19544.0	6.890288633785001e+17
19545.0	6.887925095945555e+17
19546.0	6.887131989409791e+17
19547.0	6.889977434603519e+17
19548.0	6.890307615806803e+17
19549.0	6.889738919914153e+17
19550.0	6.890158815182845e+17
19551.0	6.889945924894719e+17
19552.0	6.889683728465919e+17
19553.0	6.889349486477311e+17
19554.0	6.889136133417641e+17
19555.0	6.88886077596194e+17
19556.0	6.88857443012881e+17
19557.0	6.888186624780969e+17
19558.0	6.887914171181737e+17
19559.0	6.887711064107689e+17
19560.0	6.887106135020884e+17
19561.0	6.886645282373632e+17
19562.0	6.886266199080959e+17
19563.0	6.885821050606932e+17
19564.0	6.885277197576872e+17
19565.0	6.884731256482473e+17
19566.0	6.88405367296273e+17
19567.0	6.883595860486825e+17
19568.0	6.882834352439295e+17
19569.0	6.882358728152404e+17
19570.0	6.882087213378217e+17
19571.0	6.881435317873321e+17
19572.0	6.880545390024022e+17
19573.0	6.880039859650559e+17
19574.0	6.87883840336691e+17
19575.0	6.878799729786879e+17
19576.0	6.878099503316992e+17
19577.0	6.877265623252991e+17
19578.0	6.876508244497748e+17
19579.0	6.875735554435753e+17
19580.0	6.875000947255978e+17
19581.0	6.874363559149567e+17
19582.0	6.873830219142484e+17
19583.0	6.873110580734633e+17
19584.0	6.872300399886336e+17
19585.0	6.870846483551571e+17
19586.0	6.869889771197782e+17
19587.0	6.869645942325247e+17
19588.0	6.867406809639594e+17
19589.0	6.867860001390592e+17
19590.0	6.866936504429225e+17
19591.0	6.866500687582548e+17
19592.0	6.865709955721898e+17
19593.0	6.864731388947113e+17
19594.0	6.862583477480104e+17
19595.0	6.862944353299114e+17
19596.0	6.861641516493482e+17
19597.0	6.861308518116009e+17
19598.0	6.859095837507583e+17
19599.0	6.85957646000674e+17
19600.0	6.858734658300585e+17
19601.0	6.857483724608852e+17
19602.0	6.856312468013055e+17
19603.0	6.854468761725609e+17
19604.0	6.854472335971668e+17
19605.0	6.852564795173549e+17
19606.0	6.853043802865663e+17
19607.0	6.852134677686953e+17
19608.0	6.851138055831551e+17
19609.0	6.849997397382484e+17
19610.0	6.84923879039522e+17
19611.0	6.848219222900733e+17
19612.0	6.847320489110185e+17
19613.0	6.846257622417407e+17
19614.0	6.845098013403817e+17
19615.0	6.844287552935252e+17
19616.0	6.843110768945834e+17
19617.0	6.842122374217727e+17
19618.0	6.838585323246931e+17
19619.0	6.83685800260403e+17
19620.0	6.836719152267261e+17
19621.0	6.837916651225087e+17
19622.0	6.837185777674921e+17
19623.0	6.836203852660735e+17
19624.0	6.835242746074452e+17
19625.0	6.834391260419412e+17
19626.0	6.833205000099156e+17
19627.0	6.832051438572884e+17
19628.0	6.830509454437033e+17
19629.0	6.828365371670525e+17
19630.0	6.823646403581267e+17
19631.0	6.816720554906966e+17
19632.0	6.824869257805823e+17
19633.0	6.825013630642857e+17
19634.0	6.824602881054035e+17
19635.0	6.823440207402323e+17
19636.0	6.822579708187987e+17
19637.0	6.81926525242573e+17
19638.0	6.820504048500735e+17
19639.0	6.819402555064319e+17
19640.0	6.817535743754237e+17
19641.0	6.814336072111448e+17
19642.0	6.816111063116458e+17
19643.0	6.815056985587711e+17
19644.0	6.813604070992553e+17
19645.0	6.812072680969556e+17
19646.0	6.811818581644627e+17
19647.0	6.81084104806673e+17
19648.0	6.809725603676159e+17
19649.0	6.808618274564777e+17
19650.0	6.807542152473257e+17
19651.0	6.80639785406737e+17
19652.0	6.805266920112127e+17
19653.0	6.804196405106004e+17
19654.0	6.803020334148266e+17
19655.0	6.801874444703059e+17
19656.0	6.800816713236477e+17
19657.0	6.799670769265321e+17
19658.0	6.798582471109289e+17
19659.0	6.797448346686804e+17
19660.0	6.796348965781503e+17
19661.0	6.795185286195881e+17
19662.0	6.794055661562537e+17
19663.0	6.792760148011689e+17
19664.0	6.791705866360148e+17
19665.0	6.790657442753193e+17
19666.0	6.789470321901565e+17
