# Flux units: erg / (cm m2 s)
# Wavelength units: Angstrom
wave	flux
19000.0	7.105725321620138e+17
19001.0	7.104345538210474e+17
19002.0	7.103123956957183e+17
19003.0	7.101809224406355e+17
19004.0	7.100495884364458e+17
19005.0	7.099214941126655e+17
19006.0	7.097910505592147e+17
19007.0	7.09644246983202e+17
19008.0	7.095252832397993e+17
19009.0	7.093929656713216e+17
19010.0	7.092322240036863e+17
19011.0	7.091316211056639e+17
19012.0	7.089104009297917e+17
19013.0	7.088752391006889e+17
19014.0	7.087399996402345e+17
19015.0	7.08610834370833e+17
19016.0	7.084791192442195e+17
19017.0	7.083512089105748e+17
19018.0	7.082151985370451e+17
19019.0	7.08111863189777e+17
19020.0	7.081143990659753e+17
19021.0	7.079848927996585e+17
19022.0	7.078539513823232e+17
19023.0	7.07731780674082e+17
19024.0	7.076089866922666e+17
19025.0	7.074691512532991e+17
19026.0	7.073343783392595e+17
19027.0	7.071223949994666e+17
19028.0	7.070836214551892e+17
19029.0	7.069514326518442e+17
19030.0	7.068219571437568e+17
19031.0	7.066900791383378e+17
19032.0	7.065577432547327e+17
19033.0	7.064173429828265e+17
19034.0	7.062872051941375e+17
19035.0	7.061162678725289e+17
19036.0	7.002193673934145e+17
19037.0	7.058653219651581e+17
19038.0	7.057596790516393e+17
19039.0	7.056337138963798e+17
19040.0	7.055030936229203e+17
19041.0	7.053710249164799e+17
19042.0	7.052247136119466e+17
19043.0	7.051084477846868e+17
19044.0	7.049751760120489e+17
19045.0	7.048406488842237e+17
19046.0	7.047083136996691e+17
19047.0	7.045786291754323e+17
19048.0	7.04429842113058e+17
19049.0	7.042925492611753e+17
19050.0	7.041736963872083e+17
19051.0	7.031011326033905e+17
19052.0	7.037424015594836e+17
19053.0	7.037787896632659e+17
19054.0	7.036536398107987e+17
19055.0	7.034996097985194e+17
19056.0	7.033870172727978e+17
19057.0	7.032570336946857e+17
19058.0	7.031125350285311e+17
19059.0	7.02990391443456e+17
19060.0	7.02858539512627e+17
19061.0	7.027288391199402e+17
19062.0	7.025960735997951e+17
19063.0	7.024637692433748e+17
19064.0	7.023219430479188e+17
19065.0	7.02184688853538e+17
19066.0	7.020587997549907e+17
19067.0	7.019341172877993e+17
19068.0	7.018016371201363e+17
19069.0	7.016691949109247e+17
19070.0	7.01534723707153e+17
19071.0	7.01400143171857e+17
19072.0	7.012677122173609e+17
19073.0	7.011386019632468e+17
19074.0	7.010064094549332e+17
19075.0	7.008737887081812e+17
19076.0	7.007395669256874e+17
19077.0	7.006074280345597e+17
19078.0	7.004738131678548e+17
19079.0	7.003430161743871e+17
19080.0	7.002091407015936e+17
19081.0	7.000739987587072e+17
19082.0	6.99941319221794e+17
19083.0	6.998025871643987e+17
19084.0	6.996593091106132e+17
19085.0	6.995438461430441e+17
19086.0	6.993637738370387e+17
19087.0	6.991205374099456e+17
19088.0	6.991051527028733e+17
19089.0	6.989139687069012e+17
19090.0	6.988669681052329e+17
19091.0	6.987407869433172e+17
19092.0	6.985678784386387e+17
19093.0	6.984810970305876e+17
19094.0	6.98350773014801e+17
19095.0	6.982184978087936e+17
19096.0	6.980848567276884e+17
19097.0	6.979533138471594e+17
19098.0	6.978172128067583e+17
19099.0	6.976837868934484e+17
19100.0	6.975449050294954e+17
19101.0	6.974184492804778e+17
19102.0	6.972815859952297e+17
19103.0	6.971562738231978e+17
19104.0	6.970229319357779e+17
19105.0	6.968801354579968e+17
19106.0	6.967265944316585e+17
19107.0	6.966162647329449e+17
19108.0	6.964776390011562e+17
19109.0	6.958783094500004e+17
19110.0	6.961800267082409e+17
19111.0	6.960840740350634e+17
19112.0	6.959557180566185e+17
19113.0	6.958265686556671e+17
19114.0	6.956919356216659e+17
19115.0	6.955432581704362e+17
19116.0	6.954257747367252e+17
19117.0	6.952906779525119e+17
19118.0	6.951283190311593e+17
19119.0	6.947235910647802e+17
19120.0	6.948405757957459e+17
19121.0	6.947237938593791e+17
19122.0	6.94629941134404e+17
19123.0	6.944971944187219e+17
19124.0	6.943290127548415e+17
19125.0	6.942283064672253e+17
19126.0	6.940963643588605e+17
19127.0	6.9383124680704e+17
19128.0	6.937293503856637e+17
19129.0	6.936917325119487e+17
19130.0	6.935643373786452e+17
19131.0	6.934292266833236e+17
19132.0	6.932990732358998e+17
19133.0	6.931462292329812e+17
19134.0	6.92985356423441e+17
19135.0	6.928976863821823e+17
19136.0	6.927664726846121e+17
19137.0	6.926209178927103e+17
19138.0	6.924971283928404e+17
19139.0	6.923666739341993e+17
19140.0	6.922338230599679e+17
19141.0	6.921006167184724e+17
19142.0	6.919633636425727e+17
19143.0	6.918297531099817e+17
19144.0	6.91610167733999e+17
19145.0	6.914172324762964e+17
19146.0	6.912344036737024e+17
19147.0	6.911442203355817e+17
19148.0	6.910120615914153e+17
19149.0	6.908790095304019e+17
19150.0	6.907504265003007e+17
19151.0	6.906175162067625e+17
19152.0	6.904772776951805e+17
19153.0	6.903432293471571e+17
19154.0	6.902059081138175e+17
19155.0	6.900793771469481e+17
19156.0	6.899438026315091e+17
19157.0	6.897793367714474e+17
19158.0	6.89381799449941e+17
19159.0	6.895267739598847e+17
19160.0	6.894001290477565e+17
19161.0	6.8925500438173e+17
19162.0	6.884077609855663e+17
19163.0	6.889474031441235e+17
19164.0	6.888728577791315e+17
19165.0	6.887249485845843e+17
19166.0	6.885852850421759e+17
19167.0	6.884068248169129e+17
19168.0	6.883373890229587e+17
19169.0	6.881990936625151e+17
19170.0	6.880750077651625e+17
19171.0	6.87905737679394e+17
19172.0	6.878014451220479e+17
19173.0	6.876743835757225e+17
19174.0	6.875401023739219e+17
19175.0	6.874106351845375e+17
19176.0	6.872763339199828e+17
19177.0	6.871284917643946e+17
19178.0	6.869826161781417e+17
19179.0	6.868189796717908e+17
19180.0	6.867328541130751e+17
19181.0	6.865965732069375e+17
19182.0	6.864693677260799e+17
19183.0	6.863378934923263e+17
19184.0	6.86201941070097e+17
19185.0	6.860696584541523e+17
19186.0	6.859355376844799e+17
19187.0	6.857932729745407e+17
19188.0	6.85664251290146e+17
19189.0	6.855269389347497e+17
19190.0	6.853879092215805e+17
19191.0	6.852497845693098e+17
19192.0	6.85124613186082e+17
19193.0	6.849850951860223e+17
19194.0	6.84847212405282e+17
19195.0	6.847100854381225e+17
19196.0	6.845635814053204e+17
19197.0	6.84400143778884e+17
19198.0	6.841459604979711e+17
19199.0	6.797259387699187e+17
19200.0	6.80701798890429e+17
19201.0	6.83760206024977e+17
19202.0	6.837300946971305e+17
19203.0	6.836090653289129e+17
19204.0	6.834932532554409e+17
19205.0	6.833668096699049e+17
19206.0	6.832347685060607e+17
19207.0	6.830945950061908e+17
19208.0	6.829520455729151e+17
19209.0	6.828327906050047e+17
19210.0	6.826981970673663e+17
19211.0	6.825634937787731e+17
19212.0	6.824265738005161e+17
19213.0	6.822477896351743e+17
19214.0	6.820143007006717e+17
19215.0	6.818138331021311e+17
19216.0	6.816984454922237e+17
19217.0	6.8156301784733e+17
19218.0	6.813647571517437e+17
19219.0	6.812791934200489e+17
19220.0	6.811530190389247e+17
19221.0	6.809962599328425e+17
19222.0	6.808836723004755e+17
19223.0	6.807471317669204e+17
19224.0	6.806087609789098e+17
19225.0	6.804655021490173e+17
19226.0	6.803378096395604e+17
19227.0	6.80201041285393e+17
19228.0	6.800666810908672e+17
19229.0	6.799297894940671e+17
19230.0	6.797889398024872e+17
19231.0	6.79652142228002e+17
19232.0	6.79517336109056e+17
19233.0	6.793746952399529e+17
19234.0	6.792423186715987e+17
19235.0	6.789887357353981e+17
19236.0	6.788509259355476e+17
19237.0	6.787117133507241e+17
19238.0	6.785609563635711e+17
19239.0	6.784366994784256e+17
19240.0	6.782969788235775e+17
19241.0	6.781579722489855e+17
19242.0	6.780204784899412e+17
19243.0	6.778696709614249e+17
19244.0	6.777444258283519e+17
19245.0	6.77604938097186e+17
19246.0	6.773437694126762e+17
19247.0	6.770963418273107e+17
19248.0	6.769559370115753e+17
19249.0	6.768153526796287e+17
19250.0	6.76675377500433e+17
19251.0	6.765288043315199e+17
19252.0	6.763754955298131e+17
19253.0	6.762570323765929e+17
19254.0	6.761180353090899e+17
19255.0	6.759629914636287e+17
19256.0	6.758330628308991e+17
19257.0	6.756971150923091e+17
19258.0	6.755563772488361e+17
19259.0	6.7540886763165e+17
19260.0	6.751640904968872e+17
19261.0	6.751312320397311e+17
19262.0	6.749862974455805e+17
19263.0	6.748441697495721e+17
19264.0	6.746667549545812e+17
19265.0	6.745499777717588e+17
19266.0	6.743611643964074e+17
19267.0	6.741394836160511e+17
19268.0	6.739967151002966e+17
19269.0	6.738536430567423e+17
19270.0	6.737098191841961e+17
19271.0	6.735416883412991e+17
19272.0	6.734198575114921e+17
19273.0	6.732122418402644e+17
19274.0	6.730789878934185e+17
19275.0	6.729897399549951e+17
19276.0	6.728435128161619e+17
19277.0	6.725343726185129e+17
19278.0	6.723860360942931e+17
19279.0	6.722342048759807e+17
19280.0	6.720869357322239e+17
19281.0	6.719440938860541e+17
19282.0	6.717940388855807e+17
19283.0	6.715941684860244e+17
19284.0	6.714607938830333e+17
19285.0	6.713391811570345e+17
19286.0	6.711997768925183e+17
19287.0	6.710467150654121e+17
19288.0	6.693475793065286e+17
19289.0	6.669799924258068e+17
19290.0	6.70595251577378e+17
19291.0	6.704338763601236e+17
19292.0	6.703055135309824e+17
19293.0	6.701544121914708e+17
19294.0	6.700025655241385e+17
19295.0	6.698514093790548e+17
19296.0	6.696950861310633e+17
19297.0	6.695412138246143e+17
19298.0	6.693372181872637e+17
19299.0	6.690075286962175e+17
19300.0	6.688559842983935e+17
19301.0	6.686994792972287e+17
19302.0	6.685419917104468e+17
19303.0	6.68377978835217e+17
19304.0	6.682247904100352e+17
19305.0	6.680667910482602e+17
19306.0	6.679046573610323e+17
19307.0	6.677385097248768e+17
19308.0	6.675766655844351e+17
19309.0	6.672703589187583e+17
19310.0	6.670481932069544e+17
19311.0	6.670732422894931e+17
19312.0	6.668780975423488e+17
19313.0	6.664727423178067e+17
19314.0	6.618487390033229e+17
19315.0	6.620140356851095e+17
19316.0	6.659442849000105e+17
19317.0	6.65804852044322e+17
19318.0	6.656372116553728e+17
19319.0	6.654687243665405e+17
19320.0	6.652952943700649e+17
19321.0	6.651201063310675e+17
19322.0	6.648526615696723e+17
19323.0	6.643359247149738e+17
19324.0	6.642050155937791e+17
19325.0	6.639124781989888e+17
19326.0	6.638476947270314e+17
19327.0	6.636755706271059e+17
19328.0	6.634893698837162e+17
19329.0	6.63313199538722e+17
19330.0	6.628556043976707e+17
19331.0	6.624735697829887e+17
19332.0	6.622832728823123e+17
19333.0	6.620883022686889e+17
19334.0	6.618963204461908e+17
19335.0	6.616869872773802e+17
19336.0	6.612563362054145e+17
19337.0	6.607391123920211e+17
19338.0	6.605158969158313e+17
19339.0	6.603203365830655e+17
19340.0	6.601040234632532e+17
19341.0	6.597583094240594e+17
19342.0	6.593103525139795e+17
19343.0	6.591231105346217e+17
19344.0	6.588934698740394e+17
19345.0	6.58528467698756e+17
19346.0	6.583821324167849e+17
19347.0	6.581989637357568e+17
19348.0	6.57975980204578e+17
19349.0	6.577343622894932e+17
19350.0	6.574929384308736e+17
19351.0	6.572534504532649e+17
19352.0	6.569982901092351e+17
19353.0	6.567605057880063e+17
19354.0	6.565048889638911e+17
19355.0	6.56239374770722e+17
19356.0	6.559853869443753e+17
19357.0	6.557220554670079e+17
19358.0	6.55453595963665e+17
19359.0	6.551817367672148e+17
19360.0	6.549081602129919e+17
19361.0	6.546391876763647e+17
19362.0	6.54366871790114e+17
19363.0	6.540883628042922e+17
19364.0	6.538075832319999e+17
19365.0	6.535245730589353e+17
19366.0	6.53239227916834e+17
19367.0	6.52950641975842e+17
19368.0	6.526618171692372e+17
19369.0	6.523630967412052e+17
19370.0	6.520672663983444e+17
19371.0	6.51775735636514e+17
19372.0	6.514814683010388e+17
19373.0	6.511712941375487e+17
19374.0	6.508557829319338e+17
19375.0	6.505328822015315e+17
19376.0	6.502078772587178e+17
19377.0	6.498777765161642e+17
19378.0	6.495441252952745e+17
19379.0	6.491980320909994e+17
19380.0	6.488515841185108e+17
19381.0	6.485047550935039e+17
19382.0	6.481496114899626e+17
19383.0	6.477938254588585e+17
19384.0	6.474429396331177e+17
19385.0	6.47080564560145e+17
19386.0	6.467138179039232e+17
19387.0	6.463414366197076e+17
19388.0	6.459654307577855e+17
19389.0	6.455822034228563e+17
19390.0	6.451824643713705e+17
19391.0	6.402464604138089e+17
19392.0	6.443063169777658e+17
19393.0	6.440014105105748e+17
19394.0	6.435949217054719e+17
19395.0	6.431714684086953e+17
19396.0	6.427218028090707e+17
19397.0	6.423112576226644e+17
19398.0	6.418780415240873e+17
19399.0	6.4139913854976e+17
19400.0	6.40999947623902e+17
19401.0	6.405572673579689e+17
19402.0	6.401001322621609e+17
19403.0	6.395789851667114e+17
19404.0	6.390823499333631e+17
19405.0	6.3859558725277e+17
19406.0	6.381011921272831e+17
19407.0	6.37554654463044e+17
19408.0	6.368972309353814e+17
19409.0	6.364092535144447e+17
19410.0	6.358010474878294e+17
19411.0	6.351120908331689e+17
19412.0	6.345327603526314e+17
19413.0	6.336781342823763e+17
19414.0	6.330482455216127e+17
19415.0	6.320839755213484e+17
19416.0	6.312625767273815e+17
19417.0	6.301548067946495e+17
19418.0	6.290102967861252e+17
19419.0	6.276953030000637e+17
19420.0	6.261472994787333e+17
19421.0	6.243489622786047e+17
19422.0	6.222412513279988e+17
19423.0	6.20344006567526e+17
19424.0	6.191402857092438e+17
19425.0	6.179009769504765e+17
19426.0	6.166105431911082e+17
19427.0	6.15255078216226e+17
19428.0	6.138282749110953e+17
19429.0	6.123732246462463e+17
19430.0	6.107814296551425e+17
19431.0	6.084803052961802e+17
19432.0	6.075963332886527e+17
19433.0	6.057223546120874e+17
19434.0	6.037290895802368e+17
19435.0	6.013802836743506e+17
19436.0	5.985524746201769e+17
19437.0	5.958046069030916e+17
19438.0	5.866329839326555e+17
19439.0	5.878429280894986e+17
19440.0	5.830446226429277e+17
19441.0	5.782529379052201e+17
19442.0	5.73794451054046e+17
19443.0	5.687659673070249e+17
19444.0	5.6281934286465683e+17
19445.0	5.554549265093977e+17
19446.0	5.464942905218386e+17
19447.0	5.351716980872528e+17
19448.0	5.20630181525368e+17
19449.0	5.006213283228329e+17
19450.0	4.695630178593416e+17
19451.0	4.5396791569066714e+17
19452.0	4.867854927833775e+17
19453.0	5.1152560772000506e+17
19454.0	5.280857777154723e+17
19455.0	5.4056636044192403e+17
19456.0	5.503958297258671e+17
19457.0	5.582443679580157e+17
19458.0	5.574872298859301e+17
19459.0	5.696631250179432e+17
19460.0	5.7432456494230163e+17
19461.0	5.785842901581836e+17
19462.0	5.834670079300941e+17
19463.0	5.878113440716119e+17
19464.0	5.91483367815031e+17
19465.0	5.944982154248193e+17
19466.0	5.970551391999314e+17
19467.0	5.99269649293858e+17
19468.0	6.011641151182166e+17
19469.0	6.028052488956584e+17
19470.0	6.043522309641556e+17
19471.0	6.057684541374464e+17
19472.0	6.070862866284543e+17
19473.0	6.083210100342783e+17
19474.0	6.095330225422335e+17
19475.0	6.106432135670441e+17
19476.0	6.117712234632532e+17
19477.0	6.128024212733951e+17
19478.0	6.137813268780371e+17
19479.0	6.150093001108141e+17
19480.0	6.168505548275712e+17
19481.0	6.185878477777572e+17
19482.0	6.20034214714846e+17
19483.0	6.21226064993758e+17
19484.0	6.222244490859862e+17
19485.0	6.230192078979067e+17
19486.0	6.23758559744273e+17
19487.0	6.243877876225367e+17
19488.0	6.249171721912319e+17
19489.0	6.25424361132305e+17
19490.0	6.258041090823507e+17
19491.0	6.262577432625151e+17
19492.0	6.267257735522985e+17
19493.0	6.270262858569044e+17
19494.0	6.273379792672083e+17
19495.0	6.277104332526932e+17
19496.0	6.279422573281279e+17
19497.0	6.282063181250559e+17
19498.0	6.279495023591428e+17
19499.0	6.216648074373757e+17
19500.0	6.289618471223295e+17
19501.0	6.291898055873876e+17
19502.0	6.293938781902163e+17
19503.0	6.295961350089385e+17
19504.0	6.297856419823615e+17
19505.0	6.299702552515924e+17
19506.0	6.301571619662506e+17
19507.0	6.303531136974847e+17
19508.0	6.305203380114772e+17
19509.0	6.306784701928788e+17
19510.0	6.308051302045011e+17
19511.0	6.22449783314836e+17
19512.0	6.299961704579048e+17
19513.0	6.292283280326623e+17
19514.0	6.298989227933676e+17
19515.0	6.314356046998188e+17
19516.0	6.316559263159636e+17
19517.0	6.317755594003796e+17
19518.0	6.318943870386175e+17
19519.0	6.320019309505194e+17
19520.0	6.321059989727913e+17
19521.0	6.322158161275561e+17
19522.0	6.323110639479465e+17
19523.0	6.324074686272852e+17
19524.0	6.325052888143188e+17
19525.0	6.325940413355348e+17
19526.0	6.326761535744682e+17
19527.0	6.32753233137937e+17
19528.0	6.32825536647441e+17
19529.0	6.328929526043988e+17
19530.0	6.329491480991059e+17
19531.0	6.329998633162067e+17
19532.0	6.330484481064957e+17
19533.0	6.330948197722794e+17
19534.0	6.331387218318676e+17
19535.0	6.331797143726761e+17
19536.0	6.332170239650474e+17
19537.0	6.332567744326314e+17
19538.0	6.332794203187882e+17
19539.0	6.332849918924118e+17
19540.0	6.333508377116672e+17
19541.0	6.333785379438591e+17
19542.0	6.334034663702527e+17
19543.0	6.334214383337471e+17
19544.0	6.334452371641684e+17
19545.0	6.334297547298131e+17
19546.0	6.334133313033556e+17
19547.0	6.334881789378559e+17
19548.0	6.334974065464662e+17
19549.0	6.334955003751081e+17
19550.0	6.335022773217961e+17
19551.0	6.334988398100479e+17
19552.0	6.334923433923923e+17
19553.0	6.334816140831402e+17
19554.0	6.334687565840383e+17
19555.0	6.334553221584212e+17
19556.0	6.334398541245097e+17
19557.0	6.334207091539968e+17
19558.0	6.33399078429218e+17
19559.0	6.333749807546367e+17
19560.0	6.333445354203818e+17
19561.0	6.335499188131155e+17
19562.0	6.335873497606825e+17
19563.0	6.335528229492052e+17
19564.0	6.335144566718464e+17
19565.0	6.334742456696832e+17
19566.0	6.337225202248365e+17
19567.0	6.338926144214356e+17
19568.0	6.338395387898537e+17
19569.0	6.337883612905471e+17
19570.0	6.337349673112916e+17
19571.0	6.336793075690153e+17
19572.0	6.336726629526185e+17
19573.0	6.33978844418321e+17
19574.0	6.339098784563199e+17
19575.0	6.338534150154921e+17
19576.0	6.337884151174484e+17
19577.0	6.337211327490729e+17
19578.0	6.336521060395689e+17
19579.0	6.33584458207505e+17
19580.0	6.335539714894504e+17
19581.0	6.337804103581695e+17
19582.0	6.337074149283156e+17
19583.0	6.336322564259839e+17
19584.0	6.335537473039018e+17
19585.0	6.33470290371106e+17
19586.0	6.333866670642516e+17
19587.0	6.332985949290495e+17
19588.0	6.332085302897321e+17
19589.0	6.331609854072148e+17
19590.0	6.330736258143572e+17
19591.0	6.331069025834322e+17
19592.0	6.331795049370964e+17
19593.0	6.33092561838626e+17
19594.0	6.329881771464019e+17
19595.0	6.329208150163456e+17
19596.0	6.326205796057089e+17
19597.0	6.327454710890495e+17
19598.0	6.32635645895202e+17
19599.0	6.325723663608489e+17
19600.0	6.324841246359551e+17
19601.0	6.323891936952319e+17
19602.0	6.32299413569536e+17
19603.0	6.321140398030845e+17
19604.0	6.321072313991165e+17
19605.0	6.320075728486399e+17
19606.0	6.319385612386304e+17
19607.0	6.320175297768105e+17
19608.0	6.319490270057812e+17
19609.0	6.318520675598335e+17
19610.0	6.317589467409065e+17
19611.0	6.316624898424831e+17
19612.0	6.315710453470548e+17
19613.0	6.314743100866559e+17
19614.0	6.313756130803711e+17
19615.0	6.312807777697791e+17
19616.0	6.31137022124578e+17
19617.0	6.310835581703508e+17
19618.0	6.309473410176339e+17
19619.0	6.308375529433769e+17
19620.0	6.307422828232701e+17
19621.0	6.3068913022621e+17
19622.0	6.305957753651199e+17
19623.0	6.304963016436393e+17
19624.0	6.303955272684884e+17
19625.0	6.302955995135999e+17
19626.0	6.301939266486271e+17
19627.0	6.301023320670207e+17
19628.0	6.298971664285697e+17
19629.0	6.298626705151315e+17
19630.0	6.293316952566444e+17
19631.0	6.251124195590143e+17
19632.0	6.296890421280767e+17
19633.0	6.296260210327551e+17
19634.0	6.295405854370473e+17
19635.0	6.294373047555412e+17
19636.0	6.293336713330687e+17
19637.0	6.292024596627455e+17
19638.0	6.291333384415913e+17
19639.0	6.290414306153811e+17
19640.0	6.290405373684394e+17
19641.0	6.288840780152832e+17
19642.0	6.288379380847956e+17
19643.0	6.287322130328234e+17
19644.0	6.286252217903785e+17
19645.0	6.285051082484394e+17
19646.0	6.284146880020479e+17
19647.0	6.283155384303615e+17
19648.0	6.282105346588671e+17
19649.0	6.281049537511424e+17
19650.0	6.279996029009919e+17
19651.0	6.278933693595647e+17
19652.0	6.277878224257024e+17
19653.0	6.276795810709501e+17
19654.0	6.275750982320127e+17
19655.0	6.274691405359785e+17
19656.0	6.273625106328233e+17
19657.0	6.272564392012457e+17
19658.0	6.271493572220244e+17
19659.0	6.270427137572863e+17
19660.0	6.269358406544041e+17
19661.0	6.268286891895466e+17
19662.0	6.267212836197716e+17
19663.0	6.267082840735743e+17
19664.0	6.266794452975615e+17
19665.0	6.265910954994346e+17
