# Flux units: erg / (cm m2 s)
# Wavelength units: Angstrom
wave	flux
19000.0	7.295476362990931e+17
19001.0	7.294086267185834e+17
19002.0	7.292730040385535e+17
19003.0	7.29135548028245e+17
19004.0	7.289980442028714e+17
19005.0	7.288610009120765e+17
19006.0	7.2872366192285e+17
19007.0	7.285693399171071e+17
19008.0	7.284478519017471e+17
19009.0	7.283108768382975e+17
19010.0	7.281663411224575e+17
19011.0	7.280361004335104e+17
19012.0	7.278796671549437e+17
19013.0	7.277628975917736e+17
19014.0	7.276245419032575e+17
19015.0	7.274878622586195e+17
19016.0	7.273500247064575e+17
19017.0	7.27211512570402e+17
19018.0	7.270746672507561e+17
19019.0	7.269390374404093e+17
19020.0	7.26800448688401e+17
19021.0	7.266637616338259e+17
19022.0	7.265270232689322e+17
19023.0	7.263892210887338e+17
19024.0	7.262519163529897e+17
19025.0	7.26113093419008e+17
19026.0	7.259751933717161e+17
19027.0	7.258232788964691e+17
19028.0	7.257031210347177e+17
19029.0	7.255661631679144e+17
19030.0	7.25428703662353e+17
19031.0	7.252914362559145e+17
19032.0	7.251541719252991e+17
19033.0	7.25015406453282e+17
19034.0	7.248797685339476e+17
19035.0	7.247416292715177e+17
19036.0	7.233636080287736e+17
19037.0	7.24467893473553e+17
19038.0	7.243305753160361e+17
19039.0	7.241936740723369e+17
19040.0	7.240565076088147e+17
19041.0	7.239193458988372e+17
19042.0	7.237807568672083e+17
19043.0	7.2364512537914e+17
19044.0	7.235079073256787e+17
19045.0	7.233701150719999e+17
19046.0	7.232327640591017e+17
19047.0	7.230966073043625e+17
19048.0	7.22956111122705e+17
19049.0	7.228213205925887e+17
19050.0	7.226847123909289e+17
19051.0	7.223646985999695e+17
19052.0	7.223926466456234e+17
19053.0	7.222701954782547e+17
19054.0	7.221373906714623e+17
19055.0	7.219960361953961e+17
19056.0	7.218632155900585e+17
19057.0	7.217260756904616e+17
19058.0	7.215852516540415e+17
19059.0	7.214526021763071e+17
19060.0	7.21315192582963e+17
19061.0	7.211787973121364e+17
19062.0	7.210418306372948e+17
19063.0	7.209049918887251e+17
19064.0	7.207662023693651e+17
19065.0	7.20628195926562e+17
19066.0	7.2049338889885e+17
19067.0	7.203576865270441e+17
19068.0	7.202208571457535e+17
19069.0	7.200841057785172e+17
19070.0	7.199472554257064e+17
19071.0	7.198099369885696e+17
19072.0	7.196737006818644e+17
19073.0	7.195370778001407e+17
19074.0	7.194004683401897e+17
19075.0	7.192637812856148e+17
19076.0	7.191267427483647e+17
19077.0	7.18990308610321e+17
19078.0	7.188531211752787e+17
19079.0	7.187172401261225e+17
19080.0	7.185805478985727e+17
19081.0	7.18443284406818e+17
19082.0	7.183066447478783e+17
19083.0	7.181689971976874e+17
19084.0	7.180300955506004e+17
19085.0	7.178978332071251e+17
19086.0	7.177533462850217e+17
19087.0	7.175873367113727e+17
19088.0	7.174861150137e+17
19089.0	7.17329181774097e+17
19090.0	7.172150283381417e+17
19091.0	7.170797234465449e+17
19092.0	7.169340446430548e+17
19093.0	7.16807553102643e+17
19094.0	7.166702149522772e+17
19095.0	7.165335831227049e+17
19096.0	7.163969366130688e+17
19097.0	7.162619960666794e+17
19098.0	7.161260260982783e+17
19099.0	7.159897541399892e+17
19100.0	7.158516496902825e+17
19101.0	7.157163166968489e+17
19102.0	7.155793282116266e+17
19103.0	7.15444645335313e+17
19104.0	7.153084678886739e+17
19105.0	7.151722057170943e+17
19106.0	7.150291540858195e+17
19107.0	7.148996885042516e+17
19108.0	7.147637699859795e+17
19109.0	7.144989627427496e+17
19110.0	7.144903177229651e+17
19111.0	7.143551976603647e+17
19112.0	7.14219698991923e+17
19113.0	7.140837484571306e+17
19114.0	7.139477543015764e+17
19115.0	7.138090745331711e+17
19116.0	7.136755764079274e+17
19117.0	7.135394916554067e+17
19118.0	7.133960962310144e+17
19119.0	7.13224774431539e+17
19120.0	7.131222710943743e+17
19121.0	7.129897881305088e+17
19122.0	7.128605880483839e+17
19123.0	7.127245680279552e+17
19124.0	7.125821600825343e+17
19125.0	7.124517366617428e+17
19126.0	7.123147168590505e+17
19127.0	7.121532747426474e+17
19128.0	7.119438269994322e+17
19129.0	7.119085766705152e+17
19130.0	7.117742184333311e+17
19131.0	7.116355169943552e+17
19132.0	7.115029509832701e+17
19133.0	7.113465839747071e+17
19134.0	7.111835965369002e+17
19135.0	7.110957219534164e+17
19136.0	7.10960483611443e+17
19137.0	7.108219774872234e+17
19138.0	7.106789155099987e+17
19139.0	7.105534923986259e+17
19140.0	7.104182442699433e+17
19141.0	7.102827625185279e+17
19142.0	7.1014672250525e+17
19143.0	7.100107751860906e+17
19144.0	7.098759783645181e+17
19145.0	7.097402164335956e+17
19146.0	7.095922232131583e+17
19147.0	7.094685603113641e+17
19148.0	7.093337469921961e+17
19149.0	7.091986007851007e+17
19150.0	7.090632683509076e+17
19151.0	7.089284156052819e+17
19152.0	7.087898486636543e+17
19153.0	7.086441887345321e+17
19154.0	7.085071222352552e+17
19155.0	7.083734750724093e+17
19156.0	7.082384676967764e+17
19157.0	7.081014358704127e+17
19158.0	7.07879236743987e+17
19159.0	7.078319325446143e+17
19160.0	7.076954483545427e+17
19161.0	7.075521804369919e+17
19162.0	7.072282357443242e+17
19163.0	7.072872526774271e+17
19164.0	7.07154129522961e+17
19165.0	7.070158452774227e+17
19166.0	7.068783930419881e+17
19167.0	7.067303571794602e+17
19168.0	7.066117808499369e+17
19169.0	7.064747428719272e+17
19170.0	7.063437414760447e+17
19171.0	7.061981665514836e+17
19172.0	7.060727442789716e+17
19173.0	7.059381389972819e+17
19174.0	7.058027682551123e+17
19175.0	7.056686439202815e+17
19176.0	7.055335890092032e+17
19177.0	7.053959546011647e+17
19178.0	7.052602305587881e+17
19179.0	7.051130932559871e+17
19180.0	7.049752471754067e+17
19181.0	7.04856248619281e+17
19182.0	7.047220490665983e+17
19183.0	7.045864037373267e+17
19184.0	7.044500134996649e+17
19185.0	7.043185226285055e+17
19186.0	7.04183721193199e+17
19187.0	7.040474393083904e+17
19188.0	7.039127676168874e+17
19189.0	7.037742264702292e+17
19190.0	7.036384117609812e+17
19191.0	7.035064911134719e+17
19192.0	7.033680952994474e+17
19193.0	7.032084472266751e+17
19194.0	7.030805757602474e+17
19195.0	7.029500226655571e+17
19196.0	7.028162022779561e+17
19197.0	7.02680723043123e+17
19198.0	7.025433085564244e+17
19199.0	7.012449075767974e+17
19200.0	7.01513307171499e+17
19201.0	7.021391436753577e+17
19202.0	7.020066250599081e+17
19203.0	7.018696712475988e+17
19204.0	7.017366120562687e+17
19205.0	7.016028168344916e+17
19206.0	7.014678167289855e+17
19207.0	7.013322032065193e+17
19208.0	7.011949835452415e+17
19209.0	7.010630951938729e+17
19210.0	7.009285868705108e+17
19211.0	7.007936204592468e+17
19212.0	7.006587839315965e+17
19213.0	7.005123447007913e+17
19214.0	7.003711503772329e+17
19215.0	7.0024958064285e+17
19216.0	7.001187299622911e+17
19217.0	6.999842839243433e+17
19218.0	6.998354547791187e+17
19219.0	6.997117696475135e+17
19220.0	6.995783761701546e+17
19221.0	6.994381489132884e+17
19222.0	6.993097617571839e+17
19223.0	6.991746816103764e+17
19224.0	6.990386701882708e+17
19225.0	6.989021286061396e+17
19226.0	6.98769516667426e+17
19227.0	6.986344391071059e+17
19228.0	6.984996517926227e+17
19229.0	6.983645527714474e+17
19230.0	6.982254814647635e+17
19231.0	6.980917134360575e+17
19232.0	6.979583939182591e+17
19233.0	6.97822686093858e+17
19234.0	6.976884613753513e+17
19235.0	6.975534653942442e+17
19236.0	6.97418475704593e+17
19237.0	6.972829497731753e+17
19238.0	6.97144597090577e+17
19239.0	6.970127169880061e+17
19240.0	6.968732839925076e+17
19241.0	6.967406326972415e+17
19242.0	6.966065129761449e+17
19243.0	6.964681865778516e+17
19244.0	6.963350144898388e+17
19245.0	6.961960307742036e+17
19246.0	6.960602389239124e+17
19247.0	6.959248651758249e+17
19248.0	6.957891916049065e+17
19249.0	6.956532743449257e+17
19250.0	6.955180458595668e+17
19251.0	6.953804905840639e+17
19252.0	6.952410390637225e+17
19253.0	6.951106548596735e+17
19254.0	6.949742200225791e+17
19255.0	6.948354787377151e+17
19256.0	6.946996380237823e+17
19257.0	6.945667399636308e+17
19258.0	6.944308108896937e+17
19259.0	6.942934060498943e+17
19260.0	6.941413844800852e+17
19261.0	6.940224115092136e+17
19262.0	6.938853485051901e+17
19263.0	6.93748801610274e+17
19264.0	6.936048794512042e+17
19265.0	6.934736180783785e+17
19266.0	6.933377350718804e+17
19267.0	6.932034339471359e+17
19268.0	6.930666751000575e+17
19269.0	6.929298425031336e+17
19270.0	6.92792661778978e+17
19271.0	6.926503391177386e+17
19272.0	6.925182105026559e+17
19273.0	6.922702750569811e+17
19274.0	6.921861087974739e+17
19275.0	6.921069551506772e+17
19276.0	6.919692918019412e+17
19277.0	6.918319418376191e+17
19278.0	6.916966243631103e+17
19279.0	6.915799377772544e+17
19280.0	6.914437153117523e+17
19281.0	6.913070820840788e+17
19282.0	6.911689491830099e+17
19283.0	6.910124037068116e+17
19284.0	6.908562878671529e+17
19285.0	6.907499913412607e+17
19286.0	6.905824058976937e+17
19287.0	6.904376082475689e+17
19288.0	6.899928740309672e+17
19289.0	6.893247470589252e+17
19290.0	6.900168406335487e+17
19291.0	6.898729035147945e+17
19292.0	6.897378892185599e+17
19293.0	6.895979898863615e+17
19294.0	6.894581811511295e+17
19295.0	6.893180819603456e+17
19296.0	6.891785203395241e+17
19297.0	6.890382230377812e+17
19298.0	6.888979155298985e+17
19299.0	6.887571838380713e+17
19300.0	6.886160266341034e+17
19301.0	6.884754322358272e+17
19302.0	6.883343413018623e+17
19303.0	6.881908143161343e+17
19304.0	6.880492469092351e+17
19305.0	6.87907706835217e+17
19306.0	6.87764722033186e+17
19307.0	6.876199289967955e+17
19308.0	6.874775162279251e+17
19309.0	6.872974008603987e+17
19310.0	6.871370982664872e+17
19311.0	6.870438576302761e+17
19312.0	6.869035126532778e+17
19313.0	6.867573762512212e+17
19314.0	6.860662902882299e+17
19315.0	6.859554225302195e+17
19316.0	6.863133919062697e+17
19317.0	6.861701962705577e+17
19318.0	6.860236584037033e+17
19319.0	6.858770105761791e+17
19320.0	6.857292491609427e+17
19321.0	6.855820315372201e+17
19322.0	6.854341532407124e+17
19323.0	6.852708929634304e+17
19324.0	6.851412976380585e+17
19325.0	6.849595629196628e+17
19326.0	6.848419798712319e+17
19327.0	6.84691479925009e+17
19328.0	6.845396742919507e+17
19329.0	6.843774426677247e+17
19330.0	6.842183894870697e+17
19331.0	6.840539135606783e+17
19332.0	6.839008144042665e+17
19333.0	6.837405371159891e+17
19334.0	6.83548513490261e+17
19335.0	6.833948177640106e+17
19336.0	6.832378704035839e+17
19337.0	6.830812637604522e+17
19338.0	6.829200224114004e+17
19339.0	6.827793102929919e+17
19340.0	6.826404336719188e+17
19341.0	6.824807426075305e+17
19342.0	6.823116865011711e+17
19343.0	6.82157395812898e+17
19344.0	6.819941985200809e+17
19345.0	6.817971712294911e+17
19346.0	6.816535964986025e+17
19347.0	6.814931628326911e+17
19348.0	6.81316115948066e+17
19349.0	6.811465719043412e+17
19350.0	6.809763864816297e+17
19351.0	6.808057642221565e+17
19352.0	6.806328211843753e+17
19353.0	6.804224495058941e+17
19354.0	6.802317317068116e+17
19355.0	6.800534469432659e+17
19356.0	6.798763048479402e+17
19357.0	6.796961357234173e+17
19358.0	6.795129399891284e+17
19359.0	6.792905822481066e+17
19360.0	6.791463308361727e+17
19361.0	6.789663995286867e+17
19362.0	6.787805562099027e+17
19363.0	6.785829638067539e+17
19364.0	6.783509795089065e+17
19365.0	6.781181056690857e+17
19366.0	6.779179283163818e+17
19367.0	6.776950985064448e+17
19368.0	6.774647829124436e+17
19369.0	6.772521546984105e+17
19370.0	6.770318611141971e+17
19371.0	6.768810932218538e+17
19372.0	6.765885786161152e+17
19373.0	6.76316308307968e+17
19374.0	6.760942868802217e+17
19375.0	6.75877462614562e+17
19376.0	6.75663830983202e+17
19377.0	6.753843368951807e+17
19378.0	6.750936068958889e+17
19379.0	6.748798845976576e+17
19380.0	6.746174647522644e+17
19381.0	6.743233959471786e+17
19382.0	6.739499704210772e+17
19383.0	6.736897286078461e+17
19384.0	6.735074335304361e+17
19385.0	6.731834566115325e+17
19386.0	6.727885314326527e+17
19387.0	6.724455875215359e+17
19388.0	6.721804526332585e+17
19389.0	6.718369679365459e+17
19390.0	6.715121627824127e+17
19391.0	6.702031839778115e+17
19392.0	6.709667252142079e+17
19393.0	6.706300103338666e+17
19394.0	6.703475033374719e+17
19395.0	6.699877134936744e+17
19396.0	6.695943258068307e+17
19397.0	6.692075745574911e+17
19398.0	6.687928572968959e+17
19399.0	6.682925466648575e+17
19400.0	6.678849138633386e+17
19401.0	6.673156873213268e+17
19402.0	6.668524833472511e+17
19403.0	6.66359725957666e+17
19404.0	6.658847307464703e+17
19405.0	6.652746409880234e+17
19406.0	6.647552350879743e+17
19407.0	6.64102566502946e+17
19408.0	6.633540874316457e+17
19409.0	6.627078259255976e+17
19410.0	6.618623819557548e+17
19411.0	6.611255937378985e+17
19412.0	6.602442204512255e+17
19413.0	6.594379150000127e+17
19414.0	6.585339686682619e+17
19415.0	6.57531676393472e+17
19416.0	6.564158737394341e+17
19417.0	6.552400667432278e+17
19418.0	6.541876649787392e+17
19419.0	6.532902659555327e+17
19420.0	6.523969607827456e+17
19421.0	6.514604716851197e+17
19422.0	6.505050842420563e+17
19423.0	6.496114633779886e+17
19424.0	6.485348889307818e+17
19425.0	6.470758275831122e+17
19426.0	6.454425742737408e+17
19427.0	6.435697960069804e+17
19428.0	6.416116740696745e+17
19429.0	6.394825218370217e+17
19430.0	6.375490712851798e+17
19431.0	6.35392351919582e+17
19432.0	6.332819248775165e+17
19433.0	6.306785254178815e+17
19434.0	6.277126726615044e+17
19435.0	6.241996809175036e+17
19436.0	6.205430426501121e+17
19437.0	6.175301835598506e+17
19438.0	6.129341208810839e+17
19439.0	6.102812051461462e+17
19440.0	6.059370729177084e+17
19441.0	6.008366026107561e+17
19442.0	5.953850873741311e+17
19443.0	5.885923158567598e+17
19444.0	5.809675380806991e+17
19445.0	5.737532775989251e+17
19446.0	5.6489980908448403e+17
19447.0	5.536706941244748e+17
19448.0	5.416169631995226e+17
19449.0	5.2574411680645126e+17
19450.0	4.9922791992633683e+17
19451.0	4.895372152755542e+17
19452.0	5.1377576737068397e+17
19453.0	5.342290412655964e+17
19454.0	5.475154102583291e+17
19455.0	5.5880882795315174e+17
19456.0	5.688601945833471e+17
19457.0	5.7621309750422163e+17
19458.0	5.828898182223196e+17
19459.0	5.90664570608026e+17
19460.0	5.963911359976787e+17
19461.0	6.013768312029183e+17
19462.0	6.05933096787422e+17
19463.0	6.096659213014354e+17
19464.0	6.130702752590505e+17
19465.0	6.160624436379647e+17
19466.0	6.190177126274386e+17
19467.0	6.225481990930426e+17
19468.0	6.254697990761132e+17
19469.0	6.279721749490348e+17
19470.0	6.301832474613076e+17
19471.0	6.320767992070144e+17
19472.0	6.337419425786538e+17
19473.0	6.355246983588525e+17
19474.0	6.37308140327185e+17
19475.0	6.389820941139965e+17
19476.0	6.404949883748351e+17
19477.0	6.417617583603713e+17
19478.0	6.427852626285911e+17
19479.0	6.4348354524829e+17
19480.0	6.44177612173039e+17
19481.0	6.448327944743593e+17
19482.0	6.45548148330769e+17
19483.0	6.461754712959656e+17
19484.0	6.469122821630634e+17
19485.0	6.477351512702975e+17
19486.0	6.4866636805789e+17
19487.0	6.493866750377984e+17
19488.0	6.501147044304212e+17
19489.0	6.50763951791582e+17
19490.0	6.512671773250899e+17
19491.0	6.518656564112041e+17
19492.0	6.523804677308413e+17
19493.0	6.528522556975785e+17
19494.0	6.533048654888959e+17
19495.0	6.537593639753044e+17
19496.0	6.540582897844223e+17
19497.0	6.543900767769939e+17
19498.0	6.545857778985644e+17
19499.0	6.532109481017327e+17
19500.0	6.550972808211114e+17
19501.0	6.55347838545647e+17
19502.0	6.556215185593684e+17
19503.0	6.557889314073257e+17
19504.0	6.559932012822527e+17
19505.0	6.561487408944468e+17
19506.0	6.562674204038484e+17
19507.0	6.564035658339667e+17
19508.0	6.564761732907005e+17
19509.0	6.565214313687721e+17
19510.0	6.565988725511508e+17
19511.0	6.552292103465632e+17
19512.0	6.564119621315236e+17
19513.0	6.562275274697377e+17
19514.0	6.564556495825572e+17
19515.0	6.567467667161088e+17
19516.0	6.568541324399958e+17
19517.0	6.570070984971604e+17
19518.0	6.570628877735252e+17
19519.0	6.569998278808916e+17
19520.0	6.569903559540735e+17
19521.0	6.571042315872937e+17
19522.0	6.571250683303252e+17
19523.0	6.571398720563882e+17
19524.0	6.571245424345087e+17
19525.0	6.571030188741971e+17
19526.0	6.571582867985748e+17
19527.0	6.571251617933994e+17
19528.0	6.570891148263424e+17
19529.0	6.570537116150441e+17
19530.0	6.570107182514176e+17
19531.0	6.570459119572307e+17
19532.0	6.570422903155369e+17
19533.0	6.569505747981652e+17
19534.0	6.569017533792255e+17
19535.0	6.568503366647807e+17
19536.0	6.5679552689821e+17
19537.0	6.567707684809385e+17
19538.0	6.56729968738304e+17
19539.0	6.566728687419391e+17
19540.0	6.566708076609535e+17
19541.0	6.566034551777961e+17
19542.0	6.565463171530751e+17
19543.0	6.564796651885908e+17
19544.0	6.564075128138409e+17
19545.0	6.56301314085137e+17
19546.0	6.562210862770857e+17
19547.0	6.561757322193578e+17
19548.0	6.560986596463956e+17
19549.0	6.560183849320447e+17
19550.0	6.559402648316585e+17
19551.0	6.55859019555362e+17
19552.0	6.557893633507327e+17
19553.0	6.557419988931926e+17
19554.0	6.556553510737236e+17
19555.0	6.555697056929108e+17
19556.0	6.554826571076948e+17
19557.0	6.553943254149801e+17
19558.0	6.553051120795647e+17
19559.0	6.552269510847145e+17
19560.0	6.551366767301972e+17
19561.0	6.550451619102719e+17
19562.0	6.549523430812329e+17
19563.0	6.548585617293311e+17
19564.0	6.547641292117334e+17
19565.0	6.546688673404244e+17
19566.0	6.545725169074176e+17
19567.0	6.544760469367465e+17
19568.0	6.543783971782655e+17
19569.0	6.542805034511018e+17
19570.0	6.541819174540627e+17
19571.0	6.540653926984361e+17
19572.0	6.539500828229631e+17
19573.0	6.538498523092308e+17
19574.0	6.537474522917546e+17
19575.0	6.536475775249065e+17
19576.0	6.535452155357865e+17
19577.0	6.534481756990121e+17
19578.0	6.533756059910143e+17
19579.0	6.53272339640047e+17
19580.0	6.5316845532829e+17
19581.0	6.530641617922729e+17
19582.0	6.529596358918143e+17
19583.0	6.528544181409107e+17
19584.0	6.527574939970217e+17
19585.0	6.52650629772083e+17
19586.0	6.525418867785727e+17
19587.0	6.524447115356842e+17
19588.0	6.523397246113107e+17
19589.0	6.522362157596671e+17
19590.0	6.521312523933012e+17
19591.0	6.520251605494442e+17
19592.0	6.519169740002644e+17
19593.0	6.518082466654889e+17
19594.0	6.51693401309184e+17
19595.0	6.515900588315988e+17
19596.0	6.512433802422956e+17
19597.0	6.513691954511872e+17
19598.0	6.512572525532499e+17
19599.0	6.511515839146666e+17
19600.0	6.510412895879167e+17
19601.0	6.509297210316116e+17
19602.0	6.508193858103977e+17
19603.0	6.50683798991667e+17
19604.0	6.505959095883091e+17
19605.0	6.504814949870249e+17
19606.0	6.503749017141247e+17
19607.0	6.502633459504468e+17
19608.0	6.501513985785855e+17
19609.0	6.500373913840298e+17
19610.0	6.499234584985599e+17
19611.0	6.498109722984447e+17
19612.0	6.496985049726975e+17
19613.0	6.495856773562367e+17
19614.0	6.494722377908221e+17
19615.0	6.493598746935296e+17
19616.0	6.492374616244223e+17
19617.0	6.491336409262761e+17
19618.0	6.490117874472276e+17
19619.0	6.488956865260202e+17
19620.0	6.487826261256873e+17
19621.0	6.486793946573482e+17
19622.0	6.485655451686228e+17
19623.0	6.484515976030889e+17
19624.0	6.483375378399232e+17
19625.0	6.482231511307604e+17
19626.0	6.481090471875923e+17
19627.0	6.479946490139987e+17
19628.0	6.4785312396957e+17
19629.0	6.477639357300735e+17
19630.0	6.476197953972906e+17
19631.0	6.462944516068689e+17
19632.0	6.474216499751593e+17
19633.0	6.473120397393919e+17
19634.0	6.471973751575892e+17
19635.0	6.470816924783956e+17
19636.0	6.46967301644834e+17
19637.0	6.46845319680273e+17
19638.0	6.467368606411434e+17
19639.0	6.466208667445929e+17
19640.0	6.465053064691711e+17
19641.0	6.463811597544105e+17
19642.0	6.462755266975059e+17
19643.0	6.461596625447593e+17
19644.0	6.46043378262562e+17
19645.0	6.459244159172607e+17
19646.0	6.458130945452713e+17
19647.0	6.456973530759167e+17
19648.0	6.455815751161172e+17
19649.0	6.454657067690666e+17
19650.0	6.453498929479679e+17
19651.0	6.452339904173395e+17
19652.0	6.451180350384809e+17
19653.0	6.450014842781695e+17
19654.0	6.448860389266772e+17
19655.0	6.447699020043603e+17
19656.0	6.446537528486569e+17
19657.0	6.445377274249215e+17
19658.0	6.444214908878847e+17
19659.0	6.443053706029738e+17
19660.0	6.441891683194196e+17
19661.0	6.440729279376042e+17
19662.0	6.439566470807551e+17
19663.0	6.438393142924627e+17
19664.0	6.437193124588201e+17
19665.0	6.436076691739988e+17
