# Flux units: erg / (cm m2 s)
# Wavelength units: Angstrom
wave	flux
19000.0	5.312894595323221e+17
19001.0	5.311840343031807e+17
19002.0	5.310920739083605e+17
19003.0	5.3099255768459936e+17
19004.0	5.308735718511957e+17
19005.0	5.3076055402304845e+17
19006.0	5.306623553000789e+17
19007.0	5.3054552422045005e+17
19008.0	5.3046109267121485e+17
19009.0	5.303563449619796e+17
19010.0	5.3023831438131194e+17
19011.0	5.301595405287423e+17
19012.0	5.300128019644415e+17
19013.0	5.2997142837111456e+17
19014.0	5.298692951812777e+17
19015.0	5.297719137184426e+17
19016.0	5.2967221469293216e+17
19017.0	5.2957674184813216e+17
19018.0	5.294752535325353e+17
19019.0	5.293798062729897e+17
19020.0	5.2928014310877856e+17
19021.0	5.291830529403562e+17
19022.0	5.2908504967195296e+17
19023.0	5.289840578920446e+17
19024.0	5.2888642700793165e+17
19025.0	5.2878408759814816e+17
19026.0	5.286840377191081e+17
19027.0	5.285410446682793e+17
19028.0	5.2849460323723936e+17
19029.0	5.2839555698524154e+17
19030.0	5.282983950243156e+17
19031.0	5.282004624299349e+17
19032.0	5.2810178422811296e+17
19033.0	5.279976744026111e+17
19034.0	5.27904684445969e+17
19035.0	5.2778435657509523e+17
19036.0	5.239579374955183e+17
19037.0	5.275108240610645e+17
19038.0	5.2740864291635194e+17
19039.0	5.2731216938052256e+17
19040.0	5.272140705518931e+17
19041.0	5.27115543974161e+17
19042.0	5.270091623038974e+17
19043.0	5.269199419080703e+17
19044.0	5.268206055500457e+17
19045.0	5.2672216425649485e+17
19046.0	5.266222215419221e+17
19047.0	5.265251032017578e+17
19048.0	5.2641554644336634e+17
19049.0	5.2632349209613645e+17
19050.0	5.262324639552853e+17
19051.0	5.2569162648999226e+17
19052.0	5.258924205451943e+17
19053.0	5.2593733524957856e+17
19054.0	5.258433476078249e+17
19055.0	5.257283315433472e+17
19056.0	5.2564604342326605e+17
19057.0	5.255492889389738e+17
19058.0	5.2544474437386234e+17
19059.0	5.253532571664382e+17
19060.0	5.252550475382783e+17
19061.0	5.2515925522732365e+17
19062.0	5.250611522043904e+17
19063.0	5.249635267029673e+17
19064.0	5.248579583781546e+17
19065.0	5.2475679665902925e+17
19066.0	5.246660613505024e+17
19067.0	5.245724899235156e+17
19068.0	5.2447529335958176e+17
19069.0	5.2437761403125754e+17
19070.0	5.2427850472488954e+17
19071.0	5.241810274222079e+17
19072.0	5.2408309587640314e+17
19073.0	5.2398706197353805e+17
19074.0	5.238898842140671e+17
19075.0	5.237923641993898e+17
19076.0	5.236935855439872e+17
19077.0	5.2359601463842125e+17
19078.0	5.234976254241449e+17
19079.0	5.2340218033165645e+17
19080.0	5.2330368444224845e+17
19081.0	5.232050918741332e+17
19082.0	5.2310735033029965e+17
19083.0	5.230058481734996e+17
19084.0	5.22900572611106e+17
19085.0	5.228177484589738e+17
19086.0	5.226937679085567e+17
19087.0	5.2252335012140365e+17
19088.0	5.225129700578645e+17
19089.0	5.22366399475439e+17
19090.0	5.223285712573781e+17
19091.0	5.222316247438676e+17
19092.0	5.221085796630526e+17
19093.0	5.220400129288873e+17
19094.0	5.219427500949503e+17
19095.0	5.218455366139904e+17
19096.0	5.217469251715071e+17
19097.0	5.2165113411884365e+17
19098.0	5.215531823704747e+17
19099.0	5.2145569094696954e+17
19100.0	5.213545967561385e+17
19101.0	5.2126067146970445e+17
19102.0	5.211590148227072e+17
19103.0	5.2106931187220474e+17
19104.0	5.209723160057172e+17
19105.0	5.208725779032745e+17
19106.0	5.207593226076159e+17
19107.0	5.2067949661388794e+17
19108.0	5.2058331912601594e+17
19109.0	5.2021834631086054e+17
19110.0	5.203704328224766e+17
19111.0	5.2029199283650554e+17
19112.0	5.2019580101809485e+17
19113.0	5.2010001891327994e+17
19114.0	5.2000257900980896e+17
19115.0	5.1989578154420896e+17
19116.0	5.19808369173026e+17
19117.0	5.1971118575124474e+17
19118.0	5.195902081127766e+17
19119.0	5.19125194855765e+17
19120.0	5.193940430312789e+17
19121.0	5.193033603612671e+17
19122.0	5.192296869920767e+17
19123.0	5.191329837481983e+17
19124.0	5.1902168586431123e+17
19125.0	5.1893543545514656e+17
19126.0	5.188415281343145e+17
19127.0	5.186219247228244e+17
19128.0	5.1853461056826016e+17
19129.0	5.18548555300864e+17
19130.0	5.184551638095189e+17
19131.0	5.183567133584042e+17
19132.0	5.18263648813056e+17
19133.0	5.1813502901288954e+17
19134.0	5.1802307975359136e+17
19135.0	5.17973248975394e+17
19136.0	5.17878365360401e+17
19137.0	5.1777114671677434e+17
19138.0	5.1767911187305805e+17
19139.0	5.1758908861754016e+17
19140.0	5.1749299466622285e+17
19141.0	5.173965863518207e+17
19142.0	5.1729790115949216e+17
19143.0	5.172004412631722e+17
19144.0	5.171050869074602e+17
19145.0	5.170103561748479e+17
19146.0	5.1687505813394765e+17
19147.0	5.1680939917093536e+17
19148.0	5.167202544822954e+17
19149.0	5.1662433564317005e+17
19150.0	5.1653000057323514e+17
19151.0	5.164340753028436e+17
19152.0	5.1633461954696525e+17
19153.0	5.162393679517013e+17
19154.0	5.161369670953641e+17
19155.0	5.1604900303339514e+17
19156.0	5.1595381134677325e+17
19157.0	5.158520970280959e+17
19158.0	5.1557151913192083e+17
19159.0	5.1566432761501005e+17
19160.0	5.155654141826389e+17
19161.0	5.1546507028288845e+17
19162.0	5.1496090508547437e+17
19163.0	5.1525161530163194e+17
19164.0	5.151859837414058e+17
19165.0	5.1507944869942605e+17
19166.0	5.149748536628564e+17
19167.0	5.1485853135230285e+17
19168.0	5.1479789115364685e+17
19169.0	5.146972953160361e+17
19170.0	5.1461062114235725e+17
19171.0	5.1448866343485434e+17
19172.0	5.144165328704853e+17
19173.0	5.1432186239604045e+17
19174.0	5.1422420306056525e+17
19175.0	5.1413223826172576e+17
19176.0	5.1403677506382496e+17
19177.0	5.139307810171562e+17
19178.0	5.1383204011048954e+17
19179.0	5.137147614287189e+17
19180.0	5.136445996706474e+17
19181.0	5.135504766227796e+17
19182.0	5.134590530289664e+17
19183.0	5.1336573759433376e+17
19184.0	5.1326821771946656e+17
19185.0	5.1317551528236365e+17
19186.0	5.1308034617507834e+17
19187.0	5.129796247879679e+17
19188.0	5.1288734842224634e+17
19189.0	5.1278850063073274e+17
19190.0	5.1269119704214176e+17
19191.0	5.1259637179787936e+17
19192.0	5.12506816696593e+17
19193.0	5.1240836806301005e+17
19194.0	5.1231327759892474e+17
19195.0	5.122203060972202e+17
19196.0	5.1212472601804794e+17
19197.0	5.1202898312997536e+17
19198.0	5.119319200847188e+17
19199.0	5.094417399196322e+17
19200.0	5.099667218672308e+17
19201.0	5.116464846252715e+17
19202.0	5.1155296066382496e+17
19203.0	5.1145107752441165e+17
19204.0	5.11360285802496e+17
19205.0	5.1126687222114976e+17
19206.0	5.1117117078678176e+17
19207.0	5.1106881152395936e+17
19208.0	5.109684188304726e+17
19209.0	5.1088564920429216e+17
19210.0	5.107912162672639e+17
19211.0	5.106965951457963e+17
19212.0	5.1060140898167443e+17
19213.0	5.1048019422522003e+17
19214.0	5.1037090702076576e+17
19215.0	5.103050310025214e+17
19216.0	5.1022052094989645e+17
19217.0	5.1012569109189965e+17
19218.0	5.099721695690751e+17
19219.0	5.0992526872193696e+17
19220.0	5.098372233603754e+17
19221.0	5.0972365328220154e+17
19222.0	5.096479470736725e+17
19223.0	5.0955368512443725e+17
19224.0	5.0945650100360525e+17
19225.0	5.0935458969245005e+17
19226.0	5.09268659937826e+17
19227.0	5.091735127108266e+17
19228.0	5.0907997525770234e+17
19229.0	5.089850043312809e+17
19230.0	5.088859045320019e+17
19231.0	5.0879128508825594e+17
19232.0	5.086984965281109e+17
19233.0	5.0859994107958605e+17
19234.0	5.085086096905557e+17
19235.0	5.0841383533718176e+17
19236.0	5.0832020847547725e+17
19237.0	5.082241621295102e+17
19238.0	5.081204460093439e+17
19239.0	5.0803523648662176e+17
19240.0	5.079364655207764e+17
19241.0	5.078426550184619e+17
19242.0	5.077489391676074e+17
19243.0	5.076457500617385e+17
19244.0	5.075609949219497e+17
19245.0	5.074661935153151e+17
19246.0	5.0737028858729805e+17
19247.0	5.072762759894357e+17
19248.0	5.071808310367572e+17
19249.0	5.070850132104532e+17
19250.0	5.0698993302241274e+17
19251.0	5.068864141044394e+17
19252.0	5.067855455671636e+17
19253.0	5.0670554711763616e+17
19254.0	5.066114180579327e+17
19255.0	5.065068476978515e+17
19256.0	5.0641601585042765e+17
19257.0	5.0632714232354125e+17
19258.0	5.062328451421524e+17
19259.0	5.0613362978979834e+17
19260.0	5.059722912727039e+17
19261.0	5.0594720681820154e+17
19262.0	5.05849571110639e+17
19263.0	5.05752352456704e+17
19264.0	5.056266913884842e+17
19265.0	5.055538761039872e+17
19266.0	5.0545879696452256e+17
19267.0	5.053789976745301e+17
19268.0	5.0528409497545376e+17
19269.0	5.051891847266303e+17
19270.0	5.0509358178850125e+17
19271.0	5.0497617783685114e+17
19272.0	5.0490196011690656e+17
19273.0	5.046748119913812e+17
19274.0	5.046232746906963e+17
19275.0	5.0461948674484896e+17
19276.0	5.045231795830783e+17
19277.0	5.044285360919892e+17
19278.0	5.0433352545949005e+17
19279.0	5.042339952547156e+17
19280.0	5.041386995493546e+17
19281.0	5.0404800925969056e+17
19282.0	5.039541692574378e+17
19283.0	5.0381805521469434e+17
19284.0	5.0372659366242976e+17
19285.0	5.036564152669524e+17
19286.0	5.035713965151573e+17
19287.0	5.0347838446851405e+17
19288.0	5.0211153209808064e+17
19289.0	5.010390366115139e+17
19290.0	5.031928577130494e+17
19291.0	5.030810462366378e+17
19292.0	5.0300207937617914e+17
19293.0	5.029066122635946e+17
19294.0	5.028111222920531e+17
19295.0	5.027164546138111e+17
19296.0	5.0261964008106656e+17
19297.0	5.0252249629545805e+17
19298.0	5.024283083057834e+17
19299.0	5.023330917329577e+17
19300.0	5.02238280749329e+17
19301.0	5.021428496378538e+17
19302.0	5.020458625094996e+17
19303.0	5.0194598277939194e+17
19304.0	5.018531066981035e+17
19305.0	5.017585443667968e+17
19306.0	5.016617888339285e+17
19307.0	5.0156179152349856e+17
19308.0	5.014674448493226e+17
19309.0	5.0128028577737376e+17
19310.0	5.011627316696403e+17
19311.0	5.011663273066496e+17
19312.0	5.0108676751141536e+17
19313.0	5.0099042378929485e+17
19314.0	4.967232441068241e+17
19315.0	4.967955129434121e+17
19316.0	5.0069099969686176e+17
19317.0	5.006049299223892e+17
19318.0	5.005080604442623e+17
19319.0	5.00412292530176e+17
19320.0	5.003146832467285e+17
19321.0	5.002175372241578e+17
19322.0	5.0010708113708365e+17
19323.0	4.9998707517904205e+17
19324.0	4.999247872480596e+17
19325.0	4.9974059669476685e+17
19326.0	4.9973146226961056e+17
19327.0	4.996336596287487e+17
19328.0	4.9953473606014285e+17
19329.0	4.9943942770196474e+17
19330.0	4.9933901445638816e+17
19331.0	4.992403100401664e+17
19332.0	4.991436495082836e+17
19333.0	4.990451420146345e+17
19334.0	4.989476566728704e+17
19335.0	4.988450954543102e+17
19336.0	4.987488011550719e+17
19337.0	4.9865122046279674e+17
19338.0	4.985380963789481e+17
19339.0	4.9845208322757965e+17
19340.0	4.9834624395072845e+17
19341.0	4.9824752974779725e+17
19342.0	4.981232007206228e+17
19343.0	4.9805301624340474e+17
19344.0	4.979512506144085e+17
19345.0	4.9772601348369056e+17
19346.0	4.9767644002604365e+17
19347.0	4.9764341442587296e+17
19348.0	4.975492067229696e+17
19349.0	4.9744427837904205e+17
19350.0	4.9734191604039674e+17
19351.0	4.9724139332348576e+17
19352.0	4.97133574754577e+17
19353.0	4.970376570339327e+17
19354.0	4.9693476963833165e+17
19355.0	4.9682482672435194e+17
19356.0	4.9672725365172896e+17
19357.0	4.9662306804913485e+17
19358.0	4.9651557558736205e+17
19359.0	4.9640519681529165e+17
19360.0	4.963029801588053e+17
19361.0	4.96108626177775e+17
19362.0	4.95974312260403e+17
19363.0	4.9586717932038816e+17
19364.0	4.957595685093375e+17
19365.0	4.956519100929364e+17
19366.0	4.955434201557674e+17
19367.0	4.9543438999224314e+17
19368.0	4.9532478667707725e+17
19369.0	4.95207088984337e+17
19370.0	4.950875538369194e+17
19371.0	4.94988543795746e+17
19372.0	4.948793877331966e+17
19373.0	4.9476430148403194e+17
19374.0	4.9465250035357e+17
19375.0	4.945372278074025e+17
19376.0	4.944223231016959e+17
19377.0	4.943056299447636e+17
19378.0	4.9418839404489376e+17
19379.0	4.9407004861180576e+17
19380.0	4.9395061335872845e+17
19381.0	4.938300924100607e+17
19382.0	4.9370363344541e+17
19383.0	4.935776480875861e+17
19384.0	4.934606622381396e+17
19385.0	4.9333586771312634e+17
19386.0	4.931759051374591e+17
19387.0	4.929245931372543e+17
19388.0	4.9279487540811085e+17
19389.0	4.9266304123316896e+17
19390.0	4.925286122520575e+17
19391.0	4.8914889207097715e+17
19392.0	4.920132741977424e+17
19393.0	4.9211745763327994e+17
19394.0	4.919737361017515e+17
19395.0	4.9182463621420365e+17
19396.0	4.9167801096601594e+17
19397.0	4.913628641755134e+17
19398.0	4.9118665384482125e+17
19399.0	4.9098672178899616e+17
19400.0	4.90866914361344e+17
19401.0	4.907139651513002e+17
19402.0	4.9054903742846285e+17
19403.0	4.90160400559855e+17
19404.0	4.899688164971861e+17
19405.0	4.897883408389462e+17
19406.0	4.8960462123608736e+17
19407.0	4.8916066590173894e+17
19408.0	4.888835226512042e+17
19409.0	4.887298086797311e+17
19410.0	4.88216384626142e+17
19411.0	4.8797374903309645e+17
19412.0	4.875085673747796e+17
19413.0	4.8712417793802234e+17
19414.0	4.865409879288492e+17
19415.0	4.860732987757909e+17
19416.0	4.8537580398619296e+17
19417.0	4.847507261620222e+17
19418.0	4.8443220016059725e+17
19419.0	4.8408859725441696e+17
19420.0	4.837353059254271e+17
19421.0	4.833596115604821e+17
19422.0	4.8296614313328634e+17
19423.0	4.8255128186825363e+17
19424.0	4.820607078935209e+17
19425.0	4.81520874754321e+17
19426.0	4.8102390698257056e+17
19427.0	4.804755814263467e+17
19428.0	4.797671303457449e+17
19429.0	4.7913674784549523e+17
19430.0	4.781787121188865e+17
19431.0	4.7685019631616026e+17
19432.0	4.763520394592254e+17
19433.0	4.749551178437973e+17
19434.0	4.732064773439483e+17
19435.0	4.705871251286693e+17
19436.0	4.672667396691289e+17
19437.0	4.656175207415806e+17
19438.0	4.5870751024851846e+17
19439.0	4.6109008100065235e+17
19440.0	4.5939620056487245e+17
19441.0	4.569972116990633e+17
19442.0	4.543560783233024e+17
19443.0	4.5158068157153254e+17
19444.0	4.483018267820031e+17
19445.0	4.4328815612832474e+17
19446.0	4.34102742356241e+17
19447.0	4.266408840702631e+17
19448.0	4.173152858931207e+17
19449.0	3.972962854808226e+17
19450.0	3.482126326781245e+17
19451.0	3.3303555637684794e+17
19452.0	3.762082198934884e+17
19453.0	4.092436703870972e+17
19454.0	4.2217377736512806e+17
19455.0	4.298488733674153e+17
19456.0	4.382041982369805e+17
19457.0	4.4533070353312346e+17
19458.0	4.395091845535116e+17
19459.0	4.504310559801377e+17
19460.0	4.542797152168617e+17
19461.0	4.5664840205380256e+17
19462.0	4.588080739297962e+17
19463.0	4.607906716581887e+17
19464.0	4.6258392752892576e+17
19465.0	4.642011237143893e+17
19466.0	4.6650516786817664e+17
19467.0	4.69403117848713e+17
19468.0	4.713010178293757e+17
19469.0	4.726083875591513e+17
19470.0	4.7366675655994016e+17
19471.0	4.7448052046233606e+17
19472.0	4.751127709657769e+17
19473.0	4.7568897550144845e+17
19474.0	4.76152404639744e+17
19475.0	4.765633247969279e+17
19476.0	4.7694643643897165e+17
19477.0	4.7726013402753696e+17
19478.0	4.7764957690156365e+17
19479.0	4.778951622088021e+17
19480.0	4.7811879054431565e+17
19481.0	4.783219747935573e+17
19482.0	4.785105318270292e+17
19483.0	4.786809388488022e+17
19484.0	4.788324684267519e+17
19485.0	4.7913446146047994e+17
19486.0	4.795201881112577e+17
19487.0	4.799860901412864e+17
19488.0	4.803342493199019e+17
19489.0	4.805368082683221e+17
19490.0	4.8079350114112806e+17
19491.0	4.81019817955601e+17
19492.0	4.811786027007998e+17
19493.0	4.8140413860577274e+17
19494.0	4.814246799299924e+17
19495.0	4.815151988124329e+17
19496.0	4.816877553451006e+17
19497.0	4.8171603460095994e+17
19498.0	4.8080804516986797e+17
19499.0	4.7684790454845466e+17
19500.0	4.8192235821684045e+17
19501.0	4.8190587977509523e+17
19502.0	4.818832203273556e+17
19503.0	4.818626450991785e+17
19504.0	4.8183538121441274e+17
19505.0	4.818078192544426e+17
19506.0	4.8189966136989024e+17
19507.0	4.819255780442111e+17
19508.0	4.818896468399444e+17
19509.0	4.818498703676756e+17
19510.0	4.8178945687115085e+17
19511.0	4.742031816174244e+17
19512.0	4.80630953406191e+17
19513.0	4.8022927630663546e+17
19514.0	4.804396342837235e+17
19515.0	4.8150290237139616e+17
19516.0	4.815168906548564e+17
19517.0	4.814693121480021e+17
19518.0	4.8155731046345376e+17
19519.0	4.814979972726782e+17
19520.0	4.8143954566184954e+17
19521.0	4.8138420636439885e+17
19522.0	4.813218044881577e+17
19523.0	4.812623266709503e+17
19524.0	4.811993616394923e+17
19525.0	4.811364983199061e+17
19526.0	4.8107351853847885e+17
19527.0	4.8100842979109536e+17
19528.0	4.809422178091007e+17
19529.0	4.8087591131545594e+17
19530.0	4.8080932946575354e+17
19531.0	4.8074133581332474e+17
19532.0	4.8067264583652685e+17
19533.0	4.806032986821973e+17
19534.0	4.8053302060209485e+17
19535.0	4.8046206591085216e+17
19536.0	4.8038881952180896e+17
19537.0	4.803198385302185e+17
19538.0	4.802337259039402e+17
19539.0	4.801407829934079e+17
19540.0	4.800997584360789e+17
19541.0	4.8002726247792634e+17
19542.0	4.799531845681151e+17
19543.0	4.79877399786291e+17
19544.0	4.798038937698303e+17
19545.0	4.7969029712773126e+17
19546.0	4.7959547796520954e+17
19547.0	4.7957722994660685e+17
19548.0	4.795001555561129e+17
19549.0	4.794183271317504e+17
19550.0	4.793470295561556e+17
19551.0	4.792698344396117e+17
19552.0	4.7919210979218765e+17
19553.0	4.791121994929492e+17
19554.0	4.7907434645858976e+17
19555.0	4.790678951297023e+17
19556.0	4.789902273150975e+17
19557.0	4.7891103515060896e+17
19558.0	4.7883184906786125e+17
19559.0	4.787520611723945e+17
19560.0	4.7867037745152e+17
19561.0	4.785909875955028e+17
19562.0	4.785121320938153e+17
19563.0	4.784325339206995e+17
19564.0	4.783520973062143e+17
19565.0	4.782714707596627e+17
19566.0	4.781886789735766e+17
19567.0	4.7810945779848525e+17
19568.0	4.7802698666693965e+17
19569.0	4.779466593140736e+17
19570.0	4.7786591357938336e+17
19571.0	4.7778382252168525e+17
19572.0	4.7770090001312416e+17
19573.0	4.7761870395801574e+17
19574.0	4.775334535408298e+17
19575.0	4.77456704278801e+17
19576.0	4.7737476687243936e+17
19577.0	4.7729004353945594e+17
19578.0	4.772067566856874e+17
19579.0	4.771257628579157e+17
19580.0	4.7704298973648205e+17
19581.0	4.769613847287124e+17
19582.0	4.7687969247941965e+17
19583.0	4.767968472858624e+17
19584.0	4.767114857196202e+17
19585.0	4.7662391941748045e+17
19586.0	4.7653662525576525e+17
19587.0	4.764490200165034e+17
19588.0	4.763481358204928e+17
19589.0	4.762952392157866e+17
19590.0	4.762065149362176e+17
19591.0	4.761307938379092e+17
19592.0	4.7604772138298016e+17
19593.0	4.759628015468543e+17
19594.0	4.758644393858389e+17
19595.0	4.7579206156724896e+17
19596.0	4.754901144611498e+17
19597.0	4.756050773977771e+17
19598.0	4.7551730319796896e+17
19599.0	4.7546149931144525e+17
19600.0	4.7537830829752314e+17
19601.0	4.752897890495146e+17
19602.0	4.7520487221930656e+17
19603.0	4.750621807389353e+17
19604.0	4.750293993171625e+17
19605.0	4.749393703993342e+17
19606.0	4.748738668352851e+17
19607.0	4.747900678569983e+17
19608.0	4.74704468124194e+17
19609.0	4.746182683962026e+17
19610.0	4.7453637209402016e+17
19611.0	4.744514867909972e+17
19612.0	4.743688188067839e+17
19613.0	4.7428380732511565e+17
19614.0	4.741976027736746e+17
19615.0	4.7411286643834874e+17
19616.0	4.740026464905898e+17
19617.0	4.7394534411905696e+17
19618.0	4.7382048891644576e+17
19619.0	4.737282577793023e+17
19620.0	4.736474951275861e+17
19621.0	4.7360776178674336e+17
19622.0	4.735248427734357e+17
19623.0	4.7344035592929274e+17
19624.0	4.7335521225714336e+17
19625.0	4.7327100132829856e+17
19626.0	4.7318667002292896e+17
19627.0	4.731005259393706e+17
19628.0	4.729553713539755e+17
19629.0	4.7292259091087354e+17
19630.0	4.724833377408337e+17
19631.0	4.701573385027591e+17
19632.0	4.7267777742547616e+17
19633.0	4.7258805462193485e+17
19634.0	4.725097709436927e+17
19635.0	4.7242240142431565e+17
19636.0	4.723385653963434e+17
19637.0	4.7223151424525645e+17
19638.0	4.7217015989643936e+17
19639.0	4.7208461280215034e+17
19640.0	4.719874933435051e+17
19641.0	4.7185678736643405e+17
19642.0	4.718326695591936e+17
19643.0	4.7174663683440634e+17
19644.0	4.716585958768639e+17
19645.0	4.7156026020986874e+17
19646.0	4.714924733366272e+17
19647.0	4.7140954013259085e+17
19648.0	4.7132514248731296e+17
19649.0	4.712403075858432e+17
19650.0	4.711558496124928e+17
19651.0	4.7107084050759674e+17
19652.0	4.7098633681633274e+17
19653.0	4.7090134204197536e+17
19654.0	4.7081963811853645e+17
