# Flux units: erg / (cm m2 s)
# Wavelength units: Angstrom
wave	flux
19000.0	6.035813959729151e+17
19001.0	6.034667394301951e+17
19002.0	6.033543721385983e+17
19003.0	6.032408598020095e+17
19004.0	6.031273428516863e+17
19005.0	6.030139104165887e+17
19006.0	6.029004496699391e+17
19007.0	6.027864113676287e+17
19008.0	6.026727871130282e+17
19009.0	6.025599018947924e+17
19010.0	6.02441012810001e+17
19011.0	6.02333028426274e+17
19012.0	6.022183916666877e+17
19013.0	6.02106632479266e+17
19014.0	6.019924420635306e+17
19015.0	6.018794235363327e+17
19016.0	6.017659765609812e+17
19017.0	6.016514807999146e+17
19018.0	6.015397883019263e+17
19019.0	6.014267750875135e+17
19020.0	6.013126630353577e+17
19021.0	6.011998757541203e+17
19022.0	6.010871090249728e+17
19023.0	6.009736346468351e+17
19024.0	6.008603590787072e+17
19025.0	6.00747512168448e+17
19026.0	6.006340306599935e+17
19027.0	6.005205944500224e+17
19028.0	6.004081724227581e+17
19029.0	6.002950686113791e+17
19030.0	6.001819968864255e+17
19031.0	6.000689350180863e+17
19032.0	5.99955893072691e+17
19033.0	5.998418394611711e+17
19034.0	5.997298391711744e+17
19035.0	5.996164507762687e+17
19036.0	5.994486922477567e+17
19037.0	5.993909426236074e+17
19038.0	5.992777262650707e+17
19039.0	5.991651008839679e+17
19040.0	5.990522046906367e+17
19041.0	5.989393259036671e+17
19042.0	5.98825531080704e+17
19043.0	5.987136297762815e+17
19044.0	5.986007785319082e+17
19045.0	5.984880025752916e+17
19046.0	5.983746486435839e+17
19047.0	5.98262444720128e+17
19048.0	5.981472926203903e+17
19049.0	5.980362538046804e+17
19050.0	5.979237931199146e+17
19051.0	5.978034414813183e+17
19052.0	5.976985306136576e+17
19053.0	5.975862627969706e+17
19054.0	5.974736550319444e+17
19055.0	5.97358127541999e+17
19056.0	5.972481979099818e+17
19057.0	5.97135786718003e+17
19058.0	5.970231967787689e+17
19059.0	5.969108190713174e+17
19060.0	5.967980231917567e+17
19061.0	5.966858198974463e+17
19062.0	5.965733018905257e+17
19063.0	5.964608887412052e+17
19064.0	5.963471607474858e+17
19065.0	5.962339844445524e+17
19066.0	5.961229480755199e+17
19067.0	5.960113173037055e+17
19068.0	5.958989653912233e+17
19069.0	5.957866598258003e+17
19070.0	5.95674237239296e+17
19071.0	5.955620748394495e+17
19072.0	5.954498124054527e+17
19073.0	5.953375048826879e+17
19074.0	5.952253486344873e+17
19075.0	5.951131500238164e+17
19076.0	5.95000706605602e+17
19077.0	5.948887127468714e+17
19078.0	5.947761033740287e+17
19079.0	5.946645597039274e+17
19080.0	5.945524400859818e+17
19081.0	5.944398597237418e+17
19082.0	5.943275579331924e+17
19083.0	5.942152441189716e+17
19084.0	5.941014910293331e+17
19085.0	5.939923031599786e+17
19086.0	5.938759013673641e+17
19087.0	5.937668893092522e+17
19088.0	5.936557113125546e+17
19089.0	5.935417280255316e+17
19090.0	5.934324044005375e+17
19091.0	5.933205291007999e+17
19092.0	5.932080136104617e+17
19093.0	5.930971462718804e+17
19094.0	5.92984657625088e+17
19095.0	5.928727029131945e+17
19096.0	5.927614947874132e+17
19097.0	5.926500594002602e+17
19098.0	5.925383641759744e+17
19099.0	5.924266324612436e+17
19100.0	5.923149926017705e+17
19101.0	5.922033510645759e+17
19102.0	5.920906846491988e+17
19103.0	5.919801187412649e+17
19104.0	5.918685313105919e+17
19105.0	5.917569659000148e+17
19106.0	5.916451456854697e+17
19107.0	5.915337327378431e+17
19108.0	5.914223984334163e+17
19109.0	5.913055196785321e+17
19110.0	5.91199448666385e+17
19111.0	5.910880303360682e+17
19112.0	5.909766159903401e+17
19113.0	5.908652219170815e+17
19114.0	5.907538504930644e+17
19115.0	5.90642167222545e+17
19116.0	5.905309045009066e+17
19117.0	5.904196963052202e+17
19118.0	5.90307382980335e+17
19119.0	5.90163964277555e+17
19120.0	5.900856558529194e+17
19121.0	5.899745718785363e+17
19122.0	5.898636423943508e+17
19123.0	5.89752311095842e+17
19124.0	5.896410167771135e+17
19125.0	5.89530114695714e+17
19126.0	5.894188057668265e+17
19127.0	5.892887782883327e+17
19128.0	5.891934099516073e+17
19129.0	5.890847569958228e+17
19130.0	5.889719192431274e+17
19131.0	5.888580966678528e+17
19132.0	5.887470914065748e+17
19133.0	5.886292908834816e+17
19134.0	5.88523406168337e+17
19135.0	5.884142962431316e+17
19136.0	5.883034126865748e+17
19137.0	5.881906992949929e+17
19138.0	5.880809212870655e+17
19139.0	5.879708274480468e+17
19140.0	5.878600196685823e+17
19141.0	5.877492269886121e+17
19142.0	5.876381675509076e+17
19143.0	5.875270343633578e+17
19144.0	5.874169283608575e+17
19145.0	5.873062471095636e+17
19146.0	5.871889984869716e+17
19147.0	5.870838982464852e+17
19148.0	5.869741965049855e+17
19149.0	5.8686357649053e+17
19150.0	5.86752854135057e+17
19151.0	5.866423993062739e+17
19152.0	5.8653158160029e+17
19153.0	5.864210157622612e+17
19154.0	5.863093052287657e+17
19155.0	5.862002396932778e+17
19156.0	5.860897206217385e+17
19157.0	5.859792269956438e+17
19158.0	5.858650588796244e+17
19159.0	5.857581657838934e+17
19160.0	5.856476668450132e+17
19161.0	5.855371344216063e+17
19162.0	5.854188043676329e+17
19163.0	5.853168652342611e+17
19164.0	5.852065630781439e+17
19165.0	5.850960960858794e+17
19166.0	5.849846402864468e+17
19167.0	5.848749008661161e+17
19168.0	5.847636852604927e+17
19169.0	5.846542270682452e+17
19170.0	5.845449818767359e+17
19171.0	5.844343544523433e+17
19172.0	5.843246277547348e+17
19173.0	5.842144591871999e+17
19174.0	5.84103702368529e+17
19175.0	5.839942267000148e+17
19176.0	5.838841256607744e+17
19177.0	5.837723448027818e+17
19178.0	5.836639010029567e+17
19179.0	5.835532913344511e+17
19180.0	5.834427710046208e+17
19181.0	5.833326691265194e+17
19182.0	5.832227604660224e+17
19183.0	5.83113822577186e+17
19184.0	5.830024545785171e+17
19185.0	5.828939480039423e+17
19186.0	5.827841170778793e+17
19187.0	5.826734893039615e+17
19188.0	5.825643211478355e+17
19189.0	5.824543422327465e+17
19190.0	5.823444285390848e+17
19191.0	5.822347358852435e+17
19192.0	5.821249666853546e+17
19193.0	5.820144693542911e+17
19194.0	5.819051165788842e+17
19195.0	5.817955735917908e+17
19196.0	5.816858141087062e+17
19197.0	5.815760892985341e+17
19198.0	5.814664632642218e+17
19199.0	5.813056821701289e+17
19200.0	5.812151319702185e+17
19201.0	5.811374425549482e+17
19202.0	5.810278285443071e+17
19203.0	5.80918206145058e+17
19204.0	5.808082914028202e+17
19205.0	5.806989916853587e+17
19206.0	5.80589270999586e+17
19207.0	5.804793038984531e+17
19208.0	5.803677109452799e+17
19209.0	5.802607452181844e+17
19210.0	5.801511983164073e+17
19211.0	5.800416196777299e+17
19212.0	5.79932206993681e+17
19213.0	5.798214565363711e+17
19214.0	5.797117705934164e+17
19215.0	5.796036192763903e+17
19216.0	5.794938787375785e+17
19217.0	5.793848947113983e+17
19218.0	5.792662737125376e+17
19219.0	5.791642502037504e+17
19220.0	5.790564082865492e+17
19221.0	5.789436025503743e+17
19222.0	5.788379426499241e+17
19223.0	5.787285352087551e+17
19224.0	5.786181600018431e+17
19225.0	5.785080616189951e+17
19226.0	5.784005588811776e+17
19227.0	5.78290981011456e+17
19228.0	5.781819567898623e+17
19229.0	5.780726549053439e+17
19230.0	5.779633066737664e+17
19231.0	5.778540937084927e+17
19232.0	5.777441143040681e+17
19233.0	5.776347133640703e+17
19234.0	5.775260000802131e+17
19235.0	5.774167922180095e+17
19236.0	5.773078181183487e+17
19237.0	5.771984055042048e+17
19238.0	5.770882932801535e+17
19239.0	5.769801778943316e+17
19240.0	5.768675152538282e+17
19241.0	5.767606038429696e+17
19242.0	5.76652182622481e+17
19243.0	5.765412987163988e+17
19244.0	5.764341196390399e+17
19245.0	5.763249872044031e+17
19246.0	5.7621563268136954e+17
19247.0	5.7610655812812794e+17
19248.0	5.759974678462463e+17
19249.0	5.758882775302143e+17
19250.0	5.7577904799744e+17
19251.0	5.7566901183010125e+17
19252.0	5.755568059493034e+17
19253.0	5.754514952945663e+17
19254.0	5.753419211997183e+17
19255.0	5.752308403011583e+17
19256.0	5.751239309874516e+17
19257.0	5.7501491697199776e+17
19258.0	5.749056995327999e+17
19259.0	5.7479563372571296e+17
19260.0	5.7468663453013325e+17
19261.0	5.745781873049598e+17
19262.0	5.7446840692026003e+17
19263.0	5.743592124099241e+17
19264.0	5.7424491154418323e+17
19265.0	5.741391562233172e+17
19266.0	5.7403037848698874e+17
19267.0	5.7392289741974176e+17
19268.0	5.738136522981375e+17
19269.0	5.7370439487324154e+17
19270.0	5.735951154282496e+17
19271.0	5.7348218903592954e+17
19272.0	5.7337614130216954e+17
19273.0	5.731758475575294e+17
19274.0	5.731147797495807e+17
19275.0	5.730485569323006e+17
19276.0	5.7293896899624954e+17
19277.0	5.728298197843967e+17
19278.0	5.7272041989297485e+17
19279.0	5.7261078302337683e+17
19280.0	5.725006580066985e+17
19281.0	5.7239206558870176e+17
19282.0	5.7228259026971296e+17
19283.0	5.7217228140270925e+17
19284.0	5.720621845577726e+17
19285.0	5.7194686077119136e+17
19286.0	5.7183225281249274e+17
19287.0	5.71722942259746e+17
19288.0	5.715953910983338e+17
19289.0	5.7145851068634426e+17
19290.0	5.7138783757271034e+17
19291.0	5.712750343531177e+17
19292.0	5.7116825988628474e+17
19293.0	5.71058315014963e+17
19294.0	5.7094852491345914e+17
19295.0	5.7083858458596685e+17
19296.0	5.7072860098723834e+17
19297.0	5.7061854755334816e+17
19298.0	5.705082661590356e+17
19299.0	5.7039834023198714e+17
19300.0	5.702881343351466e+17
19301.0	5.701777843639637e+17
19302.0	5.700674662694911e+17
19303.0	5.699559829973673e+17
19304.0	5.698459391404715e+17
19305.0	5.697361733659307e+17
19306.0	5.6962560396274323e+17
19307.0	5.6951421960628896e+17
19308.0	5.694038116838057e+17
19309.0	5.6929177028962976e+17
19310.0	5.6917988569251834e+17
19311.0	5.690709219388074e+17
19312.0	5.689602353747284e+17
19313.0	5.688476233454932e+17
19314.0	5.6871119214346214e+17
19315.0	5.686022514584235e+17
19316.0	5.685149377931947e+17
19317.0	5.6840344033034234e+17
19318.0	5.682917075670356e+17
19319.0	5.6817987204328096e+17
19320.0	5.6806752733102074e+17
19321.0	5.679557960357204e+17
19322.0	5.678419182354431e+17
19323.0	5.677303392632832e+17
19324.0	5.676186501906432e+17
19325.0	5.675046496370688e+17
19326.0	5.6739313651548154e+17
19327.0	5.6727994168770554e+17
19328.0	5.671669553168383e+17
19329.0	5.6705359977731405e+17
19330.0	5.66939571261713e+17
19331.0	5.668258098533716e+17
19332.0	5.6670964804485114e+17
19333.0	5.665947709516458e+17
19334.0	5.664799324460372e+17
19335.0	5.663658977787903e+17
19336.0	5.662517769185961e+17
19337.0	5.661366197856938e+17
19338.0	5.6601895341042336e+17
19339.0	5.6590576256723616e+17
19340.0	5.657891586091691e+17
19341.0	5.656735761039358e+17
19342.0	5.655527754650963e+17
19343.0	5.654403483347626e+17
19344.0	5.653232027522389e+17
19345.0	5.651811337764862e+17
19346.0	5.650819029052074e+17
19347.0	5.649687802893653e+17
19348.0	5.6485096886108154e+17
19349.0	5.647316265118379e+17
19350.0	5.6461212757524474e+17
19351.0	5.644921580377428e+17
19352.0	5.643642769943209e+17
19353.0	5.6422649208067405e+17
19354.0	5.641000168980479e+17
19355.0	5.639771417564501e+17
19356.0	5.6385555964887034e+17
19357.0	5.6373240782301856e+17
19358.0	5.636080526513492e+17
19359.0	5.6347955231894176e+17
19360.0	5.633589079179263e+17
19361.0	5.6323297743557965e+17
19362.0	5.631070976344063e+17
19363.0	5.629797626194602e+17
19364.0	5.628515328895657e+17
19365.0	5.6272264115869005e+17
19366.0	5.6259275307089914e+17
19367.0	5.6246189840575136e+17
19368.0	5.6233004283985914e+17
19369.0	5.621955530413396e+17
19370.0	5.620521583859027e+17
19371.0	5.6192720133160954e+17
19372.0	5.6178177754180256e+17
19373.0	5.616353332778324e+17
19374.0	5.6149624666193914e+17
19375.0	5.6135566393780896e+17
19376.0	5.612136150947156e+17
19377.0	5.610698853143892e+17
19378.0	5.609245243692372e+17
19379.0	5.60777324990737e+17
19380.0	5.6062821818258765e+17
19381.0	5.604770895101951e+17
19382.0	5.603201820655615e+17
19383.0	5.6014460556410874e+17
19384.0	5.599879965442047e+17
19385.0	5.5982752478003194e+17
19386.0	5.5966445163861325e+17
19387.0	5.594984588421802e+17
19388.0	5.593294159478783e+17
19389.0	5.591448533598206e+17
19390.0	5.5895441769758714e+17
19391.0	5.587254372204542e+17
19392.0	5.585918176701097e+17
19393.0	5.584044814587221e+17
19394.0	5.581724928966656e+17
19395.0	5.579589497651198e+17
19396.0	5.5775729056481274e+17
19397.0	5.5754721276723194e+17
19398.0	5.573000251659604e+17
19399.0	5.570733579872938e+17
19400.0	5.568451236768426e+17
19401.0	5.5658017620404896e+17
19402.0	5.5634006718982816e+17
19403.0	5.560491882927445e+17
19404.0	5.557856735941972e+17
19405.0	5.5543554463061325e+17
19406.0	5.551451125667158e+17
19407.0	5.5482874830957216e+17
19408.0	5.5451489224622074e+17
19409.0	5.542105500527275e+17
19410.0	5.5386795329017165e+17
19411.0	5.534997045837823e+17
19412.0	5.5314382795571194e+17
19413.0	5.5277017992178336e+17
19414.0	5.52328897896994e+17
19415.0	5.5190506166026234e+17
19416.0	5.5144616537620474e+17
19417.0	5.5093442337832954e+17
19418.0	5.5041958290827936e+17
19419.0	5.498446544196949e+17
19420.0	5.4921896604467194e+17
19421.0	5.48552687362594e+17
19422.0	5.477976065267027e+17
19423.0	5.4698396062405965e+17
19424.0	5.460841917491884e+17
19425.0	5.4505943450255366e+17
19426.0	5.439217028388179e+17
19427.0	5.428069486209706e+17
19428.0	5.418492245311487e+17
19429.0	5.407903086630228e+17
19430.0	5.3964263817652896e+17
19431.0	5.383975954546688e+17
19432.0	5.3705211592922426e+17
19433.0	5.3553210896766304e+17
19434.0	5.3382854688986445e+17
19435.0	5.319016515458387e+17
19436.0	5.296365141753856e+17
19437.0	5.2689522312697146e+17
19438.0	5.233641846909608e+17
19439.0	5.203647153569792e+17
19440.0	5.174206745892182e+17
19441.0	5.141025742564008e+17
19442.0	5.1026553603795654e+17
19443.0	5.055866390009172e+17
19444.0	4.994208653901816e+17
19445.0	4.926126544999767e+17
19446.0	4.856938211486377e+17
19447.0	4.7661411026862035e+17
19448.0	4.6528613745076954e+17
19449.0	4.495976487540052e+17
19450.0	4.1832360936734605e+17
19451.0	4.085345797450403e+17
19452.0	4.353699066762585e+17
19453.0	4.5855472783196224e+17
19454.0	4.707487764709371e+17
19455.0	4.8101339556741114e+17
19456.0	4.885742872428545e+17
19457.0	4.94941991425365e+17
19458.0	5.015621247609513e+17
19459.0	5.066954169647108e+17
19460.0	5.1068943120465914e+17
19461.0	5.140305305840296e+17
19462.0	5.169465871652182e+17
19463.0	5.196055974335827e+17
19464.0	5.228568805463386e+17
19465.0	5.257514206975318e+17
19466.0	5.280042647027711e+17
19467.0	5.2986665871168864e+17
19468.0	5.3147382554733216e+17
19469.0	5.328418160421547e+17
19470.0	5.340705039144278e+17
19471.0	5.351852008800255e+17
19472.0	5.3613718338710176e+17
19473.0	5.370522049183743e+17
19474.0	5.3784156090750285e+17
19475.0	5.386126900592638e+17
19476.0	5.396029754398034e+17
19477.0	5.404408901446312e+17
19478.0	5.411864276107262e+17
19479.0	5.4184025759853235e+17
19480.0	5.4239614702277965e+17
19481.0	5.429168457471317e+17
19482.0	5.43343127962146e+17
19483.0	5.437054457828692e+17
19484.0	5.4407169149938336e+17
19485.0	5.4434668705655456e+17
19486.0	5.446438207793834e+17
19487.0	5.448596291147091e+17
19488.0	5.4508491175362554e+17
19489.0	5.452843906149034e+17
19490.0	5.454237307764735e+17
19491.0	5.455777730221396e+17
19492.0	5.457410098113193e+17
19493.0	5.458552750953811e+17
19494.0	5.459512953667583e+17
19495.0	5.460413676956329e+17
19496.0	5.4614335352558925e+17
19497.0	5.462328314516821e+17
19498.0	5.463477220365651e+17
19499.0	5.4632458450807456e+17
19500.0	5.4647699670739616e+17
19501.0	5.4650480263604896e+17
19502.0	5.4656180427598496e+17
19503.0	5.465797880534356e+17
19504.0	5.465869803061247e+17
19505.0	5.466191882966356e+17
19506.0	5.4661989727382176e+17
19507.0	5.4661055921520634e+17
19508.0	5.4659829835584845e+17
19509.0	5.4661832685649914e+17
19510.0	5.466071176489641e+17
19511.0	5.465146484151635e+17
19512.0	5.4654261135059616e+17
19513.0	5.464919384260606e+17
19514.0	5.464890840623785e+17
19515.0	5.46459585941777e+17
19516.0	5.464222761396905e+17
19517.0	5.463756648393386e+17
19518.0	5.4632789220611405e+17
19519.0	5.462769256103936e+17
19520.0	5.46223504228352e+17
19521.0	5.461784615976958e+17
19522.0	5.461317221613567e+17
19523.0	5.4607254437669536e+17
19524.0	5.46011435115042e+17
19525.0	5.459479768334334e+17
19526.0	5.458840567589545e+17
19527.0	5.4581812278941e+17
19528.0	5.4575079421378554e+17
19529.0	5.4568200643979936e+17
19530.0	5.456119152858452e+17
19531.0	5.4554058807050234e+17
19532.0	5.454680860306089e+17
19533.0	5.453955721068543e+17
19534.0	5.453365854426453e+17
19535.0	5.4526092229563725e+17
19536.0	5.451838346231807e+17
19537.0	5.451067784080042e+17
19538.0	5.450280606892031e+17
19539.0	5.4494253603444045e+17
19540.0	5.448688451889834e+17
19541.0	5.447884699511466e+17
19542.0	5.447070318067711e+17
19543.0	5.446249167017301e+17
19544.0	5.445421596584617e+17
19545.0	5.444550529122303e+17
19546.0	5.443638026130771e+17
19547.0	5.442901099500883e+17
19548.0	5.442051522254164e+17
19549.0	5.4411843813594445e+17
19550.0	5.4403363280431776e+17
19551.0	5.439471484927999e+17
19552.0	5.4386017973917e+17
19553.0	5.4377259309465594e+17
19554.0	5.4368455947714554e+17
19555.0	5.435968385449983e+17
19556.0	5.4350829091553274e+17
19557.0	5.434193323840852e+17
19558.0	5.433301079337642e+17
19559.0	5.4324023923834874e+17
19560.0	5.431503292290389e+17
19561.0	5.4306047542340256e+17
19562.0	5.4296999380036256e+17
19563.0	5.4288939696346445e+17
19564.0	5.428012461850624e+17
19565.0	5.4270997903878816e+17
19566.0	5.4261823674777594e+17
19567.0	5.4252664041854285e+17
19568.0	5.4243441319608314e+17
19569.0	5.4234246349673805e+17
19570.0	5.422501604272809e+17
19571.0	5.4215755480869536e+17
19572.0	5.420644007149567e+17
19573.0	5.41971649274402e+17
19574.0	5.418774881981779e+17
19575.0	5.417853431840767e+17
19576.0	5.416919071632041e+17
19577.0	5.4159714147805856e+17
19578.0	5.415077071727273e+17
19579.0	5.414236367530666e+17
19580.0	5.4132965267647136e+17
19581.0	5.4123548321163936e+17
19582.0	5.411413695310505e+17
19583.0	5.410469240810154e+17
19584.0	5.4095235832436045e+17
19585.0	5.408563941867519e+17
19586.0	5.4076115825022285e+17
19587.0	5.4066742037927245e+17
19588.0	5.405674661303636e+17
19589.0	5.404775045311145e+17
19590.0	5.403818577625087e+17
19591.0	5.4028751332529485e+17
19592.0	5.4019214813429754e+17
19593.0	5.400964882934442e+17
19594.0	5.3999840917804365e+17
19595.0	5.399054018150398e+17
19596.0	5.3979920070956365e+17
19597.0	5.3971404913814176e+17
19598.0	5.396154103627775e+17
19599.0	5.395226336165887e+17
19600.0	5.394267124006911e+17
19601.0	5.393299662351017e+17
19602.0	5.392342389358591e+17
19603.0	5.39133463372322e+17
19604.0	5.3904193722777594e+17
19605.0	5.38942820651281e+17
19606.0	5.3884988899546426e+17
19607.0	5.387543721803775e+17
19608.0	5.386603383313749e+17
19609.0	5.385634930404009e+17
19610.0	5.3846760698675194e+17
19611.0	5.3837110087516154e+17
19612.0	5.382746715193343e+17
19613.0	5.381780949434367e+17
19614.0	5.380811121491967e+17
19615.0	5.3798500952965114e+17
19616.0	5.3788797325803514e+17
19617.0	5.3779173725962234e+17
19618.0	5.376895161991166e+17
19619.0	5.3759049895772154e+17
19620.0	5.374944449221972e+17
19621.0	5.3740489017043616e+17
19622.0	5.373081182797823e+17
19623.0	5.372113229709311e+17
19624.0	5.371145081585664e+17
19625.0	5.3701766042091514e+17
19626.0	5.369208189747199e+17
19627.0	5.368239492169726e+17
19628.0	5.3672592791306234e+17
19629.0	5.3662917468706125e+17
19630.0	5.365326909450922e+17
19631.0	5.363821602406398e+17
19632.0	5.363393461835092e+17
19633.0	5.3624215465274016e+17
19634.0	5.361454463057919e+17
19635.0	5.3604800437507405e+17
19636.0	5.3595149630614176e+17
19637.0	5.3585000910902605e+17
19638.0	5.3575741055085216e+17
19639.0	5.3566036057784314e+17
19640.0	5.3556275395078816e+17
19641.0	5.3545908781274445e+17
19642.0	5.3536943799009274e+17
19643.0	5.352721897663145e+17
19644.0	5.35174668423441e+17
19645.0	5.3507535506418323e+17
19646.0	5.349813035291989e+17
19647.0	5.348842636225194e+17
19648.0	5.3478722287697914e+17
19649.0	5.346901504644437e+17
19650.0	5.345931407567529e+17
19651.0	5.344960974946303e+17
19652.0	5.3439905779766605e+17
19653.0	5.343019927251626e+17
19654.0	5.3420497840373766e+17
19655.0	5.341078989307902e+17
19656.0	5.3401082525996365e+17
19657.0	5.3391387511138976e+17
19658.0	5.338168515624959e+17
19659.0	5.337198104674302e+17
