# Flux units: erg / (cm m2 s)
# Wavelength units: Angstrom
wave	flux
19000.0	5.549083436165802e+17
19001.0	5.5479364436186445e+17
19002.0	5.547076863655934e+17
19003.0	5.5460639483275936e+17
19004.0	5.5450663687727776e+17
19005.0	5.5440269671137274e+17
19006.0	5.543035116279124e+17
19007.0	5.5420518700591776e+17
19008.0	5.5410009627252045e+17
19009.0	5.539814608732158e+17
19010.0	5.5386414038821536e+17
19011.0	5.5379462692973216e+17
19012.0	5.536469551327913e+17
19013.0	5.536047396028416e+17
19014.0	5.535008573882367e+17
19015.0	5.534010023346175e+17
19016.0	5.533021805477887e+17
19017.0	5.5320592336814074e+17
19018.0	5.5310453802270714e+17
19019.0	5.530060789033642e+17
19020.0	5.529055686994602e+17
19021.0	5.528074156944042e+17
19022.0	5.527068977310379e+17
19023.0	5.5259987265454074e+17
19024.0	5.524951571715413e+17
19025.0	5.523998068703231e+17
19026.0	5.522922810638335e+17
19027.0	5.521642828595199e+17
19028.0	5.5210270537373005e+17
19029.0	5.5200334238187514e+17
19030.0	5.5190650289302176e+17
19031.0	5.5180633228793165e+17
19032.0	5.517025113800703e+17
19033.0	5.5158574202661523e+17
19034.0	5.514724173851306e+17
19035.0	5.511970652422143e+17
19036.0	5.4835130288919866e+17
19037.0	5.510462080111955e+17
19038.0	5.510760143432362e+17
19039.0	5.509985039548415e+17
19040.0	5.5090516419324576e+17
19041.0	5.508082120174249e+17
19042.0	5.504331030375078e+17
19043.0	5.506149099678377e+17
19044.0	5.5051393349713914e+17
19045.0	5.504119088698708e+17
19046.0	5.503108455770795e+17
19047.0	5.502102752548179e+17
19048.0	5.5005728913489894e+17
19049.0	5.494427773217444e+17
19050.0	5.49880418411042e+17
19051.0	5.494032757161982e+17
19052.0	5.4951895930415763e+17
19053.0	5.496019278102526e+17
19054.0	5.4951741398275405e+17
19055.0	5.493156912387413e+17
19056.0	5.49296738017826e+17
19057.0	5.492262542071124e+17
19058.0	5.488412554078886e+17
19059.0	5.489209485819902e+17
19060.0	5.489285951477076e+17
19061.0	5.488305391708842e+17
19062.0	5.4873248578054816e+17
19063.0	5.4863311726619296e+17
19064.0	5.4852414400539296e+17
19065.0	5.4841759491249485e+17
19066.0	5.4822782013276154e+17
19067.0	5.482364494938111e+17
19068.0	5.481396388058452e+17
19069.0	5.48040874201361e+17
19070.0	5.479390432810324e+17
19071.0	5.4784009839138125e+17
19072.0	5.476374975698259e+17
19073.0	5.4764531526314656e+17
19074.0	5.475469911304873e+17
19075.0	5.474481534053034e+17
19076.0	5.4734786605875194e+17
19077.0	5.4724807084386976e+17
19078.0	5.471467465954645e+17
19079.0	5.470525651768662e+17
19080.0	5.4695275765869216e+17
19081.0	5.468491354210303e+17
19082.0	5.4675344104707405e+17
19083.0	5.4664650810545485e+17
19084.0	5.465338180621653e+17
19085.0	5.46453658341649e+17
19086.0	5.461583819265364e+17
19087.0	5.4598113846886355e+17
19088.0	5.459824085041149e+17
19089.0	5.46018795978752e+17
19090.0	5.459506943229951e+17
19091.0	5.458397790295382e+17
19092.0	5.455323294859269e+17
19093.0	5.456687283219115e+17
19094.0	5.455736488329215e+17
19095.0	5.4547590470260045e+17
19096.0	5.453771189168809e+17
19097.0	5.452798826468692e+17
19098.0	5.4506362496177466e+17
19099.0	5.449413706470742e+17
19100.0	5.4497762760895136e+17
19101.0	5.448823549023572e+17
19102.0	5.447770909442047e+17
19103.0	5.446890355163136e+17
19104.0	5.4459121015630496e+17
19105.0	5.4423333983573395e+17
19106.0	5.4438349787627514e+17
19107.0	5.4422366944843066e+17
19108.0	5.440790961236651e+17
19109.0	5.439881786425343e+17
19110.0	5.439554703414613e+17
19111.0	5.438211262950057e+17
19112.0	5.437145848217597e+17
19113.0	5.4370711588481696e+17
19114.0	5.435572100617555e+17
19115.0	5.4349137346996896e+17
19116.0	5.434104545804287e+17
19117.0	5.433087864690004e+17
19118.0	5.431785345952426e+17
19119.0	5.4220605298660576e+17
19120.0	5.429808819339262e+17
19121.0	5.4289977520947194e+17
19122.0	5.4282602606318925e+17
19123.0	5.427301576256171e+17
19124.0	5.426124865667071e+17
19125.0	5.4253256606132896e+17
19126.0	5.424226527171924e+17
19127.0	5.421818710764202e+17
19128.0	5.422186295372458e+17
19129.0	5.421336374192809e+17
19130.0	5.4204573095908685e+17
19131.0	5.419500348375039e+17
19132.0	5.4185251859770016e+17
19133.0	5.417499399028735e+17
19134.0	5.416545689796606e+17
19135.0	5.415593993830399e+17
19136.0	5.414618039407957e+17
19137.0	5.4135254015453856e+17
19138.0	5.412649124757504e+17
19139.0	5.411706080941396e+17
19140.0	5.4107367514221216e+17
19141.0	5.409760411123711e+17
19142.0	5.4087511308588365e+17
19143.0	5.407767185588223e+17
19144.0	5.406787071814313e+17
19145.0	5.4058590114501965e+17
19146.0	5.4041739931593395e+17
19147.0	5.403843617619966e+17
19148.0	5.402013203081899e+17
19149.0	5.4008756071738016e+17
19150.0	5.400992764570281e+17
19151.0	5.400015423930368e+17
19152.0	5.3990023184602445e+17
19153.0	5.396097858710184e+17
19154.0	5.396816647072426e+17
19155.0	5.396065952639658e+17
19156.0	5.3950672028740256e+17
19157.0	5.3932886537011206e+17
19158.0	5.391241454463659e+17
19159.0	5.391984966849876e+17
19160.0	5.391087150213802e+17
19161.0	5.389930906430122e+17
19162.0	5.387529254251178e+17
19163.0	5.3876045175412045e+17
19164.0	5.3872013302824954e+17
19165.0	5.384203395574437e+17
19166.0	5.385216997370538e+17
19167.0	5.384261771198462e+17
19168.0	5.383411499095381e+17
19169.0	5.382483389098666e+17
19170.0	5.3815285033642656e+17
19171.0	5.380509675465386e+17
19172.0	5.3795683163613875e+17
19173.0	5.378645968639317e+17
19174.0	5.377651390808062e+17
19175.0	5.3767271185995085e+17
19176.0	5.3757573871261005e+17
19177.0	5.3745990336075085e+17
19178.0	5.3737104947718816e+17
19179.0	5.3727252611508896e+17
19180.0	5.371847842114218e+17
19181.0	5.370788980282708e+17
19182.0	5.3699074613138765e+17
19183.0	5.3689975699756365e+17
19184.0	5.368035481223168e+17
19185.0	5.3670523077044896e+17
19186.0	5.3660978714596685e+17
19187.0	5.3650488215033165e+17
19188.0	5.364144081469439e+17
19189.0	5.363162893953705e+17
19190.0	5.3621749396275194e+17
19191.0	5.3611507611948365e+17
19192.0	5.3601971749956256e+17
19193.0	5.3589220548498765e+17
19194.0	5.3577162938122234e+17
19195.0	5.3570333716425376e+17
19196.0	5.355779587222186e+17
19197.0	5.3541758056093005e+17
19198.0	5.35098248344371e+17
19199.0	5.3386788974100474e+17
19200.0	5.339244579695275e+17
19201.0	5.348381953447252e+17
19202.0	5.349445793917611e+17
19203.0	5.349021672887637e+17
19204.0	5.348366191951872e+17
19205.0	5.347557001658368e+17
19206.0	5.346672345350143e+17
19207.0	5.3456058219233274e+17
19208.0	5.344635801741994e+17
19209.0	5.343886958395392e+17
19210.0	5.342942771631444e+17
19211.0	5.342009979393364e+17
19212.0	5.3410297901219834e+17
19213.0	5.339882191497897e+17
19214.0	5.3388819038208e+17
19215.0	5.33809941516561e+17
19216.0	5.337207742485844e+17
19217.0	5.336198092423167e+17
19218.0	5.3346715915605325e+17
19219.0	5.3341094849194656e+17
19220.0	5.333346290062676e+17
19221.0	5.332229013460308e+17
19222.0	5.331439737722196e+17
19223.0	5.330526684577791e+17
19224.0	5.3295342430453754e+17
19225.0	5.3285382090915834e+17
19226.0	5.3276588732579834e+17
19227.0	5.3267161957444256e+17
19228.0	5.3257897292158285e+17
19229.0	5.3248304115002016e+17
19230.0	5.3238691322484045e+17
19231.0	5.322906426933247e+17
19232.0	5.321952517772628e+17
19233.0	5.32093171994897e+17
19234.0	5.320040763097087e+17
19235.0	5.319059748246868e+17
19236.0	5.3181414396395514e+17
19237.0	5.317167848008362e+17
19238.0	5.316121634100564e+17
19239.0	5.3152767593676794e+17
19240.0	5.3143227467475616e+17
19241.0	5.313352890843135e+17
19242.0	5.312404079159977e+17
19243.0	5.311291366659413e+17
19244.0	5.3105132435756365e+17
19245.0	5.309553637851136e+17
19246.0	5.308594497694377e+17
19247.0	5.307639268027049e+17
19248.0	5.3066907723147936e+17
19249.0	5.305662763084457e+17
19250.0	5.304353639017131e+17
19251.0	5.3033229370436243e+17
19252.0	5.302555410868906e+17
19253.0	5.301904614970708e+17
19254.0	5.3009780079329274e+17
19255.0	5.299811627215529e+17
19256.0	5.299057097790805e+17
19257.0	5.2981201245306874e+17
19258.0	5.297165082208938e+17
19259.0	5.296088716148735e+17
19260.0	5.29439201112883e+17
19261.0	5.294261444542462e+17
19262.0	5.293244591461717e+17
19263.0	5.292232596084051e+17
19264.0	5.2909322024605005e+17
19265.0	5.29026147033634e+17
19266.0	5.2892289948712954e+17
19267.0	5.2885998898162336e+17
19268.0	5.287648503529471e+17
19269.0	5.2866990822741325e+17
19270.0	5.285709655747242e+17
19271.0	5.284501720662016e+17
19272.0	5.283801963954175e+17
19273.0	5.282650694615039e+17
19274.0	5.2814907339789626e+17
19275.0	5.28100054077713e+17
19276.0	5.2800305401692154e+17
19277.0	5.279087671814826e+17
19278.0	5.278077877747711e+17
19279.0	5.2771431092933965e+17
19280.0	5.276163515613183e+17
19281.0	5.275244338085887e+17
19282.0	5.27429271552e+17
19283.0	5.273265765351423e+17
19284.0	5.272278518464511e+17
19285.0	5.271289988120575e+17
19286.0	5.270299989770239e+17
19287.0	5.269015705070249e+17
19288.0	5.2576021363643654e+17
19289.0	5.2485161267582106e+17
19290.0	5.2660585907268256e+17
19291.0	5.265331148816384e+17
19292.0	5.264780639425877e+17
19293.0	5.2638806417517216e+17
19294.0	5.2629213387161594e+17
19295.0	5.262026358128638e+17
19296.0	5.259807777532589e+17
19297.0	5.2598845633549645e+17
19298.0	5.259160810334889e+17
19299.0	5.256811508662273e+17
19300.0	5.2572718454101325e+17
19301.0	5.256353443130026e+17
19302.0	5.2553864365561165e+17
19303.0	5.254363696070655e+17
19304.0	5.253479176776362e+17
19305.0	5.2525261561091405e+17
19306.0	5.251560812576767e+17
19307.0	5.2505245874039456e+17
19308.0	5.249532939294036e+17
19309.0	5.24815016604467e+17
19310.0	5.2470159605323085e+17
19311.0	5.246456901752147e+17
19312.0	5.245527618049364e+17
19313.0	5.243935117716138e+17
19314.0	5.173333942687041e+17
19315.0	5.17814623823471e+17
19316.0	5.2393961411925357e+17
19317.0	5.2408121843602765e+17
19318.0	5.24006099919394e+17
19319.0	5.239211699470335e+17
19320.0	5.2377846259821203e+17
19321.0	5.236200773604692e+17
19322.0	5.236290321296042e+17
19323.0	5.2353020146483194e+17
19324.0	5.2343634167944525e+17
19325.0	5.2332784398281376e+17
19326.0	5.2325317257898656e+17
19327.0	5.23165485830417e+17
19328.0	5.2284613669683206e+17
19329.0	5.2298331616269645e+17
19330.0	5.2288653483485856e+17
19331.0	5.2278911848939514e+17
19332.0	5.2269970124090016e+17
19333.0	5.226027327771988e+17
19334.0	5.2250575396754765e+17
19335.0	5.21949016455032e+17
19336.0	5.223161928876032e+17
19337.0	5.2222578326678176e+17
19338.0	5.221082844539561e+17
19339.0	5.220346991651498e+17
19340.0	5.219192919818239e+17
19341.0	5.2166233990103066e+17
19342.0	5.216663762894848e+17
19343.0	5.2165031294402554e+17
19344.0	5.213788994622807e+17
19345.0	5.212067439749803e+17
19346.0	5.212443847775573e+17
19347.0	5.210439689786709e+17
19348.0	5.2117661929526605e+17
19349.0	5.2107812634187085e+17
19350.0	5.209006866606762e+17
19351.0	5.208856374280191e+17
19352.0	5.205562499268605e+17
19353.0	5.2070195578361165e+17
19354.0	5.20607184785681e+17
19355.0	5.205002497469098e+17
19356.0	5.2041510460675405e+17
19357.0	5.203193931759615e+17
19358.0	5.202211470573567e+17
19359.0	5.200710573140648e+17
19360.0	5.1984282936497466e+17
19361.0	5.19928683901747e+17
19362.0	5.198354565474986e+17
19363.0	5.197390763349332e+17
19364.0	5.196421496045567e+17
19365.0	5.1954422777555616e+17
19366.0	5.1944735703913805e+17
19367.0	5.1934926562044595e+17
19368.0	5.1925377425080314e+17
19369.0	5.1914977494521165e+17
19370.0	5.1905402751330976e+17
19371.0	5.1895407934614176e+17
19372.0	5.188607294483113e+17
19373.0	5.187600405670571e+17
19374.0	5.186637350830078e+17
19375.0	5.1856311869330765e+17
19376.0	5.184647123522901e+17
19377.0	5.18363730219281e+17
19378.0	5.1826346950655994e+17
19379.0	5.181630949184853e+17
19380.0	5.180613764055039e+17
19381.0	5.179616025815721e+17
19382.0	5.178533796817578e+17
19383.0	5.1775097211453434e+17
19384.0	5.1765032992986445e+17
19385.0	5.175493752695465e+17
19386.0	5.1744642684682234e+17
19387.0	5.17339948917282e+17
19388.0	5.17230544761651e+17
19389.0	5.171101910958079e+17
19390.0	5.1692462208450554e+17
19391.0	5.14286225352292e+17
19392.0	5.16423367943782e+17
19393.0	5.166573350289407e+17
19394.0	5.1657388802266445e+17
19395.0	5.164020380904107e+17
19396.0	5.1634292329021446e+17
19397.0	5.1625077275361274e+17
19398.0	5.1606983075867296e+17
19399.0	5.1587471138706765e+17
19400.0	5.158251747693909e+17
19401.0	5.1577795983878816e+17
19402.0	5.1565778834554874e+17
19403.0	5.1553246142354765e+17
19404.0	5.1541112391379616e+17
19405.0	5.152827894661119e+17
19406.0	5.151572878513492e+17
19407.0	5.149453640007678e+17
19408.0	5.148222056737451e+17
19409.0	5.147401276183892e+17
19410.0	5.1461194199859194e+17
19411.0	5.1446677762648736e+17
19412.0	5.1431345372528634e+17
19413.0	5.140847089680384e+17
19414.0	5.140010231660543e+17
19415.0	5.138406358472021e+17
19416.0	5.1364365986693114e+17
19417.0	5.134799247944363e+17
19418.0	5.133227793230506e+17
19419.0	5.1313913088354976e+17
19420.0	5.1294271561181856e+17
19421.0	5.127314015431338e+17
19422.0	5.1248768927225165e+17
19423.0	5.122355328188415e+17
19424.0	5.119601717280767e+17
19425.0	5.1167711010488314e+17
19426.0	5.113642596958207e+17
19427.0	5.1104963565540685e+17
19428.0	5.1070009396428794e+17
19429.0	5.1031035490249376e+17
19430.0	5.0975582785809075e+17
19431.0	5.090764036680364e+17
19432.0	5.09011078222097e+17
19433.0	5.0850919192985594e+17
19434.0	5.079474954917205e+17
19435.0	5.072058434890409e+17
19436.0	5.0635765777257805e+17
19437.0	5.056031300255743e+17
19438.0	4.997316396886706e+17
19439.0	5.028488756417876e+17
19440.0	5.0249099930938016e+17
19441.0	5.01142517920563e+17
19442.0	4.994869988687872e+17
19443.0	4.975273365034325e+17
19444.0	4.9515145867209363e+17
19445.0	4.9220034358149114e+17
19446.0	4.884933257112233e+17
19447.0	4.8354612324160806e+17
19448.0	4.7664369772789786e+17
19449.0	4.658562970856106e+17
19450.0	4.434094139462977e+17
19451.0	4.242190993020258e+17
19452.0	4.572494944010245e+17
19453.0	4.717728443837104e+17
19454.0	4.799864892293116e+17
19455.0	4.855735652100778e+17
19456.0	4.8955986745316704e+17
19457.0	4.925029324860074e+17
19458.0	4.748448144294174e+17
19459.0	4.954253021238656e+17
19460.0	4.9868733069393894e+17
19461.0	5.0010388836297363e+17
19462.0	5.012529475835221e+17
19463.0	5.0224908940083194e+17
19464.0	5.030741981265919e+17
19465.0	5.0375202512568314e+17
19466.0	5.043369122201598e+17
19467.0	5.0480734325964794e+17
19468.0	5.0521098546053114e+17
19469.0	5.0538188391492224e+17
19470.0	5.058717741481983e+17
19471.0	5.061378061981013e+17
19472.0	5.063540796118356e+17
19473.0	5.0654386830267725e+17
19474.0	5.065380885517649e+17
19475.0	5.0678365030099616e+17
19476.0	5.06971701711121e+17
19477.0	5.070931565914794e+17
19478.0	5.0719926066872314e+17
19479.0	5.0711409022293306e+17
19480.0	5.0733936685001376e+17
19481.0	5.0737575376541e+17
19482.0	5.0740500141615763e+17
19483.0	5.074089880322047e+17
19484.0	5.074096453495466e+17
19485.0	5.0739480869819725e+17
19486.0	5.072164636065796e+17
19487.0	5.0736395225224525e+17
19488.0	5.0734141884334074e+17
19489.0	5.072735064205993e+17
19490.0	5.0715175248636576e+17
19491.0	5.0723718465672525e+17
19492.0	5.072038758711294e+17
19493.0	5.0716314994824525e+17
19494.0	5.0711123124551674e+17
19495.0	5.0705232839748256e+17
19496.0	5.06936025101107e+17
19497.0	5.0686066219636045e+17
19498.0	5.059082629851816e+17
19499.0	5.0270859672507654e+17
19500.0	5.0662025818275834e+17
19501.0	5.0667423600913056e+17
19502.0	5.066320908036777e+17
19503.0	5.065789495312382e+17
19504.0	5.0651888891549e+17
19505.0	5.06445610230306e+17
19506.0	5.063782889947136e+17
19507.0	5.063029448944298e+17
19508.0	5.0622188102178125e+17
19509.0	5.061146770582185e+17
19510.0	5.0582522764984314e+17
19511.0	4.948389822551303e+17
19512.0	5.0473997036421075e+17
19513.0	5.045071479745183e+17
19514.0	5.047024780399948e+17
19515.0	5.0560348724046496e+17
19516.0	5.055855837839359e+17
19517.0	5.055391176764074e+17
19518.0	5.054242631625385e+17
19519.0	5.053454842768041e+17
19520.0	5.051510649345361e+17
19521.0	5.052422981768532e+17
19522.0	5.051317042369876e+17
19523.0	5.0503547019591686e+17
19524.0	5.0486956135546906e+17
19525.0	5.0491202113372154e+17
19526.0	5.048353180090368e+17
19527.0	5.047505744035839e+17
19528.0	5.046541815382015e+17
19529.0	5.045651025603243e+17
19530.0	5.045039344386047e+17
19531.0	5.0441992958989645e+17
19532.0	5.0433581750681594e+17
19533.0	5.0425129459165856e+17
19534.0	5.041668413019476e+17
19535.0	5.0407894469836794e+17
19536.0	5.0399102132114765e+17
19537.0	5.0390755690850976e+17
19538.0	5.036467719329111e+17
19539.0	5.036944571848021e+17
19540.0	5.0365054911337805e+17
19541.0	5.035314069023403e+17
19542.0	5.034673465982975e+17
19543.0	5.032275181131094e+17
19544.0	5.0329758668772685e+17
19545.0	5.0316170249284256e+17
19546.0	5.0305867647549434e+17
19547.0	5.0305027947888634e+17
19548.0	5.0296859366085965e+17
19549.0	5.0287193375812256e+17
19550.0	5.027966395700564e+17
19551.0	5.0271065948378445e+17
19552.0	5.026238139028822e+17
19553.0	5.0253481412744525e+17
19554.0	5.024465218611881e+17
19555.0	5.0234297952501754e+17
19556.0	5.0226285307931296e+17
19557.0	5.021883153339734e+17
19558.0	5.021034333863935e+17
19559.0	5.0201746923847674e+17
19560.0	5.018669446157651e+17
19561.0	5.0184027380558496e+17
19562.0	5.016949990533801e+17
19563.0	5.016692990148608e+17
19564.0	5.015817225065813e+17
19565.0	5.0149453229370016e+17
19566.0	5.0140471462898336e+17
19567.0	5.0131988336257696e+17
19568.0	5.0123054279994016e+17
19569.0	5.0114324619154765e+17
19570.0	5.0105576671150086e+17
19571.0	5.0096920543450445e+17
19572.0	5.008793169559551e+17
19573.0	5.0077349473594016e+17
19574.0	5.0069049980573e+17
19575.0	5.0062125121754445e+17
19576.0	5.005221555426644e+17
19577.0	5.004124694598998e+17
19578.0	5.003549870129151e+17
19579.0	5.002680592935594e+17
19580.0	5.001806437067434e+17
19581.0	5.000949111543124e+17
19582.0	5.0000901082972154e+17
19583.0	4.9992134701001376e+17
19584.0	4.9983177422274554e+17
19585.0	4.997320809993556e+17
19586.0	4.996391095675562e+17
19587.0	4.995606446254761e+17
19588.0	4.994395919788715e+17
19589.0	4.993884783727958e+17
19590.0	4.9929235366324896e+17
19591.0	4.9921950021058554e+17
19592.0	4.991332119128746e+17
19593.0	4.990277271246164e+17
19594.0	4.989148161114111e+17
19595.0	4.988684809360724e+17
19596.0	4.9876917862181536e+17
19597.0	4.9869317902172154e+17
19598.0	4.9855281593931085e+17
19599.0	4.985178852163583e+17
19600.0	4.9843260082530976e+17
19601.0	4.983379141328896e+17
19602.0	4.9824353614124365e+17
19603.0	4.9811825032342176e+17
19604.0	4.980658236205738e+17
19605.0	4.979639150357162e+17
19606.0	4.979063660391083e+17
19607.0	4.9782112065508685e+17
19608.0	4.977318184004265e+17
19609.0	4.976416527482879e+17
19610.0	4.974783984828417e+17
19611.0	4.973532505877163e+17
19612.0	4.9738412618765645e+17
19613.0	4.972951166954153e+17
19614.0	4.972041926432085e+17
19615.0	4.971174406651902e+17
19616.0	4.969308049025708e+17
19617.0	4.9682138536782496e+17
19618.0	4.9678361146600083e+17
19619.0	4.966669826916351e+17
19620.0	4.965763630759934e+17
19621.0	4.9642163289456634e+17
19622.0	4.9650664339756365e+17
19623.0	4.964098942959615e+17
19624.0	4.963032864828074e+17
19625.0	4.9624059547921056e+17
19626.0	4.9614753421940045e+17
19627.0	4.960460212273152e+17
19628.0	4.959155032249685e+17
19629.0	4.953817901345448e+17
19630.0	4.9524145578311654e+17
19631.0	4.943977844659542e+17
19632.0	4.954557957625172e+17
19633.0	4.9548483649426765e+17
19634.0	4.9543878911808845e+17
19635.0	4.9534041689074336e+17
19636.0	4.9509123133276134e+17
19637.0	4.9497809347761466e+17
19638.0	4.9509728273476243e+17
19639.0	4.950237531602943e+17
19640.0	4.949155491348479e+17
19641.0	4.94721287708126e+17
19642.0	4.9475001980900685e+17
19643.0	4.946636042840746e+17
19644.0	4.94582535098641e+17
19645.0	4.9448238245915296e+17
19646.0	4.942166168174588e+17
19647.0	4.9432986728966816e+17
19648.0	4.9424617925072205e+17
19649.0	4.941590097297407e+17
19650.0	4.9407285774690976e+17
19651.0	4.9398567123899725e+17
19652.0	4.938988007718911e+17
19653.0	4.93811094589713e+17
19654.0	4.937250308969813e+17
19655.0	4.936377064663722e+17
