# Flux units: erg / (cm m2 s)
# Wavelength units: Angstrom
wave	flux
19000.0	4.974063328602794e+17
19001.0	4.972952185470974e+17
19002.0	4.9722865997578234e+17
19003.0	4.971378490998783e+17
19004.0	4.970471380484095e+17
19005.0	4.9695068883954336e+17
19006.0	4.9686484870321485e+17
19007.0	4.96782001901841e+17
19008.0	4.9668567195101856e+17
19009.0	4.96574195110161e+17
19010.0	4.9644951061572256e+17
19011.0	4.9641740265936205e+17
19012.0	4.9623449877872614e+17
19013.0	4.962520796233727e+17
19014.0	4.961559751163903e+17
19015.0	4.9606579779010554e+17
19016.0	4.959778170907306e+17
19017.0	4.9589710442113696e+17
19018.0	4.958062522313385e+17
19019.0	4.957207344272725e+17
19020.0	4.9563097569252685e+17
19021.0	4.9554449564521805e+17
19022.0	4.9545602840657914e+17
19023.0	4.9535048930208416e+17
19024.0	4.9525091365901645e+17
19025.0	4.951814710143658e+17
19026.0	4.9508362796837536e+17
19027.0	4.9494452031105696e+17
19028.0	4.949206128481619e+17
19029.0	4.9483017652360525e+17
19030.0	4.9474474211628365e+17
19031.0	4.946584592711679e+17
19032.0	4.9456734409850874e+17
19033.0	4.944600988909566e+17
19034.0	4.943697876964693e+17
19035.0	4.941639812382719e+17
19036.0	4.895700452813468e+17
19037.0	4.9402020315354445e+17
19038.0	4.940160768671743e+17
19039.0	4.9394321768229536e+17
19040.0	4.938567270793215e+17
19041.0	4.937703678279679e+17
19042.0	4.927563075944435e+17
19043.0	4.9360288612351994e+17
19044.0	4.9351303777047885e+17
19045.0	4.934181558332074e+17
19046.0	4.9332892495162016e+17
19047.0	4.932438911702356e+17
19048.0	4.930026243883007e+17
19049.0	4.911519436723517e+17
19050.0	4.9295105737796243e+17
19051.0	4.922235554889721e+17
19052.0	4.925965857718272e+17
19053.0	4.9271157750934176e+17
19054.0	4.9263162072323405e+17
19055.0	4.9223531058517344e+17
19056.0	4.923689603345063e+17
19057.0	4.923722546806784e+17
19058.0	4.913070021978779e+17
19059.0	4.918150371999741e+17
19060.0	4.921077169214804e+17
19061.0	4.920191254615382e+17
19062.0	4.91932214309683e+17
19063.0	4.918468389022378e+17
19064.0	4.91744103829777e+17
19065.0	4.916483324204373e+17
19066.0	4.9121645087948826e+17
19067.0	4.914906702107989e+17
19068.0	4.9141046246550176e+17
19069.0	4.9132236439552e+17
19070.0	4.9122855186595834e+17
19071.0	4.9114183239379616e+17
19072.0	4.9068557523572006e+17
19073.0	4.9097184032849914e+17
19074.0	4.908824629957972e+17
19075.0	4.907977981733546e+17
19076.0	4.907068758687743e+17
19077.0	4.9061926706435405e+17
19078.0	4.905257331763881e+17
19079.0	4.904458192420864e+17
19080.0	4.903579986952192e+17
19081.0	4.902632487387134e+17
19082.0	4.901808937194836e+17
19083.0	4.900844217215658e+17
19084.0	4.8998101507112954e+17
19085.0	4.8991632750892365e+17
19086.0	4.8928579338458426e+17
19087.0	4.888628989089098e+17
19088.0	4.891372670681079e+17
19089.0	4.895028369424384e+17
19090.0	4.8946940645212154e+17
19091.0	4.8932561200960896e+17
19092.0	4.885396896175465e+17
19093.0	4.892216679290196e+17
19094.0	4.89137547387426e+17
19095.0	4.8905060589677216e+17
19096.0	4.889625883574272e+17
19097.0	4.8887693808325965e+17
19098.0	4.883949637599229e+17
19099.0	4.882273086909104e+17
19100.0	4.886047602595157e+17
19101.0	4.885226265597268e+17
19102.0	4.8842178668352845e+17
19103.0	4.8835228888378016e+17
19104.0	4.8826859483299834e+17
19105.0	4.8731683022001734e+17
19106.0	4.880706880667647e+17
19107.0	4.8778889270394835e+17
19108.0	4.8757914080378886e+17
19109.0	4.876325308683604e+17
19110.0	4.8769866826164896e+17
19111.0	4.8740887953407955e+17
19112.0	4.872768146724175e+17
19113.0	4.874837096224085e+17
19114.0	4.872316462126418e+17
19115.0	4.8726469830683296e+17
19116.0	4.8722016863955616e+17
19117.0	4.87129618649361e+17
19118.0	4.870061428135253e+17
19119.0	4.851613339833658e+17
19120.0	4.8682494070183226e+17
19121.0	4.8675693600440314e+17
19122.0	4.8670535906754554e+17
19123.0	4.86620718641971e+17
19124.0	4.8650967821844474e+17
19125.0	4.8644487496335354e+17
19126.0	4.863509925986304e+17
19127.0	4.860204778782719e+17
19128.0	4.861682305553748e+17
19129.0	4.860887127730858e+17
19130.0	4.860140373846697e+17
19131.0	4.8592913635300685e+17
19132.0	4.8584084758200314e+17
19133.0	4.857486987930281e+17
19134.0	4.856658587724457e+17
19135.0	4.8558161240173216e+17
19136.0	4.8549634010426016e+17
19137.0	4.853870954719914e+17
19138.0	4.853215649245866e+17
19139.0	4.852388116561918e+17
19140.0	4.8515294915024205e+17
19141.0	4.850657694231209e+17
19142.0	4.8497486033059834e+17
19143.0	4.848855844301482e+17
19144.0	4.848012345300308e+17
19145.0	4.847199626199038e+17
19146.0	4.845418508713984e+17
19147.0	4.8453668306943994e+17
19148.0	4.841442516839088e+17
19149.0	4.840016590493013e+17
19150.0	4.8429032454225914e+17
19151.0	4.8420352405012474e+17
19152.0	4.841128522853034e+17
19153.0	4.8336081301886176e+17
19154.0	4.838698037630294e+17
19155.0	4.8385574221905914e+17
19156.0	4.8376814676650656e+17
19157.0	4.834447759245317e+17
19158.0	4.830138912298332e+17
19159.0	4.8349058702158496e+17
19160.0	4.834161377061545e+17
19161.0	4.833187221995519e+17
19162.0	4.829430840382805e+17
19163.0	4.831003893126485e+17
19164.0	4.8307192865314125e+17
19165.0	4.822647287665993e+17
19166.0	4.8288073354226336e+17
19167.0	4.827956507574271e+17
19168.0	4.827338237105493e+17
19169.0	4.826488658460672e+17
19170.0	4.8256704595012256e+17
19171.0	4.8246582928561485e+17
19172.0	4.8239026141921274e+17
19173.0	4.8231212412218016e+17
19174.0	4.822205216413013e+17
19175.0	4.8214257413652474e+17
19176.0	4.820575904071679e+17
19177.0	4.81946714190643e+17
19178.0	4.818634931175422e+17
19179.0	4.817727852817066e+17
19180.0	4.817104567358804e+17
19181.0	4.8160596991235405e+17
19182.0	4.8153306682709325e+17
19183.0	4.8145742150587725e+17
19184.0	4.8137408851476486e+17
19185.0	4.812838077988863e+17
19186.0	4.812019651837951e+17
19187.0	4.8110733322704205e+17
19188.0	4.810301144825855e+17
19189.0	4.8094282122963616e+17
19190.0	4.808560739352576e+17
19191.0	4.8076445936080205e+17
19192.0	4.8068253195086496e+17
19193.0	4.8051069900554246e+17
19194.0	4.8037135450985824e+17
19195.0	4.804120194755243e+17
19196.0	4.803091741627732e+17
19197.0	4.8018818170443085e+17
19198.0	4.799454598485331e+17
19199.0	4.777429294557862e+17
19200.0	4.7805531660397254e+17
19201.0	4.797099240237738e+17
19202.0	4.7976948097351674e+17
19203.0	4.797087105417215e+17
19204.0	4.796444175237119e+17
19205.0	4.795697246590292e+17
19206.0	4.7948762129803936e+17
19207.0	4.793856958660607e+17
19208.0	4.792884672856063e+17
19209.0	4.792382589501439e+17
19210.0	4.7915089642127354e+17
19211.0	4.7907151830930765e+17
19212.0	4.7898507559130445e+17
19213.0	4.7887101422032205e+17
19214.0	4.78774466445312e+17
19215.0	4.787203959248212e+17
19216.0	4.7864712534862496e+17
19217.0	4.785585461220692e+17
19218.0	4.783693350567934e+17
19219.0	4.783662737042089e+17
19220.0	4.783025370606249e+17
19221.0	4.781861243628202e+17
19222.0	4.781322642565802e+17
19223.0	4.780523157192703e+17
19224.0	4.779634386971306e+17
19225.0	4.778685808072019e+17
19226.0	4.77799826797363e+17
19227.0	4.777156630544383e+17
19228.0	4.776344581832703e+17
19229.0	4.775468723077119e+17
19230.0	4.77463871295761e+17
19231.0	4.773794947618132e+17
19232.0	4.772950258832725e+17
19233.0	4.7720132722906445e+17
19234.0	4.771227603653972e+17
19235.0	4.7703714036012365e+17
19236.0	4.7695775917233485e+17
19237.0	4.768692096554324e+17
19238.0	4.7677204699545594e+17
19239.0	4.767042523627519e+17
19240.0	4.766185648291839e+17
19241.0	4.7653264164563616e+17
19242.0	4.7644731384354125e+17
19243.0	4.7634564922736634e+17
19244.0	4.762822670024704e+17
19245.0	4.7619761203664205e+17
19246.0	4.7611247787158176e+17
19247.0	4.760286384881664e+17
19248.0	4.759438969798655e+17
19249.0	4.758411335958527e+17
19250.0	4.756401322022229e+17
19251.0	4.755465814671356e+17
19252.0	4.755686720973481e+17
19253.0	4.7551932687974406e+17
19254.0	4.754396916569429e+17
19255.0	4.7532875790854803e+17
19256.0	4.7526803473257805e+17
19257.0	4.7518660162136736e+17
19258.0	4.751018596237311e+17
19259.0	4.750057478466217e+17
19260.0	4.747883822361257e+17
19261.0	4.748460845345449e+17
19262.0	4.7474805078753274e+17
19263.0	4.746579979621716e+17
19264.0	4.7451633464552083e+17
19265.0	4.7447910055062176e+17
19266.0	4.743703796471126e+17
19267.0	4.743445828599807e+17
19268.0	4.742596344326826e+17
19269.0	4.741773630199125e+17
19270.0	4.7409047577559034e+17
19271.0	4.739594602588843e+17
19272.0	4.7391917837298336e+17
19273.0	4.738091863157417e+17
19274.0	4.736996051604819e+17
19275.0	4.736752223431338e+17
19276.0	4.7358759885864954e+17
19277.0	4.735052741083136e+17
19278.0	4.7340646036056723e+17
19279.0	4.7333235106338125e+17
19280.0	4.7324250879208096e+17
19281.0	4.7316538113392634e+17
19282.0	4.7308198592730445e+17
19283.0	4.7298024658261325e+17
19284.0	4.7290005379700045e+17
19285.0	4.72810642350626e+17
19286.0	4.727323383300095e+17
19287.0	4.7262853552756045e+17
19288.0	4.7115065314945606e+17
19289.0	4.694053281071059e+17
19290.0	4.7237193157399885e+17
19291.0	4.7228393395759795e+17
19292.0	4.722440978563072e+17
19293.0	4.721624054672042e+17
19294.0	4.7207537519711565e+17
19295.0	4.7199843893903366e+17
19296.0	4.714999470271158e+17
19297.0	4.717581144773975e+17
19298.0	4.717446070009855e+17
19299.0	4.7119537009240794e+17
19300.0	4.7157378110805325e+17
19301.0	4.7149787455160314e+17
19302.0	4.714128373448702e+17
19303.0	4.7131757589299194e+17
19304.0	4.7124321619585696e+17
19305.0	4.7115928852234234e+17
19306.0	4.7107534323275085e+17
19307.0	4.709781738618879e+17
19308.0	4.708960821750442e+17
19309.0	4.707348940936531e+17
19310.0	4.7062584449652045e+17
19311.0	4.706211486236671e+17
19312.0	4.705450736659113e+17
19313.0	4.7040417406211405e+17
19314.0	4.579616415023075e+17
19315.0	4.589665777265499e+17
19316.0	4.696064577066334e+17
19317.0	4.701296068831913e+17
19318.0	4.7006453050900474e+17
19319.0	4.699883254579198e+17
19320.0	4.6974374769240704e+17
19321.0	4.6945428647007565e+17
19322.0	4.697262935856468e+17
19323.0	4.69634273841425e+17
19324.0	4.695609294454783e+17
19325.0	4.694306031228245e+17
19326.0	4.6939990640994976e+17
19327.0	4.6932415196692474e+17
19328.0	4.6847169526060454e+17
19329.0	4.691665902807721e+17
19330.0	4.6907987800883194e+17
19331.0	4.68994439057681e+17
19332.0	4.689180563079168e+17
19333.0	4.688319192847699e+17
19334.0	4.68732665973965e+17
19335.0	4.6709097141808e+17
19336.0	4.685726806791509e+17
19337.0	4.6850310248857594e+17
19338.0	4.683897097595561e+17
19339.0	4.683340207969621e+17
19340.0	4.682071753271977e+17
19341.0	4.6758667369840755e+17
19342.0	4.6786868143281536e+17
19343.0	4.6800111231740576e+17
19344.0	4.6734083666302374e+17
19345.0	4.672900472766467e+17
19346.0	4.6759338947816083e+17
19347.0	4.6693681557667834e+17
19348.0	4.6758823537759565e+17
19349.0	4.675002884423679e+17
19350.0	4.67149299576559e+17
19351.0	4.673272424344234e+17
19352.0	4.66470068114772e+17
19353.0	4.67173120217361e+17
19354.0	4.670924328534015e+17
19355.0	4.6699558581480115e+17
19356.0	4.6692503496512845e+17
19357.0	4.668431251013632e+17
19358.0	4.667579785631062e+17
19359.0	4.66500720507835e+17
19360.0	4.6598181107356986e+17
19361.0	4.665048320442366e+17
19362.0	4.664270460900693e+17
19363.0	4.663444310239913e+17
19364.0	4.662615445864446e+17
19365.0	4.661759630289578e+17
19366.0	4.6609261598692685e+17
19367.0	4.6600924692479994e+17
19368.0	4.659278395386538e+17
19369.0	4.658351859651925e+17
19370.0	4.657555979283113e+17
19371.0	4.6566929907493536e+17
19372.0	4.6559143496690336e+17
19373.0	4.6550527885967354e+17
19374.0	4.654246492372991e+17
19375.0	4.65341494853632e+17
19376.0	4.652588525944831e+17
19377.0	4.6517351269881165e+17
19378.0	4.6509032469080736e+17
19379.0	4.6500671837088416e+17
19380.0	4.6491799423112525e+17
19381.0	4.648354283782143e+17
19382.0	4.6474255802914125e+17
19383.0	4.6465556327082656e+17
19384.0	4.645769768337407e+17
19385.0	4.6449854964039674e+17
19386.0	4.644133243890346e+17
19387.0	4.643258459575635e+17
19388.0	4.6423659948714656e+17
19389.0	4.641432902041598e+17
19390.0	4.6400599672313165e+17
19391.0	4.597212580063861e+17
19392.0	4.636090734477309e+17
19393.0	4.637866115552596e+17
19394.0	4.637153333433684e+17
19395.0	4.6340454848921645e+17
19396.0	4.6349380334824115e+17
19397.0	4.63466993217263e+17
19398.0	4.631770794994348e+17
19399.0	4.629182761926655e+17
19400.0	4.630194637766658e+17
19401.0	4.631149561249792e+17
19402.0	4.630268807741439e+17
19403.0	4.629362353635328e+17
19404.0	4.6284707802207565e+17
19405.0	4.627531953777321e+17
19406.0	4.626642959160661e+17
19407.0	4.6229176678263424e+17
19408.0	4.623585125597186e+17
19409.0	4.623695003779072e+17
19410.0	4.622861700431871e+17
19411.0	4.621897566257151e+17
19412.0	4.6208954400768e+17
19413.0	4.6170691394164045e+17
19414.0	4.61887736189201e+17
19415.0	4.617858246683306e+17
19416.0	4.6163770387114656e+17
19417.0	4.615340502461097e+17
19418.0	4.6146645687009274e+17
19419.0	4.613566355909289e+17
19420.0	4.6124454414472525e+17
19421.0	4.6112651041832954e+17
19422.0	4.609937432204628e+17
19423.0	4.6087123822619296e+17
19424.0	4.6073958482575354e+17
19425.0	4.6059318662922234e+17
19426.0	4.604465996890111e+17
19427.0	4.6028303651307514e+17
19428.0	4.601125707710463e+17
19429.0	4.599172336451583e+17
19430.0	4.5952303771593395e+17
19431.0	4.587318121157979e+17
19432.0	4.592173030834175e+17
19433.0	4.589651940955477e+17
19434.0	4.586814524358655e+17
19435.0	4.581949969181353e+17
19436.0	4.576082544033789e+17
19437.0	4.5744441852777805e+17
19438.0	4.483442560117425e+17
19439.0	4.556878426843818e+17
19440.0	4.557165105425067e+17
19441.0	4.5485991559604896e+17
19442.0	4.5376738426879994e+17
19443.0	4.5257508568869536e+17
19444.0	4.510326484981074e+17
19445.0	4.4889052642891085e+17
19446.0	4.460025444215465e+17
19447.0	4.419208364425215e+17
19448.0	4.36266541776896e+17
19449.0	4.2644139409408006e+17
19450.0	4.018261934997468e+17
19451.0	3.8166159453498266e+17
19452.0	4.175335689377114e+17
19453.0	4.319741353132036e+17
19454.0	4.389835715029671e+17
19455.0	4.435281052696577e+17
19456.0	4.467391668245848e+17
19457.0	4.488703767827795e+17
19458.0	4.16041682477659e+17
19459.0	4.49994534560298e+17
19460.0	4.527713689796606e+17
19461.0	4.537314146866517e+17
19462.0	4.5440830041402016e+17
19463.0	4.5490163025619616e+17
19464.0	4.552758722035711e+17
19465.0	4.555731325244755e+17
19466.0	4.55789845291554e+17
19467.0	4.5596793257328634e+17
19468.0	4.560959021165226e+17
19469.0	4.5561784128853235e+17
19470.0	4.562989032843946e+17
19471.0	4.563815010140159e+17
19472.0	4.564266547238228e+17
19473.0	4.5645035261132794e+17
19474.0	4.559015959505569e+17
19475.0	4.5633280018131616e+17
19476.0	4.5645349701113165e+17
19477.0	4.5644654292500474e+17
19478.0	4.564290073788415e+17
19479.0	4.5584877463360755e+17
19480.0	4.563566179560106e+17
19481.0	4.563079823447381e+17
19482.0	4.562719694913536e+17
19483.0	4.562274185030313e+17
19484.0	4.561719219890858e+17
19485.0	4.561120795470506e+17
19486.0	4.554809028553402e+17
19487.0	4.5600297933864954e+17
19488.0	4.5594403657482234e+17
19489.0	4.5584458312581114e+17
19490.0	4.555981166652072e+17
19491.0	4.5574329844367354e+17
19492.0	4.556882282108245e+17
19493.0	4.5562022365320525e+17
19494.0	4.5554845918167034e+17
19495.0	4.5547079647013536e+17
19496.0	4.5531880705665696e+17
19497.0	4.5528352170530125e+17
19498.0	4.5438735839395846e+17
19499.0	4.4850918450353146e+17
19500.0	4.550273993277439e+17
19501.0	4.550327668484778e+17
19502.0	4.5497308735515296e+17
19503.0	4.5490802810770765e+17
19504.0	4.5483510537912314e+17
19505.0	4.547490077824341e+17
19506.0	4.5468634669820576e+17
19507.0	4.5460407304847354e+17
19508.0	4.5452392695944525e+17
19509.0	4.544212877268308e+17
19510.0	4.5410600063685946e+17
19511.0	4.338677201239887e+17
19512.0	4.528079560332612e+17
19513.0	4.5208478119799194e+17
19514.0	4.5250246788601005e+17
19515.0	4.5387779988084064e+17
19516.0	4.5384020822152506e+17
19517.0	4.5382849688589645e+17
19518.0	4.536150063229607e+17
19519.0	4.535318449487869e+17
19520.0	4.530773217858893e+17
19521.0	4.535516393373695e+17
19522.0	4.5339263816608416e+17
19523.0	4.532605361149272e+17
19524.0	4.529028491553461e+17
19525.0	4.5323214745763834e+17
19526.0	4.5316677678312096e+17
19527.0	4.530879477055487e+17
19528.0	4.529716901270867e+17
19529.0	4.528713797817686e+17
19530.0	4.5285764154873165e+17
19531.0	4.5277958219584845e+17
19532.0	4.527009213797717e+17
19533.0	4.5262281127581e+17
19534.0	4.525466290836821e+17
19535.0	4.524665614281385e+17
19536.0	4.523846473700693e+17
19537.0	4.5230543003975674e+17
19538.0	4.5169605009735744e+17
19539.0	4.5207661146275846e+17
19540.0	4.5207132223569914e+17
19541.0	4.5188380671781536e+17
19542.0	4.5187111936764576e+17
19543.0	4.512931759434414e+17
19544.0	4.5172887779628365e+17
19545.0	4.5159531200293523e+17
19546.0	4.514758508150783e+17
19547.0	4.5152823061162656e+17
19548.0	4.514521816585557e+17
19549.0	4.5135992109137914e+17
19550.0	4.5129463227569485e+17
19551.0	4.5121842554688845e+17
19552.0	4.5113842779641165e+17
19553.0	4.510577142879572e+17
19554.0	4.5097419611832314e+17
19555.0	4.508416895265452e+17
19556.0	4.507808006056617e+17
19557.0	4.507411521994751e+17
19558.0	4.506678860272981e+17
19559.0	4.505915183071231e+17
19560.0	4.5031682823509286e+17
19561.0	4.504307490269866e+17
19562.0	4.5016411907904826e+17
19563.0	4.502792254608725e+17
19564.0	4.501971276223828e+17
19565.0	4.501210412001962e+17
19566.0	4.500381581879978e+17
19567.0	4.4996530858011296e+17
19568.0	4.4988425952733856e+17
19569.0	4.4980565065072634e+17
19570.0	4.497257155351892e+17
19571.0	4.496491350938965e+17
19572.0	4.49569129304337e+17
19573.0	4.4942979235839994e+17
19574.0	4.4938199113400314e+17
19575.0	4.4933939930507936e+17
19576.0	4.4922894321800525e+17
19577.0	4.490891287505579e+17
19578.0	4.49098808435234e+17
19579.0	4.4902322337218554e+17
19580.0	4.4894433788122445e+17
19581.0	4.4886604930962765e+17
19582.0	4.4879201837602125e+17
19583.0	4.487145894969343e+17
19584.0	4.4863292066583885e+17
19585.0	4.4854070756420256e+17
19586.0	4.484553136319146e+17
19587.0	4.483868650373119e+17
19588.0	4.4825391895237984e+17
19589.0	4.4823922441803085e+17
19590.0	4.481419306860543e+17
19591.0	4.480865430842025e+17
19592.0	4.480099305564843e+17
19593.0	4.478811217330175e+17
19594.0	4.4777271987623245e+17
19595.0	4.4777309722378234e+17
19596.0	4.476823906462379e+17
19597.0	4.4761832880428365e+17
19598.0	4.474437375448403e+17
19599.0	4.4746226476427936e+17
19600.0	4.4738514968903674e+17
19601.0	4.472983590535166e+17
19602.0	4.4721620913575245e+17
19603.0	4.4706436204898976e+17
19604.0	4.4705717042544634e+17
19605.0	4.4695315776798726e+17
19606.0	4.4691655302840314e+17
19607.0	4.4684130959141536e+17
19608.0	4.4675934093748896e+17
19609.0	4.466778841983659e+17
19610.0	4.463442106078553e+17
19611.0	4.461421020577794e+17
19612.0	4.4645280945711776e+17
19613.0	4.4637160912977914e+17
19614.0	4.4629146758458016e+17
19615.0	4.462160444216661e+17
19616.0	4.458429343072261e+17
19617.0	4.456686922934958e+17
19618.0	4.458667249587539e+17
19619.0	4.4572910453172896e+17
19620.0	4.4558761115429485e+17
19621.0	4.451917967829672e+17
19622.0	4.456726296264704e+17
19623.0	4.455690698140329e+17
19624.0	4.4544056479798624e+17
19625.0	4.45437616062464e+17
19626.0	4.4535498883290445e+17
19627.0	4.452693570136746e+17
19628.0	4.4512841945142624e+17
19629.0	4.437202328442189e+17
19630.0	4.445030227203412e+17
19631.0	4.42732225879518e+17
19632.0	4.4478392399735456e+17
19633.0	4.447697845791403e+17
19634.0	4.447298601178453e+17
19635.0	4.445923376278183e+17
19636.0	4.4395130530037677e+17
19637.0	4.438557183006031e+17
19638.0	4.443856718266364e+17
19639.0	4.443522223221418e+17
19640.0	4.442543949348864e+17
19641.0	4.439553027517105e+17
19642.0	4.4408107175335245e+17
19643.0	4.4400452228000416e+17
19644.0	4.439579914403838e+17
19645.0	4.438539032155476e+17
19646.0	4.431409717794123e+17
19647.0	4.437268877366612e+17
19648.0	4.4366187728295245e+17
19649.0	4.435833674618196e+17
19650.0	4.4350739330717005e+17
19651.0	4.4343003398362445e+17
19652.0	4.433526659918506e+17
19653.0	4.4327296624667296e+17
19654.0	4.4319843786861216e+17
19655.0	4.4311944486365856e+17
