# Flux units: erg / (cm m2 s)
# Wavelength units: Angstrom
wave	flux
19000.0	8.791444645653161e+17
19001.0	8.789913663176703e+17
19002.0	8.788430813134847e+17
19003.0	8.786918745571325e+17
19004.0	8.785404081733631e+17
19005.0	8.783887698231295e+17
19006.0	8.782367816679424e+17
19007.0	8.780831447318527e+17
19008.0	8.779304696894803e+17
19009.0	8.777772833614501e+17
19010.0	8.777888288822611e+17
19011.0	8.776532468869801e+17
19012.0	8.774960793255935e+17
19013.0	8.773463563741868e+17
19014.0	8.771906092837545e+17
19015.0	8.770376597940905e+17
19016.0	8.768816087564285e+17
19017.0	8.767264913708372e+17
19018.0	8.765826201725608e+17
19019.0	8.76433552930679e+17
19020.0	8.762774711347882e+17
19021.0	8.761217357884073e+17
19022.0	8.759661194204498e+17
19023.0	8.758098631415122e+17
19024.0	8.756531886904663e+17
19025.0	8.754966864855039e+17
19026.0	8.753390726501715e+17
19027.0	8.751801132821161e+17
19028.0	8.750255801630719e+17
19029.0	8.748681729671165e+17
19030.0	8.747106185510911e+17
19031.0	8.745527847944191e+17
19032.0	8.743947576803327e+17
19033.0	8.74234236633088e+17
19034.0	8.740780927614975e+17
19035.0	8.739179766043987e+17
19036.0	8.735876258114217e+17
19037.0	8.736014910619647e+17
19038.0	8.734428240368979e+17
19039.0	8.732836205603498e+17
19040.0	8.731242249846783e+17
19041.0	8.729646507316564e+17
19042.0	8.728028224596649e+17
19043.0	8.726450197408425e+17
19044.0	8.72484886107477e+17
19045.0	8.723247067561983e+17
19046.0	8.721631413272575e+17
19047.0	8.72003400700177e+17
19048.0	8.718383454704978e+17
19049.0	8.716804827731284e+17
19050.0	8.715200745526611e+17
19051.0	8.713315921778003e+17
19052.0	8.711936953461417e+17
19053.0	8.710373494489085e+17
19054.0	8.708758420411731e+17
19055.0	8.707075394415273e+17
19056.0	8.705523155206143e+17
19057.0	8.703903295427922e+17
19058.0	8.702281820842664e+17
19059.0	8.700658899222527e+17
19060.0	8.699029673563474e+17
19061.0	8.69741001511185e+17
19062.0	8.695782286819327e+17
19063.0	8.694154659190098e+17
19064.0	8.692497330296148e+17
19065.0	8.690846729065811e+17
19066.0	8.689246052635987e+17
19067.0	8.687630352209234e+17
19068.0	8.685996230399315e+17
19069.0	8.684360858686803e+17
19070.0	8.682721640797524e+17
19071.0	8.681085996455251e+17
19072.0	8.67944667370837e+17
19073.0	8.677804932246186e+17
19074.0	8.676164574904317e+17
19075.0	8.674521663231318e+17
19076.0	8.672872439130794e+17
19077.0	8.671229422600192e+17
19078.0	8.669578290091347e+17
19079.0	8.667938195592532e+17
19080.0	8.666287664267263e+17
19081.0	8.664627959999146e+17
19082.0	8.66297736995362e+17
19083.0	8.661305565118461e+17
19084.0	8.659613841533609e+17
19085.0	8.658027403367762e+17
19086.0	8.656262711476224e+17
19087.0	8.654672997558952e+17
19088.0	8.653027056200362e+17
19089.0	8.65132928442914e+17
19090.0	8.649734361186301e+17
19091.0	8.648069158185642e+17
19092.0	8.646393315633833e+17
19093.0	8.644752042535594e+17
19094.0	8.643066009223167e+17
19095.0	8.641396441350143e+17
19096.0	8.639753423421439e+17
19097.0	8.638090009990484e+17
19098.0	8.636422398061224e+17
19099.0	8.634752500236288e+17
19100.0	8.633081910351187e+17
19101.0	8.631409663716009e+17
19102.0	8.629717615771647e+17
19103.0	8.628063101255679e+17
19104.0	8.62638774104883e+17
19105.0	8.624710770229245e+17
19106.0	8.623025848407379e+17
19107.0	8.621350401518249e+17
19108.0	8.619671662100479e+17
19109.0	8.617820728328191e+17
19110.0	8.616295218020353e+17
19111.0	8.614629861228543e+17
19112.0	8.612947450396671e+17
19113.0	8.611262908858367e+17
19114.0	8.609576932868093e+17
19115.0	8.607881393864701e+17
19116.0	8.606201313667752e+17
19117.0	8.604505609688404e+17
19118.0	8.602794630053889e+17
19119.0	8.600651000971261e+17
19120.0	8.599421986013183e+17
19121.0	8.597732258917033e+17
19122.0	8.596049123868671e+17
19123.0	8.594351921124692e+17
19124.0	8.592644261980842e+17
19125.0	8.590955779194879e+17
19126.0	8.589254537336146e+17
19127.0	8.587155710410752e+17
19128.0	8.585792375663272e+17
19129.0	8.584128389010772e+17
19130.0	8.582446373841574e+17
19131.0	8.580742590234624e+17
19132.0	8.579034100618582e+17
19133.0	8.577255219396607e+17
19134.0	8.57558620237551e+17
19135.0	8.573909845322409e+17
19136.0	8.572140376118612e+17
19137.0	8.570296842496682e+17
19138.0	8.568615494221821e+17
19139.0	8.566905810627242e+17
19140.0	8.565190509461501e+17
19141.0	8.563473207612756e+17
19142.0	8.561754144156332e+17
19143.0	8.560022253120169e+17
19144.0	8.558310700264106e+17
19145.0	8.556590384108883e+17
19146.0	8.554721217697106e+17
19147.0	8.553120126031186e+17
19148.0	8.550179205895507e+17
19149.0	8.54795892031488e+17
19150.0	8.546227682192041e+17
19151.0	8.544497815606611e+17
19152.0	8.542763654053885e+17
19153.0	8.541030322973353e+17
19154.0	8.53926354231842e+17
19155.0	8.537555757345449e+17
19156.0	8.53581455635251e+17
19157.0	8.534061291143167e+17
19158.0	8.532234196396713e+17
19159.0	8.530578761930068e+17
19160.0	8.528841749648723e+17
19161.0	8.527085141579092e+17
19162.0	8.525083087033683e+17
19163.0	8.523579739428182e+17
19164.0	8.521853524683433e+17
19165.0	8.52009938006835e+17
19166.0	8.518322728818003e+17
19167.0	8.516568321359871e+17
19168.0	8.514820394101417e+17
19169.0	8.513066534699007e+17
19170.0	8.511316610951849e+17
19171.0	8.509545564689747e+17
19172.0	8.507789836025855e+17
19173.0	8.506025384607743e+17
19174.0	8.504245468790783e+17
19175.0	8.502488898469885e+17
19176.0	8.500717265005226e+17
19177.0	8.498905169089875e+17
19178.0	8.497159903816361e+17
19179.0	8.495375883173888e+17
19180.0	8.49360450835797e+17
19181.0	8.491807924376915e+17
19182.0	8.490038934721876e+17
19183.0	8.488261170582867e+17
19184.0	8.486461671560532e+17
19185.0	8.48468267849045e+17
19186.0	8.482892847338834e+17
19187.0	8.481079969884841e+17
19188.0	8.479302307807233e+17
19189.0	8.477504991221078e+17
19190.0	8.475702709977085e+17
19191.0	8.472654299616594e+17
19192.0	8.469929177819816e+17
19193.0	8.468112909970089e+17
19194.0	8.466303084571305e+17
19195.0	8.464488418945708e+17
19196.0	8.462662792205651e+17
19197.0	8.4608298282298e+17
19198.0	8.458950349422591e+17
19199.0	8.45558331875874e+17
19200.0	8.454134358693203e+17
19201.0	8.453477375497555e+17
19202.0	8.451695849067859e+17
19203.0	8.449873651870377e+17
19204.0	8.448034685845503e+17
19205.0	8.446201577865215e+17
19206.0	8.444355917731155e+17
19207.0	8.442496764521132e+17
19208.0	8.440619475140607e+17
19209.0	8.438809920973481e+17
19210.0	8.436953411573076e+17
19211.0	8.435093281090217e+17
19212.0	8.433230277509119e+17
19213.0	8.431336307381587e+17
19214.0	8.429456678977536e+17
19215.0	8.427614975470249e+17
19216.0	8.423304710149457e+17
19217.0	8.42119535272482e+17
19218.0	8.419117128220668e+17
19219.0	8.417373709839016e+17
19220.0	8.415527476483412e+17
19221.0	8.413556725426858e+17
19222.0	8.411728228384767e+17
19223.0	8.409826813367634e+17
19224.0	8.407915615835476e+17
19225.0	8.405973397230931e+17
19226.0	8.404091878593875e+17
19227.0	8.402172449041066e+17
19228.0	8.400248267341824e+17
19229.0	8.398319523637928e+17
19230.0	8.396385829257216e+17
19231.0	8.394449718957395e+17
19232.0	8.392502777566548e+17
19233.0	8.390051104817152e+17
19234.0	8.3869920423226e+17
19235.0	8.385038799689043e+17
19236.0	8.383074614116348e+17
19237.0	8.381102186736296e+17
19238.0	8.379108129330515e+17
19239.0	8.377153657765885e+17
19240.0	8.375143192242856e+17
19241.0	8.373170609673556e+17
19242.0	8.37118605795874e+17
19243.0	8.369140940494164e+17
19244.0	8.367181305741311e+17
19245.0	8.365170229247999e+17
19246.0	8.36315099902771e+17
19247.0	8.361132356009983e+17
19248.0	8.359105385900713e+17
19249.0	8.357071323223382e+17
19250.0	8.355030140015956e+17
19251.0	8.352954289487871e+17
19252.0	8.350854745336488e+17
19253.0	8.348871685395795e+17
19254.0	8.346804143783935e+17
19255.0	8.344686044031658e+17
19256.0	8.342648156149075e+17
19257.0	8.340571033348777e+17
19258.0	8.338477594705917e+17
19259.0	8.336357838203561e+17
19260.0	8.334243604201468e+17
19261.0	8.332154674435411e+17
19262.0	8.330031925996202e+17
19263.0	8.327894010953727e+17
19264.0	8.325651406083412e+17
19265.0	8.323575166883156e+17
19266.0	8.321433883814569e+17
19267.0	8.319291610890237e+17
19268.0	8.317112791597053e+17
19269.0	8.314925613056e+17
19270.0	8.312729022496765e+17
19271.0	8.310453447600812e+17
19272.0	8.308302839196328e+17
19273.0	8.305351798205096e+17
19274.0	8.303423135591078e+17
19275.0	8.301623959530153e+17
19276.0	8.299378987674282e+17
19277.0	8.296899534651391e+17
19278.0	8.294530772107263e+17
19279.0	8.292253726408703e+17
19280.0	8.289952641755817e+17
19281.0	8.28767384703249e+17
19282.0	8.285367814498986e+17
19283.0	8.283036941899092e+17
19284.0	8.2806912843776e+17
19285.0	8.27835672498449e+17
19286.0	8.27604560196403e+17
19287.0	8.273691199318697e+17
19288.0	8.270876958348628e+17
19289.0	8.267885800237736e+17
19290.0	8.266565349452458e+17
19291.0	8.264101770472105e+17
19292.0	8.261760712703999e+17
19293.0	8.259338841882621e+17
19294.0	8.256907886198781e+17
19295.0	8.254463251491497e+17
19296.0	8.252006040862717e+17
19297.0	8.249535567844692e+17
19298.0	8.247052959307092e+17
19299.0	8.244556881461247e+17
19300.0	8.242046886914726e+17
19301.0	8.23952231855991e+17
19302.0	8.23698291495185e+17
19303.0	8.234413127805609e+17
19304.0	8.231840073296553e+17
19305.0	8.229244618407933e+17
19306.0	8.226621531444564e+17
19307.0	8.223965741492906e+17
19308.0	8.221317938894164e+17
19309.0	8.218596886970367e+17
19310.0	8.2154495175994e+17
19311.0	8.212629250812585e+17
19312.0	8.209913564801706e+17
19313.0	8.207154758549503e+17
19314.0	8.20380305527057e+17
19315.0	8.201043357029715e+17
19316.0	8.198777265455103e+17
19317.0	8.195949767688191e+17
19318.0	8.193094474268672e+17
19319.0	8.190216731536041e+17
19320.0	8.187280815205034e+17
19321.0	8.184356227689128e+17
19322.0	8.181388668130646e+17
19323.0	8.178429291659263e+17
19324.0	8.175457357441708e+17
19325.0	8.172420008858964e+17
19326.0	8.169412504147284e+17
19327.0	8.165913406035283e+17
19328.0	8.162321583046655e+17
19329.0	8.159201936627028e+17
19330.0	8.156044549860009e+17
19331.0	8.15286402871023e+17
19332.0	8.149665019068415e+17
19333.0	8.146425744108202e+17
19334.0	8.143151905286825e+17
19335.0	8.139846540678486e+17
19336.0	8.136504064868352e+17
19337.0	8.133126636524884e+17
19338.0	8.129373482429097e+17
19339.0	8.124894046846975e+17
19340.0	8.121394437029888e+17
19341.0	8.117867393668436e+17
19342.0	8.11422363960388e+17
19343.0	8.110689649076905e+17
19344.0	8.107036241122643e+17
19345.0	8.102952153645052e+17
19346.0	8.099045030843731e+17
19347.0	8.09391856095505e+17
19348.0	8.090081982152701e+17
19349.0	8.086172897815209e+17
19350.0	8.082217039997609e+17
19351.0	8.078217989237417e+17
19352.0	8.073296002853548e+17
19353.0	8.067628801895081e+17
19354.0	8.063467163134634e+17
19355.0	8.059232637157373e+17
19356.0	8.054977445844308e+17
19357.0	8.049209520073385e+17
19358.0	8.043142596351318e+17
19359.0	8.03864244789794e+17
19360.0	8.034127774569812e+17
19361.0	8.028748444073983e+17
19362.0	8.021075058578772e+17
19363.0	8.016312348093097e+17
19364.0	8.011479012518569e+17
19365.0	8.005071172971181e+17
19366.0	7.997097507465897e+17
19367.0	7.992022177327788e+17
19368.0	7.98681102164514e+17
19369.0	7.977388273041408e+17
19370.0	7.970685196435455e+17
19371.0	7.965189423671973e+17
19372.0	7.95364893742421e+17
19373.0	7.947923097299626e+17
19374.0	7.940452990145871e+17
19375.0	7.932764842098685e+17
19376.0	7.926740777172992e+17
19377.0	7.920670879689385e+17
19378.0	7.914424108406099e+17
19379.0	7.908066263564288e+17
19380.0	7.9015988704925e+17
19381.0	7.895011746818728e+17
19382.0	7.888135491594922e+17
19383.0	7.881020787392511e+17
19384.0	7.874072429286738e+17
19385.0	7.866966758217046e+17
19386.0	7.859722387106472e+17
19387.0	7.852336663756799e+17
19388.0	7.844757240457897e+17
19389.0	7.837015802380288e+17
19390.0	7.828391006131538e+17
19391.0	7.819254399937193e+17
19392.0	7.812097906485928e+17
19393.0	7.803739761715881e+17
19394.0	7.795182732836863e+17
19395.0	7.785307762764458e+17
19396.0	7.776368537720147e+17
19397.0	7.767232250292905e+17
19398.0	7.757869884287658e+17
19399.0	7.746773748198057e+17
19400.0	7.736876418291027e+17
19401.0	7.726717303696041e+17
19402.0	7.714901288026111e+17
19403.0	7.703354339753983e+17
19404.0	7.691954705225042e+17
19405.0	7.678079743470249e+17
19406.0	7.666127247944362e+17
19407.0	7.651162614398975e+17
19408.0	7.637973593314644e+17
19409.0	7.621485655665321e+17
19410.0	7.606876222346583e+17
19411.0	7.589265647075327e+17
19412.0	7.571962145188521e+17
19413.0	7.554213427718826e+17
19414.0	7.534063353768617e+17
19415.0	7.513764636480856e+17
19416.0	7.494623214348969e+17
19417.0	7.476604519317503e+17
19418.0	7.459401841508351e+17
19419.0	7.440953163208019e+17
19420.0	7.422015093516969e+17
19421.0	7.402389355102207e+17
19422.0	7.381384660953769e+17
19423.0	7.359587411121491e+17
19424.0	7.336674504387244e+17
19425.0	7.312559909983572e+17
19426.0	7.287835266646011e+17
19427.0	7.261800096246442e+17
19428.0	7.234460073678163e+17
19429.0	7.205502677155835e+17
19430.0	7.174330502174036e+17
19431.0	7.140857488605184e+17
19432.0	7.106287899421353e+17
19433.0	7.070115809285463e+17
19434.0	7.032422338134015e+17
19435.0	6.991891489532586e+17
19436.0	6.949027727802367e+17
19437.0	6.904644592730111e+17
19438.0	6.858274785722364e+17
19439.0	6.80952769614097e+17
19440.0	6.757354283117225e+17
19441.0	6.701567640775336e+17
19442.0	6.642100127574701e+17
19443.0	6.578686601986047e+17
19444.0	6.511303337530705e+17
19445.0	6.439637265765719e+17
19446.0	6.363670794381993e+17
19447.0	6.283224030380027e+17
19448.0	6.198049241388375e+17
19449.0	6.106616894062591e+17
19450.0	5.999396861422243e+17
19451.0	5.941548268475739e+17
19452.0	6.054839066121554e+17
19453.0	6.15027536804796e+17
19454.0	6.235809173383846e+17
19455.0	6.316226503158442e+17
19456.0	6.392028859116205e+17
19457.0	6.463391626777937e+17
19458.0	6.530205146764628e+17
19459.0	6.59331768839919e+17
19460.0	6.652042189733884e+17
19461.0	6.707269204967423e+17
19462.0	6.758347237752832e+17
19463.0	6.806498462138365e+17
19464.0	6.851325990010879e+17
19465.0	6.89352515518464e+17
19466.0	6.93459206100309e+17
19467.0	6.973634351813974e+17
19468.0	7.009797001270614e+17
19469.0	7.044020255588351e+17
19470.0	7.076815038316545e+17
19471.0	7.107903169232896e+17
19472.0	7.137106254102525e+17
19473.0	7.16451545752098e+17
19474.0	7.18989264228625e+17
19475.0	7.213258175938556e+17
19476.0	7.23619224153839e+17
19477.0	7.257442709318316e+17
19478.0	7.278304109264893e+17
19479.0	7.297583217814185e+17
19480.0	7.316256438179158e+17
19481.0	7.333524521964884e+17
19482.0	7.349845397689683e+17
19483.0	7.36574373503522e+17
19484.0	7.380566907289599e+17
19485.0	7.394568160935936e+17
19486.0	7.410996607975424e+17
19487.0	7.428351427171665e+17
19488.0	7.444688941700431e+17
19489.0	7.459936910267732e+17
19490.0	7.476135052268888e+17
19491.0	7.489459413756588e+17
19492.0	7.502908048277501e+17
19493.0	7.515498188461396e+17
19494.0	7.52674193608977e+17
19495.0	7.538244505829372e+17
19496.0	7.548250965934079e+17
19497.0	7.558211227178326e+17
19498.0	7.567780570901161e+17
19499.0	7.574263109604691e+17
19500.0	7.585295728552614e+17
19501.0	7.592803601219584e+17
19502.0	7.599757279100927e+17
19503.0	7.607444461060096e+17
19504.0	7.61440704344883e+17
19505.0	7.62062513967377e+17
19506.0	7.626624732233728e+17
19507.0	7.632998251189587e+17
19508.0	7.639128383072938e+17
19509.0	7.644549558741674e+17
19510.0	7.649764806666922e+17
19511.0	7.653581721174012e+17
19512.0	7.659890769483089e+17
19513.0	7.664734357334697e+17
19514.0	7.669511444496383e+17
19515.0	7.674201362836138e+17
19516.0	7.678541656577364e+17
19517.0	7.682647175550291e+17
19518.0	7.686627570046292e+17
19519.0	7.690504277153108e+17
19520.0	7.694560296348328e+17
19521.0	7.698140204717396e+17
19522.0	7.701592694325247e+17
19523.0	7.704929818203476e+17
19524.0	7.708154211773097e+17
19525.0	7.71126319906816e+17
19526.0	7.714271885175466e+17
19527.0	7.717580824728915e+17
19528.0	7.723212502728705e+17
19529.0	7.7258917178682e+17
19530.0	7.732085554238807e+17
19531.0	7.736625148723199e+17
19532.0	7.739008638866774e+17
19533.0	7.745453200943791e+17
19534.0	7.748492252413951e+17
19535.0	7.750527934092628e+17
19536.0	7.753625261222569e+17
19537.0	7.758550788997119e+17
19538.0	7.760304884678655e+17
19539.0	7.761923049958057e+17
19540.0	7.7649801131677e+17
19541.0	7.768737177752915e+17
19542.0	7.770209672058195e+17
19543.0	7.771617184011604e+17
19544.0	7.77311775358976e+17
19545.0	7.777021804762451e+17
19546.0	7.778139290380969e+17
19547.0	7.779452851322879e+17
19548.0	7.780538470017705e+17
19549.0	7.781854825764179e+17
19550.0	7.784816225288192e+17
19551.0	7.785727960722088e+17
19552.0	7.786597698590034e+17
19553.0	7.78742007018291e+17
19554.0	7.788194127588008e+17
19555.0	7.789254991500628e+17
19556.0	7.791306761131348e+17
19557.0	7.79191863039317e+17
19558.0	7.792487738725718e+17
19559.0	7.793012611132073e+17
19560.0	7.79349155451153e+17
19561.0	7.793942945508008e+17
19562.0	7.794348172596564e+17
19563.0	7.794758506949289e+17
19564.0	7.796292814110719e+17
19565.0	7.79658043011891e+17
19566.0	7.796828846161919e+17
19567.0	7.797050951335935e+17
19568.0	7.797226661915305e+17
19569.0	7.797382731967145e+17
19570.0	7.797502454180521e+17
19571.0	7.797589105704957e+17
19572.0	7.797639838608041e+17
19573.0	7.797671474845011e+17
19574.0	7.797653074433364e+17
19575.0	7.798034393989119e+17
19576.0	7.798439507831468e+17
19577.0	7.798352931804499e+17
19578.0	7.798240372064255e+17
19579.0	7.798112800909994e+17
19580.0	7.797959322938026e+17
19581.0	7.797785260720127e+17
19582.0	7.797593959912787e+17
19583.0	7.797376397170004e+17
19584.0	7.79713552528179e+17
19585.0	7.796848411191978e+17
19586.0	7.796560082152105e+17
19587.0	7.796309924074836e+17
19588.0	7.795894195847165e+17
19589.0	7.795644766180692e+17
19590.0	7.79527133331456e+17
19591.0	7.794903965412009e+17
19592.0	7.794502324453373e+17
19593.0	7.794257519706108e+17
19594.0	7.794109238476797e+17
19595.0	7.793704246269267e+17
19596.0	7.792996471450281e+17
19597.0	7.792739106160639e+17
19598.0	7.792182239603369e+17
19599.0	7.791696904104617e+17
19600.0	7.791138856151722e+17
19601.0	7.790557503247699e+17
19602.0	7.789968423037608e+17
19603.0	7.789273914802177e+17
19604.0	7.788751558978217e+17
19605.0	7.788071730806783e+17
19606.0	7.78750454486357e+17
19607.0	7.786854998168918e+17
19608.0	7.78619104124382e+17
19609.0	7.785511133380607e+17
19610.0	7.7848296582458e+17
19611.0	7.784130246868991e+17
19612.0	7.783422430106964e+17
19613.0	7.782702171641172e+17
19614.0	7.781959831562921e+17
19615.0	7.781229776601088e+17
19616.0	7.780467905047208e+17
19617.0	7.779719047020543e+17
19618.0	7.778829033887059e+17
19619.0	7.778018171464362e+17
19620.0	7.777233636687872e+17
19621.0	7.776575295935828e+17
19622.0	7.775765517041663e+17
19623.0	7.774945627078655e+17
19624.0	7.774116450926591e+17
19625.0	7.773277862756352e+17
19626.0	7.772430007970472e+17
19627.0	7.771571763893587e+17
19628.0	7.770668610005673e+17
19629.0	7.769804335917738e+17
19630.0	7.769002728925864e+17
19631.0	7.766614555142825e+17
19632.0	7.767418540305064e+17
19633.0	7.76652647895313e+17
19634.0	7.765615095840767e+17
19635.0	7.764682307796991e+17
19636.0	7.763760680796157e+17
19637.0	7.762707326085802e+17
19638.0	7.761861567053821e+17
19639.0	7.760899164427603e+17
19640.0	7.759918421508096e+17
19641.0	7.758847955435519e+17
19642.0	7.757977922568191e+17
19643.0	7.756986986091859e+17
19644.0	7.755976762807636e+17
19645.0	7.754929843557718e+17
19646.0	7.753980132895402e+17
19647.0	7.752964349362177e+17
19648.0	7.751941922051411e+17
19649.0	7.750912628665002e+17
19650.0	7.749878455904938e+17
19651.0	7.74883763097873e+17
19652.0	7.747790869714259e+17
19653.0	7.746737770856445e+17
19654.0	7.745679953406633e+17
19655.0	7.744615009834323e+17
19656.0	7.743544880704169e+17
19657.0	7.742471710703612e+17
19658.0	7.741392407232513e+17
19659.0	7.740307470811135e+17
19660.0	7.739218356862977e+17
19661.0	7.738123575012012e+17
19662.0	7.737023808929791e+17
19663.0	7.735908591031636e+17
19664.0	7.73480418185489e+17
19665.0	7.733696585007103e+17
