# Flux units: erg / (cm m2 s)
# Wavelength units: Angstrom
wave	flux
19000.0	5.2725768089763834e+17
19001.0	5.271504007375529e+17
19002.0	5.2707176096290125e+17
19003.0	5.269778193186815e+17
19004.0	5.268792790395562e+17
19005.0	5.2678216559274656e+17
19006.0	5.2669070355114656e+17
19007.0	5.2660192355723936e+17
19008.0	5.265052252067157e+17
19009.0	5.263953338826751e+17
19010.0	5.2630615717751456e+17
19011.0	5.2621412492028576e+17
19012.0	5.2609493852924576e+17
19013.0	5.2604144081087136e+17
19014.0	5.2594206139132576e+17
19015.0	5.258490449406634e+17
19016.0	5.2576218565836794e+17
19017.0	5.256717889699839e+17
19018.0	5.255757199048702e+17
19019.0	5.254850570878975e+17
19020.0	5.2539015669568845e+17
19021.0	5.25298020978961e+17
19022.0	5.2520567764418554e+17
19023.0	5.2509848123037005e+17
19024.0	5.2499692783315616e+17
19025.0	5.24914776866816e+17
19026.0	5.248149308309504e+17
19027.0	5.247209780019198e+17
19028.0	5.246312414969855e+17
19029.0	5.245369408902486e+17
19030.0	5.244431368891049e+17
19031.0	5.2435001718865914e+17
19032.0	5.242479698422441e+17
19033.0	5.241191710152021e+17
19034.0	5.239743635783679e+17
19035.0	5.2361949477164365e+17
19036.0	5.2280014559423136e+17
19037.0	5.234794195582974e+17
19038.0	5.2360930184396794e+17
19039.0	5.2357360999464954e+17
19040.0	5.2349964029788154e+17
19041.0	5.2341646878747296e+17
19042.0	5.227847431312716e+17
19043.0	5.232428333400064e+17
19044.0	5.231520839106559e+17
19045.0	5.230519476289535e+17
19046.0	5.229594965005653e+17
19047.0	5.2286250461866656e+17
19048.0	5.226861684588543e+17
19049.0	5.215286237418823e+17
19050.0	5.2252403071713274e+17
19051.0	5.223392668723881e+17
19052.0	5.2228123483176954e+17
19053.0	5.22268905115921e+17
19054.0	5.2220348159317325e+17
19055.0	5.219442545917952e+17
19056.0	5.219899677518504e+17
19057.0	5.2195140161590605e+17
19058.0	5.212861503984971e+17
19059.0	5.215466584801278e+17
19060.0	5.2167765064854176e+17
19061.0	5.215824223316649e+17
19062.0	5.214899465267881e+17
19063.0	5.2140158764100256e+17
19064.0	5.2130620735051085e+17
19065.0	5.2120590958810445e+17
19066.0	5.209146581669207e+17
19067.0	5.2102452013083296e+17
19068.0	5.209425974744404e+17
19069.0	5.2085009405706234e+17
19070.0	5.207512036933632e+17
19071.0	5.206600031666175e+17
19072.0	5.203591134445565e+17
19073.0	5.204827421627732e+17
19074.0	5.2038349402494285e+17
19075.0	5.202965804963157e+17
19076.0	5.2020224605552646e+17
19077.0	5.2010931062483616e+17
19078.0	5.2001528782083405e+17
19079.0	5.1992370449394336e+17
19080.0	5.198329740787711e+17
19081.0	5.197360484668757e+17
19082.0	5.1965015709013325e+17
19083.0	5.195477548356949e+17
19084.0	5.194431262446932e+17
19085.0	5.193661841145855e+17
19086.0	5.189409060159486e+17
19087.0	5.1869840415129536e+17
19088.0	5.187878007078906e+17
19089.0	5.189803959473494e+17
19090.0	5.1890457208859296e+17
19091.0	5.187795128330925e+17
19092.0	5.182716682524001e+17
19093.0	5.1863410274467834e+17
19094.0	5.1854412429830816e+17
19095.0	5.184504751368873e+17
19096.0	5.183620772440745e+17
19097.0	5.182701590020096e+17
19098.0	5.1794542158588563e+17
19099.0	5.1780304873280864e+17
19100.0	5.179895193796607e+17
19101.0	5.178983800897536e+17
19102.0	5.1780598502522874e+17
19103.0	5.1771507914833914e+17
19104.0	5.1762809620398074e+17
19105.0	5.1701949493411974e+17
19106.0	5.1743585503368525e+17
19107.0	5.17217852937557e+17
19108.0	5.170479385367893e+17
19109.0	5.171467779396949e+17
19110.0	5.1706025762706765e+17
19111.0	5.168243362059601e+17
19112.0	5.167081395847164e+17
19113.0	5.1679846413107194e+17
19114.0	5.1660129052917734e+17
19115.0	5.165934594839893e+17
19116.0	5.1651549135721805e+17
19117.0	5.164159896737108e+17
19118.0	5.162435029062996e+17
19119.0	5.1564299636353664e+17
19120.0	5.1609430151659514e+17
19121.0	5.160448392080042e+17
19122.0	5.15972510322961e+17
19123.0	5.1588717993437856e+17
19124.0	5.1577660836413434e+17
19125.0	5.156989223742122e+17
19126.0	5.1559303283561805e+17
19127.0	5.154720440822441e+17
19128.0	5.154054732076372e+17
19129.0	5.1532908724223994e+17
19130.0	5.152499828785151e+17
19131.0	5.1516209899765754e+17
19132.0	5.150693430132735e+17
19133.0	5.149775776535893e+17
19134.0	5.148886018555904e+17
19135.0	5.1479967387265696e+17
19136.0	5.147069777969152e+17
19137.0	5.1461043547450016e+17
19138.0	5.145248300094805e+17
19139.0	5.1443643127780685e+17
19140.0	5.1434626247994016e+17
19141.0	5.142543041822719e+17
19142.0	5.14160174773043e+17
19143.0	5.1406994166251514e+17
19144.0	5.139756782452736e+17
19145.0	5.138876903456767e+17
19146.0	5.1374115877027834e+17
19147.0	5.137047113170943e+17
19148.0	5.1343317745882477e+17
19149.0	5.133055389160789e+17
19150.0	5.13435803722274e+17
19151.0	5.133419026928981e+17
19152.0	5.1324883220561914e+17
19153.0	5.12766549600938e+17
19154.0	5.130339566135979e+17
19155.0	5.1297445342085114e+17
19156.0	5.1288146772841805e+17
19157.0	5.126647023927299e+17
19158.0	5.124153299785049e+17
19159.0	5.125969036356266e+17
19160.0	5.1250537112971936e+17
19161.0	5.1240833821354656e+17
19162.0	5.1230465690610336e+17
19163.0	5.1222403049936205e+17
19164.0	5.1214183577245e+17
19165.0	5.116344212477262e+17
19166.0	5.119642019648853e+17
19167.0	5.1188197997499725e+17
19168.0	5.1179317796099405e+17
19169.0	5.117044824124074e+17
19170.0	5.116164756384426e+17
19171.0	5.115238570175146e+17
19172.0	5.1143304865819296e+17
19173.0	5.113469236587178e+17
19174.0	5.1125455480859296e+17
19175.0	5.111636720003753e+17
19176.0	5.110752576099669e+17
19177.0	5.1096951550115834e+17
19178.0	5.108887981479253e+17
19179.0	5.1080179059698336e+17
19180.0	5.1070986480517114e+17
19181.0	5.10615370211874e+17
19182.0	5.105200886273366e+17
19183.0	5.104374216217941e+17
19184.0	5.103485387276287e+17
19185.0	5.1025365986618016e+17
19186.0	5.101639379014996e+17
19187.0	5.1006542635335674e+17
19188.0	5.0997864718226765e+17
19189.0	5.098832055151275e+17
19190.0	5.097886437430613e+17
19191.0	5.096879640892757e+17
19192.0	5.095886360499541e+17
19193.0	5.094314744304981e+17
19194.0	5.0929156202605235e+17
19195.0	5.092583556513791e+17
19196.0	5.0912540292546554e+17
19197.0	5.089742111287977e+17
19198.0	5.08791481311778e+17
19199.0	5.08567039700719e+17
19200.0	5.0849124408360954e+17
19201.0	5.085297126320809e+17
19202.0	5.085329305720147e+17
19203.0	5.084945399676927e+17
19204.0	5.084528230705834e+17
19205.0	5.083893294869162e+17
19206.0	5.083181093661353e+17
19207.0	5.0822526781794976e+17
19208.0	5.08154694738466e+17
19209.0	5.080784413130751e+17
19210.0	5.079918661249706e+17
19211.0	5.0791089117156685e+17
19212.0	5.078231281565694e+17
19213.0	5.077264249825962e+17
19214.0	5.076413579963049e+17
19215.0	5.075591597042346e+17
19216.0	5.074703419615914e+17
19217.0	5.0737838499211936e+17
19218.0	5.0727652408251725e+17
19219.0	5.0718406030131194e+17
19220.0	5.071126127793493e+17
19221.0	5.0702454665598285e+17
19222.0	5.069355483485525e+17
19223.0	5.068510684949162e+17
19224.0	5.0675930103807994e+17
19225.0	5.066766819874134e+17
19226.0	5.0658950994984954e+17
19227.0	5.0650049682254496e+17
19228.0	5.064146820617557e+17
19229.0	5.063192120830634e+17
19230.0	5.0623514404017485e+17
19231.0	5.0614816011714554e+17
19232.0	5.0605940990279674e+17
19233.0	5.059646293278719e+17
19234.0	5.058786026848256e+17
19235.0	5.057881516802047e+17
19236.0	5.0570232510545914e+17
19237.0	5.056093973643262e+17
19238.0	5.0551764186125645e+17
19239.0	5.054354079176019e+17
19240.0	5.0534458131305805e+17
19241.0	5.05256306872593e+17
19242.0	5.0516360052080634e+17
19243.0	5.0506697899595085e+17
19244.0	5.049898043615913e+17
19245.0	5.0490257884665165e+17
19246.0	5.048143349547007e+17
19247.0	5.047249083389268e+17
19248.0	5.046345523352917e+17
19249.0	5.0453012507088205e+17
19250.0	5.0437167377285114e+17
19251.0	5.042785685427539e+17
19252.0	5.042536622762666e+17
19253.0	5.041886221828094e+17
19254.0	5.041026042778964e+17
19255.0	5.0399490811275936e+17
19256.0	5.03920584556544e+17
19257.0	5.0383323600868685e+17
19258.0	5.037417327930026e+17
19259.0	5.0363972410408954e+17
19260.0	5.035144264723114e+17
19261.0	5.0346703447217485e+17
19262.0	5.033720099984725e+17
19263.0	5.032798436633257e+17
19264.0	5.031891210076159e+17
19265.0	5.0310293609949856e+17
19266.0	5.030139621190314e+17
19267.0	5.029435974265514e+17
19268.0	5.028544182747136e+17
19269.0	5.0276634676865696e+17
19270.0	5.026750481651028e+17
19271.0	5.0257966570755405e+17
19272.0	5.024994640439978e+17
19273.0	5.0240059290419194e+17
19274.0	5.02290686620467e+17
19275.0	5.0223856491342496e+17
19276.0	5.0214788706686285e+17
19277.0	5.020608210752853e+17
19278.0	5.019593738638677e+17
19279.0	5.018777764058451e+17
19280.0	5.0179033698140154e+17
19281.0	5.016996833918975e+17
19282.0	5.01610564288512e+17
19283.0	5.015167074391381e+17
19284.0	5.014181400368469e+17
19285.0	5.013181981611349e+17
19286.0	5.011971131484842e+17
19287.0	5.0101613969626445e+17
19288.0	5.0042919830159334e+17
19289.0	5.0019856519877946e+17
19290.0	5.0072890012685645e+17
19291.0	5.0073149094843744e+17
19292.0	5.0070060779874976e+17
19293.0	5.0062695211554125e+17
19294.0	5.0054270057185274e+17
19295.0	5.004610250997759e+17
19296.0	5.001185763262471e+17
19297.0	5.002455802707969e+17
19298.0	5.0019719470994765e+17
19299.0	4.998268763242497e+17
19300.0	5.000236263713451e+17
19301.0	4.9993736002382496e+17
19302.0	4.998478779733332e+17
19303.0	4.9975116095815674e+17
19304.0	4.9966740126651725e+17
19305.0	4.9957567512357536e+17
19306.0	4.9948494345011194e+17
19307.0	4.993852262492842e+17
19308.0	4.992917357723647e+17
19309.0	4.9918552711714125e+17
19310.0	4.9908173983361696e+17
19311.0	4.989672307905876e+17
19312.0	4.988091894857727e+17
19313.0	4.984245781703338e+17
19314.0	4.923674298329784e+17
19315.0	4.925668090096318e+17
19316.0	4.978461707862021e+17
19317.0	4.983774164374869e+17
19318.0	4.9836621799533216e+17
19319.0	4.983069233293993e+17
19320.0	4.981393071276029e+17
19321.0	4.9792827107136845e+17
19322.0	4.9807465102267725e+17
19323.0	4.979905367026346e+17
19324.0	4.9790268504801274e+17
19325.0	4.9781857590094496e+17
19326.0	4.9773356085411834e+17
19327.0	4.9764817461138765e+17
19328.0	4.971003120364207e+17
19329.0	4.974773729755135e+17
19330.0	4.9739170298811725e+17
19331.0	4.973014100388521e+17
19332.0	4.972162527352149e+17
19333.0	4.971292251914239e+17
19334.0	4.9702931603128326e+17
19335.0	4.9601560700081606e+17
19336.0	4.96859193872657e+17
19337.0	4.96779387801873e+17
19338.0	4.966730006091091e+17
19339.0	4.9659833325977594e+17
19340.0	4.964967331659775e+17
19341.0	4.9606857036486054e+17
19342.0	4.962260630547119e+17
19343.0	4.9623864338022406e+17
19344.0	4.957940896585051e+17
19345.0	4.958528463350446e+17
19346.0	4.9591525331435514e+17
19347.0	4.9544151143109965e+17
19348.0	4.95805638185233e+17
19349.0	4.9571868383204685e+17
19350.0	4.954637665479338e+17
19351.0	4.9554287503605754e+17
19352.0	4.9499042654890586e+17
19353.0	4.9537594411362976e+17
19354.0	4.952909178120874e+17
19355.0	4.9519395445145606e+17
19356.0	4.9511384939670176e+17
19357.0	4.9502698522105165e+17
19358.0	4.949377236511402e+17
19359.0	4.947491463451984e+17
19360.0	4.943927786340351e+17
19361.0	4.946732938952703e+17
19362.0	4.945859778532691e+17
19363.0	4.944987784129193e+17
19364.0	4.944117037531134e+17
19365.0	4.9432152684625914e+17
19366.0	4.942307837083647e+17
19367.0	4.9414378028182176e+17
19368.0	4.940574545149951e+17
19369.0	4.939660855170389e+17
19370.0	4.938793084431017e+17
19371.0	4.9378527648153594e+17
19372.0	4.937011328013653e+17
19373.0	4.936089738761556e+17
19374.0	4.935210379859285e+17
19375.0	4.9343565600740685e+17
19376.0	4.9334764385075194e+17
19377.0	4.932578200343893e+17
19378.0	4.9316820341664416e+17
19379.0	4.9307882356736e+17
19380.0	4.92981926966067e+17
19381.0	4.9289339108065274e+17
19382.0	4.927983387148288e+17
19383.0	4.9270997563473914e+17
19384.0	4.9261609494773754e+17
19385.0	4.9253015337915725e+17
19386.0	4.9243452080128e+17
19387.0	4.9233439612381856e+17
19388.0	4.9222613218973005e+17
19389.0	4.920935096254462e+17
19390.0	4.918446605904553e+17
19391.0	4.9102062735414586e+17
19392.0	4.9142949083436365e+17
19393.0	4.9167777832195405e+17
19394.0	4.9165894953205754e+17
19395.0	4.9145882230128666e+17
19396.0	4.914791357349888e+17
19397.0	4.914191634792447e+17
19398.0	4.9120159731111264e+17
19399.0	4.9105835295156896e+17
19400.0	4.910234069893121e+17
19401.0	4.9104446980532896e+17
19402.0	4.9095326704162125e+17
19403.0	4.908572264977749e+17
19404.0	4.9075710992930125e+17
19405.0	4.906553502422356e+17
19406.0	4.9055772984388256e+17
19407.0	4.9029109143743123e+17
19408.0	4.9033521425722016e+17
19409.0	4.902399051999914e+17
19410.0	4.9014607435530234e+17
19411.0	4.9004057097229645e+17
19412.0	4.899310017708032e+17
19413.0	4.896558782174549e+17
19414.0	4.897095356689066e+17
19415.0	4.895921819090943e+17
19416.0	4.89460881039906e+17
19417.0	4.893538660297385e+17
19418.0	4.892334425287338e+17
19419.0	4.8910813203442336e+17
19420.0	4.8897936795019936e+17
19421.0	4.888455330223445e+17
19422.0	4.886987089641472e+17
19423.0	4.8855627508394656e+17
19424.0	4.8840302605107194e+17
19425.0	4.88236951605521e+17
19426.0	4.8806601113818445e+17
19427.0	4.87882115584273e+17
19428.0	4.876769795156649e+17
19429.0	4.874490864118442e+17
19430.0	4.8716371708258976e+17
19431.0	4.8689122000240634e+17
19432.0	4.867131658556755e+17
19433.0	4.864542168667477e+17
19434.0	4.8613642039459834e+17
19435.0	4.8573684694821536e+17
19436.0	4.852662459695104e+17
19437.0	4.8459228919453005e+17
19438.0	4.82635671474449e+17
19439.0	4.8306621691985914e+17
19440.0	4.8324515396758176e+17
19441.0	4.8272910448940365e+17
19442.0	4.819712394046123e+17
19443.0	4.8102018292995405e+17
19444.0	4.798906953105406e+17
19445.0	4.784750597592405e+17
19446.0	4.767222639624192e+17
19447.0	4.7445640684939936e+17
19448.0	4.7143565659559264e+17
19449.0	4.670256565278036e+17
19450.0	4.590058029274447e+17
19451.0	4.5211394587142835e+17
19452.0	4.637023132450815e+17
19453.0	4.6915093490128237e+17
19454.0	4.725351447352659e+17
19455.0	4.7489342781085e+17
19456.0	4.764924311328086e+17
19457.0	4.7706949899605344e+17
19458.0	4.61438978376782e+17
19459.0	4.750570923491359e+17
19460.0	4.802850978092372e+17
19461.0	4.812644274580138e+17
19462.0	4.8186596314316794e+17
19463.0	4.8231232817506976e+17
19464.0	4.82662870627123e+17
19465.0	4.8293396771853645e+17
19466.0	4.831612707536895e+17
19467.0	4.8334567857192954e+17
19468.0	4.834911592644608e+17
19469.0	4.83282501867929e+17
19470.0	4.8369781555855354e+17
19471.0	4.837699875766271e+17
19472.0	4.838200589680639e+17
19473.0	4.8385574158991354e+17
19474.0	4.835345294163962e+17
19475.0	4.838500332120746e+17
19476.0	4.8387822312925856e+17
19477.0	4.838794916965034e+17
19478.0	4.838706121452202e+17
19479.0	4.835261487775739e+17
19480.0	4.838193968272724e+17
19481.0	4.8378193043783674e+17
19482.0	4.837455607190868e+17
19483.0	4.8370355343633056e+17
19484.0	4.8365354481964365e+17
19485.0	4.836034122612734e+17
19486.0	4.832079876106932e+17
19487.0	4.8349020247381325e+17
19488.0	4.834276308680703e+17
19489.0	4.833441949067945e+17
19490.0	4.832637033469268e+17
19491.0	4.8322643821417805e+17
19492.0	4.831730445145429e+17
19493.0	4.8310114309898234e+17
19494.0	4.830211296198655e+17
19495.0	4.829260506202111e+17
19496.0	4.827890796811605e+17
19497.0	4.825927292813311e+17
19498.0	4.818612018391721e+17
19499.0	4.8115793191239674e+17
19500.0	4.822464920726185e+17
19501.0	4.8241287493932365e+17
19502.0	4.82404956442897e+17
19503.0	4.8235688035177805e+17
19504.0	4.822886133006336e+17
19505.0	4.8220238470184954e+17
19506.0	4.821297586503679e+17
19507.0	4.820309632876543e+17
19508.0	4.8190736113336314e+17
19509.0	4.81702378086946e+17
19510.0	4.8092797695863443e+17
19511.0	4.732937167000899e+17
19512.0	4.800707518879059e+17
19513.0	4.807107286488404e+17
19514.0	4.808437763757395e+17
19515.0	4.812620460021076e+17
19516.0	4.812434214049108e+17
19517.0	4.8124987790677325e+17
19518.0	4.8109599196883603e+17
19519.0	4.81022672319283e+17
19520.0	4.807144357145253e+17
19521.0	4.809846067036159e+17
19522.0	4.808505635984724e+17
19523.0	4.8074252923262317e+17
19524.0	4.8048821970316006e+17
19525.0	4.806614823469055e+17
19526.0	4.805886265174698e+17
19527.0	4.805089746572629e+17
19528.0	4.804008994668543e+17
19529.0	4.8030621557063686e+17
19530.0	4.802675819063977e+17
19531.0	4.801858125518164e+17
19532.0	4.8010393051026765e+17
19533.0	4.800206614822911e+17
19534.0	4.799416058423977e+17
19535.0	4.798584036436649e+17
19536.0	4.797728379546282e+17
19537.0	4.796868813564585e+17
19538.0	4.792831781983576e+17
19539.0	4.7951567552948896e+17
19540.0	4.794419039436798e+17
19541.0	4.7928651917120845e+17
19542.0	4.792492788547583e+17
19543.0	4.788579572820652e+17
19544.0	4.7908748861112314e+17
19545.0	4.79001120342016e+17
19546.0	4.789228806340606e+17
19547.0	4.788652242632703e+17
19548.0	4.78789680304401e+17
19549.0	4.7869854213297485e+17
19550.0	4.7862443786895354e+17
19551.0	4.785482458901162e+17
19552.0	4.7846290592453965e+17
19553.0	4.7838232474637645e+17
19554.0	4.7829625294465696e+17
19555.0	4.7817419946721286e+17
19556.0	4.781045538881534e+17
19557.0	4.780481711876778e+17
19558.0	4.7797051434816845e+17
19559.0	4.7788859413845325e+17
19560.0	4.7768238411830586e+17
19561.0	4.777209591321941e+17
19562.0	4.775221755467092e+17
19563.0	4.7756039893811194e+17
19564.0	4.774721382689449e+17
19565.0	4.773925480650068e+17
19566.0	4.773069878984703e+17
19567.0	4.772294027815594e+17
19568.0	4.7714498989697696e+17
19569.0	4.7706366975235405e+17
19570.0	4.769788649799678e+17
19571.0	4.7689715441554765e+17
19572.0	4.768142997848063e+17
19573.0	4.7669241296104083e+17
19574.0	4.766289827812692e+17
19575.0	4.7657064553512954e+17
19576.0	4.764660692331178e+17
19577.0	4.763420097598805e+17
19578.0	4.7632160062614176e+17
19579.0	4.762388611989502e+17
19580.0	4.761541194110293e+17
19581.0	4.760710229087572e+17
19582.0	4.7599292014482765e+17
19583.0	4.7591200796617376e+17
19584.0	4.7582470450708474e+17
19585.0	4.7573491026056525e+17
19586.0	4.7564893772404045e+17
19587.0	4.7557458669513376e+17
19588.0	4.7548334226800634e+17
19589.0	4.754081151188992e+17
19590.0	4.7532163479197e+17
19591.0	4.75248261665041e+17
19592.0	4.751682346243413e+17
19593.0	4.7505250070473376e+17
19594.0	4.749520806084607e+17
19595.0	4.749204874330111e+17
19596.0	4.7483163613593594e+17
19597.0	4.74751998047027e+17
19598.0	4.746381879148542e+17
19599.0	4.7458435835712845e+17
19600.0	4.745045188717226e+17
19601.0	4.744198102887082e+17
19602.0	4.7433359776808954e+17
19603.0	4.7424579413824845e+17
19604.0	4.741689710564692e+17
19605.0	4.740758510764032e+17
19606.0	4.7401139622816416e+17
19607.0	4.739340069153449e+17
19608.0	4.7384595092821325e+17
19609.0	4.737667767992319e+17
19610.0	4.735293576620718e+17
19611.0	4.7336785969152e+17
19612.0	4.73523184345634e+17
19613.0	4.7343613296421536e+17
19614.0	4.733526482791082e+17
19615.0	4.7327068717492896e+17
19616.0	4.7302499288569197e+17
19617.0	4.728588897790636e+17
19618.0	4.729743026946047e+17
19619.0	4.7286078315779405e+17
19620.0	4.72745957025382e+17
19621.0	4.724204715551401e+17
19622.0	4.7268938103739725e+17
19623.0	4.725899459035134e+17
19624.0	4.724702812220075e+17
19625.0	4.7243407319367674e+17
19626.0	4.7233757658917536e+17
19627.0	4.7224027950175565e+17
19628.0	4.721221411274752e+17
19629.0	4.711754132444496e+17
19630.0	4.7180157599525536e+17
19631.0	4.716445330046975e+17
19632.0	4.7171010619419296e+17
19633.0	4.7169462634632525e+17
19634.0	4.7166204310541645e+17
19635.0	4.715642602476882e+17
19636.0	4.7114773733922086e+17
19637.0	4.7105830792724435e+17
19638.0	4.713546307513001e+17
19639.0	4.712966575707476e+17
19640.0	4.711877505799509e+17
19641.0	4.7107459587768314e+17
19642.0	4.710299972840106e+17
19643.0	4.70953540924211e+17
19644.0	4.7089501297704954e+17
19645.0	4.708159358763007e+17
19646.0	4.703321002606585e+17
19647.0	4.706510575763455e+17
19648.0	4.705811129434111e+17
19649.0	4.704981708614313e+17
19650.0	4.7041822302317216e+17
19651.0	4.7033706638650016e+17
19652.0	4.70256680103663e+17
19653.0	4.701730223336106e+17
19654.0	4.7009417543024634e+17
19655.0	4.7001077686818125e+17
