# Flux units: erg / (cm m2 s)
# Wavelength units: Angstrom
wave	flux
19000.0	5.7477820848974496e+17
19001.0	5.7465914806763514e+17
19002.0	5.745668003288405e+17
19003.0	5.744605813975721e+17
19004.0	5.7435505131083085e+17
19005.0	5.742481925384873e+17
19006.0	5.7414302407065594e+17
19007.0	5.7403761079528096e+17
19008.0	5.73924226175249e+17
19009.0	5.738128061672106e+17
19010.0	5.736561753369257e+17
19011.0	5.7361055857595725e+17
19012.0	5.734835771408383e+17
19013.0	5.7340315059268256e+17
19014.0	5.7329116673037645e+17
19015.0	5.73186656698368e+17
19016.0	5.730798537102677e+17
19017.0	5.7298143548538874e+17
19018.0	5.728742023015082e+17
19019.0	5.7276944445603834e+17
19020.0	5.726629363974143e+17
19021.0	5.7255970429992954e+17
19022.0	5.724536772580692e+17
19023.0	5.723437456687103e+17
19024.0	5.7223928450034336e+17
19025.0	5.721364267444905e+17
19026.0	5.720277242959189e+17
19027.0	5.719126123216894e+17
19028.0	5.718217607610366e+17
19029.0	5.7171429542242976e+17
19030.0	5.716123556599123e+17
19031.0	5.71507630809634e+17
19032.0	5.714012977932969e+17
19033.0	5.7128467174522874e+17
19034.0	5.711876591015252e+17
19035.0	5.7106797778261325e+17
19036.0	5.6987351403287834e+17
19037.0	5.7086424897290234e+17
19038.0	5.7076659362201594e+17
19039.0	5.706652948889598e+17
19040.0	5.705612956532735e+17
19041.0	5.7045542554828794e+17
19042.0	5.7031038735482854e+17
19043.0	5.702466368001364e+17
19044.0	5.7014015348790605e+17
19045.0	5.7003591203116365e+17
19046.0	5.699234314933589e+17
19047.0	5.698233864377683e+17
19048.0	5.6968895438083405e+17
19049.0	5.6954780409746746e+17
19050.0	5.695033527238656e+17
19051.0	5.692388186696359e+17
19052.0	5.692673665007615e+17
19053.0	5.6919665752582816e+17
19054.0	5.6909277223540045e+17
19055.0	5.689467400617984e+17
19056.0	5.688768612794367e+17
19057.0	5.6877799838842874e+17
19058.0	5.686421120264873e+17
19059.0	5.685571269689343e+17
19060.0	5.684621007476053e+17
19061.0	5.683603742654464e+17
19062.0	5.682551005904894e+17
19063.0	5.681506448048126e+17
19064.0	5.680308520572245e+17
19065.0	5.679195356484947e+17
19066.0	5.678190023759189e+17
19067.0	5.6773131639630496e+17
19068.0	5.676284303988053e+17
19069.0	5.675241177087998e+17
19070.0	5.674157929573034e+17
19071.0	5.67313938129442e+17
19072.0	5.6719929486868474e+17
19073.0	5.6710590806097914e+17
19074.0	5.6700216782356474e+17
19075.0	5.668978053611519e+17
19076.0	5.6679099880789325e+17
19077.0	5.6668684787821216e+17
19078.0	5.6657917792747514e+17
19079.0	5.66480277217826e+17
19080.0	5.6637465646421325e+17
19081.0	5.66266072015394e+17
19082.0	5.661627570804053e+17
19083.0	5.660513441327785e+17
19084.0	5.6593199304540154e+17
19085.0	5.6585315515979085e+17
19086.0	5.65687936492066e+17
19087.0	5.655979500066132e+17
19088.0	5.655132681972394e+17
19089.0	5.654037651958442e+17
19090.0	5.6532937271323296e+17
19091.0	5.6522505436091725e+17
19092.0	5.6509185962366285e+17
19093.0	5.6502262529611085e+17
19094.0	5.649191348994047e+17
19095.0	5.6481528190511776e+17
19096.0	5.64709342454306e+17
19097.0	5.646071260774398e+17
19098.0	5.644908140429311e+17
19099.0	5.6438385174118394e+17
19100.0	5.6429236397451936e+17
19101.0	5.641909314431657e+17
19102.0	5.640724847176361e+17
19103.0	5.639841338010283e+17
19104.0	5.638808441716735e+17
19105.0	5.637485591090518e+17
19106.0	5.6366867173867514e+17
19107.0	5.635595288182783e+17
19108.0	5.634535052017662e+17
19109.0	5.6329915998754125e+17
19110.0	5.632509711395498e+17
19111.0	5.631461765939199e+17
19112.0	5.6304184880442016e+17
19113.0	5.629475038778708e+17
19114.0	5.6283873348157434e+17
19115.0	5.627318489841662e+17
19116.0	5.6263440320866976e+17
19117.0	5.6253009953641805e+17
19118.0	5.624116451912363e+17
19119.0	5.612960015013189e+17
19120.0	5.622097608966143e+17
19121.0	5.621127165859155e+17
19122.0	5.6201677418878285e+17
19123.0	5.6191360626414925e+17
19124.0	5.6180470430651725e+17
19125.0	5.617061518639103e+17
19126.0	5.615994198993579e+17
19127.0	5.612695821396649e+17
19128.0	5.6138876098095776e+17
19129.0	5.6128289171483296e+17
19130.0	5.6118893965475834e+17
19131.0	5.6108743071716685e+17
19132.0	5.609840697846442e+17
19133.0	5.608741839131987e+17
19134.0	5.6077599099234976e+17
19135.0	5.606745703448574e+17
19136.0	5.6057200311446176e+17
19137.0	5.60448864990003e+17
19138.0	5.603639669642581e+17
19139.0	5.6026315078587725e+17
19140.0	5.601604444443988e+17
19141.0	5.600574967207252e+17
19142.0	5.599511836972372e+17
19143.0	5.598440958459903e+17
19144.0	5.597435448175274e+17
19145.0	5.596452773079722e+17
19146.0	5.594620587147264e+17
19147.0	5.5942829240046925e+17
19148.0	5.593268312080384e+17
19149.0	5.592216428172628e+17
19150.0	5.5913076203629216e+17
19151.0	5.5902804206332576e+17
19152.0	5.5892462024349e+17
19153.0	5.587995384086528e+17
19154.0	5.5870275106897914e+17
19155.0	5.586171842614613e+17
19156.0	5.5851411734964896e+17
19157.0	5.584003477624149e+17
19158.0	5.5825572242827936e+17
19159.0	5.5820179514327034e+17
19160.0	5.5810154351820794e+17
19161.0	5.579988399729322e+17
19162.0	5.578000512144726e+17
19163.0	5.5778530236388685e+17
19164.0	5.576930198465194e+17
19165.0	5.575655854964735e+17
19166.0	5.5747003351913805e+17
19167.0	5.5737719532639565e+17
19168.0	5.572830889858388e+17
19169.0	5.571798009643007e+17
19170.0	5.5707933598897485e+17
19171.0	5.569717423745705e+17
19172.0	5.568736695506262e+17
19173.0	5.5677251384333645e+17
19174.0	5.566628510389587e+17
19175.0	5.5656790227244365e+17
19176.0	5.564656116563967e+17
19177.0	5.563438980573866e+17
19178.0	5.562575581697364e+17
19179.0	5.561511912494421e+17
19180.0	5.5605545017890125e+17
19181.0	5.5593627741934925e+17
19182.0	5.558508498627241e+17
19183.0	5.5575096621793274e+17
19184.0	5.556483861250048e+17
19185.0	5.5554528419075405e+17
19186.0	5.5544437000546976e+17
19187.0	5.553344630925994e+17
19188.0	5.5523995116284576e+17
19189.0	5.551385781906089e+17
19190.0	5.550359270741333e+17
19191.0	5.549294497038335e+17
19192.0	5.548321144482473e+17
19193.0	5.547262412674389e+17
19194.0	5.5462020800402765e+17
19195.0	5.5452233308132685e+17
19196.0	5.5441637762225485e+17
19197.0	5.543112023736319e+17
19198.0	5.541896083122857e+17
19199.0	5.534659258963283e+17
19200.0	5.535191353961131e+17
19201.0	5.538876246458367e+17
19202.0	5.538037569508692e+17
19203.0	5.5370420297837216e+17
19204.0	5.5360305076633594e+17
19205.0	5.5350395523126605e+17
19206.0	5.534023023591423e+17
19207.0	5.532877979298474e+17
19208.0	5.531699173654526e+17
19209.0	5.5309842272747514e+17
19210.0	5.529968146644991e+17
19211.0	5.528970363666431e+17
19212.0	5.5279476189866656e+17
19213.0	5.5267808419075405e+17
19214.0	5.525732755942059e+17
19215.0	5.5248756694930765e+17
19216.0	5.523888207298558e+17
19217.0	5.5228492963730765e+17
19218.0	5.5208422331296403e+17
19219.0	5.5206343543357434e+17
19220.0	5.519791361447253e+17
19221.0	5.5184213381829965e+17
19222.0	5.517774670878036e+17
19223.0	5.5167614654436685e+17
19224.0	5.5157153913460045e+17
19225.0	5.514581440288084e+17
19226.0	5.513720774000639e+17
19227.0	5.5127093448540154e+17
19228.0	5.511728146153471e+17
19229.0	5.510693747600043e+17
19230.0	5.509657384015189e+17
19231.0	5.5086382925742074e+17
19232.0	5.507632526437034e+17
19233.0	5.506541574684671e+17
19234.0	5.505588928009557e+17
19235.0	5.50456112849442e+17
19236.0	5.503591262104234e+17
19237.0	5.502560177750015e+17
19238.0	5.5014412674662394e+17
19239.0	5.500558702018558e+17
19240.0	5.499541883191294e+17
19241.0	5.4985077649571834e+17
19242.0	5.497504416836266e+17
19243.0	5.4963085606475085e+17
19244.0	5.4955039176785914e+17
19245.0	5.4944850380499616e+17
19246.0	5.493460946998613e+17
19247.0	5.492458618093567e+17
19248.0	5.4914609595460256e+17
19249.0	5.4904360631883085e+17
19250.0	5.4893680843380045e+17
19251.0	5.488258107921747e+17
19252.0	5.4870473948091725e+17
19253.0	5.486374694158336e+17
19254.0	5.485399113727998e+17
19255.0	5.484142934360062e+17
19256.0	5.483352429690879e+17
19257.0	5.482367033890132e+17
19258.0	5.4813595634674323e+17
19259.0	5.4802548467083936e+17
19260.0	5.4790712518683296e+17
19261.0	5.4783124792060576e+17
19262.0	5.477241029569193e+17
19263.0	5.4762076159781536e+17
19264.0	5.474576826542761e+17
19265.0	5.4740136510532256e+17
19266.0	5.4728968372224e+17
19267.0	5.4722763563554125e+17
19268.0	5.4712595214499834e+17
19269.0	5.4702542215796045e+17
19270.0	5.469235636251305e+17
19271.0	5.467792316126549e+17
19272.0	5.467183625448105e+17
19273.0	5.465783140351999e+17
19274.0	5.464636740599806e+17
19275.0	5.464206939783166e+17
19276.0	5.463173561843711e+17
19277.0	5.462172844949503e+17
19278.0	5.4611619268089165e+17
19279.0	5.460135917562538e+17
19280.0	5.459045845215913e+17
19281.0	5.4581290213922125e+17
19282.0	5.457139545931775e+17
19283.0	5.456058357121023e+17
19284.0	5.4550680651694074e+17
19285.0	5.4539126665379834e+17
19286.0	5.453046744787625e+17
19287.0	5.4520646184468474e+17
19288.0	5.4480562640213306e+17
19289.0	5.442601424169629e+17
19290.0	5.4490323100194125e+17
19291.0	5.4477352012349446e+17
19292.0	5.447055884768595e+17
19293.0	5.446042110306986e+17
19294.0	5.445028377788415e+17
19295.0	5.4440340851698336e+17
19296.0	5.442881918948692e+17
19297.0	5.4419620920033274e+17
19298.0	5.440964536915285e+17
19299.0	5.439841393180671e+17
19300.0	5.4389716378364576e+17
19301.0	5.437966799339519e+17
19302.0	5.436945454159188e+17
19303.0	5.435850463292074e+17
19304.0	5.434899618769577e+17
19305.0	5.433902449557503e+17
19306.0	5.4328994481657165e+17
19307.0	5.4318032738058234e+17
19308.0	5.430792389219668e+17
19309.0	5.4295808155757216e+17
19310.0	5.428471972320596e+17
19311.0	5.4277097491442336e+17
19312.0	5.426756288774142e+17
19313.0	5.425727415517183e+17
19314.0	5.404453015737668e+17
19315.0	5.405389779282637e+17
19316.0	5.4224720526049274e+17
19317.0	5.421685786279935e+17
19318.0	5.420679205748735e+17
19319.0	5.419691834430804e+17
19320.0	5.4186205840233805e+17
19321.0	5.417537035916628e+17
19322.0	5.4165352627568634e+17
19323.0	5.415528211764564e+17
19324.0	5.4145699908594336e+17
19325.0	5.413384340810409e+17
19326.0	5.4125452241578656e+17
19327.0	5.4115234707319475e+17
19328.0	5.4102772241749325e+17
19329.0	5.409505876989268e+17
19330.0	5.40843580727842e+17
19331.0	5.4073952808468474e+17
19332.0	5.406434070801065e+17
19333.0	5.4053889746752845e+17
19334.0	5.4043243414814714e+17
19335.0	5.402788642510165e+17
19336.0	5.4022471089302176e+17
19337.0	5.401222450948778e+17
19338.0	5.399923495971497e+17
19339.0	5.399159105039017e+17
19340.0	5.3978831781888e+17
19341.0	5.396838521066837e+17
19342.0	5.3955198416759456e+17
19343.0	5.395005578761556e+17
19344.0	5.3937640480003405e+17
19345.0	5.3901479162238234e+17
19346.0	5.390698178150399e+17
19347.0	5.3905237279593805e+17
19348.0	5.3897907810249376e+17
19349.0	5.3886285918153376e+17
19350.0	5.3875014306365434e+17
19351.0	5.3865221815883085e+17
19352.0	5.385180499236179e+17
19353.0	5.3844507958968314e+17
19354.0	5.3833766793816723e+17
19355.0	5.382189121623381e+17
19356.0	5.381250712513193e+17
19357.0	5.3801885546577914e+17
19358.0	5.3790824782452045e+17
19359.0	5.3778808541893965e+17
19360.0	5.3766632708068685e+17
19361.0	5.375788409596585e+17
19362.0	5.3747564982654285e+17
19363.0	5.373672690810879e+17
19364.0	5.372583608319999e+17
19365.0	5.3714914625890976e+17
19366.0	5.3703949610734925e+17
19367.0	5.3692951264843085e+17
19368.0	5.3681912429936634e+17
19369.0	5.367022934993577e+17
19370.0	5.3659147705166496e+17
19371.0	5.3647746929786874e+17
19372.0	5.3637200408302925e+17
19373.0	5.3625653894840314e+17
19374.0	5.361442588284245e+17
19375.0	5.3603009714367136e+17
19376.0	5.3590845435849376e+17
19377.0	5.357908019642367e+17
19378.0	5.356745531938132e+17
19379.0	5.3555740824043514e+17
19380.0	5.354391724883966e+17
19381.0	5.3531911221411834e+17
19382.0	5.3518939895889914e+17
19383.0	5.3506470509718176e+17
19384.0	5.349539176600917e+17
19385.0	5.348315946287104e+17
19386.0	5.347035811151872e+17
19387.0	5.345689364070399e+17
19388.0	5.3444099943956474e+17
19389.0	5.343109261033471e+17
19390.0	5.3417499227586554e+17
19391.0	5.3303339926596115e+17
19392.0	5.338815800191657e+17
19393.0	5.3376253036243616e+17
19394.0	5.3361603534738765e+17
19395.0	5.334679885097642e+17
19396.0	5.333316957896704e+17
19397.0	5.3318639041904634e+17
19398.0	5.330054182251178e+17
19399.0	5.32758479905314e+17
19400.0	5.326940121246378e+17
19401.0	5.325277391486975e+17
19402.0	5.3235931197822285e+17
19403.0	5.3219143775682554e+17
19404.0	5.319768171784873e+17
19405.0	5.3180008542590285e+17
19406.0	5.3156632749670394e+17
19407.0	5.313622892172628e+17
19408.0	5.309989571439276e+17
19409.0	5.3088365943193594e+17
19410.0	5.306651171793578e+17
19411.0	5.304604190659924e+17
19412.0	5.3024788515389434e+17
19413.0	5.300196746111658e+17
19414.0	5.297717596476756e+17
19415.0	5.295360290674005e+17
19416.0	5.2926618390582605e+17
19417.0	5.2900622660621645e+17
19418.0	5.287228390856021e+17
19419.0	5.2843981625972045e+17
19420.0	5.2808591535854925e+17
19421.0	5.2776926854512634e+17
19422.0	5.27346907025681e+17
19423.0	5.269637756704083e+17
19424.0	5.2651476305401165e+17
19425.0	5.2596681792116045e+17
19426.0	5.2536969897792826e+17
19427.0	5.2468009059833184e+17
19428.0	5.238186587105963e+17
19429.0	5.2292905032744954e+17
19430.0	5.222029875041621e+17
19431.0	5.214436296665773e+17
19432.0	5.209074924781567e+17
19433.0	5.201800648982529e+17
19434.0	5.1929166769029114e+17
19435.0	5.1824645531238374e+17
19436.0	5.169083733508096e+17
19437.0	5.153334832223569e+17
19438.0	5.1125599869774534e+17
19439.0	5.101425079440735e+17
19440.0	5.0665952546652224e+17
19441.0	5.0452267675593376e+17
19442.0	5.023143369026221e+17
19443.0	4.995173790515198e+17
19444.0	4.954745342350668e+17
19445.0	4.89143067441016e+17
19446.0	4.810946648910506e+17
19447.0	4.745708159281833e+17
19448.0	4.6579101050688877e+17
19449.0	4.507678356624727e+17
19450.0	4.1627023597459366e+17
19451.0	3.9483408635658746e+17
19452.0	4.3744031222879584e+17
19453.0	4.593661839583922e+17
19454.0	4.702691456450553e+17
19455.0	4.773757770006527e+17
19456.0	4.842101783134201e+17
19457.0	4.917099002593272e+17
19458.0	4.9059533464536115e+17
19459.0	4.995112864055304e+17
19460.0	5.018652641678673e+17
19461.0	5.037643463830187e+17
19462.0	5.064419929227265e+17
19463.0	5.0964841362008685e+17
19464.0	5.1196283979475686e+17
19465.0	5.13705250984209e+17
19466.0	5.149013461084842e+17
19467.0	5.1584862638134605e+17
19468.0	5.16582296204083e+17
19469.0	5.171469315910313e+17
19470.0	5.177391390042794e+17
19471.0	5.181980566792874e+17
19472.0	5.1860652946008723e+17
19473.0	5.192670018273279e+17
19474.0	5.1993425952986426e+17
19475.0	5.2038775585723686e+17
19476.0	5.209506262111572e+17
19477.0	5.213334925563219e+17
19478.0	5.216127513438889e+17
19479.0	5.218519213233493e+17
19480.0	5.220567502290943e+17
19481.0	5.222237024725674e+17
19482.0	5.223706323670356e+17
19483.0	5.22496912654336e+17
19484.0	5.2258315131944954e+17
19485.0	5.2268098080385696e+17
19486.0	5.227234194707798e+17
19487.0	5.227951144566783e+17
19488.0	5.228452226880853e+17
19489.0	5.228705446800041e+17
19490.0	5.227158005874685e+17
19491.0	5.229208643742378e+17
19492.0	5.2293648906540365e+17
19493.0	5.2298398424541856e+17
19494.0	5.2300897880200525e+17
19495.0	5.2305628495871994e+17
19496.0	5.230146156669609e+17
19497.0	5.230751729582079e+17
19498.0	5.2295108985705805e+17
19499.0	5.214265429109406e+17
19500.0	5.2304276762569376e+17
19501.0	5.2303805259885216e+17
19502.0	5.2301305342853114e+17
19503.0	5.229738777204053e+17
19504.0	5.229331079670442e+17
19505.0	5.229072071611732e+17
19506.0	5.2285931331256314e+17
19507.0	5.228039313730217e+17
19508.0	5.2275278183574176e+17
19509.0	5.227039429405353e+17
19510.0	5.2261943253838496e+17
19511.0	5.192280105287648e+17
19512.0	5.222776647800143e+17
19513.0	5.2197430160697946e+17
19514.0	5.220686867988475e+17
19515.0	5.222754444552875e+17
19516.0	5.222795144680789e+17
19517.0	5.2221172340053325e+17
19518.0	5.2214735893954534e+17
19519.0	5.220754050951851e+17
19520.0	5.2198826808005965e+17
19521.0	5.2193780242404685e+17
19522.0	5.218567661638998e+17
19523.0	5.217844930630996e+17
19524.0	5.217002437563733e+17
19525.0	5.2163591781307725e+17
19526.0	5.2156064914036045e+17
19527.0	5.2148305577465165e+17
19528.0	5.214081956271444e+17
19529.0	5.213279420940287e+17
19530.0	5.212524215533567e+17
19531.0	5.2117217738752e+17
19532.0	5.210913891505492e+17
19533.0	5.210100887191551e+17
19534.0	5.2092796284873376e+17
19535.0	5.2084334227619834e+17
19536.0	5.207578790679892e+17
19537.0	5.206794562087594e+17
19538.0	5.205639187223894e+17
19539.0	5.204379846049793e+17
19540.0	5.2042433850682016e+17
19541.0	5.2033918952188576e+17
19542.0	5.2025603870337696e+17
19543.0	5.2015449963670176e+17
19544.0	5.200854297258666e+17
19545.0	5.1993681882426003e+17
19546.0	5.19800123101457e+17
19547.0	5.1983469870667085e+17
19548.0	5.1974918586586445e+17
19549.0	5.1964966090397e+17
19550.0	5.1957555985558176e+17
19551.0	5.19488711897907e+17
19552.0	5.194030693832019e+17
19553.0	5.1931307325085e+17
19554.0	5.192259486788266e+17
19555.0	5.191399179812862e+17
19556.0	5.190599550435326e+17
19557.0	5.189751351017471e+17
19558.0	5.1888684353454074e+17
19559.0	5.187986780760745e+17
19560.0	5.1870026551350605e+17
19561.0	5.186177277624318e+17
19562.0	5.1852497785978874e+17
19563.0	5.184434825330687e+17
19564.0	5.183542870933504e+17
19565.0	5.1826496218944845e+17
19566.0	5.181716312358911e+17
19567.0	5.1808585128782496e+17
19568.0	5.1799338429098656e+17
19569.0	5.1790377739004576e+17
19570.0	5.1781670133213856e+17
19571.0	5.1772638685211296e+17
19572.0	5.1763237180757325e+17
19573.0	5.1754367891537914e+17
19574.0	5.17449819689233e+17
19575.0	5.1737260478955514e+17
19576.0	5.172805552657747e+17
19577.0	5.1718575071341216e+17
19578.0	5.170958009281194e+17
19579.0	5.170074200222378e+17
19580.0	5.1691721074933754e+17
19581.0	5.1682790171388576e+17
19582.0	5.1673958651876685e+17
19583.0	5.166489441839785e+17
19584.0	5.1655762789444256e+17
19585.0	5.1645245446335136e+17
19586.0	5.163578417304917e+17
19587.0	5.1628117306900474e+17
19588.0	5.16133745660177e+17
19589.0	5.161001304806741e+17
19590.0	5.1599669146419194e+17
19591.0	5.1592093170838176e+17
19592.0	5.158306788846249e+17
19593.0	5.157357526974462e+17
19594.0	5.1561414129964365e+17
19595.0	5.155545423369557e+17
19596.0	5.154558001020927e+17
19597.0	5.1537356664777376e+17
19598.0	5.152186075272532e+17
19599.0	5.151919420298581e+17
19600.0	5.151022118163796e+17
19601.0	5.1500215984018765e+17
19602.0	5.149112738862421e+17
19603.0	5.14766749704738e+17
19604.0	5.1472942438372685e+17
19605.0	5.146066629077675e+17
19606.0	5.1455359922995194e+17
19607.0	5.144636072219989e+17
19608.0	5.1437012038014285e+17
19609.0	5.142741719012693e+17
19610.0	5.1418074063394125e+17
19611.0	5.1408413343962445e+17
19612.0	5.140072363283796e+17
19613.0	5.1391825367968403e+17
19614.0	5.138231104372734e+17
19615.0	5.137363920835925e+17
19616.0	5.136276957866667e+17
19617.0	5.13538480144384e+17
19618.0	5.1338183016011066e+17
19619.0	5.132679607484414e+17
19620.0	5.131852081091923e+17
19621.0	5.1316857951136403e+17
19622.0	5.130967008149502e+17
19623.0	5.130044668816041e+17
19624.0	5.1291000178824525e+17
19625.0	5.1282250916604576e+17
19626.0	5.1273021546386765e+17
19627.0	5.126380616417279e+17
19628.0	5.125300600613546e+17
19629.0	5.123948793211562e+17
19630.0	5.12273170895121e+17
19631.0	5.11588071182609e+17
19632.0	5.1216870588197536e+17
19633.0	5.1208205093218976e+17
19634.0	5.1199888718124365e+17
19635.0	5.119016140013567e+17
19636.0	5.1179636325526176e+17
19637.0	5.116639872461483e+17
19638.0	5.1163196380501325e+17
19639.0	5.1154223156428794e+17
19640.0	5.1143868559305376e+17
19641.0	5.111961850565978e+17
19642.0	5.1126675638845434e+17
19643.0	5.1117529854115834e+17
19644.0	5.1107779649208314e+17
19645.0	5.109595427045374e+17
19646.0	5.108827876403881e+17
19647.0	5.108131245850623e+17
19648.0	5.1072183150400845e+17
19649.0	5.106302059544575e+17
19650.0	5.1053970902220794e+17
19651.0	5.104478889967615e+17
19652.0	5.103564921765887e+17
19653.0	5.1026565242989216e+17
19654.0	5.101740619027798e+17
19655.0	5.100823761649662e+17
