# Flux units: erg / (cm m2 s)
# Wavelength units: Angstrom
wave	flux
19000.0	7.150356985981612e+17
19001.0	7.148985606559059e+17
19002.0	7.147725904674815e+17
19003.0	7.146401488874153e+17
19004.0	7.145075852531028e+17
19005.0	7.143774337630207e+17
19006.0	7.142456100039338e+17
19007.0	7.140887252784467e+17
19008.0	7.139784013818538e+17
19009.0	7.138446271315968e+17
19010.0	7.136930796579497e+17
19011.0	7.13580212335411e+17
19012.0	7.133859801290067e+17
19013.0	7.133217597423615e+17
19014.0	7.131855926416723e+17
19015.0	7.130547023948458e+17
19016.0	7.129218233488723e+17
19017.0	7.127915120558079e+17
19018.0	7.126555913005736e+17
19019.0	7.12527140041523e+17
19020.0	7.123935809590612e+17
19021.0	7.122629708917417e+17
19022.0	7.121310459101183e+17
19023.0	7.119960859301203e+17
19024.0	7.118639604607657e+17
19025.0	7.117256436394666e+17
19026.0	7.115920735120041e+17
19027.0	7.114017422879402e+17
19028.0	7.113356242583551e+17
19029.0	7.112015283049812e+17
19030.0	7.110702920280745e+17
19031.0	7.109376960976211e+17
19032.0	7.108049003784874e+17
19033.0	7.106669158858751e+17
19034.0	7.105386867851261e+17
19035.0	7.103979344713044e+17
19036.0	7.060136173152934e+17
19037.0	7.101368197535059e+17
19038.0	7.100061154541565e+17
19039.0	7.098751506885289e+17
19040.0	7.097424285095251e+17
19041.0	7.096095290512723e+17
19042.0	7.094707617617236e+17
19043.0	7.093440086365526e+17
19044.0	7.092105402908671e+17
19045.0	7.090756840499881e+17
19046.0	7.089422352777216e+17
19047.0	7.088110286405632e+17
19048.0	7.086677587656701e+17
19049.0	7.08539509252642e+17
19050.0	7.084097682451114e+17
19051.0	7.076305895948279e+17
19052.0	7.080151538641577e+17
19053.0	7.080072056580777e+17
19054.0	7.078804739238569e+17
19055.0	7.077331557067433e+17
19056.0	7.076132701951316e+17
19057.0	7.074802615451647e+17
19058.0	7.073402808434687e+17
19059.0	7.072144496263165e+17
19060.0	7.070806383263744e+17
19061.0	7.06948790100514e+17
19062.0	7.068153501362858e+17
19063.0	7.066822478135293e+17
19064.0	7.065426556441939e+17
19065.0	7.064059571251881e+17
19066.0	7.062793467461632e+17
19067.0	7.061493870755837e+17
19068.0	7.060162847528276e+17
19069.0	7.05883068764433e+17
19070.0	7.057484612457811e+17
19071.0	7.056145195029844e+17
19072.0	7.054825365001556e+17
19073.0	7.053497719586815e+17
19074.0	7.052167970029568e+17
19075.0	7.050835112493055e+17
19076.0	7.049490769554089e+17
19077.0	7.048161496749395e+17
19078.0	7.046821260034047e+17
19079.0	7.045502995879254e+17
19080.0	7.044165082808319e+17
19081.0	7.042814712654505e+17
19082.0	7.041477692970326e+17
19083.0	7.040103545307135e+17
19084.0	7.038698745670313e+17
19085.0	7.037495694852096e+17
19086.0	7.035889006586538e+17
19087.0	7.03368642096879e+17
19088.0	7.033478791036927e+17
19089.0	7.031519188440403e+17
19090.0	7.030920901733034e+17
19091.0	7.029608367696553e+17
19092.0	7.027955446317055e+17
19093.0	7.026966814610772e+17
19094.0	7.025631845941247e+17
19095.0	7.024296757734057e+17
19096.0	7.022959157138772e+17
19097.0	7.021636258278058e+17
19098.0	7.020299057539753e+17
19099.0	7.018963515648681e+17
19100.0	7.017567424785065e+17
19101.0	7.016277532300628e+17
19102.0	7.014914642149373e+17
19103.0	7.013634201529002e+17
19104.0	7.01229881762338e+17
19105.0	7.010944794230783e+17
19106.0	7.009382047591081e+17
19107.0	7.008272017347923e+17
19108.0	7.006935257710591e+17
19109.0	7.001773259969871e+17
19110.0	7.004116096122879e+17
19111.0	7.00293189800209e+17
19112.0	7.001613937934335e+17
19113.0	7.000288405749759e+17
19114.0	6.998953895657471e+17
19115.0	6.997503073320959e+17
19116.0	6.996270841331711e+17
19117.0	6.994928987013119e+17
19118.0	6.993345956020224e+17
19119.0	6.990331963419304e+17
19120.0	6.990576741602643e+17
19121.0	6.989334627134122e+17
19122.0	6.988275788371284e+17
19123.0	6.986940177973247e+17
19124.0	6.985377586522793e+17
19125.0	6.984233036458665e+17
19126.0	6.982922490522281e+17
19127.0	6.980638715762004e+17
19128.0	6.978759274004477e+17
19129.0	6.978883811977897e+17
19130.0	6.977589028235945e+17
19131.0	6.976211395106132e+17
19132.0	6.974921932537855e+17
19133.0	6.973267867511468e+17
19134.0	6.971590508019712e+17
19135.0	6.970902970717524e+17
19136.0	6.969581695751507e+17
19137.0	6.968154176968019e+17
19138.0	6.966848532075859e+17
19139.0	6.965570457042943e+17
19140.0	6.964239189846698e+17
19141.0	6.962903780775252e+17
19142.0	6.961540539001514e+17
19143.0	6.960201980706815e+17
19144.0	6.958880522589524e+17
19145.0	6.957546800327337e+17
19146.0	6.955856741182122e+17
19147.0	6.954831617632938e+17
19148.0	6.953520290157908e+17
19149.0	6.952188906919252e+17
19150.0	6.95086977524258e+17
19151.0	6.94953681494562e+17
19152.0	6.948154380735828e+17
19153.0	6.946843797050708e+17
19154.0	6.945452459731626e+17
19155.0	6.944170993603924e+17
19156.0	6.942835743916032e+17
19157.0	6.941386744004607e+17
19158.0	6.937589884562088e+17
19159.0	6.938772754486612e+17
19160.0	6.93742773416755e+17
19161.0	6.935995780606634e+17
19162.0	6.928882986210651e+17
19163.0	6.933225431629823e+17
19164.0	6.932128867898707e+17
19165.0	6.930678084709034e+17
19166.0	6.929256565877417e+17
19167.0	6.927555040903167e+17
19168.0	6.926743348008276e+17
19169.0	6.925332249225897e+17
19170.0	6.92409669394978e+17
19171.0	6.922424205443071e+17
19172.0	6.921382280211113e+17
19173.0	6.920067616167251e+17
19174.0	6.91872205058867e+17
19175.0	6.917413362728959e+17
19176.0	6.916071468564479e+17
19177.0	6.914640575463423e+17
19178.0	6.913216439386111e+17
19179.0	6.911571884244992e+17
19180.0	6.910598400966655e+17
19181.0	6.90929672528418e+17
19182.0	6.907993864710825e+17
19183.0	6.90666486104064e+17
19184.0	6.90529902928418e+17
19185.0	6.903991141138431e+17
19186.0	6.902650417883818e+17
19187.0	6.901263145544361e+17
19188.0	6.899942519297364e+17
19189.0	6.898547303645183e+17
19190.0	6.897175392245075e+17
19191.0	6.895837415560531e+17
19192.0	6.894566803592532e+17
19193.0	6.893168217118036e+17
19194.0	6.891837220454399e+17
19195.0	6.890509929458345e+17
19196.0	6.889142817041065e+17
19197.0	6.887737905556138e+17
19198.0	6.886140913822378e+17
19199.0	6.850772882948086e+17
19200.0	6.859242619273228e+17
19201.0	6.882138557251583e+17
19202.0	6.881010234949631e+17
19203.0	6.879626282401791e+17
19204.0	6.878357840986111e+17
19205.0	6.87704688820224e+17
19206.0	6.875693960222036e+17
19207.0	6.874297157724842e+17
19208.0	6.872895830272681e+17
19209.0	6.871647973102932e+17
19210.0	6.870303298813951e+17
19211.0	6.868949494224212e+17
19212.0	6.867592374037161e+17
19213.0	6.865895739621375e+17
19214.0	6.864366906725716e+17
19215.0	6.863378593786538e+17
19216.0	6.862171122171903e+17
19217.0	6.860818700304383e+17
19218.0	6.858994369604265e+17
19219.0	6.858011827328339e+17
19220.0	6.856714545179305e+17
19221.0	6.855196647533226e+17
19222.0	6.854020405308074e+17
19223.0	6.852663477359955e+17
19224.0	6.851283865916755e+17
19225.0	6.849859801142611e+17
19226.0	6.848567871624531e+17
19227.0	6.847201514181972e+17
19228.0	6.845848830170451e+17
19229.0	6.844482631412393e+17
19230.0	6.843058848355668e+17
19231.0	6.841701316427775e+17
19232.0	6.840366972010496e+17
19233.0	6.838962706448383e+17
19234.0	6.837626671726591e+17
19235.0	6.836255687966719e+17
19236.0	6.834895609397247e+17
19237.0	6.833513007415295e+17
19238.0	6.832041507160063e+17
19239.0	6.830771925592746e+17
19240.0	6.829361715303764e+17
19241.0	6.827994127532032e+17
19242.0	6.826628774625279e+17
19243.0	6.825164526321661e+17
19244.0	6.823879211220991e+17
19245.0	6.822496688930815e+17
19246.0	6.821104245014527e+17
19247.0	6.819727168329044e+17
19248.0	6.818332397972137e+17
19249.0	6.816936455307263e+17
19250.0	6.815552957841407e+17
19251.0	6.814099991516499e+17
19252.0	6.812626554890921e+17
19253.0	6.811375841400148e+17
19254.0	6.809988716560383e+17
19255.0	6.808496901892777e+17
19256.0	6.807137012066985e+17
19257.0	6.805795440863913e+17
19258.0	6.804399125605033e+17
19259.0	6.8029563025053e+17
19260.0	6.800850253687465e+17
19261.0	6.800184713412605e+17
19262.0	6.798749731564201e+17
19263.0	6.797331602429267e+17
19264.0	6.795664937713661e+17
19265.0	6.794435327863466e+17
19266.0	6.793031596376064e+17
19267.0	6.791706992530772e+17
19268.0	6.790286749466623e+17
19269.0	6.78886422819635e+17
19270.0	6.787437831389181e+17
19271.0	6.785830955778047e+17
19272.0	6.784562148758868e+17
19273.0	6.781862201174697e+17
19274.0	6.780709050690217e+17
19275.0	6.779970865769129e+17
19276.0	6.778521228323497e+17
19277.0	6.777081627847337e+17
19278.0	6.77564537582387e+17
19279.0	6.774136482649428e+17
19280.0	6.772704775154346e+17
19281.0	6.771280453828607e+17
19282.0	6.769821221213524e+17
19283.0	6.767852035331412e+17
19284.0	6.766380471462569e+17
19285.0	6.765335365550079e+17
19286.0	6.763955978502143e+17
19287.0	6.762496319466153e+17
19288.0	6.748631026980165e+17
19289.0	6.732773051421997e+17
19290.0	6.758057391773012e+17
19291.0	6.756436561712468e+17
19292.0	6.75509518274833e+17
19293.0	6.753597939253247e+17
19294.0	6.75210476003874e+17
19295.0	6.750603193614335e+17
19296.0	6.749091379806207e+17
19297.0	6.747565548634111e+17
19298.0	6.74606495249203e+17
19299.0	6.744548747946665e+17
19300.0	6.743031861826899e+17
19301.0	6.741501628732755e+17
19302.0	6.739962205918548e+17
19303.0	6.738384413611348e+17
19304.0	6.736868087431167e+17
19305.0	6.735328674403668e+17
19306.0	6.733761700604585e+17
19307.0	6.732156174860288e+17
19308.0	6.730599124784468e+17
19309.0	6.727842094820008e+17
19310.0	6.725865883478696e+17
19311.0	6.725739466457087e+17
19312.0	6.724331026863444e+17
19313.0	6.722734052605951e+17
19314.0	6.692570889453588e+17
19315.0	6.692421802917912e+17
19316.0	6.717777379328e+17
19317.0	6.716297189173929e+17
19318.0	6.714663391024468e+17
19319.0	6.713037787845972e+17
19320.0	6.711388314883412e+17
19321.0	6.709732558853459e+17
19322.0	6.70793496334609e+17
19323.0	6.705868134066858e+17
19324.0	6.704669120965289e+17
19325.0	6.70192090812689e+17
19326.0	6.701305853291177e+17
19327.0	6.699632353258153e+17
19328.0	6.697923215622143e+17
19329.0	6.69621717967394e+17
19330.0	6.694466652646057e+17
19331.0	6.692722907807743e+17
19332.0	6.690981330026495e+17
19333.0	6.689215882461183e+17
19334.0	6.687459843418793e+17
19335.0	6.685655895638015e+17
19336.0	6.683863146648916e+17
19337.0	6.682072380167508e+17
19338.0	6.680139703604564e+17
19339.0	6.678416717075796e+17
19340.0	6.676544396547412e+17
19341.0	6.674697135587327e+17
19342.0	6.67258610533444e+17
19343.0	6.670960855176534e+17
19344.0	6.66905375478033e+17
19345.0	6.666131387449341e+17
19346.0	6.664732101924179e+17
19347.0	6.663221191988564e+17
19348.0	6.661310606824788e+17
19349.0	6.659303393984511e+17
19350.0	6.657310535450623e+17
19351.0	6.655311744073727e+17
19352.0	6.653211362459647e+17
19353.0	6.650666302832639e+17
19354.0	6.648608415809535e+17
19355.0	6.646484073534804e+17
19356.0	6.644430991785983e+17
19357.0	6.642313636522665e+17
19358.0	6.640150915667284e+17
19359.0	6.637953989563731e+17
19360.0	6.635799985870164e+17
19361.0	6.633602005598207e+17
19362.0	6.631402855115433e+17
19363.0	6.629151804314964e+17
19364.0	6.626876866254164e+17
19365.0	6.624577134963369e+17
19366.0	6.622251052957695e+17
19367.0	6.619898898459305e+17
19368.0	6.617519408283647e+17
19369.0	6.61506531402274e+17
19370.0	6.612544142355114e+17
19371.0	6.610178413690879e+17
19372.0	6.606849475695955e+17
19373.0	6.604176182913706e+17
19374.0	6.601606678882985e+17
19375.0	6.598988061649577e+17
19376.0	6.596341828419583e+17
19377.0	6.593660686696447e+17
19378.0	6.590950547652605e+17
19379.0	6.588205486833664e+17
19380.0	6.585425669914623e+17
19381.0	6.582415535374336e+17
19382.0	6.57826824392977e+17
19383.0	6.575344327502505e+17
19384.0	6.572460781251241e+17
19385.0	6.569473842610173e+17
19386.0	6.566444754709162e+17
19387.0	6.563366484399443e+17
19388.0	6.558502226318676e+17
19389.0	6.554998601853609e+17
19390.0	6.551671110893565e+17
19391.0	6.513007779643342e+17
19392.0	6.542882829762555e+17
19393.0	6.538713414762495e+17
19394.0	6.535078571496788e+17
19395.0	6.531097147299155e+17
19396.0	6.524159464396116e+17
19397.0	6.520325264463188e+17
19398.0	6.514900964037976e+17
19399.0	6.5076512437917e+17
19400.0	6.503073032350378e+17
19401.0	6.494150474072063e+17
19402.0	6.48811332851029e+17
19403.0	6.478675010650111e+17
19404.0	6.469444028421463e+17
19405.0	6.459805387106988e+17
19406.0	6.447781421339988e+17
19407.0	6.437437361007274e+17
19408.0	6.430592644153344e+17
19409.0	6.424386545035946e+17
19410.0	6.417616231639721e+17
19411.0	6.410597227473578e+17
19412.0	6.403329334007123e+17
19413.0	6.395812904959999e+17
19414.0	6.388014882925225e+17
19415.0	6.379774575727956e+17
19416.0	6.370865059637929e+17
19417.0	6.361836431605759e+17
19418.0	6.353376695200426e+17
19419.0	6.344110248733353e+17
19420.0	6.334284357610153e+17
19421.0	6.324102718903636e+17
19422.0	6.314139245521577e+17
19423.0	6.303119730278399e+17
19424.0	6.29171252293359e+17
19425.0	6.279051269723474e+17
19426.0	6.265911383512402e+17
19427.0	6.251145039183871e+17
19428.0	6.234341777255077e+17
19429.0	6.21492932059682e+17
19430.0	6.19163527116663e+17
19431.0	6.1573890474421e+17
19432.0	6.124231463709348e+17
19433.0	6.093261533872128e+17
19434.0	6.069611289466196e+17
19435.0	6.044247927728808e+17
19436.0	6.01635460306261e+17
19437.0	5.99009323454737e+17
19438.0	5.919268386373646e+17
19439.0	5.924247920006486e+17
19440.0	5.887222628745212e+17
19441.0	5.840329975179944e+17
19442.0	5.780407887506094e+17
19443.0	5.7026937586974726e+17
19444.0	5.636037159507281e+17
19445.0	5.5625294100998854e+17
19446.0	5.4700793288895155e+17
19447.0	5.348317024922271e+17
19448.0	5.195372818683227e+17
19449.0	4.9905878741374304e+17
19450.0	4.675984220837184e+17
19451.0	4.581047862471335e+17
19452.0	4.839213137308336e+17
19453.0	5.1037737505696525e+17
19454.0	5.2720856566770304e+17
19455.0	5.407740084791976e+17
19456.0	5.5113563155114694e+17
19457.0	5.590137602484903e+17
19458.0	5.616821228361095e+17
19459.0	5.725139297632273e+17
19460.0	5.795157254690134e+17
19461.0	5.845286748422145e+17
19462.0	5.885162043386538e+17
19463.0	5.918771320804692e+17
19464.0	5.94832010580241e+17
19465.0	5.975444350304257e+17
19466.0	6.000158567301117e+17
19467.0	6.023404892542292e+17
19468.0	6.045393847233194e+17
19469.0	6.067512755443031e+17
19470.0	6.104426887162548e+17
19471.0	6.135030969532417e+17
19472.0	6.158492007486807e+17
19473.0	6.176628598811302e+17
19474.0	6.191862467526655e+17
19475.0	6.20452383957538e+17
19476.0	6.216467934609407e+17
19477.0	6.227387252124329e+17
19478.0	6.236374545989631e+17
19479.0	6.245723897768616e+17
19480.0	6.25346356584994e+17
19481.0	6.26092067205939e+17
19482.0	6.268944882423124e+17
19483.0	6.275876482886314e+17
19484.0	6.282550423060479e+17
19485.0	6.288981957629268e+17
19486.0	6.295135959296682e+17
19487.0	6.301341332100435e+17
19488.0	6.306812998101673e+17
19489.0	6.311949616807935e+17
19490.0	6.316316847068499e+17
19491.0	6.321610001394345e+17
19492.0	6.326068761853952e+17
19493.0	6.330271072780287e+17
19494.0	6.33424726598178e+17
19495.0	6.34050457335671e+17
19496.0	6.348031090404014e+17
19497.0	6.356406663905279e+17
19498.0	6.360206241256795e+17
19499.0	6.318343095757464e+17
19500.0	6.376321141003604e+17
19501.0	6.380333991723007e+17
19502.0	6.385292678266879e+17
19503.0	6.387617190204756e+17
19504.0	6.392708321684138e+17
19505.0	6.394238496058025e+17
19506.0	6.396821419065343e+17
19507.0	6.400136019531091e+17
19508.0	6.401333589792084e+17
19509.0	6.40244543197457e+17
19510.0	6.405725251174397e+17
19511.0	6.348407007696192e+17
19512.0	6.398274827889313e+17
19513.0	6.393219688431593e+17
19514.0	6.398289521934319e+17
19515.0	6.411062040242858e+17
19516.0	6.412408636921171e+17
19517.0	6.412928061625683e+17
19518.0	6.413451627506345e+17
19519.0	6.413878032334847e+17
19520.0	6.41429119364847e+17
19521.0	6.415946849714173e+17
19522.0	6.416338533395114e+17
19523.0	6.416638366711808e+17
19524.0	6.416882678628351e+17
19525.0	6.417094394511359e+17
19526.0	6.417284919372457e+17
19527.0	6.417436204422484e+17
19528.0	6.417550642511871e+17
19529.0	6.417638446071808e+17
19530.0	6.417680930177023e+17
19531.0	6.418322769838079e+17
19532.0	6.418558400943444e+17
19533.0	6.418497181581311e+17
19534.0	6.418404964215465e+17
19535.0	6.418282215811753e+17
19536.0	6.418121042690047e+17
19537.0	6.417971238229332e+17
19538.0	6.417701696176128e+17
19539.0	6.417272566448128e+17
19540.0	6.417287582056447e+17
19541.0	6.417031593896617e+17
19542.0	6.416736937050111e+17
19543.0	6.416418259424596e+17
19544.0	6.416089572092585e+17
19545.0	6.415471911895039e+17
19546.0	6.414893975950676e+17
19547.0	6.414955286888447e+17
19548.0	6.414536416428031e+17
19549.0	6.41404959195136e+17
19550.0	6.413654824058879e+17
19551.0	6.41319186866722e+17
19552.0	6.412958616431274e+17
19553.0	6.412731961136467e+17
19554.0	6.412208904164692e+17
19555.0	6.411687208244563e+17
19556.0	6.411146763785556e+17
19557.0	6.410580457947135e+17
19558.0	6.410002588412585e+17
19559.0	6.40940783960064e+17
19560.0	6.408787804727978e+17
19561.0	6.408173895636308e+17
19562.0	6.407549202290004e+17
19563.0	6.406902119748948e+17
19564.0	6.406243016332627e+17
19565.0	6.40557149987362e+17
19566.0	6.404877243995476e+17
19567.0	6.404192087659859e+17
19568.0	6.403471237797203e+17
19569.0	6.402764817039359e+17
19570.0	6.402041472264874e+17
19571.0	6.401300147907242e+17
19572.0	6.400538274256212e+17
19573.0	6.399783216349183e+17
19574.0	6.398978226651135e+17
19575.0	6.398252178647721e+17
19576.0	6.397469518026068e+17
19577.0	6.396669669845674e+17
19578.0	6.395853697362601e+17
19579.0	6.395053262678697e+17
19580.0	6.394236172413609e+17
19581.0	6.393415456871764e+17
19582.0	6.392590962262015e+17
19583.0	6.391749944890708e+17
19584.0	6.390881208063316e+17
19585.0	6.389984193238356e+17
19586.0	6.389082436752726e+17
19587.0	6.388105770696703e+17
19588.0	6.387181084650153e+17
19589.0	6.386530587246592e+17
19590.0	6.385607090285226e+17
19591.0	6.384769268274516e+17
19592.0	6.383872164670121e+17
19593.0	6.382955052837546e+17
19594.0	6.381900489468585e+17
19595.0	6.381109359848106e+17
19596.0	6.376959216276823e+17
19597.0	6.37915807875072e+17
19598.0	6.378179200199337e+17
19599.0	6.377416935079936e+17
19600.0	6.376474639947092e+17
19601.0	6.375488782073856e+17
19602.0	6.374542851877546e+17
19603.0	6.372852696962386e+17
19604.0	6.372547236986879e+17
19605.0	6.371527616364543e+17
19606.0	6.370719596281856e+17
19607.0	6.369748985402708e+17
19608.0	6.368766745116671e+17
19609.0	6.367756684012201e+17
19610.0	6.366803321509204e+17
19611.0	6.365811073613823e+17
19612.0	6.364829546359465e+17
19613.0	6.363834779784534e+17
19614.0	6.362813149391529e+17
19615.0	6.361820916875264e+17
19616.0	6.360500227713706e+17
19617.0	6.35981339365649e+17
19618.0	6.358504187800233e+17
19619.0	6.357424583038291e+17
19620.0	6.356419192990377e+17
19621.0	6.355751796735997e+17
19622.0	6.354737986622803e+17
19623.0	6.353712712777727e+17
19624.0	6.35268429320465e+17
19625.0	6.351650590905684e+17
19626.0	6.350616643938986e+17
19627.0	6.349568249692159e+17
19628.0	6.347687966976682e+17
19629.0	6.347384725088937e+17
19630.0	6.343633756924586e+17
19631.0	6.308720164208644e+17
19632.0	6.344269075141971e+17
19633.0	6.343250554825385e+17
19634.0	6.342265798656e+17
19635.0	6.341194797110612e+17
19636.0	6.340158249675434e+17
19637.0	6.338888879221417e+17
19638.0	6.338048838423892e+17
19639.0	6.336976997318655e+17
19640.0	6.335873268318207e+17
19641.0	6.334491094854314e+17
19642.0	6.333804842407252e+17
19643.0	6.332722664439807e+17
19644.0	6.331634575998975e+17
19645.0	6.330451926974463e+17
19646.0	6.329518426598058e+17
19647.0	6.328455343898623e+17
19648.0	6.327381572015444e+17
19649.0	6.32630433354001e+17
19650.0	6.325228648355156e+17
19651.0	6.324150152986623e+17
19652.0	6.323070323829417e+17
19653.0	6.321971839107071e+17
19654.0	6.320906780890452e+17
19655.0	6.319820680549716e+17
19656.0	6.31873474798114e+17
19657.0	6.31765261754914e+17
19658.0	6.316565565800447e+17
19659.0	6.315476532243114e+17
19660.0	6.314388207523156e+17
19661.0	6.313297815011327e+17
19662.0	6.312206287241215e+17
19663.0	6.311068951379965e+17
19664.0	6.309870930231295e+17
19665.0	6.308926339416063e+17
