# Flux units: erg / (cm m2 s)
# Wavelength units: Angstrom
wave	flux
19000.0	7.326392474315433e+17
19001.0	7.324998796574719e+17
19002.0	7.323740052389888e+17
19003.0	7.322410541907968e+17
19004.0	7.321080691687424e+17
19005.0	7.319752615657471e+17
19006.0	7.318421557477373e+17
19007.0	7.317018759921663e+17
19008.0	7.315716505425236e+17
19009.0	7.314370244291242e+17
19010.0	7.312780080185343e+17
19011.0	7.311720639539881e+17
19012.0	7.310067906205011e+17
19013.0	7.309071561872723e+17
19014.0	7.307694657153705e+17
19015.0	7.306372492296191e+17
19016.0	7.305027550969855e+17
19017.0	7.30371720286481e+17
19018.0	7.302358578320723e+17
19019.0	7.301033238375081e+17
19020.0	7.299679353394516e+17
19021.0	7.298358230122493e+17
19022.0	7.297018326155263e+17
19023.0	7.295644213444608e+17
19024.0	7.294308302454783e+17
19025.0	7.292951154305705e+17
19026.0	7.291579043676157e+17
19027.0	7.289972689556819e+17
19028.0	7.288934497255423e+17
19029.0	7.287586176718164e+17
19030.0	7.286249755421353e+17
19031.0	7.284900519127722e+17
19032.0	7.283549800846676e+17
19033.0	7.282134855188479e+17
19034.0	7.280824979641683e+17
19035.0	7.279360183282344e+17
19036.0	7.258560312377338e+17
19037.0	7.276710921065811e+17
19038.0	7.275414084212051e+17
19039.0	7.276076025075025e+17
19040.0	7.275334416203773e+17
19041.0	7.273979602883923e+17
19042.0	7.272544997124777e+17
19043.0	7.271268271958697e+17
19044.0	7.269908301043028e+17
19045.0	7.268540373532671e+17
19046.0	7.267161022136319e+17
19047.0	7.265824635792042e+17
19048.0	7.264339083220308e+17
19049.0	7.263039152368298e+17
19050.0	7.261710872215551e+17
19051.0	7.257126738416974e+17
19052.0	7.258459377849684e+17
19053.0	7.257647626234538e+17
19054.0	7.256312366759935e+17
19055.0	7.254773556314111e+17
19056.0	7.253575590390442e+17
19057.0	7.252222934340948e+17
19058.0	7.250826888216575e+17
19059.0	7.249499189673983e+17
19060.0	7.248127526436863e+17
19061.0	7.246779790305961e+17
19062.0	7.245413031608319e+17
19063.0	7.244050072950099e+17
19064.0	7.242611625208489e+17
19065.0	7.241198856394068e+17
19066.0	7.239909559500799e+17
19067.0	7.238592768944812e+17
19068.0	7.237227630646611e+17
19069.0	7.235862576234496e+17
19070.0	7.234480136432298e+17
19071.0	7.233119842555219e+17
19072.0	7.231755455037439e+17
19073.0	7.230394200664745e+17
19074.0	7.229030734495744e+17
19075.0	7.227663443121491e+17
19076.0	7.226282131587071e+17
19077.0	7.224919442762408e+17
19078.0	7.223542992426323e+17
19079.0	7.222190825712297e+17
19080.0	7.220812058722301e+17
19081.0	7.219425301583187e+17
19082.0	7.218055046234111e+17
19083.0	7.216634337602217e+17
19084.0	7.215177255966036e+17
19085.0	7.213967713763327e+17
19086.0	7.212285049875114e+17
19087.0	7.210686972515667e+17
19088.0	7.209702560978259e+17
19089.0	7.208068970446845e+17
19090.0	7.207061065214633e+17
19091.0	7.205714590171136e+17
19092.0	7.204203028720297e+17
19093.0	7.203001438917972e+17
19094.0	7.201634445339306e+17
19095.0	7.20026377335603e+17
19096.0	7.1988866463389e+17
19097.0	7.197524748839594e+17
19098.0	7.196147874878804e+17
19099.0	7.194774180200445e+17
19100.0	7.193373319015081e+17
19101.0	7.192023150187862e+17
19102.0	7.19059970686976e+17
19103.0	7.1892897642141e+17
19104.0	7.187914886742015e+17
19105.0	7.186519234882217e+17
19106.0	7.185065774328492e+17
19107.0	7.183764434190335e+17
19108.0	7.18238004683298e+17
19109.0	7.179337066698066e+17
19110.0	7.17952440808243e+17
19111.0	7.178271169620649e+17
19112.0	7.176911237851817e+17
19113.0	7.17554478813457e+17
19114.0	7.174168527940265e+17
19115.0	7.17271938891776e+17
19116.0	7.171401163909802e+17
19117.0	7.170019562968404e+17
19118.0	7.168517445692074e+17
19119.0	7.164959860806993e+17
19120.0	7.165718726443007e+17
19121.0	7.16231884738833e+17
19122.0	7.160905422864383e+17
19123.0	7.159528488785236e+17
19124.0	7.158031488559785e+17
19125.0	7.15676189790481e+17
19126.0	7.155383393757866e+17
19127.0	7.152880781186387e+17
19128.0	7.152200968394067e+17
19129.0	7.151198412297556e+17
19130.0	7.149867660301651e+17
19131.0	7.148485179954516e+17
19132.0	7.14711769424418e+17
19133.0	7.145614631851347e+17
19134.0	7.144159060164607e+17
19135.0	7.14297071178001e+17
19136.0	7.141598743756799e+17
19137.0	7.14011251450402e+17
19138.0	7.138818900273833e+17
19139.0	7.137454147851604e+17
19140.0	7.136074565768531e+17
19141.0	7.134692689401172e+17
19142.0	7.133293115867135e+17
19143.0	7.131892156814675e+17
19144.0	7.130518095833769e+17
19145.0	7.129157884444671e+17
19146.0	7.127364584603647e+17
19147.0	7.126335797329917e+17
19148.0	7.124991889200467e+17
19149.0	7.123608846816595e+17
19150.0	7.122232255272276e+17
19151.0	7.120851470822057e+17
19152.0	7.119441122121044e+17
19153.0	7.118053166809087e+17
19154.0	7.116605153258153e+17
19155.0	7.115291065232041e+17
19156.0	7.113896614341289e+17
19157.0	7.112409026134015e+17
19158.0	7.110074834441555e+17
19159.0	7.109672530782889e+17
19160.0	7.108314849957203e+17
19161.0	7.106879791213225e+17
19162.0	7.102953521414145e+17
19163.0	7.103982318474582e+17
19164.0	7.102780395924138e+17
19165.0	7.101346675163135e+17
19166.0	7.099885210479274e+17
19167.0	7.098373196043603e+17
19168.0	7.097203734609919e+17
19169.0	7.095795202042536e+17
19170.0	7.094441905662633e+17
19171.0	7.092923890576042e+17
19172.0	7.091635419960662e+17
19173.0	7.090263235231743e+17
19174.0	7.088844342733481e+17
19175.0	7.087486473164116e+17
19176.0	7.086089437183999e+17
19177.0	7.084584678894249e+17
19178.0	7.083208030027775e+17
19179.0	7.08170610708753e+17
19180.0	7.0804715878045e+17
19181.0	7.079025969201152e+17
19182.0	7.077691186479101e+17
19183.0	7.076301340934143e+17
19184.0	7.07488721875763e+17
19185.0	7.073498981029203e+17
19186.0	7.072099527731881e+17
19187.0	7.07064511926545e+17
19188.0	7.069286858227711e+17
19189.0	7.067869155513684e+17
19190.0	7.066449238207145e+17
19191.0	7.06502273863953e+17
19192.0	7.063662102227625e+17
19193.0	7.062238414241791e+17
19194.0	7.060819988709373e+17
19195.0	7.059408144039935e+17
19196.0	7.057956148696403e+17
19197.0	7.056457177148072e+17
19198.0	7.054671180988415e+17
19199.0	7.037790697728677e+17
19200.0	7.04053356562569e+17
19201.0	7.050496762183679e+17
19202.0	7.049416158478335e+17
19203.0	7.048044237990569e+17
19204.0	7.046681872127316e+17
19205.0	7.0452988870656e+17
19206.0	7.043892011248297e+17
19207.0	7.040857527375187e+17
19208.0	7.038114765733887e+17
19209.0	7.036820453851135e+17
19210.0	7.035406749007871e+17
19211.0	7.033980847128575e+17
19212.0	7.03254962896896e+17
19213.0	7.030954480631807e+17
19214.0	7.029440226437802e+17
19215.0	7.028195633135615e+17
19216.0	7.026834106832211e+17
19217.0	7.025402906148863e+17
19218.0	7.023438919106559e+17
19219.0	7.022425206161407e+17
19220.0	7.021080905864532e+17
19221.0	7.019458576340308e+17
19222.0	7.01822216053282e+17
19223.0	7.016782287426899e+17
19224.0	7.015316125122559e+17
19225.0	7.013814699207338e+17
19226.0	7.012446425666899e+17
19227.0	7.010998914034345e+17
19228.0	7.009572269064191e+17
19229.0	7.008122913335978e+17
19230.0	7.006654201593855e+17
19231.0	7.005199846954323e+17
19232.0	7.003760633053183e+17
19233.0	7.002263026051753e+17
19234.0	7.000839379309908e+17
19235.0	6.999380456374271e+17
19236.0	6.997934989464916e+17
19237.0	6.996462150527658e+17
19238.0	6.994924457863849e+17
19239.0	6.993542806590803e+17
19240.0	6.992055165255679e+17
19241.0	6.989231439566163e+17
19242.0	6.985604630489769e+17
19243.0	6.984017024909311e+17
19244.0	6.982648760456532e+17
19245.0	6.981161068090708e+17
19246.0	6.97966104027682e+17
19247.0	6.978177858185897e+17
19248.0	6.976683915608061e+17
19249.0	6.975177257997652e+17
19250.0	6.973672273215487e+17
19251.0	6.972108297644713e+17
19252.0	6.970478825919828e+17
19253.0	6.969154871492607e+17
19254.0	6.967657255403519e+17
19255.0	6.966016137494525e+17
19256.0	6.964598777315327e+17
19257.0	6.963110616585555e+17
19258.0	6.96158871687441e+17
19259.0	6.960011458641919e+17
19260.0	6.958173546785449e+17
19261.0	6.956999513560403e+17
19262.0	6.952620061797038e+17
19263.0	6.949579603836927e+17
19264.0	6.947727192970579e+17
19265.0	6.946382738882559e+17
19266.0	6.944832567465299e+17
19267.0	6.943378437221033e+17
19268.0	6.941807976557226e+17
19269.0	6.940233010511871e+17
19270.0	6.938650224186708e+17
19271.0	6.93685961429265e+17
19272.0	6.935456183397033e+17
19273.0	6.933195143162536e+17
19274.0	6.931767560066387e+17
19275.0	6.930690591424511e+17
19276.0	6.929073658571433e+17
19277.0	6.924920171440808e+17
19278.0	6.923256035191466e+17
19279.0	6.921601415817897e+17
19280.0	6.919934215629481e+17
19281.0	6.918329597952e+17
19282.0	6.916678624826708e+17
19283.0	6.914835514829481e+17
19284.0	6.913191804840617e+17
19285.0	6.911584488827561e+17
19286.0	6.909998488966484e+17
19287.0	6.908326577875625e+17
19288.0	6.901369187336187e+17
19289.0	6.892066818053439e+17
19290.0	6.903241876264276e+17
19291.0	6.901386179859796e+17
19292.0	6.899850999584084e+17
19293.0	6.898127003626154e+17
19294.0	6.896395638276095e+17
19295.0	6.894667386497706e+17
19296.0	6.892915686462804e+17
19297.0	6.891151462236159e+17
19298.0	6.889398368993279e+17
19299.0	6.887633435929257e+17
19300.0	6.885863209653588e+17
19301.0	6.884074503973546e+17
19302.0	6.882281375399935e+17
19303.0	6.880446282814804e+17
19304.0	6.878669269456212e+17
19305.0	6.876865453096959e+17
19306.0	6.875042397465257e+17
19307.0	6.873170378926762e+17
19308.0	6.871333152139946e+17
19309.0	6.86898692559121e+17
19310.0	6.866913760116733e+17
19311.0	6.865687872711337e+17
19312.0	6.86389768364578e+17
19313.0	6.862003339526143e+17
19314.0	6.84615436354628e+17
19315.0	6.845267757585768e+17
19316.0	6.856177475736916e+17
19317.0	6.854321482235903e+17
19318.0	6.852372916251305e+17
19319.0	6.850413749862397e+17
19320.0	6.848350622056447e+17
19321.0	6.846355353894911e+17
19322.0	6.844261163772585e+17
19323.0	6.842115508841129e+17
19324.0	6.840260309461674e+17
19325.0	6.837825254544726e+17
19326.0	6.836165435632297e+17
19327.0	6.834116469194751e+17
19328.0	6.832028657210708e+17
19329.0	6.829937929486335e+17
19330.0	6.827792308808361e+17
19331.0	6.825648391017812e+17
19332.0	6.823517208532308e+17
19333.0	6.821311965123923e+17
19334.0	6.819103598357162e+17
19335.0	6.816849701721428e+17
19336.0	6.814619079278591e+17
19337.0	6.812365395853312e+17
19338.0	6.809959344548522e+17
19339.0	6.807801224844628e+17
19340.0	6.805454202776233e+17
19341.0	6.803153540349951e+17
19342.0	6.800585698661715e+17
19343.0	6.798489646268415e+17
19344.0	6.79611400856098e+17
19345.0	6.792545525476008e+17
19346.0	6.790848027732649e+17
19347.0	6.788897224785919e+17
19348.0	6.78653491028514e+17
19349.0	6.784083076754089e+17
19350.0	6.781631828328447e+17
19351.0	6.779172413592916e+17
19352.0	6.776652831566505e+17
19353.0	6.774222500134911e+17
19354.0	6.771719282185556e+17
19355.0	6.769140223530324e+17
19356.0	6.766650462306304e+17
19357.0	6.764026737109674e+17
19358.0	6.761353587632809e+17
19359.0	6.758637805851988e+17
19360.0	6.755936811089919e+17
19361.0	6.753218252679849e+17
19362.0	6.750486045305514e+17
19363.0	6.74770453598481e+17
19364.0	6.744897210023935e+17
19365.0	6.742064114259284e+17
19366.0	6.739204420315817e+17
19367.0	6.736277658752339e+17
19368.0	6.733122031495849e+17
19369.0	6.730149628215295e+17
19370.0	6.727146005331967e+17
19371.0	6.724194986011306e+17
19372.0	6.72120636056098e+17
19373.0	6.718142009748138e+17
19374.0	6.715070571959635e+17
19375.0	6.711953560961023e+17
19376.0	6.708804066476032e+17
19377.0	6.705610793943037e+17
19378.0	6.702385265115133e+17
19379.0	6.699122558675626e+17
19380.0	6.695823104540671e+17
19381.0	6.692485568222547e+17
19382.0	6.68852739514914e+17
19383.0	6.685001842163711e+17
19384.0	6.681598664288937e+17
19385.0	6.678093373986132e+17
19386.0	6.67455024337169e+17
19387.0	6.670954797203455e+17
19388.0	6.667306477638996e+17
19389.0	6.663499398075731e+17
19390.0	6.658743078311251e+17
19391.0	6.639036375848253e+17
19392.0	6.650722737192959e+17
19393.0	6.647045948091049e+17
19394.0	6.642963135681876e+17
19395.0	6.637225526340265e+17
19396.0	6.632992076201983e+17
19397.0	6.628714200694783e+17
19398.0	6.623447123755008e+17
19399.0	6.617039972073471e+17
19400.0	6.612713667734185e+17
19401.0	6.605827999793151e+17
19402.0	6.5999240443549e+17
19403.0	6.593183288218961e+17
19404.0	6.585588034917716e+17
19405.0	6.578000207631702e+17
19406.0	6.569553484753578e+17
19407.0	6.559751538212858e+17
19408.0	6.55118070378223e+17
19409.0	6.538171017854971e+17
19410.0	6.525730613624824e+17
19411.0	6.511018993778696e+17
19412.0	6.496077003183444e+17
19413.0	6.484746298545491e+17
19414.0	6.475993111156051e+17
19415.0	6.467018522536617e+17
19416.0	6.45760881472307e+17
19417.0	6.448020372936019e+17
19418.0	6.438384919292586e+17
19419.0	6.427957542606163e+17
19420.0	6.417336353423359e+17
19421.0	6.406471552073727e+17
19422.0	6.395164039839744e+17
19423.0	6.383092191199231e+17
19424.0	6.370896240792916e+17
19425.0	6.358452977445544e+17
19426.0	6.34449641550643e+17
19427.0	6.331002829930499e+17
19428.0	6.315120981792083e+17
19429.0	6.298430620740265e+17
19430.0	6.279703521045158e+17
19431.0	6.256461458614959e+17
19432.0	6.235227821877926e+17
19433.0	6.206772573022898e+17
19434.0	6.173828583522308e+17
19435.0	6.134532167521601e+17
19436.0	6.096857883912873e+17
19437.0	6.06832418759202e+17
19438.0	6.018797150404609e+17
19439.0	6.001858432030039e+17
19440.0	5.963232403521533e+17
19441.0	5.919297631857321e+17
19442.0	5.869077069299713e+17
19443.0	5.808701626297004e+17
19444.0	5.737455589610832e+17
19445.0	5.654825761680044e+17
19446.0	5.556971356116306e+17
19447.0	5.4406672138895296e+17
19448.0	5.295557780875952e+17
19449.0	5.1011504000641696e+17
19450.0	4.8222812018223686e+17
19451.0	4.690190571055784e+17
19452.0	4.9732080135481946e+17
19453.0	5.2058544151374586e+17
19454.0	5.369488640486052e+17
19455.0	5.495765954024787e+17
19456.0	5.5994626426798106e+17
19457.0	5.6872700655697856e+17
19458.0	5.741035686024565e+17
19459.0	5.824580594346671e+17
19460.0	5.877249938380113e+17
19461.0	5.921635108388861e+17
19462.0	5.961039458511532e+17
19463.0	5.995342622709075e+17
19464.0	6.02563346047522e+17
19465.0	6.053449983939924e+17
19466.0	6.083380126941176e+17
19467.0	6.120617690529797e+17
19468.0	6.154675533381644e+17
19469.0	6.181888405624141e+17
19470.0	6.205463515365376e+17
19471.0	6.225629486426793e+17
19472.0	6.242978149782867e+17
19473.0	6.258078211812012e+17
19474.0	6.27147046859571e+17
19475.0	6.283427795959807e+17
19476.0	6.294951776223231e+17
19477.0	6.305839551873023e+17
19478.0	6.315533696412329e+17
19479.0	6.325506499324585e+17
19480.0	6.334596847938217e+17
19481.0	6.343240098425513e+17
19482.0	6.351475523452928e+17
19483.0	6.359670884488532e+17
19484.0	6.367279255475539e+17
19485.0	6.374473265577983e+17
19486.0	6.381388268481194e+17
19487.0	6.388050272365225e+17
19488.0	6.394424120573951e+17
19489.0	6.401036899407186e+17
19490.0	6.41114347335407e+17
19491.0	6.425521532786004e+17
19492.0	6.437209235608918e+17
19493.0	6.446227063308289e+17
19494.0	6.453027898654717e+17
19495.0	6.461620880408576e+17
19496.0	6.465925763738281e+17
19497.0	6.473336239773012e+17
19498.0	6.475095373512705e+17
19499.0	6.457672404565999e+17
19500.0	6.485265619790505e+17
19501.0	6.490140838286679e+17
19502.0	6.492891480326141e+17
19503.0	6.4953224017565e+17
19504.0	6.499230961805994e+17
19505.0	6.501100412731391e+17
19506.0	6.502873928739497e+17
19507.0	6.505219222754643e+17
19508.0	6.507686733894996e+17
19509.0	6.509182950484649e+17
19510.0	6.510467847553023e+17
19511.0	6.484458001661934e+17
19512.0	6.509681615481505e+17
19513.0	6.508317968258377e+17
19514.0	6.511445708286627e+17
19515.0	6.517276850607444e+17
19516.0	6.518815076646911e+17
19517.0	6.519801293832191e+17
19518.0	6.520809791859369e+17
19519.0	6.521725123908948e+17
19520.0	6.522831566624084e+17
19521.0	6.524029007560703e+17
19522.0	6.524803266292394e+17
19523.0	6.525575653665449e+17
19524.0	6.52628684055074e+17
19525.0	6.526965804695551e+17
19526.0	6.527614125255338e+17
19527.0	6.528214911068841e+17
19528.0	6.528774768863914e+17
19529.0	6.529311996990804e+17
19530.0	6.529817163158868e+17
19531.0	6.530287866828116e+17
19532.0	6.530728205833556e+17
19533.0	6.531138865244841e+17
19534.0	6.531518883168255e+17
19535.0	6.532011891447123e+17
19536.0	6.532447262299476e+17
19537.0	6.53277347848738e+17
19538.0	6.532979947296084e+17
19539.0	6.532968224915456e+17
19540.0	6.53349850517777e+17
19541.0	6.533711621958314e+17
19542.0	6.533879782091433e+17
19543.0	6.534017741138602e+17
19544.0	6.534147544361641e+17
19545.0	6.533968490222931e+17
19546.0	6.533745366532095e+17
19547.0	6.534265336496127e+17
19548.0	6.534230273512788e+17
19549.0	6.534116179356329e+17
19550.0	6.534113870391978e+17
19551.0	6.534034498082132e+17
19552.0	6.533937851531263e+17
19553.0	6.533813011567956e+17
19554.0	6.533677735477247e+17
19555.0	6.533550097214121e+17
19556.0	6.533403386052608e+17
19557.0	6.533230706556927e+17
19558.0	6.533046413033472e+17
19559.0	6.532845914816511e+17
19560.0	6.532612306064723e+17
19561.0	6.532380221942442e+17
19562.0	6.532152353095679e+17
19563.0	6.531889772189012e+17
19564.0	6.531612219714218e+17
19565.0	6.531319204238676e+17
19566.0	6.530991540316842e+17
19567.0	6.530687114936319e+17
19568.0	6.530331656759977e+17
19569.0	6.529991445577727e+17
19570.0	6.529615580714323e+17
19571.0	6.529201919579476e+17
19572.0	6.528755467375956e+17
19573.0	6.528319800825172e+17
19574.0	6.527810248114173e+17
19575.0	6.527397720140458e+17
19576.0	6.526908094567764e+17
19577.0	6.526398266430804e+17
19578.0	6.525859183023444e+17
19579.0	6.525330973349204e+17
19580.0	6.524785411839316e+17
19581.0	6.524233118471508e+17
19582.0	6.523670295303507e+17
19583.0	6.523083928109055e+17
19584.0	6.522475880557225e+17
19585.0	6.521801204389203e+17
19586.0	6.521149180958036e+17
19587.0	6.520533309631146e+17
19588.0	6.519686313279487e+17
19589.0	6.519302880493565e+17
19590.0	6.518591808252585e+17
19591.0	6.517973180568915e+17
19592.0	6.517328890735274e+17
19593.0	6.516655377088511e+17
19594.0	6.515797467157843e+17
19595.0	6.515223285814612e+17
19596.0	6.513584959913984e+17
19597.0	6.513758623673002e+17
19598.0	6.512831850261161e+17
19599.0	6.512277988922708e+17
19600.0	6.51152180903936e+17
19601.0	6.510711895228415e+17
19602.0	6.509948385099775e+17
19603.0	6.508715469438973e+17
19604.0	6.508348160955732e+17
19605.0	6.507427584628054e+17
19606.0	6.506818928203092e+17
19607.0	6.506011408640682e+17
19608.0	6.505187833282559e+17
19609.0	6.504334008603988e+17
19610.0	6.503531670405119e+17
19611.0	6.502687430410239e+17
19612.0	6.501852489187327e+17
19613.0	6.50099285889297e+17
19614.0	6.500113545428991e+17
19615.0	6.499271653545299e+17
19616.0	6.498249289848148e+17
19617.0	6.497516075876351e+17
19618.0	6.496290863753897e+17
19619.0	6.495309560195753e+17
19620.0	6.494442138981716e+17
19621.0	6.493949407526911e+17
19622.0	6.493055507671721e+17
19623.0	6.492144859960659e+17
19624.0	6.491221543354367e+17
19625.0	6.490305313723732e+17
19626.0	6.489375638552575e+17
19627.0	6.488427661535914e+17
19628.0	6.488042386751489e+17
19629.0	6.488630595245396e+17
19630.0	6.486285596928682e+17
19631.0	6.470087254299988e+17
19632.0	6.485748463872682e+17
19633.0	6.484880512778237e+17
19634.0	6.48397578043392e+17
19635.0	6.482983208179027e+17
19636.0	6.48202844967185e+17
19637.0	6.480792247773866e+17
19638.0	6.480069573388969e+17
19639.0	6.479078585182889e+17
19640.0	6.478042156586324e+17
19641.0	6.476641319867734e+17
19642.0	6.476109209490771e+17
19643.0	6.476068691116032e+17
19644.0	6.478015855504042e+17
19645.0	6.476864689624403e+17
19646.0	6.476003114571092e+17
19647.0	6.47498864525312e+17
19648.0	6.473960083073705e+17
19649.0	6.472926717717161e+17
19650.0	6.471894270214143e+17
19651.0	6.470857796179284e+17
19652.0	6.469818664353791e+17
19653.0	6.468768306473642e+17
19654.0	6.4677332661917e+17
19655.0	6.46668411417395e+17
19656.0	6.465634200190973e+17
19657.0	6.464588092538879e+17
19658.0	6.463535342507347e+17
19659.0	6.462479465622186e+17
19660.0	6.461423542599679e+17
19661.0	6.460364463363411e+17
19662.0	6.459302927663103e+17
19663.0	6.458202372352681e+17
19664.0	6.45711409377007e+17
19665.0	6.45610858348544e+17
