# Flux units: erg / (cm m2 s)
# Wavelength units: Angstrom
wave	flux
19000.0	6.909273962796372e+17
19001.0	6.907911841600852e+17
19002.0	6.90664970002978e+17
19003.0	6.905334102054228e+17
19004.0	6.904020120982868e+17
19005.0	6.902706805407743e+17
19006.0	6.901393414335145e+17
19007.0	6.900013801493844e+17
19008.0	6.898705562424659e+17
19009.0	6.897438301705555e+17
19010.0	6.895905238854313e+17
19011.0	6.894819908168362e+17
19012.0	6.89342331818257e+17
19013.0	6.892206165415252e+17
19014.0	6.890861711327232e+17
19015.0	6.889565688867497e+17
19016.0	6.888252548754089e+17
19017.0	6.886295429884585e+17
19018.0	6.885643270138538e+17
19019.0	6.8843361796096e+17
19020.0	6.882972756082687e+17
19021.0	6.881690228097023e+17
19022.0	6.880414693414228e+17
19023.0	6.879082467120467e+17
19024.0	6.877786865489236e+17
19025.0	6.87647147303458e+17
19026.0	6.875164065835689e+17
19027.0	6.873855769444351e+17
19028.0	6.87256365048354e+17
19029.0	6.871247568764927e+17
19030.0	6.86995484722244e+17
19031.0	6.868650992599039e+17
19032.0	6.867343400850772e+17
19033.0	6.865989946485417e+17
19034.0	6.864712269212329e+17
19035.0	6.863404840342868e+17
19036.0	6.858539909775355e+17
19037.0	6.860804524954964e+17
19038.0	6.859494745178111e+17
19039.0	6.858199637076649e+17
19040.0	6.856898137554943e+17
19041.0	6.85558938608162e+17
19042.0	6.854241654844074e+17
19043.0	6.852983557980159e+17
19044.0	6.85167273452066e+17
19045.0	6.85037601231121e+17
19046.0	6.849031247844692e+17
19047.0	6.847770214967978e+17
19048.0	6.846360657592319e+17
19049.0	6.845125616118441e+17
19050.0	6.843837205621417e+17
19051.0	6.842265841085097e+17
19052.0	6.841236807745535e+17
19053.0	6.839932729425919e+17
19054.0	6.838654659985405e+17
19055.0	6.83722379694353e+17
19056.0	6.836040624330068e+17
19057.0	6.834749530177533e+17
19058.0	6.833417997342035e+17
19059.0	6.832151192403965e+17
19060.0	6.830842643655337e+17
19061.0	6.829554987433983e+17
19062.0	6.828253285187583e+17
19063.0	6.826954514759679e+17
19064.0	6.825590031471956e+17
19065.0	6.824260320362495e+17
19066.0	6.823026742700714e+17
19067.0	6.821756524997289e+17
19068.0	6.820465258878292e+17
19069.0	6.819169118978047e+17
19070.0	6.817852797485055e+17
19071.0	6.816571193644372e+17
19072.0	6.815278745430697e+17
19073.0	6.813978818772991e+17
19074.0	6.812688055271423e+17
19075.0	6.811392283770879e+17
19076.0	6.810084719285588e+17
19077.0	6.808797703394644e+17
19078.0	6.807379915396435e+17
19079.0	6.80620676087808e+17
19080.0	6.804909756252159e+17
19081.0	6.803593568976893e+17
19082.0	6.802249693702825e+17
19083.0	6.800968804291924e+17
19084.0	6.799605826060287e+17
19085.0	6.798440641418582e+17
19086.0	6.79694003548979e+17
19087.0	6.795804076059306e+17
19088.0	6.794530084880383e+17
19089.0	6.793148123228842e+17
19090.0	6.791968310252884e+17
19091.0	6.7906651043485e+17
19092.0	6.789357579709097e+17
19093.0	6.788110539030527e+17
19094.0	6.786748189245439e+17
19095.0	6.785440047344297e+17
19096.0	6.784208338244947e+17
19097.0	6.782949543029417e+17
19098.0	6.781660261515263e+17
19099.0	6.780353055642963e+17
19100.0	6.779074605918889e+17
19101.0	6.777794131045034e+17
19102.0	6.776465021119146e+17
19103.0	6.775215384166399e+17
19104.0	6.773931671988905e+17
19105.0	6.77264216957474e+17
19106.0	6.771342629492052e+17
19107.0	6.770059258451284e+17
19108.0	6.768782388581715e+17
19109.0	6.767077838116179e+17
19110.0	6.766207895426387e+17
19111.0	6.764922234295635e+17
19112.0	6.76363776364817e+17
19113.0	6.762351508324351e+17
19114.0	6.761064397362516e+17
19115.0	6.759750398814889e+17
19116.0	6.758484632666111e+17
19117.0	6.757201621636435e+17
19118.0	6.75584985268224e+17
19119.0	6.75366233719876e+17
19120.0	6.753337430332756e+17
19121.0	6.752068109511337e+17
19122.0	6.750793147351039e+17
19123.0	6.749455276922195e+17
19124.0	6.748211068796927e+17
19125.0	6.746935018214739e+17
19126.0	6.745617571949225e+17
19127.0	6.743558544774483e+17
19128.0	6.742679711558313e+17
19129.0	6.741769312010239e+17
19130.0	6.740531314251091e+17
19131.0	6.739243847472468e+17
19132.0	6.737969991210324e+17
19133.0	6.736176300599978e+17
19134.0	6.735209880529578e+17
19135.0	6.734135106906793e+17
19136.0	6.732859287710378e+17
19137.0	6.731499346154836e+17
19138.0	6.730160294330367e+17
19139.0	6.729021308709545e+17
19140.0	6.727744227027625e+17
19141.0	6.726466621057705e+17
19142.0	6.725174458755753e+17
19143.0	6.723875849808553e+17
19144.0	6.722599957211817e+17
19145.0	6.721352211890175e+17
19146.0	6.719769828917247e+17
19147.0	6.718759609827327e+17
19148.0	6.717523289090729e+17
19149.0	6.716245671935997e+17
19150.0	6.714947752252755e+17
19151.0	6.713697101676543e+17
19152.0	6.712349226434559e+17
19153.0	6.711139134078975e+17
19154.0	6.709811468391763e+17
19155.0	6.708600299498153e+17
19156.0	6.707326062952447e+17
19157.0	6.706047814554963e+17
19158.0	6.704480528979284e+17
19159.0	6.703496375391572e+17
19160.0	6.702141087416319e+17
19161.0	6.700909181883732e+17
19162.0	6.699036367825578e+17
19163.0	6.698411499017556e+17
19164.0	6.697143898559827e+17
19165.0	6.695862572242262e+17
19166.0	6.694548123506003e+17
19167.0	6.693268618215423e+17
19168.0	6.691924430465705e+17
19169.0	6.690716953957716e+17
19170.0	6.689516155480746e+17
19171.0	6.688225217216511e+17
19172.0	6.686971521575594e+17
19173.0	6.685705521244842e+17
19174.0	6.684408061536938e+17
19175.0	6.683167657645395e+17
19176.0	6.681895051285844e+17
19177.0	6.680553045972308e+17
19178.0	6.67935649632529e+17
19179.0	6.678064621333162e+17
19180.0	6.67657970979089e+17
19181.0	6.675508828482217e+17
19182.0	6.67395164139247e+17
19183.0	6.672993742749695e+17
19184.0	6.671627455911252e+17
19185.0	6.670474102003027e+17
19186.0	6.66922048954914e+17
19187.0	6.667906681143295e+17
19188.0	6.666682399457279e+17
19189.0	6.665404583772159e+17
19190.0	6.664135607582719e+17
19191.0	6.662867422019583e+17
19192.0	6.661576272642047e+17
19193.0	6.659821841416191e+17
19194.0	6.658862956412927e+17
19195.0	6.657791366266879e+17
19196.0	6.656557477527551e+17
19197.0	6.655297951105023e+17
19198.0	6.654037216722943e+17
19199.0	6.648863554622803e+17
19200.0	6.649025502292652e+17
19201.0	6.650248004894719e+17
19202.0	6.648987657786708e+17
19203.0	6.64771849495074e+17
19204.0	6.646449013347667e+17
19205.0	6.645191924514813e+17
19206.0	6.643928579178495e+17
19207.0	6.642633034170367e+17
19208.0	6.641286939410431e+17
19209.0	6.640142378860543e+17
19210.0	6.638877966073855e+17
19211.0	6.637600825671679e+17
19212.0	6.636369845682175e+17
19213.0	6.635034905673727e+17
19214.0	6.633753621998249e+17
19215.0	6.632577095259476e+17
19216.0	6.631187051184127e+17
19217.0	6.630058606548308e+17
19218.0	6.628403222413311e+17
19219.0	6.627463453649577e+17
19220.0	6.626276824230569e+17
19221.0	6.624862523796137e+17
19222.0	6.623776069036714e+17
19223.0	6.622502671351807e+17
19224.0	6.621005520830463e+17
19225.0	6.619862705111039e+17
19226.0	6.618726101155837e+17
19227.0	6.617466962706431e+17
19228.0	6.61622626451456e+17
19229.0	6.614968995326634e+17
19230.0	6.613680091998889e+17
19231.0	6.612401095617193e+17
19232.0	6.610998226758314e+17
19233.0	6.609902210383871e+17
19234.0	6.608669770077523e+17
19235.0	6.607406867240276e+17
19236.0	6.606170606622036e+17
19237.0	6.604905992508755e+17
19238.0	6.603609104624298e+17
19239.0	6.60240571965986e+17
19240.0	6.600888890163199e+17
19241.0	6.599807764966058e+17
19242.0	6.598579468632063e+17
19243.0	6.597272787047764e+17
19244.0	6.596117632385023e+17
19245.0	6.594865684370772e+17
19246.0	6.593609139399337e+17
19247.0	6.592322225569791e+17
19248.0	6.591109515968511e+17
19249.0	6.589853873471487e+17
19250.0	6.588590106607615e+17
19251.0	6.587297545846783e+17
19252.0	6.585833656156159e+17
19253.0	6.584827025293311e+17
19254.0	6.583544720304809e+17
19255.0	6.582218819720531e+17
19256.0	6.58105654382865e+17
19257.0	6.579819724668927e+17
19258.0	6.578554927404372e+17
19259.0	6.577273526987433e+17
19260.0	6.576033240536403e+17
19261.0	6.574802821185535e+17
19262.0	6.573520613365076e+17
19263.0	6.572275760715092e+17
19264.0	6.570763064005971e+17
19265.0	6.56970556252706e+17
19266.0	6.568485621246633e+17
19267.0	6.567291648999423e+17
19268.0	6.566031231986346e+17
19269.0	6.564781441941503e+17
19270.0	6.563525354149204e+17
19271.0	6.562110304332458e+17
19272.0	6.561006559253844e+17
19273.0	6.553305192857591e+17
19274.0	6.555443687413073e+17
19275.0	6.557266846504276e+17
19276.0	6.5560038094493e+17
19277.0	6.554747771988649e+17
19278.0	6.553500220304041e+17
19279.0	6.552131184798377e+17
19280.0	6.550950056209065e+17
19281.0	6.54973744587298e+17
19282.0	6.548492694585343e+17
19283.0	6.547171280508244e+17
19284.0	6.545817365468499e+17
19285.0	6.544597680739667e+17
19286.0	6.54345872937233e+17
19287.0	6.542224333122217e+17
19288.0	6.540152321780393e+17
19289.0	6.537226693378042e+17
19290.0	6.538461444046847e+17
19291.0	6.537064868741119e+17
19292.0	6.535948995133439e+17
19293.0	6.534691756703743e+17
19294.0	6.533433366937599e+17
19295.0	6.532184475871914e+17
19296.0	6.530922977427455e+17
19297.0	6.529656766682452e+17
19298.0	6.528398966915072e+17
19299.0	6.527158027550719e+17
19300.0	6.525901189677055e+17
19301.0	6.524636568573268e+17
19302.0	6.523374485722451e+17
19303.0	6.522066087269716e+17
19304.0	6.520821491870377e+17
19305.0	6.519597266807466e+17
19306.0	6.518338763795114e+17
19307.0	6.517047377439401e+17
19308.0	6.515803759312895e+17
19309.0	6.514453060605268e+17
19310.0	6.513105332163924e+17
19311.0	6.512010604139862e+17
19312.0	6.51072186229282e+17
19313.0	6.509041083744259e+17
19314.0	6.507648982362793e+17
19315.0	6.506430755853654e+17
19316.0	6.505714233813674e+17
19317.0	6.504444116773546e+17
19318.0	6.503173771143849e+17
19319.0	6.501914595644756e+17
19320.0	6.500532791279615e+17
19321.0	6.499375749180073e+17
19322.0	6.498004949270528e+17
19323.0	6.496764007109972e+17
19324.0	6.495557191903913e+17
19325.0	6.494237124897449e+17
19326.0	6.493009340967594e+17
19327.0	6.491724705344169e+17
19328.0	6.490458237348521e+17
19329.0	6.489179178751316e+17
19330.0	6.487877076647933e+17
19331.0	6.486594327762259e+17
19332.0	6.485329007607808e+17
19333.0	6.484036646775465e+17
19334.0	6.482616033214463e+17
19335.0	6.481471332155391e+17
19336.0	6.480179826262015e+17
19337.0	6.478877335486463e+17
19338.0	6.477488593043455e+17
19339.0	6.476298566238207e+17
19340.0	6.474978582418772e+17
19341.0	6.473699397293395e+17
19342.0	6.472125786707284e+17
19343.0	6.471092781361834e+17
19344.0	6.469778666072745e+17
19345.0	6.46744610666359e+17
19346.0	6.466895347712e+17
19347.0	6.465804936325801e+17
19348.0	6.464523765896532e+17
19349.0	6.463185291487914e+17
19350.0	6.461862515660116e+17
19351.0	6.460528429891583e+17
19352.0	6.459180092577107e+17
19353.0	6.457884154003455e+17
19354.0	6.456529906215593e+17
19355.0	6.455145295861075e+17
19356.0	6.453847465656319e+17
19357.0	6.452486160951978e+17
19358.0	6.451072906297343e+17
19359.0	6.449401917254314e+17
19360.0	6.44837547319842e+17
19361.0	6.446958099038208e+17
19362.0	6.445645879574527e+17
19363.0	6.444254972870655e+17
19364.0	6.442849944644266e+17
19365.0	6.441451005149183e+17
19366.0	6.440052889834835e+17
19367.0	6.438636931252223e+17
19368.0	6.437212772106237e+17
19369.0	6.435652119822335e+17
19370.0	6.433513516914004e+17
19371.0	6.432855067809108e+17
19372.0	6.431422564095316e+17
19373.0	6.429932675312297e+17
19374.0	6.428458617929727e+17
19375.0	6.426964025234772e+17
19376.0	6.425450166703444e+17
19377.0	6.42392975876642e+17
19378.0	6.422395373311316e+17
19379.0	6.420838027537065e+17
19380.0	6.419276565752489e+17
19381.0	6.41768621150481e+17
19382.0	6.416037731194196e+17
19383.0	6.41440611897617e+17
19384.0	6.412820652490751e+17
19385.0	6.41113502392866e+17
19386.0	6.409442749491882e+17
19387.0	6.407726603173887e+17
19388.0	6.405983412682751e+17
19389.0	6.404215267480916e+17
19390.0	6.402399510637225e+17
19391.0	6.3973720382068e+17
19392.0	6.398703573139455e+17
19393.0	6.396803992431274e+17
19394.0	6.394854070288383e+17
19395.0	6.392863831097343e+17
19396.0	6.390810287276031e+17
19397.0	6.388736888318633e+17
19398.0	6.386582126854143e+17
19399.0	6.384049148220755e+17
19400.0	6.382103254007807e+17
19401.0	6.379789405388799e+17
19402.0	6.377386337632255e+17
19403.0	6.374890024905385e+17
19404.0	6.372326759901866e+17
19405.0	6.369646509468329e+17
19406.0	6.366870020729514e+17
19407.0	6.36397283180544e+17
19408.0	6.360610974815572e+17
19409.0	6.357736370820436e+17
19410.0	6.354530353195689e+17
19411.0	6.351077746147327e+17
19412.0	6.347441374756864e+17
19413.0	6.343613919264767e+17
19414.0	6.339557291196413e+17
19415.0	6.335289082860884e+17
19416.0	6.330658402773674e+17
19417.0	6.3258652311552e+17
19418.0	6.32079828123648e+17
19419.0	6.315289220218879e+17
19420.0	6.309434726809597e+17
19421.0	6.303122634833919e+17
19422.0	6.296288860919123e+17
19423.0	6.288935200926377e+17
19424.0	6.281012924033705e+17
19425.0	6.272408988854953e+17
19426.0	6.262937893907113e+17
19427.0	6.252630958757204e+17
19428.0	6.24163229409826e+17
19429.0	6.229457129264467e+17
19430.0	6.21596087820834e+17
19431.0	6.200625702371329e+17
19432.0	6.185162369575593e+17
19433.0	6.167114528325632e+17
19434.0	6.147391026277034e+17
19435.0	6.125373103625555e+17
19436.0	6.100819622144682e+17
19437.0	6.074111711248383e+17
19438.0	6.039659169011027e+17
19439.0	6.009981813216598e+17
19440.0	5.973121869807615e+17
19441.0	5.931495777282729e+17
19442.0	5.88337809125103e+17
19443.0	5.831617652894377e+17
19444.0	5.774432555499516e+17
19445.0	5.7063803666650464e+17
19446.0	5.632066862798164e+17
19447.0	5.545437049476432e+17
19448.0	5.4435675890865536e+17
19449.0	5.2951697790948717e+17
19450.0	4.9284568248046694e+17
19451.0	4.789820654791335e+17
19452.0	5.140111161294854e+17
19453.0	5.3806205043561875e+17
19454.0	5.4918289258359405e+17
19455.0	5.584674097201152e+17
19456.0	5.6603883322299757e+17
19457.0	5.730752170470056e+17
19458.0	5.789652984266752e+17
19459.0	5.841559190066519e+17
19460.0	5.889998684771666e+17
19461.0	5.932232308948992e+17
19462.0	5.968823195445932e+17
19463.0	6.001739871638867e+17
19464.0	6.031401548425897e+17
19465.0	6.057467133820929e+17
19466.0	6.080481511953747e+17
19467.0	6.101322250758825e+17
19468.0	6.119629449592832e+17
19469.0	6.134946808725501e+17
19470.0	6.150703254863871e+17
19471.0	6.163646696652799e+17
19472.0	6.175228365373439e+17
19473.0	6.185493565101396e+17
19474.0	6.194702746036905e+17
19475.0	6.202527450136575e+17
19476.0	6.210229907051859e+17
19477.0	6.216790743624362e+17
19478.0	6.222598470544041e+17
19479.0	6.227776120728233e+17
19480.0	6.23240968999185e+17
19481.0	6.236538557257044e+17
19482.0	6.240178407123625e+17
19483.0	6.243435790991359e+17
19484.0	6.246301589744297e+17
19485.0	6.248814277033983e+17
19486.0	6.251070008677716e+17
19487.0	6.253065880119978e+17
19488.0	6.25479943070242e+17
19489.0	6.256297557098495e+17
19490.0	6.256951196734803e+17
19491.0	6.258720774291455e+17
19492.0	6.259695992613546e+17
19493.0	6.260488367243264e+17
19494.0	6.261155692194473e+17
19495.0	6.261499099436372e+17
19496.0	6.261827965725353e+17
19497.0	6.262428169229652e+17
19498.0	6.262497174618112e+17
19499.0	6.257356099463844e+17
19500.0	6.262819551619753e+17
19501.0	6.262769779911338e+17
19502.0	6.26267721441826e+17
19503.0	6.262509189900969e+17
19504.0	6.262218586849279e+17
19505.0	6.261999786786815e+17
19506.0	6.261667619580585e+17
19507.0	6.261274907596116e+17
19508.0	6.260857855366484e+17
19509.0	6.260385857754452e+17
19510.0	6.259796627248468e+17
19511.0	6.256473706681683e+17
19512.0	6.258137999518376e+17
19513.0	6.2565923202007e+17
19514.0	6.256556682597715e+17
19515.0	6.256582796334422e+17
19516.0	6.256174159975763e+17
19517.0	6.255429545885695e+17
19518.0	6.254729757720576e+17
19519.0	6.2539730255872e+17
19520.0	6.25318321787153e+17
19521.0	6.252405356931753e+17
19522.0	6.251566913465001e+17
19523.0	6.250769701404671e+17
19524.0	6.249925972415828e+17
19525.0	6.24902126244113e+17
19526.0	6.248189967466496e+17
19527.0	6.247305576098473e+17
19528.0	6.246415564363091e+17
19529.0	6.245504164473513e+17
19530.0	6.244593969048233e+17
19531.0	6.243674862824106e+17
19532.0	6.24275123933457e+17
19533.0	6.24181011161634e+17
19534.0	6.240854106701823e+17
19535.0	6.23987860176896e+17
19536.0	6.238900814435667e+17
19537.0	6.237941437999785e+17
19538.0	6.236940436591956e+17
19539.0	6.235688629086892e+17
19540.0	6.234953083781119e+17
19541.0	6.233963224541866e+17
19542.0	6.232951019449001e+17
19543.0	6.231934892681898e+17
19544.0	6.230918535927124e+17
19545.0	6.229728904085501e+17
19546.0	6.228405069195946e+17
19547.0	6.227771569908393e+17
19548.0	6.226785333848746e+17
19549.0	6.225688529644202e+17
19550.0	6.224703591022591e+17
19551.0	6.22365887168512e+17
19552.0	6.222604608208895e+17
19553.0	6.221540121815721e+17
19554.0	6.220469020306089e+17
19555.0	6.219420301699753e+17
19556.0	6.218360878530559e+17
19557.0	6.217290102778538e+17
19558.0	6.216220583220563e+17
19559.0	6.215116422905855e+17
19560.0	6.214058560716799e+17
19561.0	6.212977652924415e+17
19562.0	6.211907028167338e+17
19563.0	6.210800381329408e+17
19564.0	6.209745513174356e+17
19565.0	6.208656731974314e+17
19566.0	6.207559780969129e+17
19567.0	6.206464715303593e+17
19568.0	6.205375026036733e+17
19569.0	6.204285708664831e+17
19570.0	6.203207074185216e+17
19571.0	6.202108736263508e+17
19572.0	6.200994083198292e+17
19573.0	6.199908347762003e+17
19574.0	6.198752714948607e+17
19575.0	6.197700520662356e+17
19576.0	6.196606899235498e+17
19577.0	6.195359702668627e+17
19578.0	6.19437848998707e+17
19579.0	6.193282439359146e+17
19580.0	6.192178295821652e+17
19581.0	6.19107664789504e+17
19582.0	6.189976830782121e+17
19583.0	6.188867484210516e+17
19584.0	6.1877555050141e+17
19585.0	6.186584073655636e+17
19586.0	6.18538492563729e+17
19587.0	6.184281927144788e+17
19588.0	6.183043526033407e+17
19589.0	6.18201525326097e+17
19590.0	6.181033382073684e+17
19591.0	6.179961280921599e+17
19592.0	6.178847825330176e+17
19593.0	6.177715333190996e+17
19594.0	6.176477826165417e+17
19595.0	6.175485715983018e+17
19596.0	6.17334558494993e+17
19597.0	6.173252301531818e+17
19598.0	6.172026890179924e+17
19599.0	6.171024062851753e+17
19600.0	6.169906521309181e+17
19601.0	6.168754978641236e+17
19602.0	6.167649056019795e+17
19603.0	6.166303028368724e+17
19604.0	6.16539532505907e+17
19605.0	6.164148775114068e+17
19606.0	6.163149978512042e+17
19607.0	6.162061745367721e+17
19608.0	6.160933616702803e+17
19609.0	6.159789138640895e+17
19610.0	6.158697208217599e+17
19611.0	6.157571419974314e+17
19612.0	6.15645521781282e+17
19613.0	6.155319526817791e+17
19614.0	6.154186843138729e+17
19615.0	6.153085407024468e+17
19616.0	6.151936812952234e+17
19617.0	6.150834852549972e+17
19618.0	6.149478788628479e+17
19619.0	6.148266022404095e+17
19620.0	6.147160895302314e+17
19621.0	6.146342014768468e+17
19622.0	6.145220353021268e+17
19623.0	6.144097881074345e+17
19624.0	6.142968448679935e+17
19625.0	6.141847460817577e+17
19626.0	6.140719619462484e+17
19627.0	6.139601544544255e+17
19628.0	6.138385236230144e+17
19629.0	6.137307459485695e+17
19630.0	6.136175236481021e+17
19631.0	6.13107424838724e+17
19632.0	6.133976538284031e+17
19633.0	6.132829842134356e+17
19634.0	6.131728854810623e+17
19635.0	6.130584255113897e+17
19636.0	6.129476854699347e+17
19637.0	6.128135915438079e+17
19638.0	6.127227254429012e+17
19639.0	6.126092210055849e+17
19640.0	6.124951092330495e+17
19641.0	6.12361923793169e+17
19642.0	6.12272972112418e+17
19643.0	6.121591003239763e+17
19644.0	6.120459370932906e+17
19645.0	6.119240933310463e+17
19646.0	6.118243738233514e+17
19647.0	6.117120186253311e+17
19648.0	6.115994029610324e+17
19649.0	6.114868741887316e+17
19650.0	6.113749352753834e+17
19651.0	6.112622506147839e+17
19652.0	6.111498408209066e+17
19653.0	6.110377651732479e+17
19654.0	6.109250339558739e+17
19655.0	6.108125378991444e+17
19656.0	6.107003811616084e+17
19657.0	6.105881654941012e+17
19658.0	6.104761589825533e+17
19659.0	6.103641497447082e+17
19660.0	6.10252120793634e+17
19661.0	6.101396608778239e+17
19662.0	6.100277172808362e+17
19663.0	6.099131914605908e+17
19664.0	6.09801136574737e+17
19665.0	6.096911788408831e+17
