# Flux units: erg / (cm m2 s)
# Wavelength units: Angstrom
wave	flux
19000.0	4.277022856926549e+17
19001.0	4.276374151189844e+17
19002.0	4.2757075819124045e+17
19003.0	4.274985247266132e+17
19004.0	4.273792680809812e+17
19005.0	4.273419526165844e+17
19006.0	4.2727435532588365e+17
19007.0	4.272103123582976e+17
19008.0	4.2714180728040096e+17
19009.0	4.270776827336021e+17
19010.0	4.269517885319849e+17
19011.0	4.268949410327211e+17
19012.0	4.267893496392361e+17
19013.0	4.2678986490948256e+17
19014.0	4.266730441058987e+17
19015.0	4.265985513794217e+17
19016.0	4.2654700373278714e+17
19017.0	4.2649761237783885e+17
19018.0	4.2640995470977696e+17
19019.0	4.263439740436479e+17
19020.0	4.2627065390475936e+17
19021.0	4.2619980421092685e+17
19022.0	4.261400114014891e+17
19023.0	4.2603949532555936e+17
19024.0	4.2598327089015456e+17
19025.0	4.2590508808492365e+17
19026.0	4.2583811406779725e+17
19027.0	4.257583094650197e+17
19028.0	4.2567288750079994e+17
19029.0	4.255905846307498e+17
19030.0	4.2550870056195405e+17
19031.0	4.2546594879023776e+17
19032.0	4.254134791656789e+17
19033.0	4.2529851294351354e+17
19034.0	4.2524808412747085e+17
19035.0	4.2519051807402656e+17
19036.0	4.248999578042365e+17
19037.0	4.2503562808961696e+17
19038.0	4.2496298721826125e+17
19039.0	4.2489024589332474e+17
19040.0	4.2481339359122765e+17
19041.0	4.247477140761257e+17
19042.0	4.243013169577978e+17
19043.0	4.2460385077712205e+17
19044.0	4.2455534952338765e+17
19045.0	4.2446630004544845e+17
19046.0	4.2437804685612384e+17
19047.0	4.2430818534031354e+17
19048.0	4.241920778480298e+17
19049.0	4.2339017403924365e+17
19050.0	4.241116843649706e+17
19051.0	4.239191616869714e+17
19052.0	4.239489067122687e+17
19053.0	4.238915116466175e+17
19054.0	4.237967522529279e+17
19055.0	4.2362199489904646e+17
19056.0	4.236497302934867e+17
19057.0	4.236129073801898e+17
19058.0	4.231294726701049e+17
19059.0	4.232672364724223e+17
19060.0	4.2338991399239674e+17
19061.0	4.233078552308394e+17
19062.0	4.2320844022961485e+17
19063.0	4.2318077320232954e+17
19064.0	4.230977614949034e+17
19065.0	4.230193471640916e+17
19066.0	4.228228656922625e+17
19067.0	4.228309088294229e+17
19068.0	4.228253118802602e+17
19069.0	4.2274585743196154e+17
19070.0	4.2264029225287674e+17
19071.0	4.225786375918933e+17
19072.0	4.223853784640168e+17
19073.0	4.2247310484875936e+17
19074.0	4.223507153376596e+17
19075.0	4.223151040888832e+17
19076.0	4.22231131885841e+17
19077.0	4.2216467069228365e+17
19078.0	4.220933199888383e+17
19079.0	4.2201047241850874e+17
19080.0	4.2195507740671994e+17
19081.0	4.218896116613119e+17
19082.0	4.2182420316815354e+17
19083.0	4.217285536033451e+17
19084.0	4.216611965064533e+17
19085.0	4.215948398209706e+17
19086.0	4.212839838733652e+17
19087.0	4.2112591111126995e+17
19088.0	4.2117422446018515e+17
19089.0	4.2129724717137914e+17
19090.0	4.212454988972032e+17
19091.0	4.2114380037707104e+17
19092.0	4.2078548986429523e+17
19093.0	4.210201201388202e+17
19094.0	4.20956849901841e+17
19095.0	4.208609825128447e+17
19096.0	4.2081166309021005e+17
19097.0	4.207390623443627e+17
19098.0	4.20524290421555e+17
19099.0	4.2040644152415597e+17
19100.0	4.205333134879402e+17
19101.0	4.204543270540628e+17
19102.0	4.2037764287365126e+17
19103.0	4.202956062719999e+17
19104.0	4.202530136042154e+17
19105.0	4.1981757151860154e+17
19106.0	4.20100068868096e+17
19107.0	4.199380090006184e+17
19108.0	4.198123500295509e+17
19109.0	4.1986267021312006e+17
19110.0	4.197972146039466e+17
19111.0	4.1959656609109306e+17
19112.0	4.195273284080978e+17
19113.0	4.195980691898368e+17
19114.0	4.1943493516110483e+17
19115.0	4.194269324989781e+17
19116.0	4.193276617119061e+17
19117.0	4.1924232293471565e+17
19118.0	4.190906124424533e+17
19119.0	4.1889227303376205e+17
19120.0	4.1897913937646925e+17
19121.0	4.1895173728938656e+17
19122.0	4.1894383144577696e+17
19123.0	4.188924797430442e+17
19124.0	4.1881684819312634e+17
19125.0	4.187513226788864e+17
19126.0	4.1867425800519674e+17
19127.0	4.1846543276660026e+17
19128.0	4.185211241758719e+17
19129.0	4.184734085851818e+17
19130.0	4.184068971298814e+17
19131.0	4.183328700410538e+17
19132.0	4.1824601446372685e+17
19133.0	4.181951176332628e+17
19134.0	4.1811813537764685e+17
19135.0	4.1806055681119565e+17
19136.0	4.1797172354962765e+17
19137.0	4.1787231281261216e+17
19138.0	4.1783761326571514e+17
19139.0	4.177788721081002e+17
19140.0	4.1771092780864845e+17
19141.0	4.1763410962022394e+17
19142.0	4.175538386108415e+17
19143.0	4.17476078661359e+17
19144.0	4.173973921901227e+17
19145.0	4.17336587784465e+17
19146.0	4.1724124181736096e+17
19147.0	4.171890663533225e+17
19148.0	4.170099927111e+17
19149.0	4.168898800080213e+17
19150.0	4.1699905899943245e+17
19151.0	4.1691353972736006e+17
19152.0	4.1686138383674016e+17
19153.0	4.16513936361608e+17
19154.0	4.166824205047125e+17
19155.0	4.1665117266029216e+17
19156.0	4.165691500396544e+17
19157.0	4.1640904506736666e+17
19158.0	4.162355137784493e+17
19159.0	4.163262341272917e+17
19160.0	4.162679866392575e+17
19161.0	4.1621387089018874e+17
19162.0	4.1612481742766074e+17
19163.0	4.160727710782804e+17
19164.0	4.160008860904105e+17
19165.0	4.1561846091612115e+17
19166.0	4.158256520538793e+17
19167.0	4.158003578142719e+17
19168.0	4.1571744767890765e+17
19169.0	4.156491507782996e+17
19170.0	4.155834507810134e+17
19171.0	4.154907197527381e+17
19172.0	4.154384049679018e+17
19173.0	4.1538254215140685e+17
19174.0	4.1529588349665274e+17
19175.0	4.15222819979264e+17
19176.0	4.1516544441712634e+17
19177.0	4.1508391910113274e+17
19178.0	4.1501497215330976e+17
19179.0	4.14941039366417e+17
19180.0	4.1488077329967776e+17
19181.0	4.148021857441108e+17
19182.0	4.1471943541172896e+17
19183.0	4.14667550752768e+17
19184.0	4.146033435082751e+17
19185.0	4.145254958978389e+17
19186.0	4.144566024972971e+17
19187.0	4.143909036184917e+17
19188.0	4.143279309673813e+17
19189.0	4.142602260927828e+17
19190.0	4.1418426899496954e+17
19191.0	4.141170827460606e+17
19192.0	4.140501645131776e+17
19193.0	4.1393029906432e+17
19194.0	4.138520596359851e+17
19195.0	4.138459911771476e+17
19196.0	4.137688788981077e+17
19197.0	4.136803537081684e+17
19198.0	4.135973727589717e+17
19199.0	4.1324619913407123e+17
19200.0	4.1329004121511264e+17
19201.0	4.1341231027978234e+17
19202.0	4.1334999291876685e+17
19203.0	4.132736495255551e+17
19204.0	4.1322208817752736e+17
19205.0	4.131384095058602e+17
19206.0	4.130714559010133e+17
19207.0	4.1295494219038714e+17
19208.0	4.129073362108415e+17
19209.0	4.128596472539818e+17
19210.0	4.1277200293778765e+17
19211.0	4.127162776245589e+17
19212.0	4.1264669279300256e+17
19213.0	4.125738632478719e+17
19214.0	4.1250352071529805e+17
19215.0	4.124399816933376e+17
19216.0	4.1237316482280096e+17
19217.0	4.123178810998783e+17
19218.0	4.12168955835187e+17
19219.0	4.121459924402174e+17
19220.0	4.121010273342806e+17
19221.0	4.119992545749674e+17
19222.0	4.119297372717056e+17
19223.0	4.118754511639893e+17
19224.0	4.117990948383402e+17
19225.0	4.1174256205168634e+17
19226.0	4.11688923894033e+17
19227.0	4.11609047568657e+17
19228.0	4.115445706304171e+17
19229.0	4.114182776203946e+17
19230.0	4.113917257187327e+17
19231.0	4.113497270342997e+17
19232.0	4.112770466665813e+17
19233.0	4.1118875279250765e+17
19234.0	4.111160166405461e+17
19235.0	4.110538966914389e+17
19236.0	4.109892333163861e+17
19237.0	4.1089261144200525e+17
19238.0	4.1083332166942714e+17
19239.0	4.107783797123754e+17
19240.0	4.106880512513363e+17
19241.0	4.1064762165602976e+17
19242.0	4.1053538690443936e+17
19243.0	4.104997611154089e+17
19244.0	4.1042460009649485e+17
19245.0	4.1036720531046394e+17
19246.0	4.103030849579689e+17
19247.0	4.102361132477098e+17
19248.0	4.101555969414485e+17
19249.0	4.100602455916543e+17
19250.0	4.099501997075115e+17
19251.0	4.098947143783763e+17
19252.0	4.0987499115315194e+17
19253.0	4.098059168382976e+17
19254.0	4.0974557751104845e+17
19255.0	4.0965789006342816e+17
19256.0	4.095817061236735e+17
19257.0	4.0952914352537594e+17
19258.0	4.094530760474623e+17
19259.0	4.0940734366351354e+17
19260.0	4.093115799437311e+17
19261.0	4.0926397102817274e+17
19262.0	4.0918786957639674e+17
19263.0	4.090995499073536e+17
19264.0	4.0900432662364154e+17
19265.0	4.089458649464831e+17
19266.0	4.08883438813184e+17
19267.0	4.0884389659279354e+17
19268.0	4.08753115636258e+17
19269.0	4.086969039235753e+17
19270.0	4.0862570952785914e+17
19271.0	4.085159198457856e+17
19272.0	4.084966885425151e+17
19273.0	4.084297050882047e+17
19274.0	4.083447321242282e+17
19275.0	4.0829671125811194e+17
19276.0	4.082273157993813e+17
19277.0	4.0816427247424845e+17
19278.0	4.0808383103631354e+17
19279.0	4.080222186678954e+17
19280.0	4.079554234679295e+17
19281.0	4.0788487045119994e+17
19282.0	4.078183785693183e+17
19283.0	4.0773403901515085e+17
19284.0	4.076843039369897e+17
19285.0	4.07585322906419e+17
19286.0	4.0752223519156896e+17
19287.0	4.0744751317647354e+17
19288.0	4.073678485935445e+17
19289.0	4.071733086650364e+17
19290.0	4.0725925617554765e+17
19291.0	4.071774126516907e+17
19292.0	4.0711966421592736e+17
19293.0	4.07049908326673e+17
19294.0	4.0699134535707296e+17
19295.0	4.0690332788763296e+17
19296.0	4.066704876022448e+17
19297.0	4.067444870785707e+17
19298.0	4.066936669339647e+17
19299.0	4.064555913882284e+17
19300.0	4.065808893695318e+17
19301.0	4.0649949945965216e+17
19302.0	4.064331092896427e+17
19303.0	4.063408742378154e+17
19304.0	4.062790787181227e+17
19305.0	4.062048205231444e+17
19306.0	4.061461357789183e+17
19307.0	4.0606628217268896e+17
19308.0	4.059930112469673e+17
19309.0	4.0589561615264416e+17
19310.0	4.058048542102868e+17
19311.0	4.057042919970133e+17
19312.0	4.055624907576661e+17
19313.0	4.053223124675242e+17
19314.0	4.045071888416768e+17
19315.0	4.044466737730901e+17
19316.0	4.048989448044548e+17
19317.0	4.052359036534782e+17
19318.0	4.0524699024752634e+17
19319.0	4.051845162292566e+17
19320.0	4.0510891844348563e+17
19321.0	4.049567634948096e+17
19322.0	4.050454347863379e+17
19323.0	4.049961857581055e+17
19324.0	4.049238489737897e+17
19325.0	4.0485404694719136e+17
19326.0	4.047858536458921e+17
19327.0	4.04734755279121e+17
19328.0	4.04335989795499e+17
19329.0	4.0459925919716685e+17
19330.0	4.045351415709696e+17
19331.0	4.044687267244714e+17
19332.0	4.043908180869119e+17
19333.0	4.043427202553172e+17
19334.0	4.042200688099328e+17
19335.0	4.035430275437916e+17
19336.0	4.041094871034538e+17
19337.0	4.0405223044983456e+17
19338.0	4.0397539807068154e+17
19339.0	4.0390028388816205e+17
19340.0	4.038047026905086e+17
19341.0	4.035518401260208e+17
19342.0	4.036234591950166e+17
19343.0	4.036513098629119e+17
19344.0	4.033501761022638e+17
19345.0	4.0322911492724026e+17
19346.0	4.0339298736319155e+17
19347.0	4.030741139335851e+17
19348.0	4.033171975482025e+17
19349.0	4.032429096435711e+17
19350.0	4.030436026089472e+17
19351.0	4.0310379485593594e+17
19352.0	4.027131646443514e+17
19353.0	4.029666612477951e+17
19354.0	4.0291221372928e+17
19355.0	4.028374893374123e+17
19356.0	4.027637462728704e+17
19357.0	4.0270545502426445e+17
19358.0	4.026357616301396e+17
19359.0	4.024970475383463e+17
19360.0	4.022416091119614e+17
19361.0	4.02429211451938e+17
19362.0	4.02362223174178e+17
19363.0	4.022969004545365e+17
19364.0	4.0223357191673165e+17
19365.0	4.021592012445012e+17
19366.0	4.020577775211861e+17
19367.0	4.020169133260799e+17
19368.0	4.0195826213628576e+17
19369.0	4.0190029398889805e+17
19370.0	4.01836387545907e+17
19371.0	4.017394778024618e+17
19372.0	4.016848659371349e+17
19373.0	4.0160042781682336e+17
19374.0	4.015259860511402e+17
19375.0	4.014831328471721e+17
19376.0	4.014212700788053e+17
19377.0	4.0135722221786445e+17
19378.0	4.0128996277835085e+17
19379.0	4.0122171893568845e+17
19380.0	4.011090129540438e+17
19381.0	4.010524666058068e+17
19382.0	4.010025852862464e+17
19383.0	4.0092618680784205e+17
19384.0	4.008296080648874e+17
19385.0	4.008038402883583e+17
19386.0	4.007371844091904e+17
19387.0	4.0066018285977594e+17
19388.0	4.0059051533052576e+17
19389.0	4.0053366853031245e+17
19390.0	4.0046217480110074e+17
19391.0	4.0017800574184064e+17
19392.0	4.0032036146817696e+17
19393.0	4.00255757652241e+17
19394.0	4.001951927413419e+17
19395.0	4.000414173932205e+17
19396.0	4.0003633158990515e+17
19397.0	3.9998294180495354e+17
19398.0	3.9983952205359795e+17
19399.0	3.99673218179618e+17
19400.0	3.9971397115576326e+17
19401.0	3.997094413074431e+17
19402.0	3.9965561098076154e+17
19403.0	3.995900052854101e+17
19404.0	3.9949976301731834e+17
19405.0	3.9942592760818336e+17
19406.0	3.993784251580415e+17
19407.0	3.991938266387795e+17
19408.0	3.991867285482156e+17
19409.0	3.991754241299796e+17
19410.0	3.991070293622783e+17
19411.0	3.990342393834153e+17
19412.0	3.989622303839572e+17
19413.0	3.987865507026261e+17
19414.0	3.988361185678677e+17
19415.0	3.987611380438357e+17
19416.0	3.9867302697151136e+17
19417.0	3.986267324809215e+17
19418.0	3.9856255879086074e+17
19419.0	3.984906816323583e+17
19420.0	3.984180425785344e+17
19421.0	3.9834704244899834e+17
19422.0	3.9826395412561914e+17
19423.0	3.9821992756510714e+17
19424.0	3.981501713962326e+17
19425.0	3.980679885531818e+17
19426.0	3.980162536308735e+17
19427.0	3.9794886311935994e+17
19428.0	3.9784731181929805e+17
19429.0	3.978129648036522e+17
19430.0	3.977231504244736e+17
19431.0	3.975400236864856e+17
19432.0	3.975842206755498e+17
19433.0	3.975071141287253e+17
19434.0	3.9745654186748576e+17
19435.0	3.973598014341119e+17
19436.0	3.972326814471507e+17
19437.0	3.972340801077248e+17
19438.0	3.966793247533737e+17
19439.0	3.971194395732651e+17
19440.0	3.970416325077674e+17
19441.0	3.9697263956241056e+17
19442.0	3.9690136232919046e+17
19443.0	3.968326123039402e+17
19444.0	3.967476169004372e+17
19445.0	3.966848048212651e+17
19446.0	3.9660271928606714e+17
19447.0	3.965255907890517e+17
19448.0	3.964363201314816e+17
19449.0	3.963800032815786e+17
19450.0	3.9628998729618784e+17
19451.0	3.962507910359722e+17
19452.0	3.961606252440234e+17
19453.0	3.960805004061355e+17
19454.0	3.959445651106474e+17
19455.0	3.9580492051251194e+17
19456.0	3.9554130969449805e+17
19457.0	3.9496470851747846e+17
19458.0	3.9301217283386054e+17
19459.0	3.939867865470294e+17
19460.0	3.950364062995797e+17
19461.0	3.9533244041570976e+17
19462.0	3.954018384609279e+17
19463.0	3.954061959932587e+17
19464.0	3.9537095062760096e+17
19465.0	3.9533306578643616e+17
19466.0	3.9528943621679776e+17
19467.0	3.9523676065191245e+17
19468.0	3.9518599789936634e+17
19469.0	3.9488398389411795e+17
19470.0	3.950659444757844e+17
19471.0	3.9500168473258656e+17
19472.0	3.949532145866068e+17
19473.0	3.948853027930112e+17
19474.0	3.9456988323293824e+17
19475.0	3.946591212448425e+17
19476.0	3.9469263792810656e+17
19477.0	3.9462205597067936e+17
19478.0	3.9457312403182925e+17
19479.0	3.9427823775689344e+17
19480.0	3.944498941919231e+17
19481.0	3.9435374795161594e+17
19482.0	3.9429207287835296e+17
19483.0	3.9425176904226125e+17
19484.0	3.9416847736504314e+17
19485.0	3.9412277923457696e+17
19486.0	3.938002606052701e+17
19487.0	3.9397816906984096e+17
19488.0	3.939260893058389e+17
19489.0	3.9387453445898234e+17
19490.0	3.936710804460881e+17
19491.0	3.937243427241982e+17
19492.0	3.936673346529963e+17
19493.0	3.9358669650220365e+17
19494.0	3.9352706859881805e+17
19495.0	3.934853828793684e+17
19496.0	3.933607385104383e+17
19497.0	3.933610301543764e+17
19498.0	3.9329643381828256e+17
19499.0	3.928757105939793e+17
19500.0	3.9315797879466656e+17
19501.0	3.9312443582709754e+17
19502.0	3.930581351355732e+17
19503.0	3.929908824768511e+17
19504.0	3.929127726525098e+17
19505.0	3.9283076981500576e+17
19506.0	3.927713763033087e+17
19507.0	3.926942868133204e+17
19508.0	3.925867578611029e+17
19509.0	3.9245070260852045e+17
19510.0	3.921146201593172e+17
19511.0	3.913234834085204e+17
19512.0	3.9193805743718374e+17
19513.0	3.9202839463635584e+17
19514.0	3.9210977888392525e+17
19515.0	3.92129317559774e+17
19516.0	3.9207040786104294e+17
19517.0	3.9205441470027085e+17
19518.0	3.9193223140911776e+17
19519.0	3.918698010116095e+17
19520.0	3.916449280163836e+17
19521.0	3.9183065347522554e+17
19522.0	3.917173976203263e+17
19523.0	3.916551678503596e+17
19524.0	3.914549481351855e+17
19525.0	3.91570022011153e+17
19526.0	3.914853076959231e+17
19527.0	3.91435460350225e+17
19528.0	3.913404086834516e+17
19529.0	3.9127183642678605e+17
19530.0	3.912392681455615e+17
19531.0	3.911698313030314e+17
19532.0	3.910997754511358e+17
19533.0	3.910191930146816e+17
19534.0	3.9098191466987514e+17
19535.0	3.909218774723242e+17
19536.0	3.9084053530760525e+17
19537.0	3.907862365470719e+17
19538.0	3.9050855551686e+17
19539.0	3.906209736294403e+17
19540.0	3.906011937811114e+17
19541.0	3.9047059398983674e+17
19542.0	3.9043169321833805e+17
19543.0	3.901698574297771e+17
19544.0	3.903049138787668e+17
19545.0	3.902496185516028e+17
19546.0	3.901199097703082e+17
19547.0	3.901506027083093e+17
19548.0	3.9008051567875405e+17
19549.0	3.8999593334429e+17
19550.0	3.899158003275093e+17
19551.0	3.8988565076159136e+17
19552.0	3.897989691080703e+17
19553.0	3.897517130732885e+17
19554.0	3.8966476955538765e+17
19555.0	3.8956548618540365e+17
19556.0	3.895217427404116e+17
19557.0	3.8948596910216525e+17
19558.0	3.8942268439483725e+17
19559.0	3.893530142790997e+17
19560.0	3.89205154088004e+17
19561.0	3.892246967484415e+17
19562.0	3.890989009032532e+17
19563.0	3.8910400243520845e+17
19564.0	3.8899131365021e+17
19565.0	3.8895510373444256e+17
19566.0	3.8886955209632416e+17
19567.0	3.88842843607313e+17
19568.0	3.887736587725482e+17
19569.0	3.8871388183156045e+17
19570.0	3.8865171875102714e+17
19571.0	3.8857804405364045e+17
19572.0	3.885147303357098e+17
19573.0	3.8843031863951354e+17
19574.0	3.883733269960021e+17
19575.0	3.88327509257967e+17
19576.0	3.882554601330004e+17
19577.0	3.8816776548515834e+17
19578.0	3.881288153606825e+17
19579.0	3.880762868061523e+17
19580.0	3.8798952895610886e+17
19581.0	3.879052192514046e+17
19582.0	3.878696777678848e+17
19583.0	3.8782188171646285e+17
19584.0	3.8773658089772365e+17
19585.0	3.8767932130809165e+17
19586.0	3.876187682810539e+17
19587.0	3.875625444747946e+17
19588.0	3.874534533540521e+17
19589.0	3.87434280980753e+17
19590.0	3.873566083426986e+17
19591.0	3.872958481869482e+17
19592.0	3.8722855204727456e+17
19593.0	3.871485004698964e+17
19594.0	3.8707455810600954e+17
19595.0	3.870385785274367e+17
19596.0	3.86952813678865e+17
19597.0	3.869150159394134e+17
19598.0	3.867657496079018e+17
19599.0	3.8677662089434445e+17
19600.0	3.8669647012167674e+17
19601.0	3.8664315324770976e+17
19602.0	3.865810850283519e+17
19603.0	3.864812529734995e+17
19604.0	3.864617037419861e+17
19605.0	3.863613680211285e+17
19606.0	3.8631054563956045e+17
19607.0	3.8626716646987085e+17
19608.0	3.861568049643519e+17
19609.0	3.861307867179689e+17
19610.0	3.859675397925549e+17
19611.0	3.858309268373504e+17
19612.0	3.8594406769841485e+17
19613.0	3.8584851166658554e+17
19614.0	3.858088959060651e+17
19615.0	3.857582673712469e+17
19616.0	3.855908887068675e+17
19617.0	3.854696166981632e+17
19618.0	3.855040525631487e+17
19619.0	3.854154302750718e+17
19620.0	3.8531738918802726e+17
19621.0	3.85093482071108e+17
19622.0	3.8530284473985696e+17
19623.0	3.8523677955850234e+17
19624.0	3.8515501845271885e+17
19625.0	3.851164212090197e+17
19626.0	3.8503079987554976e+17
19627.0	3.8498672207462394e+17
19628.0	3.8492127156852045e+17
19629.0	3.84311359788373e+17
19630.0	3.8479796972639565e+17
19631.0	3.845691043829076e+17
19632.0	3.846701894860799e+17
19633.0	3.846072091454122e+17
19634.0	3.8453780627674445e+17
19635.0	3.844425807560703e+17
19636.0	3.8413009553107584e+17
19637.0	3.84053507679846e+17
19638.0	3.842488378851327e+17
19639.0	3.8420108195921914e+17
19640.0	3.841408259588094e+17
19641.0	3.839624312345947e+17
19642.0	3.840207521229483e+17
19643.0	3.8395620954385056e+17
19644.0	3.83896225124625e+17
19645.0	3.8382560982248096e+17
19646.0	3.8348620625346515e+17
19647.0	3.836630223814655e+17
19648.0	3.8364964150312954e+17
19649.0	3.83573176545007e+17
19650.0	3.8351359247209805e+17
19651.0	3.834520827942229e+17
19652.0	3.833970966571691e+17
19653.0	3.83318107496994e+17
19654.0	3.8327160510873594e+17
19655.0	3.8318659565431456e+17
19656.0	3.8314357062369274e+17
