# Flux units: erg / (cm m2 s)
# Wavelength units: Angstrom
wave	flux
19000.0	4.623480787391828e+17
19001.0	4.6224931238707194e+17
19002.0	4.62183394775313e+17
19003.0	4.6210057558644045e+17
19004.0	4.6201662260729165e+17
19005.0	4.619324922789887e+17
19006.0	4.6183252824337056e+17
19007.0	4.617712014371498e+17
19008.0	4.616779943553706e+17
19009.0	4.6159554797021856e+17
19010.0	4.614285224662354e+17
19011.0	4.614355579917653e+17
19012.0	4.6133725399176525e+17
19013.0	4.6127624168843936e+17
19014.0	4.611868377219071e+17
19015.0	4.6110146720781645e+17
19016.0	4.6101707256845645e+17
19017.0	4.609474655769941e+17
19018.0	4.608632122856787e+17
19019.0	4.607787420789417e+17
19020.0	4.6069889581274445e+17
19021.0	4.606184420016127e+17
19022.0	4.6053607915301536e+17
19023.0	4.60448231133457e+17
19024.0	4.603633757498025e+17
19025.0	4.6028984400827725e+17
19026.0	4.602030502969344e+17
19027.0	4.601187045911211e+17
19028.0	4.6004388233215994e+17
19029.0	4.599596003797674e+17
19030.0	4.598813448033621e+17
19031.0	4.5979907541783885e+17
19032.0	4.5971608873642656e+17
19033.0	4.5962142553210874e+17
19034.0	4.595520946656598e+17
19035.0	4.5946788136004256e+17
19036.0	4.587311998173178e+17
19037.0	4.5930687824745805e+17
19038.0	4.5922333057788576e+17
19039.0	4.591426377613311e+17
19040.0	4.5906264979756365e+17
19041.0	4.5897977342634656e+17
19042.0	4.587442497650685e+17
19043.0	4.588184544127657e+17
19044.0	4.58734884163857e+17
19045.0	4.5865387495697043e+17
19046.0	4.585618313052159e+17
19047.0	4.5849054016088736e+17
19048.0	4.5834848376804685e+17
19049.0	4.580266760732667e+17
19050.0	4.582364861344426e+17
19051.0	4.580543288399186e+17
19052.0	4.5807454978921805e+17
19053.0	4.580019360410283e+17
19054.0	4.5792003715235834e+17
19055.0	4.577571669453483e+17
19056.0	4.577387612209151e+17
19057.0	4.5767511426553165e+17
19058.0	4.574429433211561e+17
19059.0	4.5745365242784416e+17
19060.0	4.574276217383593e+17
19061.0	4.573502880699732e+17
19062.0	4.5726804615714125e+17
19063.0	4.5718723387282765e+17
19064.0	4.570853960318976e+17
19065.0	4.5699960063481165e+17
19066.0	4.568795931388587e+17
19067.0	4.568605674263892e+17
19068.0	4.567811052885334e+17
19069.0	4.566997118834004e+17
19070.0	4.5661366769418234e+17
19071.0	4.56536135775027e+17
19072.0	4.5639803286323194e+17
19073.0	4.5637357685527885e+17
19074.0	4.5629386208051194e+17
19075.0	4.562127027874474e+17
19076.0	4.561215809039017e+17
19077.0	4.5604729628480845e+17
19078.0	4.5596060260761594e+17
19079.0	4.5588781262875296e+17
19080.0	4.558049451354794e+17
19081.0	4.557178080504489e+17
19082.0	4.556370365906944e+17
19083.0	4.5555234876948474e+17
19084.0	4.55453456728064e+17
19085.0	4.5539913454933325e+17
19086.0	4.5519799460386125e+17
19087.0	4.5510129681257786e+17
19088.0	4.550777362186239e+17
19089.0	4.550450041498282e+17
19090.0	4.5499366929421645e+17
19091.0	4.5490247030538234e+17
19092.0	4.5471288545771546e+17
19093.0	4.547549237084159e+17
19094.0	4.5467373316778656e+17
19095.0	4.545931922549419e+17
19096.0	4.545093323893417e+17
19097.0	4.54431364751906e+17
19098.0	4.542896366332585e+17
19099.0	4.541969111973888e+17
19100.0	4.5418335534667085e+17
19101.0	4.54107034812416e+17
19102.0	4.540027317693097e+17
19103.0	4.5394641834475514e+17
19104.0	4.538668456170836e+17
19105.0	4.536545737091758e+17
19106.0	4.537013738930175e+17
19107.0	4.535899655591251e+17
19108.0	4.5349574065957536e+17
19109.0	4.5342925402057376e+17
19110.0	4.533831270225236e+17
19111.0	4.532662874144766e+17
19112.0	4.531684736587091e+17
19113.0	4.5314017867421005e+17
19114.0	4.530362536777043e+17
19115.0	4.5295838453650784e+17
19116.0	4.528918702150996e+17
19117.0	4.5281587865408845e+17
19118.0	4.5271517558210554e+17
19119.0	4.502909651080496e+17
19120.0	4.5256589240347296e+17
19121.0	4.5249327152496634e+17
19122.0	4.524176443790677e+17
19123.0	4.523375177935529e+17
19124.0	4.522547997573119e+17
19125.0	4.521767009779711e+17
19126.0	4.5209699410247674e+17
19127.0	4.516952819804839e+17
19128.0	4.5193500386044576e+17
19129.0	4.518444536605353e+17
19130.0	4.517740608662185e+17
19131.0	4.5169519250199885e+17
19132.0	4.516149370814463e+17
19133.0	4.515280887742463e+17
19134.0	4.5145455346756256e+17
19135.0	4.513743320208725e+17
19136.0	4.512945270685695e+17
19137.0	4.511862845254314e+17
19138.0	4.511329806538068e+17
19139.0	4.5105519525888e+17
19140.0	4.5097525224407034e+17
19141.0	4.508951085318144e+17
19142.0	4.508105860360874e+17
19143.0	4.5072360812489376e+17
19144.0	4.506502434564778e+17
19145.0	4.50574875169041e+17
19146.0	4.503975935432022e+17
19147.0	4.5038527410339834e+17
19148.0	4.502855370495317e+17
19149.0	4.50197064847633e+17
19150.0	4.501743803039744e+17
19151.0	4.5009539226228045e+17
19152.0	4.500154856680106e+17
19153.0	4.498310872170493e+17
19154.0	4.498254823686143e+17
19155.0	4.497771224629247e+17
19156.0	4.4969693345218554e+17
19157.0	4.495834483785728e+17
19158.0	4.494430701966677e+17
19159.0	4.494486319835817e+17
19160.0	4.4937676950514336e+17
19161.0	4.4929840480692896e+17
19162.0	4.491650859182762e+17
19163.0	4.4913913862553594e+17
19164.0	4.4905935695162016e+17
19165.0	4.4886570348926266e+17
19166.0	4.488743737447765e+17
19167.0	4.4880716065232205e+17
19168.0	4.48741392917026e+17
19169.0	4.486599305854975e+17
19170.0	4.485826146729983e+17
19171.0	4.484984536563711e+17
19172.0	4.484235383537664e+17
19173.0	4.4834412801556474e+17
19174.0	4.482537114042368e+17
19175.0	4.481843841728511e+17
19176.0	4.481054040304298e+17
19177.0	4.4800204994860365e+17
19178.0	4.479363883991038e+17
19179.0	4.478492789265749e+17
19180.0	4.4778718008879776e+17
19181.0	4.47675183014434e+17
19182.0	4.4762489897178445e+17
19183.0	4.475505805186389e+17
19184.0	4.474668101315242e+17
19185.0	4.4738985618746016e+17
19186.0	4.47312521400593e+17
19187.0	4.472247445443925e+17
19188.0	4.471512842458453e+17
19189.0	4.470753352570197e+17
19190.0	4.469963371489961e+17
19191.0	4.4690937818207565e+17
19192.0	4.468378372669438e+17
19193.0	4.4674557963578016e+17
19194.0	4.466563154793813e+17
19195.0	4.466002823741439e+17
19196.0	4.4651845779455994e+17
19197.0	4.4644109399709005e+17
19198.0	4.463638820334251e+17
19199.0	4.459118133772286e+17
19200.0	4.459700299672235e+17
19201.0	4.4612503599404365e+17
19202.0	4.4604762473103354e+17
19203.0	4.4596777427053216e+17
19204.0	4.458852988048725e+17
19205.0	4.4580952485833376e+17
19206.0	4.457291676560042e+17
19207.0	4.456373428071081e+17
19208.0	4.455242043228159e+17
19209.0	4.4549342533167776e+17
19210.0	4.454145536120149e+17
19211.0	4.453369823363072e+17
19212.0	4.4525875192572576e+17
19213.0	4.451650191578452e+17
19214.0	4.4508138683323725e+17
19215.0	4.450218958738772e+17
19216.0	4.449443788445013e+17
19217.0	4.4486485707762336e+17
19218.0	4.446493924655101e+17
19219.0	4.446886173168981e+17
19220.0	4.446258888441855e+17
19221.0	4.4449510457344e+17
19222.0	4.444725069217791e+17
19223.0	4.443905291801939e+17
19224.0	4.4430890942245536e+17
19225.0	4.442101408333823e+17
19226.0	4.441544799726249e+17
19227.0	4.4407665850668365e+17
19228.0	4.440012663816192e+17
19229.0	4.4392271496697165e+17
19230.0	4.438427828573525e+17
19231.0	4.4376392490898765e+17
19232.0	4.436865704088918e+17
19233.0	4.4359861466562554e+17
19234.0	4.435257420589738e+17
19235.0	4.434474151094953e+17
19236.0	4.433738543573674e+17
19237.0	4.432920610253481e+17
19238.0	4.4320016857825274e+17
19239.0	4.43138865959185e+17
19240.0	4.430603232826708e+17
19241.0	4.4297927499885216e+17
19242.0	4.429015750978217e+17
19243.0	4.428031981169323e+17
19244.0	4.42747129499921e+17
19245.0	4.42666528538624e+17
19246.0	4.425878320010581e+17
19247.0	4.4251150692297376e+17
19248.0	4.4243476451164154e+17
19249.0	4.4235414404683085e+17
19250.0	4.4225546304880634e+17
19251.0	4.421653280150868e+17
19252.0	4.420809624562346e+17
19253.0	4.420389899862015e+17
19254.0	4.419659086430208e+17
19255.0	4.418594297348095e+17
19256.0	4.4180552985258656e+17
19257.0	4.4173161104670714e+17
19258.0	4.4165394442048845e+17
19259.0	4.415650929836032e+17
19260.0	4.414769093498196e+17
19261.0	4.4141819888052896e+17
19262.0	4.413324764643327e+17
19263.0	4.4125317916262394e+17
19264.0	4.410849565343741e+17
19265.0	4.410672080573779e+17
19266.0	4.409535483609088e+17
19267.0	4.409508277955242e+17
19268.0	4.4087196131874125e+17
19269.0	4.407947076916565e+17
19270.0	4.407174410622293e+17
19271.0	4.4057570085000544e+17
19272.0	4.405559299495253e+17
19273.0	4.4044024097887565e+17
19274.0	4.403428077163859e+17
19275.0	4.403285298861397e+17
19276.0	4.402476112762197e+17
19277.0	4.4017100916435616e+17
19278.0	4.4009188292034554e+17
19279.0	4.400138155283797e+17
19280.0	4.3992365365111456e+17
19281.0	4.398596797497343e+17
19282.0	4.397846360315219e+17
19283.0	4.397024375996415e+17
19284.0	4.396263338409983e+17
19285.0	4.3952326301450234e+17
19286.0	4.3946892853247994e+17
19287.0	4.3939689457691296e+17
19288.0	4.3916344241247565e+17
19289.0	4.387772105577803e+17
19290.0	4.3916455257483936e+17
19291.0	4.390497934114817e+17
19292.0	4.390094275695957e+17
19293.0	4.389306795819007e+17
19294.0	4.388521775901353e+17
19295.0	4.38776940724224e+17
19296.0	4.386372652979541e+17
19297.0	4.38608122155281e+17
19298.0	4.3854001022347936e+17
19299.0	4.383974819714389e+17
19300.0	4.383860326399999e+17
19301.0	4.3831122436205216e+17
19302.0	4.382334059020287e+17
19303.0	4.3814496683513165e+17
19304.0	4.380753692109482e+17
19305.0	4.380001915546281e+17
19306.0	4.37924598452497e+17
19307.0	4.378394608620885e+17
19308.0	4.377670613030228e+17
19309.0	4.3767872380818765e+17
19310.0	4.37597537252147e+17
19311.0	4.375332730350251e+17
19312.0	4.374597853336917e+17
19313.0	4.3738168578539514e+17
19314.0	4.350251016825493e+17
19315.0	4.350754352878971e+17
19316.0	4.370695535110828e+17
19317.0	4.370729473321642e+17
19318.0	4.369977166178985e+17
19319.0	4.369231029556564e+17
19320.0	4.3682109091130016e+17
19321.0	4.367147539103743e+17
19322.0	4.3668174368931834e+17
19323.0	4.3660940278060365e+17
19324.0	4.3653796364724896e+17
19325.0	4.364482829964628e+17
19326.0	4.363849908791978e+17
19327.0	4.363044014522366e+17
19328.0	4.361129275599532e+17
19329.0	4.361545218435755e+17
19330.0	4.360705548135081e+17
19331.0	4.3599354005203616e+17
19332.0	4.3592377409645216e+17
19333.0	4.3584509545458336e+17
19334.0	4.357669847913813e+17
19335.0	4.3545330936272237e+17
19336.0	4.356139224749397e+17
19337.0	4.3553897522571936e+17
19338.0	4.3542940217944736e+17
19339.0	4.3538560987081376e+17
19340.0	4.352471146517844e+17
19341.0	4.35136318406656e+17
19342.0	4.350652596267689e+17
19343.0	4.350791579424084e+17
19344.0	4.349150167214764e+17
19345.0	4.344789478670327e+17
19346.0	4.347194152146262e+17
19347.0	4.346525519271252e+17
19348.0	4.3469610830615885e+17
19349.0	4.3461468365346125e+17
19350.0	4.344993083468459e+17
19351.0	4.344587659247615e+17
19352.0	4.342607611516242e+17
19353.0	4.34313267056913e+17
19354.0	4.342371407888382e+17
19355.0	4.341455950009685e+17
19356.0	4.3408379780355405e+17
19357.0	4.3400746943993165e+17
19358.0	4.33931190149666e+17
19359.0	4.338218069655551e+17
19360.0	4.336803310643882e+17
19361.0	4.336945473082709e+17
19362.0	4.336256165085183e+17
19363.0	4.3354909821282976e+17
19364.0	4.3347255922524166e+17
19365.0	4.33395615207697e+17
19366.0	4.333196939711828e+17
19367.0	4.332434671796224e+17
19368.0	4.3316725143306234e+17
19369.0	4.3308364070911994e+17
19370.0	4.330100993906006e+17
19371.0	4.3292978874504525e+17
19372.0	4.328612112454996e+17
19373.0	4.3278289065738234e+17
19374.0	4.327083156526421e+17
19375.0	4.326321340197546e+17
19376.0	4.325565789459795e+17
19377.0	4.324785184047104e+17
19378.0	4.324029002066602e+17
19379.0	4.323270996262911e+17
19380.0	4.322506877261141e+17
19381.0	4.321730573806251e+17
19382.0	4.320875635539967e+17
19383.0	4.3200431291105274e+17
19384.0	4.3194248970895354e+17
19385.0	4.3186884835628365e+17
19386.0	4.317935846468266e+17
19387.0	4.317173524725759e+17
19388.0	4.3164089807011846e+17
19389.0	4.3156442563215354e+17
19390.0	4.3148826902527994e+17
19391.0	4.307937638656673e+17
19392.0	4.313330250416127e+17
19393.0	4.312589497881941e+17
19394.0	4.3118121437538976e+17
19395.0	4.310703984869376e+17
19396.0	4.31020529820194e+17
19397.0	4.309536917684223e+17
19398.0	4.3084392417634976e+17
19399.0	4.30612027888981e+17
19400.0	4.306915604212394e+17
19401.0	4.306464446698836e+17
19402.0	4.305709552369664e+17
19403.0	4.3049140592749216e+17
19404.0	4.304174575517695e+17
19405.0	4.303379437540691e+17
19406.0	4.3026271583600634e+17
19407.0	4.3014540401923386e+17
19408.0	4.299562930580143e+17
19409.0	4.3003185274552314e+17
19410.0	4.2995661776704845e+17
19411.0	4.29879394898193e+17
19412.0	4.2980080531537914e+17
19413.0	4.2968055014577485e+17
19414.0	4.2963944547723936e+17
19415.0	4.2956626696601594e+17
19416.0	4.294641350344702e+17
19417.0	4.294048422559743e+17
19418.0	4.293337951502336e+17
19419.0	4.2925441564016634e+17
19420.0	4.2917621640724486e+17
19421.0	4.29096842559488e+17
19422.0	4.290102318596095e+17
19423.0	4.2893544217640954e+17
19424.0	4.288554233845077e+17
19425.0	4.2877395287408634e+17
19426.0	4.2869212941298336e+17
19427.0	4.286085884542976e+17
19428.0	4.285248150612649e+17
19429.0	4.2843924650612045e+17
19430.0	4.2834658202746874e+17
19431.0	4.281342113437016e+17
19432.0	4.281733002996394e+17
19433.0	4.280790210139477e+17
19434.0	4.2798177118235296e+17
19435.0	4.2786931532103674e+17
19436.0	4.2770726356254694e+17
19437.0	4.276620678397951e+17
19438.0	4.26114099970048e+17
19439.0	4.2739273857761286e+17
19440.0	4.272487988024662e+17
19441.0	4.27073454805265e+17
19442.0	4.268621330470228e+17
19443.0	4.2659743835095034e+17
19444.0	4.262477750250155e+17
19445.0	4.2574964571067725e+17
19446.0	4.2498227570387616e+17
19447.0	4.23663728014131e+17
19448.0	4.2097709923259744e+17
19449.0	4.134306801429161e+17
19450.0	3.811803379269617e+17
19451.0	3.531450666887841e+17
19452.0	3.9282559907703565e+17
19453.0	4.1611022698195674e+17
19454.0	4.2143497930670054e+17
19455.0	4.234716221800447e+17
19456.0	4.244470216261632e+17
19457.0	4.249714106389844e+17
19458.0	4.166504749378376e+17
19459.0	4.2528491794595994e+17
19460.0	4.255549301806421e+17
19461.0	4.2561179473674234e+17
19462.0	4.256278214519465e+17
19463.0	4.256269979003561e+17
19464.0	4.256062483289429e+17
19465.0	4.2557963784683514e+17
19466.0	4.2553495704480416e+17
19467.0	4.254967336534015e+17
19468.0	4.2544664143025485e+17
19469.0	4.2525489490821094e+17
19470.0	4.253346921709568e+17
19471.0	4.252773080104959e+17
19472.0	4.252067566015829e+17
19473.0	4.251411426574334e+17
19474.0	4.2499976448354963e+17
19475.0	4.2483933312450534e+17
19476.0	4.2494196298984096e+17
19477.0	4.248805202810197e+17
19478.0	4.248184640853333e+17
19479.0	4.2466535912680083e+17
19480.0	4.246757179391999e+17
19481.0	4.245932974888276e+17
19482.0	4.245354109905578e+17
19483.0	4.244696826118144e+17
19484.0	4.24396233707793e+17
19485.0	4.2431521100922874e+17
19486.0	4.241582548407639e+17
19487.0	4.241812182357333e+17
19488.0	4.2411228268243616e+17
19489.0	4.24033233403904e+17
19490.0	4.2366819110311206e+17
19491.0	4.238897500389376e+17
19492.0	4.2382314141559456e+17
19493.0	4.237506565723477e+17
19494.0	4.2367694112030714e+17
19495.0	4.236035282873002e+17
19496.0	4.23439920931362e+17
19497.0	4.2345319988811085e+17
19498.0	4.233601968592214e+17
19499.0	4.22277839655184e+17
19500.0	4.232383124122282e+17
19501.0	4.231794703116969e+17
19502.0	4.23113062945041e+17
19503.0	4.230398829658111e+17
19504.0	4.229659272500565e+17
19505.0	4.2289040447242234e+17
19506.0	4.2281902643609594e+17
19507.0	4.227393518567423e+17
19508.0	4.2267098882594125e+17
19509.0	4.225958810746879e+17
19510.0	4.224696590183082e+17
19511.0	4.188871162068955e+17
19512.0	4.2224080506934554e+17
19513.0	4.219529088117412e+17
19514.0	4.220265692484946e+17
19515.0	4.220607574398296e+17
19516.0	4.2206785734792525e+17
19517.0	4.21989326065937e+17
19518.0	4.219096450553172e+17
19519.0	4.218342556565502e+17
19520.0	4.217002541449215e+17
19521.0	4.2171224670863354e+17
19522.0	4.2162253285294074e+17
19523.0	4.2154438416138234e+17
19524.0	4.2143006812624224e+17
19525.0	4.2141434507864736e+17
19526.0	4.213443457100459e+17
19527.0	4.212669676519423e+17
19528.0	4.2118980035761485e+17
19529.0	4.211126328535723e+17
19530.0	4.2104962811603616e+17
19531.0	4.20976490778897e+17
19532.0	4.209024899743743e+17
19533.0	4.2082914662700365e+17
19534.0	4.207555744803498e+17
19535.0	4.206796321325055e+17
19536.0	4.206022219180714e+17
19537.0	4.2053438708995405e+17
19538.0	4.2037378809856006e+17
19539.0	4.202740362947247e+17
19540.0	4.203106629145941e+17
19541.0	4.202249976108374e+17
19542.0	4.201602239954943e+17
19543.0	4.200125774342827e+17
19544.0	4.200161193142953e+17
19545.0	4.198741705752571e+17
19546.0	4.196915022746966e+17
19547.0	4.198017974403072e+17
19548.0	4.197283562957482e+17
19549.0	4.196404804539733e+17
19550.0	4.195811314018986e+17
19551.0	4.1950875253473274e+17
19552.0	4.1943492600354125e+17
19553.0	4.193585966612479e+17
19554.0	4.1927975255408634e+17
19555.0	4.192050526289919e+17
19556.0	4.19136404595234e+17
19557.0	4.1906796592715085e+17
19558.0	4.1899559090476365e+17
19559.0	4.189231054323711e+17
19560.0	4.188182729282901e+17
19561.0	4.187729351584425e+17
19562.0	4.186747726462975e+17
19563.0	4.186310540875093e+17
19564.0	4.185577765907114e+17
19565.0	4.1848461625480525e+17
19566.0	4.184066679111679e+17
19567.0	4.1833910046993056e+17
19568.0	4.182632110402218e+17
19569.0	4.181893732543146e+17
19570.0	4.181192560257706e+17
19571.0	4.180460600382806e+17
19572.0	4.179693437015381e+17
19573.0	4.1788965863642445e+17
19574.0	4.1781176530807456e+17
19575.0	4.177553437403817e+17
19576.0	4.1767773171002016e+17
19577.0	4.1759402563556685e+17
19578.0	4.1752903370670074e+17
19579.0	4.174590388120234e+17
19580.0	4.173878618226687e+17
19581.0	4.173152627545428e+17
19582.0	4.1724611601803936e+17
19583.0	4.1717344907209376e+17
19584.0	4.171003280228351e+17
19585.0	4.170101187499348e+17
19586.0	4.169337599077034e+17
19587.0	4.168801088875178e+17
19588.0	4.167226542959275e+17
19589.0	4.16734015197457e+17
19590.0	4.1663709804407456e+17
19591.0	4.165906589199018e+17
19592.0	4.1651791382009165e+17
19593.0	4.1643682932544845e+17
19594.0	4.163271749096788e+17
19595.0	4.1629726868329805e+17
19596.0	4.1622481250112845e+17
19597.0	4.161545994327381e+17
19598.0	4.1596089284252986e+17
19599.0	4.16010315235328e+17
19600.0	4.1593890644077216e+17
19601.0	4.158554814545919e+17
19602.0	4.1578782418534394e+17
19603.0	4.1564022138470374e+17
19604.0	4.1564410314315085e+17
19605.0	4.155277258872149e+17
19606.0	4.1550298515592525e+17
19607.0	4.1543201459623245e+17
19608.0	4.153571014606848e+17
19609.0	4.152783209671338e+17
19610.0	4.151750537773056e+17
19611.0	4.150828624860501e+17
19612.0	4.1507076981828256e+17
19613.0	4.149968224212308e+17
19614.0	4.1492043414896634e+17
19615.0	4.148536510425771e+17
19616.0	4.147369160824149e+17
19617.0	4.14646173503761e+17
19618.0	4.1453287773306854e+17
19619.0	4.1441184431035706e+17
19620.0	4.143430183682045e+17
19621.0	4.143378179205801e+17
19622.0	4.143484012680533e+17
19623.0	4.1427288750817274e+17
19624.0	4.141923418417834e+17
19625.0	4.14131734708224e+17
19626.0	4.140582653919231e+17
19627.0	4.1398770147000314e+17
19628.0	4.13906022502673e+17
19629.0	4.1362852343534925e+17
19630.0	4.137666626977792e+17
19631.0	4.133342070964222e+17
19632.0	4.136263278570154e+17
19633.0	4.135481402283349e+17
19634.0	4.134828074423638e+17
19635.0	4.133966679725395e+17
19636.0	4.132434636789076e+17
19637.0	4.1313146471710714e+17
19638.0	4.1318571314599245e+17
19639.0	4.1312202089212576e+17
19640.0	4.130398025373013e+17
19641.0	4.126499588975285e+17
19642.0	4.129014025289728e+17
19643.0	4.1282860479064736e+17
19644.0	4.1275440307896314e+17
19645.0	4.126402978075988e+17
19646.0	4.1251997594856096e+17
19647.0	4.125474195592532e+17
19648.0	4.124773086920702e+17
19649.0	4.124045563221332e+17
19650.0	4.1233422469474976e+17
19651.0	4.1226199724195846e+17
19652.0	4.121900832434857e+17
19653.0	4.1211910163879245e+17
19654.0	4.120468279787519e+17
19655.0	4.119735406253396e+17
19656.0	4.119035780967082e+17
