# Flux units: erg / (cm m2 s)
# Wavelength units: Angstrom
wave	flux
19000.0	6.562828392944979e+17
19001.0	6.561543751729151e+17
19002.0	6.560427423738537e+17
19003.0	6.55922274902562e+17
19004.0	6.558019951962793e+17
19005.0	6.556816529948671e+17
19006.0	6.555617751029076e+17
19007.0	6.554407794988371e+17
19008.0	6.553176616468479e+17
19009.0	6.551868625562282e+17
19010.0	6.550577901207551e+17
19011.0	6.549542050026835e+17
19012.0	6.548194799037097e+17
19013.0	6.547198648341844e+17
19014.0	6.545961888601427e+17
19015.0	6.544775022204244e+17
19016.0	6.543590343835647e+17
19017.0	6.542405105527466e+17
19018.0	6.54119989604079e+17
19019.0	6.540005589647359e+17
19020.0	6.538795680443049e+17
19021.0	6.537610450523476e+17
19022.0	6.536405222861482e+17
19023.0	6.535174551852372e+17
19024.0	6.533979700199423e+17
19025.0	6.532776587864746e+17
19026.0	6.531534873253204e+17
19027.0	6.530256343138303e+17
19028.0	6.529173341689171e+17
19029.0	6.527982933202259e+17
19030.0	6.526800743454036e+17
19031.0	6.525591947138387e+17
19032.0	6.524368902772052e+17
19033.0	6.523052658873684e+17
19034.0	6.521770056788649e+17
19035.0	6.519514776731647e+17
19036.0	6.508749692163411e+17
19037.0	6.517397023708499e+17
19038.0	6.516991949712042e+17
19039.0	6.515942729187327e+17
19040.0	6.514788936275284e+17
19041.0	6.513604310335487e+17
19042.0	6.512145962019497e+17
19043.0	6.511231693925034e+17
19044.0	6.510026852139005e+17
19045.0	6.50882436964898e+17
19046.0	6.507609896342868e+17
19047.0	6.506388815609855e+17
19048.0	6.505092212239017e+17
19049.0	6.503511976050687e+17
19050.0	6.50261329678609e+17
19051.0	6.500138819605843e+17
19052.0	6.499574376737449e+17
19053.0	6.499133319806973e+17
19054.0	6.498033836840276e+17
19055.0	6.496604931839316e+17
19056.0	6.495640399904767e+17
19057.0	6.494488011385513e+17
19058.0	6.493078539294035e+17
19059.0	6.492024117832361e+17
19060.0	6.490907729723391e+17
19061.0	6.489721386915156e+17
19062.0	6.488524926047572e+17
19063.0	6.48732598215202e+17
19064.0	6.486070959712938e+17
19065.0	6.484813329814867e+17
19066.0	6.483625077899263e+17
19067.0	6.482549160629588e+17
19068.0	6.481367765701972e+17
19069.0	6.480174909838676e+17
19070.0	6.478962376398166e+17
19071.0	6.477774782289236e+17
19072.0	6.476517638231379e+17
19073.0	6.475402848851284e+17
19074.0	6.474211585425407e+17
19075.0	6.473018201778857e+17
19076.0	6.471818223288319e+17
19077.0	6.470618700578815e+17
19078.0	6.469420694110207e+17
19079.0	6.468247054450687e+17
19080.0	6.467044473394515e+17
19081.0	6.465822560791209e+17
19082.0	6.464651955011583e+17
19083.0	6.4633869711005e+17
19084.0	6.462088210459305e+17
19085.0	6.461061318311935e+17
19086.0	6.459416521998335e+17
19087.0	6.458394303004672e+17
19088.0	6.457240559026176e+17
19089.0	6.456085140821332e+17
19090.0	6.455057504185002e+17
19091.0	6.453883707938131e+17
19092.0	6.452518625563988e+17
19093.0	6.45155842564642e+17
19094.0	6.450382082757972e+17
19095.0	6.449198824161279e+17
19096.0	6.44800716017937e+17
19097.0	6.4468196786176e+17
19098.0	6.445544849975977e+17
19099.0	6.444339627906388e+17
19100.0	6.44322624152098e+17
19101.0	6.442046355843754e+17
19102.0	6.440821647736831e+17
19103.0	6.439686557226326e+17
19104.0	6.438499317536084e+17
19105.0	6.437102838699348e+17
19106.0	6.436090957965994e+17
19107.0	6.434833469276159e+17
19108.0	6.433547977315667e+17
19109.0	6.43215371866385e+17
19110.0	6.43115554631407e+17
19111.0	6.430065898291199e+17
19112.0	6.428916329742335e+17
19113.0	6.427815199812265e+17
19114.0	6.426586363811156e+17
19115.0	6.425390160893267e+17
19116.0	6.424235567568212e+17
19117.0	6.423036457997652e+17
19118.0	6.421654470481236e+17
19119.0	6.417135688832337e+17
19120.0	6.419324243105108e+17
19121.0	6.418238683130537e+17
19122.0	6.417147898451284e+17
19123.0	6.415975584890879e+17
19124.0	6.414694481570473e+17
19125.0	6.413583320962388e+17
19126.0	6.412287143313407e+17
19127.0	6.410369354432511e+17
19128.0	6.409854760867156e+17
19129.0	6.408787905391273e+17
19130.0	6.407685671660201e+17
19131.0	6.406521903295146e+17
19132.0	6.405340831328938e+17
19133.0	6.404123032638803e+17
19134.0	6.402954189864959e+17
19135.0	6.40179576574225e+17
19136.0	6.400608678445055e+17
19137.0	6.399370326966272e+17
19138.0	6.398235224571904e+17
19139.0	6.397075784728573e+17
19140.0	6.395899694896467e+17
19141.0	6.394719851162282e+17
19142.0	6.393518039061843e+17
19143.0	6.392334296023037e+17
19144.0	6.391141851900585e+17
19145.0	6.389995402515795e+17
19146.0	6.388317535513258e+17
19147.0	6.387596577996799e+17
19148.0	6.3863832182784e+17
19149.0	6.385189041209344e+17
19150.0	6.384095344984064e+17
19151.0	6.382910532397737e+17
19152.0	6.381713495512403e+17
19153.0	6.380380791767037e+17
19154.0	6.379297684761257e+17
19155.0	6.378152270670505e+17
19156.0	6.376961461627561e+17
19157.0	6.375670451361108e+17
19158.0	6.374344753501524e+17
19159.0	6.373347748566356e+17
19160.0	6.372178786254847e+17
19161.0	6.370897523550889e+17
19162.0	6.369274607523156e+17
19163.0	6.368404731942228e+17
19164.0	6.36747230810385e+17
19165.0	6.366187522883583e+17
19166.0	6.36512022630673e+17
19167.0	6.363973158961151e+17
19168.0	6.362841285481811e+17
19169.0	6.361687459015337e+17
19170.0	6.360519540386473e+17
19171.0	6.359336318839466e+17
19172.0	6.358162721122985e+17
19173.0	6.357001966365353e+17
19174.0	6.355811400592041e+17
19175.0	6.354658333294591e+17
19176.0	6.353481034104831e+17
19177.0	6.352182737633279e+17
19178.0	6.351106568705364e+17
19179.0	6.349923212241578e+17
19180.0	6.348756073054208e+17
19181.0	6.347533027289769e+17
19182.0	6.346400677756927e+17
19183.0	6.345256330417491e+17
19184.0	6.344080971792383e+17
19185.0	6.342898868027391e+17
19186.0	6.341727661064191e+17
19187.0	6.34049053991458e+17
19188.0	6.339364716019711e+17
19189.0	6.338181300136616e+17
19190.0	6.336989075516073e+17
19191.0	6.335773420115284e+17
19192.0	6.334601995747328e+17
19193.0	6.333362199330815e+17
19194.0	6.33210481549858e+17
19195.0	6.330865924352682e+17
19196.0	6.329477592951466e+17
19197.0	6.327870743904255e+17
19198.0	6.325547706963283e+17
19199.0	6.320870391807999e+17
19200.0	6.320112525115392e+17
19201.0	6.322171299233791e+17
19202.0	6.322064267586218e+17
19203.0	6.321273795772415e+17
19204.0	6.320316065600852e+17
19205.0	6.319253735778986e+17
19206.0	6.318151060247891e+17
19207.0	6.316909314179071e+17
19208.0	6.315771721067178e+17
19209.0	6.314716234252287e+17
19210.0	6.31356177654306e+17
19211.0	6.312409442549759e+17
19212.0	6.311234627786068e+17
19213.0	6.30997066518801e+17
19214.0	6.308807977555284e+17
19215.0	6.3077073565341e+17
19216.0	6.306555632112979e+17
19217.0	6.305325602133331e+17
19218.0	6.303867828436991e+17
19219.0	6.30284350460177e+17
19220.0	6.30183318065425e+17
19221.0	6.300590200761001e+17
19222.0	6.299502649191082e+17
19223.0	6.298363868392106e+17
19224.0	6.297169854900905e+17
19225.0	6.295994568977066e+17
19226.0	6.294861769954644e+17
19227.0	6.293699846384298e+17
19228.0	6.292555285135359e+17
19229.0	6.291385820905471e+17
19230.0	6.29021605888e+17
19231.0	6.289035645419519e+17
19232.0	6.287870202828116e+17
19233.0	6.286653540794367e+17
19234.0	6.285529426078377e+17
19235.0	6.284342672228352e+17
19236.0	6.283196502463827e+17
19237.0	6.282018669898409e+17
19238.0	6.280788840546303e+17
19239.0	6.279687018556074e+17
19240.0	6.278519398421844e+17
19241.0	6.277333163966463e+17
19242.0	6.276167096423766e+17
19243.0	6.274878290963114e+17
19244.0	6.27384086761745e+17
19245.0	6.272664274468864e+17
19246.0	6.271492381037908e+17
19247.0	6.270326168092672e+17
19248.0	6.269157226752682e+17
19249.0	6.267971227178324e+17
19250.0	6.266764707670698e+17
19251.0	6.265535778695849e+17
19252.0	6.264222019922601e+17
19253.0	6.263282178457599e+17
19254.0	6.262127490760703e+17
19255.0	6.260792357814271e+17
19256.0	6.259769335611391e+17
19257.0	6.258609117724672e+17
19258.0	6.257432781127679e+17
19259.0	6.256175012817578e+17
19260.0	6.254809248169983e+17
19261.0	6.253880135734612e+17
19262.0	6.252672018896212e+17
19263.0	6.251453080054442e+17
19264.0	6.250071618224127e+17
19265.0	6.249027197381289e+17
19266.0	6.24785676636433e+17
19267.0	6.246828205583018e+17
19268.0	6.245651534839807e+17
19269.0	6.244474750151338e+17
19270.0	6.243264102749524e+17
19271.0	6.241962201972735e+17
19272.0	6.24091130372642e+17
19273.0	6.239574504942249e+17
19274.0	6.238256481260884e+17
19275.0	6.237414557919914e+17
19276.0	6.236224828211199e+17
19277.0	6.235049661125972e+17
19278.0	6.233863611219967e+17
19279.0	6.232660536634025e+17
19280.0	6.231465575929172e+17
19281.0	6.230301567090687e+17
19282.0	6.229123773672105e+17
19283.0	6.22791280890129e+17
19284.0	6.226690600599551e+17
19285.0	6.225476803974484e+17
19286.0	6.224249173136724e+17
19287.0	6.222855916923561e+17
19288.0	6.217434899939325e+17
19289.0	6.213810913629521e+17
19290.0	6.219226892555604e+17
19291.0	6.218116626732372e+17
19292.0	6.217200218843818e+17
19293.0	6.216040448349524e+17
19294.0	6.214857256861695e+17
19295.0	6.213684274309801e+17
19296.0	6.212391983382527e+17
19297.0	6.211266774652243e+17
19298.0	6.210092284947113e+17
19299.0	6.208806300155903e+17
19300.0	6.207718294902099e+17
19301.0	6.20652373545233e+17
19302.0	6.205311596276393e+17
19303.0	6.204070533180074e+17
19304.0	6.202897464644948e+17
19305.0	6.201677968659795e+17
19306.0	6.200470378206548e+17
19307.0	6.199221276726612e+17
19308.0	6.19795869475362e+17
19309.0	6.196609519277396e+17
19310.0	6.195317609332733e+17
19311.0	6.194230781979305e+17
19312.0	6.193049769432406e+17
19313.0	6.191615521587199e+17
19314.0	6.173545821721939e+17
19315.0	6.173574088534714e+17
19316.0	6.187824735496874e+17
19317.0	6.186991729246207e+17
19318.0	6.185838538216788e+17
19319.0	6.184657389355008e+17
19320.0	6.183399501507242e+17
19321.0	6.182116162622803e+17
19322.0	6.180930545429161e+17
19323.0	6.179689127914154e+17
19324.0	6.178463801846442e+17
19325.0	6.177201982537727e+17
19326.0	6.176013805420544e+17
19327.0	6.174796429656063e+17
19328.0	6.173395430757716e+17
19329.0	6.172331142195882e+17
19330.0	6.1710704574464e+17
19331.0	6.169792624984063e+17
19332.0	6.168576572522495e+17
19333.0	6.167303500595199e+17
19334.0	6.166048721425748e+17
19335.0	6.164431136358399e+17
19336.0	6.163472839256746e+17
19337.0	6.162196713177087e+17
19338.0	6.160753195920041e+17
19339.0	6.159621292381524e+17
19340.0	6.158248468720297e+17
19341.0	6.156826401133908e+17
19342.0	6.155504992649215e+17
19343.0	6.154377873413462e+17
19344.0	6.152880271305385e+17
19345.0	6.150710934634495e+17
19346.0	6.149690513599146e+17
19347.0	6.148885648332116e+17
19348.0	6.147814945980415e+17
19349.0	6.146466970774185e+17
19350.0	6.145078406589097e+17
19351.0	6.143790220487337e+17
19352.0	6.142242388792659e+17
19353.0	6.141070708572159e+17
19354.0	6.139696990825129e+17
19355.0	6.138231942807552e+17
19356.0	6.136928076300287e+17
19357.0	6.135539231096831e+17
19358.0	6.134132931996329e+17
19359.0	6.132670843759273e+17
19360.0	6.131148298824361e+17
19361.0	6.129869624005972e+17
19362.0	6.128444967834963e+17
19363.0	6.126995884037459e+17
19364.0	6.125497354289151e+17
19365.0	6.123971997772457e+17
19366.0	6.122484834587987e+17
19367.0	6.120984329322495e+17
19368.0	6.119467973782186e+17
19369.0	6.117903763330388e+17
19370.0	6.116356393009151e+17
19371.0	6.114773019481427e+17
19372.0	6.113238501206697e+17
19373.0	6.111576538305875e+17
19374.0	6.109902318250665e+17
19375.0	6.108276961837055e+17
19376.0	6.10663180341521e+17
19377.0	6.104959035987284e+17
19378.0	6.103276355321855e+17
19379.0	6.101551845561684e+17
19380.0	6.099752429027327e+17
19381.0	6.097895420504745e+17
19382.0	6.096068563435519e+17
19383.0	6.094296295931903e+17
19384.0	6.092529489412093e+17
19385.0	6.090696567379284e+17
19386.0	6.088763002322943e+17
19387.0	6.08665345265937e+17
19388.0	6.08466620260898e+17
19389.0	6.082584011691348e+17
19390.0	6.080094998451539e+17
19391.0	6.06945124391321e+17
19392.0	6.074263244461395e+17
19393.0	6.073778363345576e+17
19394.0	6.071726400776874e+17
19395.0	6.069454197402282e+17
19396.0	6.067203565333162e+17
19397.0	6.064781157640874e+17
19398.0	6.062211057319935e+17
19399.0	6.059449055008084e+17
19400.0	6.057086763575978e+17
19401.0	6.054557587079167e+17
19402.0	6.051929609557332e+17
19403.0	6.049212316428969e+17
19404.0	6.046451857620991e+17
19405.0	6.043537503507795e+17
19406.0	6.040511596986367e+17
19407.0	6.037256000591188e+17
19408.0	6.033630317685418e+17
19409.0	6.03057656308258e+17
19410.0	6.027234861121535e+17
19411.0	6.023651466586793e+17
19412.0	6.01990339039505e+17
19413.0	6.015858734967466e+17
19414.0	6.011635827911338e+17
19415.0	6.007386321977343e+17
19416.0	6.002766853963776e+17
19417.0	5.998251201265664e+17
19418.0	5.993565962371072e+17
19419.0	5.988593512917673e+17
19420.0	5.983234382189908e+17
19421.0	5.977722422209194e+17
19422.0	5.971940651739818e+17
19423.0	5.965808640109225e+17
19424.0	5.959194045841408e+17
19425.0	5.952331321442303e+17
19426.0	5.944992201703423e+17
19427.0	5.937237511722324e+17
19428.0	5.928793829714601e+17
19429.0	5.919733092188159e+17
19430.0	5.909703227168084e+17
19431.0	5.898927325489834e+17
19432.0	5.889692752936959e+17
19433.0	5.878213734913366e+17
19434.0	5.865426521161727e+17
19435.0	5.85137547972881e+17
19436.0	5.836081633165312e+17
19437.0	5.819466088011092e+17
19438.0	5.786988343634604e+17
19439.0	5.779457202367146e+17
19440.0	5.76112313901602e+17
19441.0	5.7369169976360934e+17
19442.0	5.7090914794864646e+17
19443.0	5.677667772792831e+17
19444.0	5.641273010552829e+17
19445.0	5.5983943939959475e+17
19446.0	5.5471218182062074e+17
19447.0	5.483638029636945e+17
19448.0	5.401493226826414e+17
19449.0	5.2863752896948896e+17
19450.0	5.091244475329183e+17
19451.0	4.942312077525002e+17
19452.0	5.205813092155393e+17
19453.0	5.347490410790915e+17
19454.0	5.440856675494565e+17
19455.0	5.510217469001726e+17
19456.0	5.564557191107927e+17
19457.0	5.608678867249832e+17
19458.0	5.602994498306101e+17
19459.0	5.673501410547038e+17
19460.0	5.7052610977682746e+17
19461.0	5.7294817360609274e+17
19462.0	5.750594300717739e+17
19463.0	5.768843569922047e+17
19464.0	5.785265718515028e+17
19465.0	5.800241016777386e+17
19466.0	5.813692916563967e+17
19467.0	5.825649568645119e+17
19468.0	5.836683446583296e+17
19469.0	5.846405453185021e+17
19470.0	5.855412440705706e+17
19471.0	5.863437499716948e+17
19472.0	5.87096373994018e+17
19473.0	5.877847454733652e+17
19474.0	5.884275210933588e+17
19475.0	5.889781584800425e+17
19476.0	5.89543363453474e+17
19477.0	5.900412393619455e+17
19478.0	5.904910681199956e+17
19479.0	5.909019499692031e+17
19480.0	5.912793348483754e+17
19481.0	5.916223860637695e+17
19482.0	5.919432687747071e+17
19483.0	5.922435821993983e+17
19484.0	5.925049262058153e+17
19485.0	5.927453332253353e+17
19486.0	5.929678823664298e+17
19487.0	5.931935565436244e+17
19488.0	5.933894639550463e+17
19489.0	5.935608365755049e+17
19490.0	5.936839148612265e+17
19491.0	5.938850743102121e+17
19492.0	5.940218600008362e+17
19493.0	5.941368378272425e+17
19494.0	5.942406643275092e+17
19495.0	5.943459550593023e+17
19496.0	5.943987059119444e+17
19497.0	5.944578048436905e+17
19498.0	5.941066414948351e+17
19499.0	5.931886448039251e+17
19500.0	5.945797324221098e+17
19501.0	5.946908696641536e+17
19502.0	5.9475011581597e+17
19503.0	5.947849297275562e+17
19504.0	5.948091366637567e+17
19505.0	5.948378298275156e+17
19506.0	5.948531653214208e+17
19507.0	5.948567785745065e+17
19508.0	5.94855009067554e+17
19509.0	5.948349997208915e+17
19510.0	5.947591740446036e+17
19511.0	5.920758902205083e+17
19512.0	5.943625666002943e+17
19513.0	5.943188581078354e+17
19514.0	5.943877419313832e+17
19515.0	5.947212866868566e+17
19516.0	5.947505032298495e+17
19517.0	5.947256533767508e+17
19518.0	5.946895959938388e+17
19519.0	5.946483653563731e+17
19520.0	5.945955401247401e+17
19521.0	5.945653402970794e+17
19522.0	5.945257389370025e+17
19523.0	5.944809846647466e+17
19524.0	5.94424719614498e+17
19525.0	5.943811603693567e+17
19526.0	5.943263935244969e+17
19527.0	5.942685452642986e+17
19528.0	5.942075806362281e+17
19529.0	5.941521959004841e+17
19530.0	5.940977831946921e+17
19531.0	5.940337726630569e+17
19532.0	5.939682512732159e+17
19533.0	5.939012560049492e+17
19534.0	5.938322759920297e+17
19535.0	5.937606925746175e+17
19536.0	5.936865514007209e+17
19537.0	5.936147183523156e+17
19538.0	5.935177403815251e+17
19539.0	5.934487697358847e+17
19540.0	5.933937189366441e+17
19541.0	5.933164503498751e+17
19542.0	5.932395417042944e+17
19543.0	5.931470239563775e+17
19544.0	5.930758213118634e+17
19545.0	5.929607310781097e+17
19546.0	5.928701125110442e+17
19547.0	5.928296858517503e+17
19548.0	5.92749824975394e+17
19549.0	5.926582622005929e+17
19550.0	5.925846069368147e+17
19551.0	5.925021028799827e+17
19552.0	5.924155297191252e+17
19553.0	5.92327055839505e+17
19554.0	5.922391267300692e+17
19555.0	5.921499238105087e+17
19556.0	5.920633137397759e+17
19557.0	5.919749711418708e+17
19558.0	5.918856844061353e+17
19559.0	5.91795840876544e+17
19560.0	5.916979869952682e+17
19561.0	5.916119444837716e+17
19562.0	5.915178070354602e+17
19563.0	5.914309885777236e+17
19564.0	5.913386911006719e+17
19565.0	5.912459256091988e+17
19566.0	5.911511184004436e+17
19567.0	5.91058959475234e+17
19568.0	5.909635490556586e+17
19569.0	5.908723520241663e+17
19570.0	5.907790851036499e+17
19571.0	5.906841587067562e+17
19572.0	5.90586065330722e+17
19573.0	5.904909637517312e+17
19574.0	5.90389223498274e+17
19575.0	5.903017493310121e+17
19576.0	5.902038525280255e+17
19577.0	5.901101707908438e+17
19578.0	5.900179841832276e+17
19579.0	5.899200782226771e+17
19580.0	5.898229580649812e+17
19581.0	5.897269681324032e+17
19582.0	5.896298432211625e+17
19583.0	5.895318126897834e+17
19584.0	5.894327245646506e+17
19585.0	5.893252484606634e+17
19586.0	5.892237530147497e+17
19587.0	5.891321121559892e+17
19588.0	5.890150395543551e+17
19589.0	5.889334552384854e+17
19590.0	5.888321014901418e+17
19591.0	5.887401117351936e+17
19592.0	5.886416790399657e+17
19593.0	5.885390329566548e+17
19594.0	5.884212083163135e+17
19595.0	5.883404824346623e+17
19596.0	5.882300015312895e+17
19597.0	5.881425788141568e+17
19598.0	5.880175355669161e+17
19599.0	5.879416511004672e+17
19600.0	5.878426128176468e+17
19601.0	5.877369729100457e+17
19602.0	5.876314395377663e+17
19603.0	5.875151320470868e+17
19604.0	5.874288025752916e+17
19605.0	5.873189307547648e+17
19606.0	5.872377832057513e+17
19607.0	5.871381606563837e+17
19608.0	5.870358780794195e+17
19609.0	5.869325909666474e+17
19610.0	5.868276554924031e+17
19611.0	5.867228192134484e+17
19612.0	5.866311480158889e+17
19613.0	5.865284258059604e+17
19614.0	5.864238324471124e+17
19615.0	5.863243322316115e+17
19616.0	5.862113363536554e+17
19617.0	5.861098281151145e+17
19618.0	5.859804000725674e+17
19619.0	5.858660795635028e+17
19620.0	5.857773699639977e+17
19621.0	5.856968661008383e+17
19622.0	5.856111357154644e+17
19623.0	5.855081288521043e+17
19624.0	5.854024778995028e+17
19625.0	5.85301399577122e+17
19626.0	5.851951059173376e+17
19627.0	5.850831367350954e+17
19628.0	5.849595605155839e+17
19629.0	5.847851464654848e+17
19630.0	5.845155099705343e+17
19631.0	5.84179748315682e+17
19632.0	5.844706853737812e+17
19633.0	5.844418027672916e+17
19634.0	5.843651000620372e+17
19635.0	5.842663915214163e+17
19636.0	5.841575306679636e+17
19637.0	5.840289959422634e+17
19638.0	5.839690255739561e+17
19639.0	5.838673105562282e+17
19640.0	5.83750000906513e+17
19641.0	5.836067101300052e+17
19642.0	5.835580600483839e+17
19643.0	5.83455975023138e+17
19644.0	5.833485164653225e+17
19645.0	5.832402435833856e+17
19646.0	5.831337914488147e+17
19647.0	5.830490931418452e+17
19648.0	5.829476339766612e+17
19649.0	5.828447419673258e+17
19650.0	5.827419124531199e+17
19651.0	5.826384084948307e+17
19652.0	5.825352893639337e+17
19653.0	5.824323327623167e+17
19654.0	5.823291402310995e+17
19655.0	5.822259305032361e+17
19656.0	5.821233817976831e+17
19657.0	5.8202058143389e+17
19658.0	5.819174732081833e+17
19659.0	5.81814291861777e+17
19660.0	5.817111788825258e+17
19661.0	5.816079077780137e+17
19662.0	5.815042489100969e+17
19663.0	5.813987797805737e+17
19664.0	5.812960244356436e+17
19665.0	5.811948207035732e+17
