# Flux units: erg / (cm m2 s)
# Wavelength units: Angstrom
wave	flux
19000.0	7.261559087344297e+17
19001.0	7.260177310242131e+17
19002.0	7.258922977067008e+17
19003.0	7.257603099503274e+17
19004.0	7.256404848366931e+17
19005.0	7.255092377944063e+17
19006.0	7.253767525935785e+17
19007.0	7.252416105807871e+17
19008.0	7.25109626459477e+17
19009.0	7.249696668691113e+17
19010.0	7.248300853253462e+17
19011.0	7.247047350550527e+17
19012.0	7.245499747445417e+17
19013.0	7.244483160003926e+17
19014.0	7.243135876857855e+17
19015.0	7.241830884879017e+17
19016.0	7.24054273303074e+17
19017.0	7.23922938180403e+17
19018.0	7.237895344269994e+17
19019.0	7.236574489433427e+17
19020.0	7.235240217018368e+17
19021.0	7.233926404418216e+17
19022.0	7.232599290281981e+17
19023.0	7.231239413039104e+17
19024.0	7.229918177918975e+17
19025.0	7.228539079578964e+17
19026.0	7.227146825105407e+17
19027.0	7.225672819452586e+17
19028.0	7.224555136701782e+17
19029.0	7.223254611656701e+17
19030.0	7.221937238092458e+17
19031.0	7.22058764947729e+17
19032.0	7.21921400513058e+17
19033.0	7.217724266643455e+17
19034.0	7.216130432521556e+17
19035.0	7.212631532939945e+17
19036.0	7.194183597031423e+17
19037.0	7.210512967619926e+17
19038.0	7.210858093128361e+17
19039.0	7.209822789304319e+17
19040.0	7.208588278409897e+17
19041.0	7.207296183915859e+17
19042.0	7.205807955378173e+17
19043.0	7.204677443649535e+17
19044.0	7.203344390378836e+17
19045.0	7.201999467227817e+17
19046.0	7.20066662507042e+17
19047.0	7.199309468532735e+17
19048.0	7.197894153775785e+17
19049.0	7.196265870437033e+17
19050.0	7.194921577829714e+17
19051.0	7.191312482697215e+17
19052.0	7.191030418549416e+17
19053.0	7.191082977372842e+17
19054.0	7.1899642096954e+17
19055.0	7.188498013836628e+17
19056.0	7.187361775484927e+17
19057.0	7.1860710567226e+17
19058.0	7.184607524246867e+17
19059.0	7.183378254834344e+17
19060.0	7.182095612903423e+17
19061.0	7.180772041555968e+17
19062.0	7.179441054679037e+17
19063.0	7.178107198898175e+17
19064.0	7.176734090024276e+17
19065.0	7.175346885492736e+17
19066.0	7.174033618152105e+17
19067.0	7.172793927292246e+17
19068.0	7.171464469938175e+17
19069.0	7.170133955619497e+17
19070.0	7.16879187341039e+17
19071.0	7.167454530764799e+17
19072.0	7.166090877250217e+17
19073.0	7.164809788609876e+17
19074.0	7.163479377750697e+17
19075.0	7.162147071066111e+17
19076.0	7.16080974799394e+17
19077.0	7.159472691959123e+17
19078.0	7.1581357323933e+17
19079.0	7.156816064544765e+17
19080.0	7.15547356430336e+17
19081.0	7.154117386436607e+17
19082.0	7.152797810862761e+17
19083.0	7.151394403734867e+17
19084.0	7.149963901403136e+17
19085.0	7.148758381537962e+17
19086.0	7.147019024640681e+17
19087.0	7.145797018364585e+17
19088.0	7.144502411482451e+17
19089.0	7.14318253531682e+17
19090.0	7.1420204824221e+17
19091.0	7.140725999970986e+17
19092.0	7.13928566898688e+17
19093.0	7.13813240455714e+17
19094.0	7.136825006445908e+17
19095.0	7.135506420727805e+17
19096.0	7.134178787895977e+17
19097.0	7.13285439726114e+17
19098.0	7.131470945233578e+17
19099.0	7.130130644205568e+17
19100.0	7.128812479315968e+17
19101.0	7.127504998716756e+17
19102.0	7.126161702955689e+17
19103.0	7.124862300585983e+17
19104.0	7.123521561952255e+17
19105.0	7.122042033799168e+17
19106.0	7.120784320015017e+17
19107.0	7.119383021223935e+17
19108.0	7.11787903328802e+17
19109.0	7.116061399493289e+17
19110.0	7.115082587351721e+17
19111.0	7.114013899664041e+17
19112.0	7.112781720802644e+17
19113.0	7.111532356479658e+17
19114.0	7.110179766140927e+17
19115.0	7.108823219175423e+17
19116.0	7.107538008932351e+17
19117.0	7.106197924610045e+17
19118.0	7.104724938173097e+17
19119.0	7.101536175215955e+17
19120.0	7.10199833998131e+17
19121.0	7.100748522673492e+17
19122.0	7.099574283927551e+17
19123.0	7.098266238495402e+17
19124.0	7.096742709297151e+17
19125.0	7.095585196037459e+17
19126.0	7.094170471279272e+17
19127.0	7.092325665385129e+17
19128.0	7.091333750237866e+17
19129.0	7.090221559229097e+17
19130.0	7.088958679460522e+17
19131.0	7.087641838572884e+17
19132.0	7.086316437110781e+17
19133.0	7.084942524328617e+17
19134.0	7.08357644231202e+17
19135.0	7.082326433464319e+17
19136.0	7.080993141118292e+17
19137.0	7.079623294014803e+17
19138.0	7.078325567968595e+17
19139.0	7.077012535508991e+17
19140.0	7.075686524474708e+17
19141.0	7.074357199940265e+17
19142.0	7.073000771813375e+17
19143.0	7.071678277003945e+17
19144.0	7.070336131880276e+17
19145.0	7.069031281109674e+17
19146.0	7.067309343156906e+17
19147.0	7.066340698008233e+17
19148.0	7.064971614268072e+17
19149.0	7.06362707419682e+17
19150.0	7.062346136551424e+17
19151.0	7.061011866932564e+17
19152.0	7.059637494175059e+17
19153.0	7.058223304889684e+17
19154.0	7.0569360897693e+17
19155.0	7.055599736979455e+17
19156.0	7.054228944759466e+17
19157.0	7.052743771073193e+17
19158.0	7.051210280402943e+17
19159.0	7.050076699841876e+17
19160.0	7.048740783259645e+17
19161.0	7.047179861841236e+17
19162.0	7.045023852571305e+17
19163.0	7.044265557360639e+17
19164.0	7.043412336661844e+17
19165.0	7.042109297830569e+17
19166.0	7.040861634996905e+17
19167.0	7.039524658653866e+17
19168.0	7.038270180076202e+17
19169.0	7.036986090411348e+17
19170.0	7.035671905217193e+17
19171.0	7.034330985529343e+17
19172.0	7.03300143100723e+17
19173.0	7.031699292553215e+17
19174.0	7.030367124979711e+17
19175.0	7.029051873034239e+17
19176.0	7.027718889668607e+17
19177.0	7.026277447892991e+17
19178.0	7.025005409861632e+17
19179.0	7.023658901962751e+17
19180.0	7.022356541210623e+17
19181.0	7.021002270354089e+17
19182.0	7.019693643311785e+17
19183.0	7.01838715326737e+17
19184.0	7.017050135680339e+17
19185.0	7.015709333433001e+17
19186.0	7.014365490315264e+17
19187.0	7.012959275100842e+17
19188.0	7.011656452276223e+17
19189.0	7.0102923884189e+17
19190.0	7.008911952794964e+17
19191.0	7.00751293780241e+17
19192.0	7.006137142476797e+17
19193.0	7.004685416267775e+17
19194.0	7.003174040764415e+17
19195.0	7.00160538784563e+17
19196.0	6.999787561112916e+17
19197.0	6.997502533653844e+17
19198.0	6.993922135250259e+17
19199.0	6.986408960983039e+17
19200.0	6.985774759848618e+17
19201.0	6.990175118120276e+17
19202.0	6.990933969775274e+17
19203.0	6.990434427469823e+17
19204.0	6.989599154197844e+17
19205.0	6.988526400132436e+17
19206.0	6.987350189364564e+17
19207.0	6.986029075879252e+17
19208.0	6.984772841985364e+17
19209.0	6.983547838180009e+17
19210.0	6.982248693759999e+17
19211.0	6.980934601539583e+17
19212.0	6.979595103021738e+17
19213.0	6.978154945402195e+17
19214.0	6.976812409509204e+17
19215.0	6.975572348851539e+17
19216.0	6.974275925136723e+17
19217.0	6.972915699766612e+17
19218.0	6.971380660000083e+17
19219.0	6.970135840904531e+17
19220.0	6.968927201875284e+17
19221.0	6.967549389089449e+17
19222.0	6.966264681463807e+17
19223.0	6.964946626325161e+17
19224.0	6.963586409343658e+17
19225.0	6.962249141496489e+17
19226.0	6.960925862352212e+17
19227.0	6.959586038775807e+17
19228.0	6.958224566299305e+17
19229.0	6.956879490056191e+17
19230.0	6.955527157667155e+17
19231.0	6.954172864441e+17
19232.0	6.952831552585727e+17
19233.0	6.951443192523433e+17
19234.0	6.950134404699476e+17
19235.0	6.948768729530367e+17
19236.0	6.947436773070164e+17
19237.0	6.946077249546922e+17
19238.0	6.944672312197119e+17
19239.0	6.943375859122175e+17
19240.0	6.942025337274367e+17
19241.0	6.940657777464659e+17
19242.0	6.939305755454121e+17
19243.0	6.937849758744573e+17
19244.0	6.936603236062548e+17
19245.0	6.935239444834985e+17
19246.0	6.933868076597247e+17
19247.0	6.932505511504554e+17
19248.0	6.931138097796436e+17
19249.0	6.929763652337663e+17
19250.0	6.928384206569471e+17
19251.0	6.926974358388735e+17
19252.0	6.925486269661183e+17
19253.0	6.924310041417044e+17
19254.0	6.922955413345619e+17
19255.0	6.92145433485858e+17
19256.0	6.920199836707498e+17
19257.0	6.918843131756543e+17
19258.0	6.917464884860243e+17
19259.0	6.915998354855252e+17
19260.0	6.914275052355583e+17
19261.0	6.913296060557993e+17
19262.0	6.911908823870121e+17
19263.0	6.910458139945641e+17
19264.0	6.908925740493481e+17
19265.0	6.907649570373631e+17
19266.0	6.906284715890004e+17
19267.0	6.904992806644393e+17
19268.0	6.90361030812194e+17
19269.0	6.902218942141779e+17
19270.0	6.900799738565971e+17
19271.0	6.899320792722089e+17
19272.0	6.898012248866815e+17
19273.0	6.896470109541716e+17
19274.0	6.89496857527364e+17
19275.0	6.893852550671017e+17
19276.0	6.892446022281898e+17
19277.0	6.891045424638633e+17
19278.0	6.889632802624851e+17
19279.0	6.888193148321791e+17
19280.0	6.886783217653076e+17
19281.0	6.885369790332927e+17
19282.0	6.883942855256746e+17
19283.0	6.882477625485994e+17
19284.0	6.880978947538943e+17
19285.0	6.879555980973396e+17
19286.0	6.877930698659155e+17
19287.0	6.876000871426729e+17
19288.0	6.866717405872123e+17
19289.0	6.861113420065444e+17
19290.0	6.871550517051391e+17
19291.0	6.870611321509204e+17
19292.0	6.869498283950079e+17
19293.0	6.868116134952959e+17
19294.0	6.866691959029759e+17
19295.0	6.865265739781459e+17
19296.0	6.86375764562193e+17
19297.0	6.862334741970943e+17
19298.0	6.860893845454847e+17
19299.0	6.859375515795455e+17
19300.0	6.857978151960575e+17
19301.0	6.856505560487252e+17
19302.0	6.855017143904938e+17
19303.0	6.85344789889024e+17
19304.0	6.851922429127337e+17
19305.0	6.850400864960511e+17
19306.0	6.848865327469908e+17
19307.0	6.847318860322131e+17
19308.0	6.84574341542707e+17
19309.0	6.843972155255465e+17
19310.0	6.842324856340479e+17
19311.0	6.841058457550847e+17
19312.0	6.839612985049087e+17
19313.0	6.837769669530966e+17
19314.0	6.814569046824279e+17
19315.0	6.814537159628136e+17
19316.0	6.833089528113834e+17
19317.0	6.831909779450537e+17
19318.0	6.830430863665833e+17
19319.0	6.828936600922794e+17
19320.0	6.827368603713536e+17
19321.0	6.825766959797588e+17
19322.0	6.824197665849343e+17
19323.0	6.822594386154836e+17
19324.0	6.821015318080168e+17
19325.0	6.819382973257044e+17
19326.0	6.817867484539562e+17
19327.0	6.816306575704063e+17
19328.0	6.814608934655316e+17
19329.0	6.813012940466857e+17
19330.0	6.811380554399743e+17
19331.0	6.809717935090346e+17
19332.0	6.808029798334461e+17
19333.0	6.806342422844755e+17
19334.0	6.804692194907475e+17
19335.0	6.802798500205908e+17
19336.0	6.801311487317332e+17
19337.0	6.799623355454803e+17
19338.0	6.797778081196713e+17
19339.0	6.796162946301951e+17
19340.0	6.794380560738985e+17
19341.0	6.792539241709565e+17
19342.0	6.790726171317587e+17
19343.0	6.789091421760169e+17
19344.0	6.78717442420463e+17
19345.0	6.784770891579391e+17
19346.0	6.783148840277332e+17
19347.0	6.781712798668116e+17
19348.0	6.780049744549203e+17
19349.0	6.778184991943338e+17
19350.0	6.776179214254079e+17
19351.0	6.774328527246676e+17
19352.0	6.772302042278569e+17
19353.0	6.770548679901183e+17
19354.0	6.76863041217058e+17
19355.0	6.766633214629206e+17
19356.0	6.7647416317597e+17
19357.0	6.76277384258082e+17
19358.0	6.760776562551466e+17
19359.0	6.758744829810004e+17
19360.0	6.756652669730813e+17
19361.0	6.754673059605161e+17
19362.0	6.752593067900927e+17
19363.0	6.750425329259859e+17
19364.0	6.748158321229823e+17
19365.0	6.745987921302868e+17
19366.0	6.74378816753937e+17
19367.0	6.741506065607338e+17
19368.0	6.739251246923775e+17
19369.0	6.736935589860692e+17
19370.0	6.73462353011234e+17
19371.0	6.732275829265748e+17
19372.0	6.729924324185428e+17
19373.0	6.727472569647104e+17
19374.0	6.725010047631359e+17
19375.0	6.722332609478655e+17
19376.0	6.719728310900054e+17
19377.0	6.717139165642751e+17
19378.0	6.714522734340778e+17
19379.0	6.711859969960617e+17
19380.0	6.709149071747753e+17
19381.0	6.706390689819305e+17
19382.0	6.703544786747392e+17
19383.0	6.700717474228906e+17
19384.0	6.697868045145427e+17
19385.0	6.694852479680511e+17
19386.0	6.691751901265919e+17
19387.0	6.688518994657277e+17
19388.0	6.685394588401663e+17
19389.0	6.682046896275455e+17
19390.0	6.677884215230463e+17
19391.0	6.659922872412832e+17
19392.0	6.668580730961919e+17
19393.0	6.668400842855764e+17
19394.0	6.665199548716371e+17
19395.0	6.661619305502036e+17
19396.0	6.657950776382804e+17
19397.0	6.654167488309929e+17
19398.0	6.650161709886122e+17
19399.0	6.645800449518249e+17
19400.0	6.641670595892563e+17
19401.0	6.63747127480593e+17
19402.0	6.633118270226431e+17
19403.0	6.628577852260351e+17
19404.0	6.623927128293375e+17
19405.0	6.619124736196605e+17
19406.0	6.614176923385856e+17
19407.0	6.609016281803433e+17
19408.0	6.603488777033044e+17
19409.0	6.59826317337122e+17
19410.0	6.592827020541951e+17
19411.0	6.587190705040042e+17
19412.0	6.58143356911616e+17
19413.0	6.575073938199891e+17
19414.0	6.568611142085289e+17
19415.0	6.561926419753642e+17
19416.0	6.554858663794004e+17
19417.0	6.547720835694591e+17
19418.0	6.540355591034196e+17
19419.0	6.532622779940863e+17
19420.0	6.524496677350057e+17
19421.0	6.515874410266624e+17
19422.0	6.506863004046676e+17
19423.0	6.497421037841066e+17
19424.0	6.487594922322602e+17
19425.0	6.477467231453184e+17
19426.0	6.46693374796322e+17
19427.0	6.455670784830121e+17
19428.0	6.443510853708457e+17
19429.0	6.430656545073833e+17
19430.0	6.416204633735168e+17
19431.0	6.400985022158166e+17
19432.0	6.387821982689961e+17
19433.0	6.372012667349674e+17
19434.0	6.354945239067306e+17
19435.0	6.336005490256553e+17
19436.0	6.315782363414527e+17
19437.0	6.294048093853012e+17
19438.0	6.24905693080235e+17
19439.0	6.241865137389565e+17
19440.0	6.220292721126057e+17
19441.0	6.191205705930067e+17
19442.0	6.158150199672832e+17
19443.0	6.12121429741841e+17
19444.0	6.079380368741714e+17
19445.0	6.031394209092951e+17
19446.0	5.975440750193321e+17
19447.0	5.908715353931771e+17
19448.0	5.826933382184963e+17
19449.0	5.7218179317541536e+17
19450.0	5.570756756198731e+17
19451.0	5.470514450180779e+17
19452.0	5.655030659721899e+17
19453.0	5.77545196710571e+17
19454.0	5.864946945840466e+17
19455.0	5.936040042823679e+17
19456.0	5.994469344848556e+17
19457.0	6.043207819329533e+17
19458.0	6.040710512552672e+17
19459.0	6.11791764647664e+17
19460.0	6.155602468274173e+17
19461.0	6.18494561423633e+17
19462.0	6.210990896403798e+17
19463.0	6.234823791564116e+17
19464.0	6.256203842366121e+17
19465.0	6.275897346752512e+17
19466.0	6.294005750256979e+17
19467.0	6.31038278771234e+17
19468.0	6.32554874085922e+17
19469.0	6.339510345050793e+17
19470.0	6.352802146156543e+17
19471.0	6.364988538443091e+17
19472.0	6.376297357202771e+17
19473.0	6.386839776657407e+17
19474.0	6.396651172965034e+17
19475.0	6.405756450504701e+17
19476.0	6.414318012727295e+17
19477.0	6.422239614337023e+17
19478.0	6.429717896888319e+17
19479.0	6.436923052654591e+17
19480.0	6.443689486319615e+17
19481.0	6.450047082998441e+17
19482.0	6.455985923162111e+17
19483.0	6.461450809070932e+17
19484.0	6.466581586509823e+17
19485.0	6.47141778399778e+17
19486.0	6.475924883810985e+17
19487.0	6.480318425639593e+17
19488.0	6.484357727737172e+17
19489.0	6.488145744887808e+17
19490.0	6.491442977439743e+17
19491.0	6.495016218962602e+17
19492.0	6.498158990677331e+17
19493.0	6.501097628412585e+17
19494.0	6.503966863698602e+17
19495.0	6.506599418604202e+17
19496.0	6.508821242795347e+17
19497.0	6.510635347782313e+17
19498.0	6.505393626808316e+17
19499.0	6.491513595538089e+17
19500.0	6.51617906004241e+17
19501.0	6.519319262046889e+17
19502.0	6.521452332668244e+17
19503.0	6.523262190223359e+17
19504.0	6.524929244310186e+17
19505.0	6.526337839093075e+17
19506.0	6.527625703631529e+17
19507.0	6.528787340591103e+17
19508.0	6.529797331091455e+17
19509.0	6.530553170537129e+17
19510.0	6.530198748353875e+17
19511.0	6.495059191005167e+17
19512.0	6.525056468735316e+17
19513.0	6.525473650289317e+17
19514.0	6.52760949684087e+17
19515.0	6.53455239815714e+17
19516.0	6.535938360475645e+17
19517.0	6.536640477877588e+17
19518.0	6.537180289695743e+17
19519.0	6.537568917826217e+17
19520.0	6.537864832963923e+17
19521.0	6.538263802150911e+17
19522.0	6.538483024439977e+17
19523.0	6.538696573233833e+17
19524.0	6.538816744237737e+17
19525.0	6.538998393252521e+17
19526.0	6.539080620485289e+17
19527.0	6.539229559521279e+17
19528.0	6.53932785233647e+17
19529.0	6.539301167475369e+17
19530.0	6.539240194179071e+17
19531.0	6.539119426884948e+17
19532.0	6.538962524263763e+17
19533.0	6.538776230756351e+17
19534.0	6.538557712411305e+17
19535.0	6.538302654687914e+17
19536.0	6.538055318678185e+17
19537.0	6.537775705402025e+17
19538.0	6.537271321471657e+17
19539.0	6.537054581511507e+17
19540.0	6.536854201434111e+17
19541.0	6.536460821157203e+17
19542.0	6.536039074103295e+17
19543.0	6.535485527337642e+17
19544.0	6.535051832808788e+17
19545.0	6.534314663608319e+17
19546.0	6.533731641371305e+17
19547.0	6.533494292698452e+17
19548.0	6.532974295471444e+17
19549.0	6.532351680402772e+17
19550.0	6.531841582432256e+17
19551.0	6.531252516902228e+17
19552.0	6.530645887724201e+17
19553.0	6.530111333466111e+17
19554.0	6.529485970429267e+17
19555.0	6.528829391284906e+17
19556.0	6.528183006396415e+17
19557.0	6.527516218316116e+17
19558.0	6.526830123854505e+17
19559.0	6.526132826406911e+17
19560.0	6.52537047949858e+17
19561.0	6.524680505305769e+17
19562.0	6.523932306483882e+17
19563.0	6.523220798035284e+17
19564.0	6.522465358446591e+17
19565.0	6.521696609632256e+17
19566.0	6.520900030911828e+17
19567.0	6.520116402105002e+17
19568.0	6.519295070699519e+17
19569.0	6.518488504642218e+17
19570.0	6.517677777835347e+17
19571.0	6.516875612301993e+17
19572.0	6.516048724142761e+17
19573.0	6.515204343638697e+17
19574.0	6.514388506771455e+17
19575.0	6.513605631541247e+17
19576.0	6.512727151345663e+17
19577.0	6.511826168709119e+17
19578.0	6.510957679345663e+17
19579.0	6.510053831999487e+17
19580.0	6.509149045828265e+17
19581.0	6.50824911036962e+17
19582.0	6.507334360629247e+17
19583.0	6.506408645580116e+17
19584.0	6.505462853795839e+17
19585.0	6.504460149500585e+17
19586.0	6.503614434508799e+17
19587.0	6.50273471210018e+17
19588.0	6.501671753132714e+17
19589.0	6.500842604243625e+17
19590.0	6.499870858805247e+17
19591.0	6.498966413071699e+17
19592.0	6.498009553917267e+17
19593.0	6.497015710788266e+17
19594.0	6.495896904663039e+17
19595.0	6.495070011610452e+17
19596.0	6.493720501288959e+17
19597.0	6.493098616728233e+17
19598.0	6.491951315899732e+17
19599.0	6.491114057323859e+17
19600.0	6.490233238803796e+17
19601.0	6.489218142437373e+17
19602.0	6.48816272412945e+17
19603.0	6.486983550784852e+17
19604.0	6.486100085658964e+17
19605.0	6.485049750847487e+17
19606.0	6.484197496236713e+17
19607.0	6.483337343751507e+17
19608.0	6.482356843402579e+17
19609.0	6.481316985263444e+17
19610.0	6.480269412401151e+17
19611.0	6.479219130018474e+17
19612.0	6.478242304578899e+17
19613.0	6.477192470986751e+17
19614.0	6.476123585467731e+17
19615.0	6.475066089581226e+17
19616.0	6.473861309311657e+17
19617.0	6.472947821357738e+17
19618.0	6.471708452760233e+17
19619.0	6.470559667847165e+17
19620.0	6.469600009693865e+17
19621.0	6.468696374859091e+17
19622.0	6.467735788366506e+17
19623.0	6.4666527610525e+17
19624.0	6.465539455057919e+17
19625.0	6.464443916135082e+17
19626.0	6.463277712976554e+17
19627.0	6.46198772961553e+17
19628.0	6.460453870545578e+17
19629.0	6.458337213633875e+17
19630.0	6.453481894313981e+17
19631.0	6.448158970216447e+17
19632.0	6.45441215598865e+17
19633.0	6.454959259604307e+17
19634.0	6.454423026925567e+17
19635.0	6.453508824541865e+17
19636.0	6.452468281333076e+17
19637.0	6.451198987075583e+17
19638.0	6.450471036955305e+17
19639.0	6.449404264666451e+17
19640.0	6.448222848767316e+17
19641.0	6.446947739107328e+17
19642.0	6.446199287229098e+17
19643.0	6.445108271164074e+17
19644.0	6.443986771596628e+17
19645.0	6.442858837966845e+17
19646.0	6.441749493492393e+17
19647.0	6.440760441656659e+17
19648.0	6.439667041828863e+17
19649.0	6.438567959418198e+17
19650.0	6.4374680584192e+17
19651.0	6.436361721260714e+17
19652.0	6.4352614889117e+17
19653.0	6.434148117905408e+17
19654.0	6.433047600343721e+17
19655.0	6.431940998944084e+17
19656.0	6.43083857437218e+17
19657.0	6.429732785968468e+17
19658.0	6.428623935023788e+17
19659.0	6.427513606285993e+17
19660.0	6.426402671471274e+17
19661.0	6.42528928928017e+17
19662.0	6.424170418842282e+17
19663.0	6.423032149748393e+17
19664.0	6.421908258029565e+17
19665.0	6.420828525341353e+17
