# Flux units: erg / (cm m2 s)
# Wavelength units: Angstrom
wave	flux
19000.0	8.085710849092264e+17
19001.0	8.084104426465961e+17
19002.0	8.082667127963647e+17
19003.0	8.081141283509586e+17
19004.0	8.079613242638335e+17
19005.0	8.078091486232573e+17
19006.0	8.076568974852093e+17
19007.0	8.074793436490412e+17
19008.0	8.073457884812628e+17
19009.0	8.071973007523837e+17
19010.0	8.070078006995624e+17
19011.0	8.068926755831807e+17
19012.0	8.067141124576594e+17
19013.0	8.065890557886463e+17
19014.0	8.064310446129148e+17
19015.0	8.062810764345343e+17
19016.0	8.061280483715752e+17
19017.0	8.059552612220925e+17
19018.0	8.058242078168404e+17
19019.0	8.056731081550505e+17
19020.0	8.055148777570301e+17
19021.0	8.053652867863891e+17
19022.0	8.052160147226621e+17
19023.0	8.050597100694186e+17
19024.0	8.049094921901399e+17
19025.0	8.047559320098131e+17
19026.0	8.046015463904596e+17
19027.0	8.044356444706131e+17
19028.0	8.043004819057322e+17
19029.0	8.041461406061906e+17
19030.0	8.039957989949437e+17
19031.0	8.038436632002557e+17
19032.0	8.036909912337064e+17
19033.0	8.035306780841298e+17
19034.0	8.033836944326653e+17
19035.0	8.032293385928703e+17
19036.0	8.016252589047795e+17
19037.0	8.029263184439976e+17
19038.0	8.027726401241085e+17
19039.0	8.026218080589138e+17
19040.0	8.02469609209856e+17
19041.0	8.023161615766867e+17
19042.0	8.021563163716266e+17
19043.0	8.020116883810986e+17
19044.0	8.018577693081599e+17
19045.0	8.017053476017491e+17
19046.0	8.015483280992938e+17
19047.0	8.014006135204522e+17
19048.0	8.012304287967913e+17
19049.0	8.010893712774486e+17
19050.0	8.009387013920083e+17
19051.0	8.005812246369615e+17
19052.0	8.00622071845137e+17
19053.0	8.004785887597908e+17
19054.0	8.003324339027967e+17
19055.0	8.001579732260182e+17
19056.0	8.000245981336918e+17
19057.0	7.998732957472083e+17
19058.0	7.997142790569981e+17
19059.0	7.995689040609279e+17
19060.0	7.994145524154365e+17
19061.0	7.992640883305128e+17
19062.0	7.991111763099647e+17
19063.0	7.989588166792532e+17
19064.0	7.987951114562217e+17
19065.0	7.986376034571602e+17
19066.0	7.984953732104191e+17
19067.0	7.983473854425769e+17
19068.0	7.98196061245713e+17
19069.0	7.980436414966442e+17
19070.0	7.978883081043967e+17
19071.0	7.977371502815913e+17
19072.0	7.975859450631508e+17
19073.0	7.974331546774185e+17
19074.0	7.972811345057108e+17
19075.0	7.971286546382847e+17
19076.0	7.969742375616511e+17
19077.0	7.968230633810602e+17
19078.0	7.966641372878166e+17
19079.0	7.965185947992063e+17
19080.0	7.963651087182505e+17
19081.0	7.962096362149203e+17
19082.0	7.960555288177322e+17
19083.0	7.958981831382355e+17
19084.0	7.957343190908927e+17
19085.0	7.956031139916457e+17
19086.0	7.954153646413139e+17
19087.0	7.952579610804221e+17
19088.0	7.95138596081937e+17
19089.0	7.949560468297042e+17
19090.0	7.948389283004415e+17
19091.0	7.946875786581331e+17
19092.0	7.945232008085505e+17
19093.0	7.943855742298794e+17
19094.0	7.94230978336085e+17
19095.0	7.940779105670483e+17
19096.0	7.939249820489044e+17
19097.0	7.937758718853117e+17
19098.0	7.936239546138621e+17
19099.0	7.934712194531327e+17
19100.0	7.93317427187985e+17
19101.0	7.931671100435114e+17
19102.0	7.930088811834025e+17
19103.0	7.928634575334058e+17
19104.0	7.927116611977215e+17
19105.0	7.925594018108756e+17
19106.0	7.923993502460588e+17
19107.0	7.922533770024276e+17
19108.0	7.921027350790143e+17
19109.0	7.917814771176787e+17
19110.0	7.917965520054953e+17
19111.0	7.916462350008319e+17
19112.0	7.914948592140288e+17
19113.0	7.913428790280191e+17
19114.0	7.911907868540925e+17
19115.0	7.910326251028479e+17
19116.0	7.908846985718442e+17
19117.0	7.907329006982484e+17
19118.0	7.905682899249834e+17
19119.0	7.902683815302483e+17
19120.0	7.902666059415551e+17
19121.0	7.901198636023805e+17
19122.0	7.899749536148136e+17
19123.0	7.898209868666195e+17
19124.0	7.896626716038483e+17
19125.0	7.895167215686994e+17
19126.0	7.893624009610579e+17
19127.0	7.890793708650492e+17
19128.0	7.88913000301636e+17
19129.0	7.889032320472403e+17
19130.0	7.887538881211049e+17
19131.0	7.885983215255552e+17
19132.0	7.884510974006611e+17
19133.0	7.882286189335892e+17
19134.0	7.880740904282796e+17
19135.0	7.879951944515583e+17
19136.0	7.878442901045247e+17
19137.0	7.87678612300322e+17
19138.0	7.875196483185324e+17
19139.0	7.873881519947777e+17
19140.0	7.872372701571752e+17
19141.0	7.870856790627668e+17
19142.0	7.869312428321449e+17
19143.0	7.867771713661609e+17
19144.0	7.866267279731369e+17
19145.0	7.864780847753896e+17
19146.0	7.862728397247828e+17
19147.0	7.861682122522624e+17
19148.0	7.860227028986536e+17
19149.0	7.858707766793555e+17
19150.0	7.857184146718717e+17
19151.0	7.8556818337082e+17
19152.0	7.854131946105514e+17
19153.0	7.852635842063017e+17
19154.0	7.851031887085564e+17
19155.0	7.849616031263402e+17
19156.0	7.84809951633954e+17
19157.0	7.846549960086867e+17
19158.0	7.843904991439528e+17
19159.0	7.843524774985727e+17
19160.0	7.841980149836457e+17
19161.0	7.840355688906752e+17
19162.0	7.836392052053335e+17
19163.0	7.837457564652884e+17
19164.0	7.835973589139455e+17
19165.0	7.834417110887081e+17
19166.0	7.832820361723903e+17
19167.0	7.831180520281428e+17
19168.0	7.829762171644585e+17
19169.0	7.82828870565888e+17
19170.0	7.826877435609088e+17
19171.0	7.825245738106879e+17
19172.0	7.823835343268522e+17
19173.0	7.82232865420083e+17
19174.0	7.820773910992212e+17
19175.0	7.819303227228156e+17
19176.0	7.81778075918882e+17
19177.0	7.816143392385705e+17
19178.0	7.81471100261717e+17
19179.0	7.813057342341119e+17
19180.0	7.811349839784617e+17
19181.0	7.810110228616531e+17
19182.0	7.808575525792425e+17
19183.0	7.807131851948028e+17
19184.0	7.805496543150075e+17
19185.0	7.804123596455935e+17
19186.0	7.802623486853117e+17
19187.0	7.801028890765994e+17
19188.0	7.79957231104819e+17
19189.0	7.798007002387795e+17
19190.0	7.796476080029696e+17
19191.0	7.794980136768851e+17
19192.0	7.793480477354666e+17
19193.0	7.791612854446762e+17
19194.0	7.790306846048255e+17
19195.0	7.788932336276819e+17
19196.0	7.787426205051562e+17
19197.0	7.78590233052228e+17
19198.0	7.784327436479145e+17
19199.0	7.767360461777572e+17
19200.0	7.771180720543066e+17
19201.0	7.779785413492735e+17
19202.0	7.778324411580416e+17
19203.0	7.776788667170816e+17
19204.0	7.775279787278336e+17
19205.0	7.77377906111283e+17
19206.0	7.772262885927594e+17
19207.0	7.770680717563218e+17
19208.0	7.769064376806054e+17
19209.0	7.767686289293311e+17
19210.0	7.766179478590803e+17
19211.0	7.764664096129021e+17
19212.0	7.763154016665599e+17
19213.0	7.761425611096063e+17
19214.0	7.7598273058461e+17
19215.0	7.75853044522462e+17
19216.0	7.757025404518399e+17
19217.0	7.755539383582719e+17
19218.0	7.753351194214399e+17
19219.0	7.752354241708032e+17
19220.0	7.750944797578582e+17
19221.0	7.749162569302015e+17
19222.0	7.747930755345066e+17
19223.0	7.746384839748264e+17
19224.0	7.744772198367232e+17
19225.0	7.743212593960276e+17
19226.0	7.741806214468947e+17
19227.0	7.740274861495634e+17
19228.0	7.738778157667668e+17
19229.0	7.737250320919208e+17
19230.0	7.735651035600212e+17
19231.0	7.734128690593791e+17
19232.0	7.732598711954089e+17
19233.0	7.731068106964991e+17
19234.0	7.729583115031892e+17
19235.0	7.728040496158034e+17
19236.0	7.726542613730642e+17
19237.0	7.724997226616148e+17
19238.0	7.723379670908925e+17
19239.0	7.721946326237181e+17
19240.0	7.720124962308096e+17
19241.0	7.718775611370152e+17
19242.0	7.717310012500649e+17
19243.0	7.715639291194025e+17
19244.0	7.714265866349225e+17
19245.0	7.712723868232361e+17
19246.0	7.711177130551978e+17
19247.0	7.709639175744169e+17
19248.0	7.708110198145021e+17
19249.0	7.706565693232467e+17
19250.0	7.705011187701078e+17
19251.0	7.703404056237395e+17
19252.0	7.701630385739091e+17
19253.0	7.700378054645076e+17
19254.0	7.6988071046458e+17
19255.0	7.697118634442751e+17
19256.0	7.695695124015785e+17
19257.0	7.694199886796118e+17
19258.0	7.692649607725055e+17
19259.0	7.691031457824765e+17
19260.0	7.689366142975999e+17
19261.0	7.687982395949053e+17
19262.0	7.686385515364351e+17
19263.0	7.684840972703059e+17
19264.0	7.682909262228134e+17
19265.0	7.681612600137044e+17
19266.0	7.680103970504703e+17
19267.0	7.678638135356074e+17
19268.0	7.677063915197778e+17
19269.0	7.675503985033215e+17
19270.0	7.673932793162412e+17
19271.0	7.672102951146838e+17
19272.0	7.67076674375953e+17
19273.0	7.662001689985014e+17
19274.0	7.664087268502182e+17
19275.0	7.666010208687446e+17
19276.0	7.66441605719654e+17
19277.0	7.662835152715773e+17
19278.0	7.661255763776851e+17
19279.0	7.65958724587793e+17
19280.0	7.658016273509034e+17
19281.0	7.656491235759444e+17
19282.0	7.654910778671103e+17
19283.0	7.653074554322944e+17
19284.0	7.651147035355817e+17
19285.0	7.649926063674708e+17
19286.0	7.648493007011837e+17
19287.0	7.646918851166207e+17
19288.0	7.642018792603645e+17
19289.0	7.633708265766893e+17
19290.0	7.642089796577961e+17
19291.0	7.640242468509012e+17
19292.0	7.638855463905962e+17
19293.0	7.637226393436157e+17
19294.0	7.63559683223279e+17
19295.0	7.633978904630612e+17
19296.0	7.632340665412266e+17
19297.0	7.630686978572287e+17
19298.0	7.629042923252394e+17
19299.0	7.627427713559208e+17
19300.0	7.625779352087208e+17
19301.0	7.624117529695574e+17
19302.0	7.622459805138941e+17
19303.0	7.620722657241769e+17
19304.0	7.619085851077289e+17
19305.0	7.61745802351957e+17
19306.0	7.615778928984063e+17
19307.0	7.614052385685503e+17
19308.0	7.612327665511081e+17
19309.0	7.610199516206419e+17
19310.0	7.608239646572541e+17
19311.0	7.607214636968616e+17
19312.0	7.605540894365011e+17
19313.0	7.603649292621139e+17
19314.0	7.597841437076129e+17
19315.0	7.596376791711752e+17
19316.0	7.598585020066472e+17
19317.0	7.596873731451562e+17
19318.0	7.59512718971153e+17
19319.0	7.593395116922196e+17
19320.0	7.591603135490732e+17
19321.0	7.589871518482432e+17
19322.0	7.587951113054889e+17
19323.0	7.586059207923028e+17
19324.0	7.58450872333107e+17
19325.0	7.58236727948083e+17
19326.0	7.58091446345182e+17
19327.0	7.579094067008851e+17
19328.0	7.577283296493565e+17
19329.0	7.57544838496256e+17
19330.0	7.573568942505981e+17
19331.0	7.571710484152319e+17
19332.0	7.5697740606778e+17
19333.0	7.5678763464349e+17
19334.0	7.56596351312418e+17
19335.0	7.564105107898368e+17
19336.0	7.56218217749982e+17
19337.0	7.560254694883327e+17
19338.0	7.558170661268136e+17
19339.0	7.556371093738836e+17
19340.0	7.55435126792738e+17
19341.0	7.552402845947219e+17
19342.0	7.550051301021011e+17
19343.0	7.548385980579837e+17
19344.0	7.546253996283219e+17
19345.0	7.542529174710949e+17
19346.0	7.54166293209634e+17
19347.0	7.539878429108906e+17
19348.0	7.537796495441919e+17
19349.0	7.535635515921748e+17
19350.0	7.533500345352191e+17
19351.0	7.531322355133097e+17
19352.0	7.529084351414271e+17
19353.0	7.526783537993044e+17
19354.0	7.524543307098794e+17
19355.0	7.522202990324393e+17
19356.0	7.519991052806826e+17
19357.0	7.517669572651689e+17
19358.0	7.515259550739113e+17
19359.0	7.512430784894292e+17
19360.0	7.51030083203891e+17
19361.0	7.507852523121321e+17
19362.0	7.5054307110202e+17
19363.0	7.502845904071338e+17
19364.0	7.500154540829353e+17
19365.0	7.497506850078719e+17
19366.0	7.494891308668244e+17
19367.0	7.492232976968361e+17
19368.0	7.489531161520808e+17
19369.0	7.486633157503658e+17
19370.0	7.483121156314454e+17
19371.0	7.481097387857236e+17
19372.0	7.478248339756372e+17
19373.0	7.475070392511145e+17
19374.0	7.472048955719679e+17
19375.0	7.468987631097172e+17
19376.0	7.465859238155604e+17
19377.0	7.462664522082986e+17
19378.0	7.459410255282175e+17
19379.0	7.455967651648851e+17
19380.0	7.45236016852719e+17
19381.0	7.448874911618387e+17
19382.0	7.44524222492399e+17
19383.0	7.44147209368371e+17
19384.0	7.437606948874921e+17
19385.0	7.433578188461396e+17
19386.0	7.429655202802345e+17
19387.0	7.425623668555775e+17
19388.0	7.421089266619732e+17
19389.0	7.416704882354858e+17
19390.0	7.412319722143741e+17
19391.0	7.395615916250435e+17
19392.0	7.402545458708479e+17
19393.0	7.397708418165416e+17
19394.0	7.392121078153215e+17
19395.0	7.386846464049152e+17
19396.0	7.380716161597437e+17
19397.0	7.37529022119936e+17
19398.0	7.36869135487249e+17
19399.0	7.362230514701651e+17
19400.0	7.356366733705215e+17
19401.0	7.350080815584596e+17
19402.0	7.343578165193385e+17
19403.0	7.336964216149331e+17
19404.0	7.330132024885245e+17
19405.0	7.322852070697641e+17
19406.0	7.315168565744982e+17
19407.0	7.307495427713705e+17
19408.0	7.298844765192191e+17
19409.0	7.290482599482708e+17
19410.0	7.281868178543956e+17
19411.0	7.272083907499347e+17
19412.0	7.262610969853951e+17
19413.0	7.251808903408297e+17
19414.0	7.240896098948436e+17
19415.0	7.22919712952593e+17
19416.0	7.216409176178687e+17
19417.0	7.202985571865938e+17
19418.0	7.188948591138131e+17
19419.0	7.173197507417434e+17
19420.0	7.156944688469332e+17
19421.0	7.141621767689556e+17
19422.0	7.126515847615827e+17
19423.0	7.110479983236436e+17
19424.0	7.093626422515028e+17
19425.0	7.075777845657599e+17
19426.0	7.056666170927785e+17
19427.0	7.036095845892095e+17
19428.0	7.014402949644287e+17
19429.0	6.990965665431551e+17
19430.0	6.965237420217686e+17
19431.0	6.936060519688876e+17
19432.0	6.90753232909107e+17
19433.0	6.873672966296918e+17
19434.0	6.841230938516138e+17
19435.0	6.80832531641139e+17
19436.0	6.772599180754943e+17
19437.0	6.735337079089834e+17
19438.0	6.685674320516435e+17
19439.0	6.648146040629932e+17
19440.0	6.597031451688959e+17
19441.0	6.54144337958229e+17
19442.0	6.486390000145751e+17
19443.0	6.425468534259711e+17
19444.0	6.357723348904613e+17
19445.0	6.283172611009197e+17
19446.0	6.203547448945321e+17
19447.0	6.114695675816614e+17
19448.0	6.01513389562266e+17
19449.0	5.889060210649769e+17
19450.0	5.6225783006712544e+17
19451.0	5.5065220362185466e+17
19452.0	5.777383554547716e+17
19453.0	5.956213188941147e+17
19454.0	6.061512476415313e+17
19455.0	6.152936298818218e+17
19456.0	6.234339754901507e+17
19457.0	6.308822330463569e+17
19458.0	6.375327829852164e+17
19459.0	6.439410476952234e+17
19460.0	6.49450238666342e+17
19461.0	6.546725141479423e+17
19462.0	6.598493552508929e+17
19463.0	6.643875308721491e+17
19464.0	6.684755415618899e+17
19465.0	6.721739452405079e+17
19466.0	6.75510733714227e+17
19467.0	6.786716058080596e+17
19468.0	6.816026984098474e+17
19469.0	6.846513111455059e+17
19470.0	6.876586550755327e+17
19471.0	6.902716398480044e+17
19472.0	6.9263012425018e+17
19473.0	6.947920457411242e+17
19474.0	6.967852559674026e+17
19475.0	6.985716112992936e+17
19476.0	7.002907034867027e+17
19477.0	7.01881895616512e+17
19478.0	7.033109616787455e+17
19479.0	7.04691710267665e+17
19480.0	7.059571538744662e+17
19481.0	7.071683427609257e+17
19482.0	7.085070190553769e+17
19483.0	7.098162504968874e+17
19484.0	7.110188968443901e+17
19485.0	7.121075660565162e+17
19486.0	7.131070442329427e+17
19487.0	7.140283245046441e+17
19488.0	7.149153742225407e+17
19489.0	7.156815222887764e+17
19490.0	7.163264380523858e+17
19491.0	7.170853986194772e+17
19492.0	7.177247405725012e+17
19493.0	7.182995551158271e+17
19494.0	7.188780147889492e+17
19495.0	7.193705302370985e+17
19496.0	7.198203247416659e+17
19497.0	7.203226624109226e+17
19498.0	7.206815313952769e+17
19499.0	7.192563143060118e+17
19500.0	7.214825144145236e+17
19501.0	7.218468583636991e+17
19502.0	7.221729483030527e+17
19503.0	7.225252223036074e+17
19504.0	7.228406677984595e+17
19505.0	7.231692754386943e+17
19506.0	7.234530388388522e+17
19507.0	7.237320224101716e+17
19508.0	7.239786697151828e+17
19509.0	7.242296468002131e+17
19510.0	7.24398587912738e+17
19511.0	7.233207400049313e+17
19512.0	7.245631264041632e+17
19513.0	7.243959011814047e+17
19514.0	7.247403543429115e+17
19515.0	7.251918046188886e+17
19516.0	7.25360179220753e+17
19517.0	7.254574104575999e+17
19518.0	7.255791941713919e+17
19519.0	7.256757554380799e+17
19520.0	7.257554082070527e+17
19521.0	7.258275047975593e+17
19522.0	7.258821291758932e+17
19523.0	7.259564349063168e+17
19524.0	7.260104719422803e+17
19525.0	7.260421021674153e+17
19526.0	7.260765480288255e+17
19527.0	7.261010614987434e+17
19528.0	7.261189995582803e+17
19529.0	7.261314177739433e+17
19530.0	7.261577202543274e+17
19531.0	7.261637457914538e+17
19532.0	7.261606794756093e+17
19533.0	7.261529889396051e+17
19534.0	7.261404825037481e+17
19535.0	7.261218342087336e+17
19536.0	7.260998798234964e+17
19537.0	7.260784195272704e+17
19538.0	7.260483095975251e+17
19539.0	7.259853052794196e+17
19540.0	7.259990135231827e+17
19541.0	7.259696135492947e+17
19542.0	7.259268698166612e+17
19543.0	7.258817714017619e+17
19544.0	7.258450337726463e+17
19545.0	7.257751323410428e+17
19546.0	7.256754031165439e+17
19547.0	7.256905957244927e+17
19548.0	7.256332676978003e+17
19549.0	7.255627813005994e+17
19550.0	7.255085043504467e+17
19551.0	7.25451299496482e+17
19552.0	7.253906238559574e+17
19553.0	7.253192103777619e+17
19554.0	7.252453506416639e+17
19555.0	7.251736350337705e+17
19556.0	7.250991165123242e+17
19557.0	7.250212085738156e+17
19558.0	7.249425876036266e+17
19559.0	7.248682530723156e+17
19560.0	7.247861655098708e+17
19561.0	7.247137663702355e+17
19562.0	7.246310196030122e+17
19563.0	7.245437796177236e+17
19564.0	7.244563781517311e+17
19565.0	7.243668835882326e+17
19566.0	7.242734863646717e+17
19567.0	7.241833216912041e+17
19568.0	7.24087737697348e+17
19569.0	7.23994362983219e+17
19570.0	7.239007932339539e+17
19571.0	7.238040604202323e+17
19572.0	7.237031205797887e+17
19573.0	7.236067911183016e+17
19574.0	7.235033261670399e+17
19575.0	7.234174696030207e+17
19576.0	7.233194919198719e+17
19577.0	7.232113455661053e+17
19578.0	7.231112842925395e+17
19579.0	7.230078113721e+17
19580.0	7.229035844556116e+17
19581.0	7.227989913763837e+17
19582.0	7.226941655132842e+17
19583.0	7.225871920267263e+17
19584.0	7.224788565098492e+17
19585.0	7.223609831456768e+17
19586.0	7.22244673278225e+17
19587.0	7.22136520073762e+17
19588.0	7.220010174906365e+17
19589.0	7.219183206356308e+17
19590.0	7.218126655586301e+17
19591.0	7.217078459869866e+17
19592.0	7.215961403468457e+17
19593.0	7.214811803462314e+17
19594.0	7.213461346626217e+17
19595.0	7.212543581181268e+17
19596.0	7.207763952271361e+17
19597.0	7.210242901977769e+17
19598.0	7.208926576989523e+17
19599.0	7.207957666201599e+17
19600.0	7.206823919266474e+17
19601.0	7.205652362078889e+17
19602.0	7.204505422659583e+17
19603.0	7.202818248496466e+17
19604.0	7.202137177412947e+17
19605.0	7.200751582096042e+17
19606.0	7.199812143284223e+17
19607.0	7.1986434829626e+17
19608.0	7.197438711081641e+17
19609.0	7.196208337169066e+17
19610.0	7.195065263499945e+17
19611.0	7.193857940084051e+17
19612.0	7.192665246400511e+17
19613.0	7.191448280279721e+17
19614.0	7.190216308337322e+17
19615.0	7.189052426726057e+17
19616.0	7.187779082169002e+17
19617.0	7.186669164473e+17
19618.0	7.18506967503121e+17
19619.0	7.183700735295487e+17
19620.0	7.182510765113343e+17
19621.0	7.181784601067519e+17
19622.0	7.180564324242772e+17
19623.0	7.179336037695487e+17
19624.0	7.178096728517289e+17
19625.0	7.176870987912531e+17
19626.0	7.175633669630633e+17
19627.0	7.174401011220479e+17
19628.0	7.172808439584084e+17
19629.0	7.171844266961577e+17
19630.0	7.170355806339072e+17
19631.0	7.153394344351053e+17
19632.0	7.168174481648297e+17
19633.0	7.166907723546623e+17
19634.0	7.165700906243412e+17
19635.0	7.164415806450345e+17
19636.0	7.163197337370623e+17
19637.0	7.16158867079168e+17
19638.0	7.160693686009855e+17
19639.0	7.159423856279551e+17
19640.0	7.158131402473472e+17
19641.0	7.156530923175936e+17
19642.0	7.155664279306237e+17
19643.0	7.154385535281833e+17
19644.0	7.153102859796479e+17
19645.0	7.151685043836244e+17
19646.0	7.150630577635325e+17
19647.0	7.149366947086335e+17
19648.0	7.148098082045952e+17
19649.0	7.146830026506239e+17
19650.0	7.145569982087168e+17
19651.0	7.144295945469951e+17
19652.0	7.143025975929514e+17
19653.0	7.141757210154323e+17
19654.0	7.140485206376445e+17
19655.0	7.139209778648403e+17
19656.0	7.137945737057619e+17
19657.0	7.136671650108756e+17
19658.0	7.135401221991081e+17
19659.0	7.134130630295551e+17
19660.0	7.132857232610644e+17
19661.0	7.131581842631338e+17
19662.0	7.130305745212756e+17
19663.0	7.128990724653055e+17
19664.0	7.127680301050538e+17
19665.0	7.126473753580884e+17
