# Flux units: erg / (cm m2 s)
# Wavelength units: Angstrom
wave	flux
19000.0	5.2405405039110803e+17
19001.0	5.239427204907006e+17
19002.0	5.2386039951523834e+17
19003.0	5.2376283119615994e+17
19004.0	5.236656565125119e+17
19005.0	5.235674696034986e+17
19006.0	5.2347131336676685e+17
19007.0	5.2337484521362765e+17
19008.0	5.2326771632810656e+17
19009.0	5.2316726246768634e+17
19010.0	5.230044424525139e+17
19011.0	5.229812575283881e+17
19012.0	5.2287167686246394e+17
19013.0	5.2279115873867085e+17
19014.0	5.2268695866572794e+17
19015.0	5.2259069337709216e+17
19016.0	5.2249112591291725e+17
19017.0	5.224039807888041e+17
19018.0	5.2230521765232634e+17
19019.0	5.2220865400886605e+17
19020.0	5.221104904481451e+17
19021.0	5.220161827110911e+17
19022.0	5.219186924759722e+17
19023.0	5.218174457522858e+17
19024.0	5.217222442789546e+17
19025.0	5.2162849361537696e+17
19026.0	5.215280117230251e+17
19027.0	5.214295045089961e+17
19028.0	5.213387926186666e+17
19029.0	5.212394110320639e+17
19030.0	5.21146475671279e+17
19031.0	5.2105049978961914e+17
19032.0	5.209526250766334e+17
19033.0	5.208433030594559e+17
19034.0	5.2075809486493005e+17
19035.0	5.2065815830200314e+17
19036.0	5.199942556232361e+17
19037.0	5.2046874835681274e+17
19038.0	5.203709643806036e+17
19039.0	5.202773461871273e+17
19040.0	5.2018154339041274e+17
19041.0	5.200838900667732e+17
19042.0	5.1996566703745696e+17
19043.0	5.198922723098623e+17
19044.0	5.1979418872053754e+17
19045.0	5.1969941192048634e+17
19046.0	5.195932947709951e+17
19047.0	5.1950421495425696e+17
19048.0	5.1937394539451725e+17
19049.0	5.1928546515353594e+17
19050.0	5.192101336361641e+17
19051.0	5.1903543654044986e+17
19052.0	5.1901236374405114e+17
19053.0	5.18929070948352e+17
19054.0	5.188328498397184e+17
19055.0	5.186964173793963e+17
19056.0	5.1863509294994765e+17
19057.0	5.1854329606307834e+17
19058.0	5.1843690824116896e+17
19059.0	5.183475835469824e+17
19060.0	5.1825232475149645e+17
19061.0	5.18160033775616e+17
19062.0	5.1806316052261536e+17
19063.0	5.1796745978729805e+17
19064.0	5.1785256535763616e+17
19065.0	5.177511273037824e+17
19066.0	5.17668243382818e+17
19067.0	5.1758194907327136e+17
19068.0	5.17487794847744e+17
19069.0	5.173921067652436e+17
19070.0	5.1729169862273696e+17
19071.0	5.171995657022122e+17
19072.0	5.171007749532329e+17
19073.0	5.170078985923242e+17
19074.0	5.169128832761855e+17
19075.0	5.1681707901146445e+17
19076.0	5.1671812209814176e+17
19077.0	5.166229611697492e+17
19078.0	5.165229855997951e+17
19079.0	5.16433564995857e+17
19080.0	5.1633619352944634e+17
19081.0	5.162361060414804e+17
19082.0	5.1614035916881914e+17
19083.0	5.160382128368298e+17
19084.0	5.1592538151540045e+17
19085.0	5.1585800903939405e+17
19086.0	5.1570901170257914e+17
19087.0	5.156468993731241e+17
19088.0	5.15558018785826e+17
19089.0	5.154463481681237e+17
19090.0	5.15378520400418e+17
19091.0	5.1528234577865376e+17
19092.0	5.1517525065727994e+17
19093.0	5.1509601599051085e+17
19094.0	5.150006210898602e+17
19095.0	5.149052171015508e+17
19096.0	5.148072180973567e+17
19097.0	5.147140925947902e+17
19098.0	5.1461487402680314e+17
19099.0	5.1451810535178234e+17
19100.0	5.144250541583019e+17
19101.0	5.143327872297642e+17
19102.0	5.142182986689194e+17
19103.0	5.1414218959749114e+17
19104.0	5.1404746592529056e+17
19105.0	5.139428543911253e+17
19106.0	5.138545605869567e+17
19107.0	5.1375669873650336e+17
19108.0	5.136632979477844e+17
19109.0	5.135368865884842e+17
19110.0	5.134754896674815e+17
19111.0	5.133788127778132e+17
19112.0	5.132833222470313e+17
19113.0	5.131906381250559e+17
19114.0	5.130942860842323e+17
19115.0	5.1299324355324576e+17
19116.0	5.129031391379455e+17
19117.0	5.1280780526441805e+17
19118.0	5.1270254242474656e+17
19119.0	5.1124126585541754e+17
19120.0	5.125198940471294e+17
19121.0	5.1242807681788576e+17
19122.0	5.123366763626496e+17
19123.0	5.122418263020885e+17
19124.0	5.121447127853738e+17
19125.0	5.120518687905109e+17
19126.0	5.119562315988992e+17
19127.0	5.115826889119059e+17
19128.0	5.117634758574079e+17
19129.0	5.1166178397825696e+17
19130.0	5.1157582423435936e+17
19131.0	5.1148306503434234e+17
19132.0	5.1138832402568525e+17
19133.0	5.112841754028713e+17
19134.0	5.111978603315198e+17
19135.0	5.1110429813200205e+17
19136.0	5.1101053537484794e+17
19137.0	5.108907173915306e+17
19138.0	5.10819173540386e+17
19139.0	5.1072677421165216e+17
19140.0	5.10632430473489e+17
19141.0	5.1053791980202656e+17
19142.0	5.1043966564433914e+17
19143.0	5.103397440410964e+17
19144.0	5.1024904277633696e+17
19145.0	5.1015956030641485e+17
19146.0	5.0997510914703366e+17
19147.0	5.0995557403634336e+17
19148.0	5.098734839573162e+17
19149.0	5.097777307232938e+17
19150.0	5.096870047820458e+17
19151.0	5.0959314192083616e+17
19152.0	5.0949857861085856e+17
19153.0	5.0939576321747616e+17
19154.0	5.0929100376418976e+17
19155.0	5.0921684616260256e+17
19156.0	5.091222643976874e+17
19157.0	5.090253375974058e+17
19158.0	5.0890601265452365e+17
19159.0	5.088369327472639e+17
19160.0	5.08744231288832e+17
19161.0	5.086515072510634e+17
19162.0	5.085024486774101e+17
19163.0	5.084622768919892e+17
19164.0	5.0836950273228794e+17
19165.0	5.0826562037787296e+17
19166.0	5.0815992119077536e+17
19167.0	5.0808248811738445e+17
19168.0	5.079926535356415e+17
19169.0	5.0789752266642765e+17
19170.0	5.0780552920651085e+17
19171.0	5.077081567614292e+17
19172.0	5.076178470349481e+17
19173.0	5.075238874950313e+17
19174.0	5.074204068850347e+17
19175.0	5.073356606231893e+17
19176.0	5.0724178070514336e+17
19177.0	5.0712570935377914e+17
19178.0	5.0705344513092256e+17
19179.0	5.0695587289716045e+17
19180.0	5.0686568767160314e+17
19181.0	5.067504583267669e+17
19182.0	5.0667697349154125e+17
19183.0	5.065860822947157e+17
19184.0	5.0649130276836685e+17
19185.0	5.0639700964147194e+17
19186.0	5.063046744156842e+17
19187.0	5.0620245657081165e+17
19188.0	5.0611716358143994e+17
19189.0	5.0602442402474656e+17
19190.0	5.059306347036671e+17
19191.0	5.0583253461674656e+17
19192.0	5.0574354560669e+17
19193.0	5.056482400447146e+17
19194.0	5.055532117262336e+17
19195.0	5.0546275477968205e+17
19196.0	5.053666567738708e+17
19197.0	5.052742957531135e+17
19198.0	5.051806273677993e+17
19199.0	5.0476332550717414e+17
19200.0	5.047771413348353e+17
19201.0	5.04900793401344e+17
19202.0	5.0480873653753165e+17
19203.0	5.047147082809343e+17
19204.0	5.04618223210769e+17
19205.0	5.0452751579436365e+17
19206.0	5.044332332930389e+17
19207.0	5.0432580248753485e+17
19208.0	5.042109307770195e+17
19209.0	5.041544612544511e+17
19210.0	5.04061053964561e+17
19211.0	5.039697761927166e+17
19212.0	5.038760917292372e+17
19213.0	5.037695074740906e+17
19214.0	5.036717996944043e+17
19215.0	5.035958582553257e+17
19216.0	5.03503856406801e+17
19217.0	5.034096886895957e+17
19218.0	5.031931938166097e+17
19219.0	5.032040572736851e+17
19220.0	5.0312792017032525e+17
19221.0	5.029886977987926e+17
19222.0	5.0294443446981965e+17
19223.0	5.028492239787349e+17
19224.0	5.027528962648745e+17
19225.0	5.0264363436605434e+17
19226.0	5.025698372648959e+17
19227.0	5.024773307017897e+17
19228.0	5.0238775826404685e+17
19229.0	5.0229469868195834e+17
19230.0	5.0220054012231674e+17
19231.0	5.021070981595134e+17
19232.0	5.0201492790968314e+17
19233.0	5.0191323148670285e+17
19234.0	5.018266215557802e+17
19235.0	5.017326278322858e+17
19236.0	5.0164444042362874e+17
19237.0	5.015488630707541e+17
19238.0	5.014447692535126e+17
19239.0	5.0136639819393696e+17
19240.0	5.0127195665858554e+17
19241.0	5.011774105452543e+17
19242.0	5.010857684981076e+17
19243.0	5.009725872319145e+17
19244.0	5.009027140419583e+17
19245.0	5.0080924411712845e+17
19246.0	5.0071464319822496e+17
19247.0	5.006233442451455e+17
19248.0	5.0053202648760314e+17
19249.0	5.004389578178559e+17
19250.0	5.003423237799935e+17
19251.0	5.002356016021503e+17
19252.0	5.0012276916223994e+17
19253.0	5.0006451824885754e+17
19254.0	4.9997602199961594e+17
19255.0	4.998578369986559e+17
19256.0	4.9978612320829434e+17
19257.0	4.996981690029396e+17
19258.0	4.9960579777604256e+17
19259.0	4.995035336540159e+17
19260.0	4.994065022757546e+17
19261.0	4.9932630096172365e+17
19262.0	4.9922747337277434e+17
19263.0	4.991334948186794e+17
19264.0	4.989440111236435e+17
19265.0	4.98901028385587e+17
19266.0	4.98792036040704e+17
19267.0	4.9874891586928634e+17
19268.0	4.9865544482597536e+17
19269.0	4.985634256409941e+17
19270.0	4.9847115249090554e+17
19271.0	4.983243204635307e+17
19272.0	4.982812569851221e+17
19273.0	4.981138135187454e+17
19274.0	4.9802669418960186e+17
19275.0	4.980093542378153e+17
19276.0	4.9791397926010874e+17
19277.0	4.9782247338803194e+17
19278.0	4.977304768522921e+17
19279.0	4.976360069354835e+17
19280.0	4.9753275778116256e+17
19281.0	4.9745230459917645e+17
19282.0	4.973625371262974e+17
19283.0	4.9726524514194765e+17
19284.0	4.9717408977387514e+17
19285.0	4.9705971830401696e+17
19286.0	4.969874503062868e+17
19287.0	4.9690022800698016e+17
19288.0	4.9665160700231654e+17
19289.0	4.963357795461795e+17
19290.0	4.966231310336e+17
19291.0	4.964949261899094e+17
19292.0	4.964386080817151e+17
19293.0	4.963451060704596e+17
19294.0	4.962522793421483e+17
19295.0	4.9616135780652365e+17
19296.0	4.9606395788875085e+17
19297.0	4.959727200326996e+17
19298.0	4.958794568171519e+17
19299.0	4.957868191121407e+17
19300.0	4.956974749843455e+17
19301.0	4.9560550438338554e+17
19302.0	4.955116964675583e+17
19303.0	4.954099934035968e+17
19304.0	4.953236645609472e+17
19305.0	4.9523332232861e+17
19306.0	4.951421114559146e+17
19307.0	4.950268017901566e+17
19308.0	4.9492125940012365e+17
19309.0	4.948190303005353e+17
19310.0	4.94720658772241e+17
19311.0	4.946414296978772e+17
19312.0	4.945530228572159e+17
19313.0	4.944620545551019e+17
19314.0	4.9325980177312435e+17
19315.0	4.932567751633593e+17
19316.0	4.9417707872146765e+17
19317.0	4.940893542940671e+17
19318.0	4.9399621984365216e+17
19319.0	4.9390598540492794e+17
19320.0	4.9381101363964576e+17
19321.0	4.9371644998014285e+17
19322.0	4.936160942664362e+17
19323.0	4.9352833243982496e+17
19324.0	4.9344014321363616e+17
19325.0	4.933365225837909e+17
19326.0	4.932545286242302e+17
19327.0	4.9315885515188896e+17
19328.0	4.9306022175921485e+17
19329.0	4.929748986407594e+17
19330.0	4.928754264571903e+17
19331.0	4.927811501075115e+17
19332.0	4.926939807263402e+17
19333.0	4.925990153923242e+17
19334.0	4.925066883454292e+17
19335.0	4.923976359520938e+17
19336.0	4.923187722715134e+17
19337.0	4.922245929500671e+17
19338.0	4.9210004805604685e+17
19339.0	4.920366135421609e+17
19340.0	4.919113364624724e+17
19341.0	4.91834020340258e+17
19342.0	4.916938597029204e+17
19343.0	4.916588155939498e+17
19344.0	4.915575577553578e+17
19345.0	4.911415343884963e+17
19346.0	4.9123938386575334e+17
19347.0	4.9126228154996045e+17
19348.0	4.9118487539002e+17
19349.0	4.910849518993408e+17
19350.0	4.9096797038400845e+17
19351.0	4.908495395269289e+17
19352.0	4.907405800374271e+17
19353.0	4.9066360658984954e+17
19354.0	4.905678078476287e+17
19355.0	4.904570383761408e+17
19356.0	4.903744771369642e+17
19357.0	4.9027808140547405e+17
19358.0	4.9018061514779296e+17
19359.0	4.900749070128468e+17
19360.0	4.8997401079316474e+17
19361.0	4.898827168732502e+17
19362.0	4.89790780945203e+17
19363.0	4.896923912415913e+17
19364.0	4.895935660294143e+17
19365.0	4.894948080659114e+17
19366.0	4.8939549561541965e+17
19367.0	4.8927245514833914e+17
19368.0	4.8913950451957754e+17
19369.0	4.8903185812684794e+17
19370.0	4.8892977785514656e+17
19371.0	4.888293218276693e+17
19372.0	4.887354204487679e+17
19373.0	4.886304684769279e+17
19374.0	4.885298382460244e+17
19375.0	4.8842700621523616e+17
19376.0	4.8832386024079354e+17
19377.0	4.881700625929556e+17
19378.0	4.880415391918762e+17
19379.0	4.879363538070187e+17
19380.0	4.8783011565185696e+17
19381.0	4.8772236922497696e+17
19382.0	4.8760476429626016e+17
19383.0	4.874813303335593e+17
19384.0	4.873060734380713e+17
19385.0	4.8719659476363936e+17
19386.0	4.870856523470164e+17
19387.0	4.869586883182591e+17
19388.0	4.867784715184809e+17
19389.0	4.865897611831978e+17
19390.0	4.8647291794008736e+17
19391.0	4.858286371941026e+17
19392.0	4.861896112996351e+17
19393.0	4.8605014412055885e+17
19394.0	4.859261319031466e+17
19395.0	4.857996805581483e+17
19396.0	4.856759670450857e+17
19397.0	4.8554955379834874e+17
19398.0	4.8541373692204365e+17
19399.0	4.851626651855529e+17
19400.0	4.8514086095639885e+17
19401.0	4.8501217104145056e+17
19402.0	4.8480222990827514e+17
19403.0	4.84656455684369e+17
19404.0	4.845133243613183e+17
19405.0	4.843616806982996e+17
19406.0	4.842102452824745e+17
19407.0	4.8405296181848736e+17
19408.0	4.837217867049646e+17
19409.0	4.836172340308651e+17
19410.0	4.8344974260961274e+17
19411.0	4.8326930274276685e+17
19412.0	4.8302790999190195e+17
19413.0	4.827389771120639e+17
19414.0	4.825405147403605e+17
19415.0	4.822335230050303e+17
19416.0	4.8190530955946656e+17
19417.0	4.8159719270208877e+17
19418.0	4.8121508161126406e+17
19419.0	4.807360127522131e+17
19420.0	4.802390342150825e+17
19421.0	4.796175636321621e+17
19422.0	4.7882043245199334e+17
19423.0	4.778290009778857e+17
19424.0	4.768437430299302e+17
19425.0	4.762663382941695e+17
19426.0	4.7579942159209805e+17
19427.0	4.753017766499668e+17
19428.0	4.7474299357538976e+17
19429.0	4.741833414410239e+17
19430.0	4.735881318148778e+17
19431.0	4.728775926000299e+17
19432.0	4.722449357384361e+17
19433.0	4.715280852145493e+17
19434.0	4.707068246228991e+17
19435.0	4.697676124433067e+17
19436.0	4.6858851823124474e+17
19437.0	4.670871227946324e+17
19438.0	4.635886703258278e+17
19439.0	4.6027561189594406e+17
19440.0	4.5761676436657485e+17
19441.0	4.5516039120049466e+17
19442.0	4.525334249952598e+17
19443.0	4.4980664225409696e+17
19444.0	4.4690073525944314e+17
19445.0	4.439677513061718e+17
19446.0	4.4027037411355283e+17
19447.0	4.305741122895909e+17
19448.0	4.203570644997464e+17
19449.0	4.0707038701595334e+17
19450.0	3.6431526174392845e+17
19451.0	3.4285966153045786e+17
19452.0	3.908016665526257e+17
19453.0	4.152286249659055e+17
19454.0	4.2460837524275104e+17
19455.0	4.360958949108411e+17
19456.0	4.4162634988475776e+17
19457.0	4.445420207297873e+17
19458.0	4.4405970533963603e+17
19459.0	4.4987810906985914e+17
19460.0	4.524468706388649e+17
19461.0	4.548515685815636e+17
19462.0	4.569706799300604e+17
19463.0	4.6058221516881875e+17
19464.0	4.63865568698914e+17
19465.0	4.656140833696432e+17
19466.0	4.6674470806487046e+17
19467.0	4.675649362984959e+17
19468.0	4.682442849910784e+17
19469.0	4.688143083809449e+17
19470.0	4.693883400574292e+17
19471.0	4.699004407382015e+17
19472.0	4.703218513390249e+17
19473.0	4.7071177362199885e+17
19474.0	4.710999464607743e+17
19475.0	4.713155832490664e+17
19476.0	4.7174902807702176e+17
19477.0	4.7203139281660576e+17
19478.0	4.726699955235502e+17
19479.0	4.7355107723618963e+17
19480.0	4.7421151548975763e+17
19481.0	4.747053122977792e+17
19482.0	4.751301429340842e+17
19483.0	4.7545229050729786e+17
19484.0	4.756020063283883e+17
19485.0	4.758821898900821e+17
19486.0	4.7591875778969594e+17
19487.0	4.7614259437240294e+17
19488.0	4.7618095533697696e+17
19489.0	4.761876776179029e+17
19490.0	4.7610948467643686e+17
19491.0	4.7634976286091936e+17
19492.0	4.76359445132083e+17
19493.0	4.763504656165545e+17
19494.0	4.764320741894825e+17
19495.0	4.764231201893033e+17
19496.0	4.763280555201876e+17
19497.0	4.763699607415466e+17
19498.0	4.762932529332224e+17
19499.0	4.754538895856976e+17
19500.0	4.762762718740479e+17
19501.0	4.763079748004523e+17
19502.0	4.7626804761285965e+17
19503.0	4.7622531198921376e+17
19504.0	4.761800551694336e+17
19505.0	4.7613178278488736e+17
19506.0	4.760831671664639e+17
19507.0	4.7602759256855885e+17
19508.0	4.759784941857451e+17
19509.0	4.759232606546602e+17
19510.0	4.758621066537642e+17
19511.0	4.740497634142878e+17
19512.0	4.75684478997845e+17
19513.0	4.754640646176762e+17
19514.0	4.755713680561491e+17
19515.0	4.756517294527831e+17
19516.0	4.756767558161749e+17
19517.0	4.7562979128552083e+17
19518.0	4.75573986979567e+17
19519.0	4.755447359733759e+17
19520.0	4.755136979839658e+17
19521.0	4.7545497681919994e+17
19522.0	4.7537924733228365e+17
19523.0	4.7531304024364365e+17
19524.0	4.752394191634432e+17
19525.0	4.7517002153765536e+17
19526.0	4.751211067954517e+17
19527.0	4.7509200161122976e+17
19528.0	4.750175782305792e+17
19529.0	4.749428613884585e+17
19530.0	4.7487111019888634e+17
19531.0	4.7479606228637e+17
19532.0	4.74720583479023e+17
19533.0	4.7464469663580154e+17
19534.0	4.7456790004804256e+17
19535.0	4.744890195902463e+17
19536.0	4.7440863463560525e+17
19537.0	4.743475338324649e+17
19538.0	4.7429075344206515e+17
19539.0	4.741424526393345e+17
19540.0	4.74151330652706e+17
19541.0	4.7407520005051725e+17
19542.0	4.7399646562440525e+17
19543.0	4.7391258499700045e+17
19544.0	4.7383849205759994e+17
19545.0	4.736838447136766e+17
19546.0	4.735341084803072e+17
19547.0	4.736004489478143e+17
19548.0	4.7352026587900576e+17
19549.0	4.734259733812564e+17
19550.0	4.7335942256940365e+17
19551.0	4.7327916134673043e+17
19552.0	4.731981757677568e+17
19553.0	4.731136056666794e+17
19554.0	4.730295862078121e+17
19555.0	4.7295209455397536e+17
19556.0	4.7287434187461965e+17
19557.0	4.727932379463679e+17
19558.0	4.727115275217578e+17
19559.0	4.726604634084692e+17
19560.0	4.725819904972117e+17
19561.0	4.7250165804127565e+17
19562.0	4.7242065890071885e+17
19563.0	4.7234162716835834e+17
19564.0	4.7225936603163296e+17
19565.0	4.721770001771178e+17
19566.0	4.72089856381201e+17
19567.0	4.72011919921425e+17
19568.0	4.7192611648525645e+17
19569.0	4.7184338020379296e+17
19570.0	4.7176401404559354e+17
19571.0	4.7168031545098234e+17
19572.0	4.7159344722083834e+17
19573.0	4.7151164990423034e+17
19574.0	4.714192889533781e+17
19575.0	4.7134933530269005e+17
19576.0	4.712653286364499e+17
19577.0	4.711783490475349e+17
19578.0	4.710927519012181e+17
19579.0	4.710126341936468e+17
19580.0	4.7092949190355616e+17
19581.0	4.7084733611376634e+17
19582.0	4.707667921950036e+17
19583.0	4.7068340348955296e+17
19584.0	4.705993120284671e+17
19585.0	4.705001021986131e+17
19586.0	4.7041256176134835e+17
19587.0	4.7034720164249594e+17
19588.0	4.701917409531222e+17
19589.0	4.7017906499747834e+17
19590.0	4.700791552081919e+17
19591.0	4.700138056450047e+17
19592.0	4.699307580063743e+17
19593.0	4.698442681024511e+17
19594.0	4.697272048680959e+17
19595.0	4.6967485995417594e+17
19596.0	4.695865141406377e+17
19597.0	4.695105981470036e+17
19598.0	4.6934589551848083e+17
19599.0	4.6934414530532685e+17
19600.0	4.692616677425151e+17
19601.0	4.691677121172821e+17
19602.0	4.690866021771946e+17
19603.0	4.689408844365823e+17
19604.0	4.6891971438619296e+17
19605.0	4.6879745350041594e+17
19606.0	4.6875747919680845e+17
19607.0	4.6867491970525856e+17
19608.0	4.685883572398762e+17
19609.0	4.68499123212561e+17
19610.0	4.68420355092207e+17
19611.0	4.683335094413994e+17
19612.0	4.682555408252928e+17
19613.0	4.681701436773717e+17
19614.0	4.680821351557802e+17
19615.0	4.6800379387576314e+17
19616.0	4.6791259908123296e+17
19617.0	4.678295116666196e+17
19618.0	4.6765817043353574e+17
19619.0	4.6755107587140243e+17
19620.0	4.674743036106067e+17
19621.0	4.674941205086207e+17
19622.0	4.674166244507647e+17
19623.0	4.6733248000163834e+17
19624.0	4.672467293437951e+17
19625.0	4.6716499745832954e+17
19626.0	4.6708006301204474e+17
19627.0	4.6699713050705914e+17
19628.0	4.669043907406506e+17
19629.0	4.6680244035256314e+17
19630.0	4.6672681027065165e+17
19631.0	4.66292273525555e+17
19632.0	4.6657665838175565e+17
19633.0	4.6648824636811936e+17
19634.0	4.664100764254207e+17
19635.0	4.663205260776789e+17
19636.0	4.6623530509052576e+17
19637.0	4.6610566250932896e+17
19638.0	4.660723270899029e+17
19639.0	4.659892755365888e+17
19640.0	4.658902753520298e+17
19641.0	4.6561532691087405e+17
19642.0	4.657379494155604e+17
19643.0	4.656536561385471e+17
19644.0	4.6556250475506336e+17
19645.0	4.65443831816738e+17
19646.0	4.6539793948999674e+17
19647.0	4.653208104337408e+17
19648.0	4.6523674441809914e+17
19649.0	4.6515249937558176e+17
19650.0	4.65069671588386e+17
19651.0	4.649853793599487e+17
19652.0	4.649013854863359e+17
19653.0	4.6481857440645114e+17
19654.0	4.6473410804449274e+17
19655.0	4.646498464344746e+17
