# Flux units: erg / (cm m2 s)
# Wavelength units: Angstrom
wave	flux
19000.0	6.599716182338218e+17
19001.0	6.598399774162944e+17
19002.0	6.597275654553599e+17
19003.0	6.596052954120191e+17
19004.0	6.594831379857407e+17
19005.0	6.593605493850111e+17
19006.0	6.592391014252543e+17
19007.0	6.591163869254996e+17
19008.0	6.589889776713727e+17
19009.0	6.588609537419945e+17
19010.0	6.587098392603305e+17
19011.0	6.586248358177449e+17
19012.0	6.584930212162218e+17
19013.0	6.583831260474026e+17
19014.0	6.582558771554985e+17
19015.0	6.581354398132906e+17
19016.0	6.580131252404224e+17
19017.0	6.578954267787263e+17
19018.0	6.577720370659327e+17
19019.0	6.576505427591167e+17
19020.0	6.575271496908797e+17
19021.0	6.57406905496371e+17
19022.0	6.572843598173523e+17
19023.0	6.571589105614847e+17
19024.0	6.57038824771857e+17
19025.0	6.569182493671424e+17
19026.0	6.567939932509524e+17
19027.0	6.566686577306282e+17
19028.0	6.565521287107923e+17
19029.0	6.564291804484948e+17
19030.0	6.563094618002772e+17
19031.0	6.561873958797311e+17
19032.0	6.560648399246676e+17
19033.0	6.559341361146537e+17
19034.0	6.558184097447935e+17
19035.0	6.556847243438761e+17
19036.0	6.551299931067731e+17
19037.0	6.55445859709747e+17
19038.0	6.553297582992041e+17
19039.0	6.552112137065812e+17
19040.0	6.550896473276415e+17
19041.0	6.549670889958057e+17
19042.0	6.548339186554196e+17
19043.0	6.547242156556287e+17
19044.0	6.546011929444351e+17
19045.0	6.544803017785344e+17
19046.0	6.543539685730985e+17
19047.0	6.542332435016361e+17
19048.0	6.540964555041449e+17
19049.0	6.539794935622314e+17
19050.0	6.538647587957417e+17
19051.0	6.536780457880233e+17
19052.0	6.53606894383923e+17
19053.0	6.535049531533994e+17
19054.0	6.533839586678099e+17
19055.0	6.532368960236202e+17
19056.0	6.531375277888852e+17
19057.0	6.530182919749632e+17
19058.0	6.528929349238783e+17
19059.0	6.527736663943849e+17
19060.0	6.526521516053844e+17
19061.0	6.525323215983956e+17
19062.0	6.524102389705385e+17
19063.0	6.522885424283645e+17
19064.0	6.521563790704639e+17
19065.0	6.520285963135658e+17
19066.0	6.519170377536852e+17
19067.0	6.518012895035391e+17
19068.0	6.516809965851988e+17
19069.0	6.515595342949033e+17
19070.0	6.514357974335487e+17
19071.0	6.513164818579455e+17
19072.0	6.511937613463551e+17
19073.0	6.510731178541055e+17
19074.0	6.509520356376575e+17
19075.0	6.508305388142591e+17
19076.0	6.507074963898368e+17
19077.0	6.505859937643177e+17
19078.0	6.504631665775956e+17
19079.0	6.503446844101972e+17
19080.0	6.502220300987049e+17
19081.0	6.500975114190847e+17
19082.0	6.499772482103977e+17
19083.0	6.49848735085363e+17
19084.0	6.497158387029332e+17
19085.0	6.496155903634089e+17
19086.0	6.494568972637523e+17
19087.0	6.493624577556479e+17
19088.0	6.492406285336575e+17
19089.0	6.491089461925204e+17
19090.0	6.490058713115305e+17
19091.0	6.488858983486804e+17
19092.0	6.487585146798079e+17
19093.0	6.48646262591761e+17
19094.0	6.485254166544383e+17
19095.0	6.484043225541289e+17
19096.0	6.482819347207508e+17
19097.0	6.481617478483968e+17
19098.0	6.480396132111699e+17
19099.0	6.479182671030953e+17
19100.0	6.477972890451967e+17
19101.0	6.476770956716714e+17
19102.0	6.47547069800994e+17
19103.0	6.474352604916393e+17
19104.0	6.473146166498643e+17
19105.0	6.471902384095231e+17
19106.0	6.470708258056873e+17
19107.0	6.469489956050259e+17
19108.0	6.468276204863487e+17
19109.0	6.466830700205396e+17
19110.0	6.465828658610176e+17
19111.0	6.464663687178921e+17
19112.0	6.463458212052991e+17
19113.0	6.462261672192682e+17
19114.0	6.461044569757012e+17
19115.0	6.459794452556457e+17
19116.0	6.458611332371795e+17
19117.0	6.457400921948159e+17
19118.0	6.456088494866431e+17
19119.0	6.450294334423032e+17
19120.0	6.453725650485245e+17
19121.0	6.452560184825172e+17
19122.0	6.451388197721427e+17
19123.0	6.450182339515731e+17
19124.0	6.448946857639935e+17
19125.0	6.447759256540499e+17
19126.0	6.446507201571498e+17
19127.0	6.443824205266943e+17
19128.0	6.444064115261439e+17
19129.0	6.442853026758655e+17
19130.0	6.441721742579028e+17
19131.0	6.440530616167082e+17
19132.0	6.439323249410047e+17
19133.0	6.438064861741055e+17
19134.0	6.436902690706772e+17
19135.0	6.43570732175633e+17
19136.0	6.434503025229823e+17
19137.0	6.433169570004991e+17
19138.0	6.432079266971647e+17
19139.0	6.430892841675434e+17
19140.0	6.429691386789887e+17
19141.0	6.42848744677922e+17
19142.0	6.427258631749631e+17
19143.0	6.426034259187028e+17
19144.0	6.424835274746538e+17
19145.0	6.423671025434623e+17
19146.0	6.421877180334079e+17
19147.0	6.421190392414208e+17
19148.0	6.420048142226772e+17
19149.0	6.418837630440788e+17
19150.0	6.417650166355284e+17
19151.0	6.416451324521129e+17
19152.0	6.415246774239231e+17
19153.0	6.413998699664723e+17
19154.0	6.412735892597417e+17
19155.0	6.411632156606463e+17
19156.0	6.410428940113235e+17
19157.0	6.409190936761684e+17
19158.0	6.407859577290751e+17
19159.0	6.406791395715754e+17
19160.0	6.405607295462057e+17
19161.0	6.404398762688511e+17
19162.0	6.402804016305491e+17
19163.0	6.401936920849065e+17
19164.0	6.400813289876137e+17
19165.0	6.399562160450217e+17
19166.0	6.398280574085801e+17
19167.0	6.397151301773993e+17
19168.0	6.395982925965993e+17
19169.0	6.394783342439082e+17
19170.0	6.393591201704617e+17
19171.0	6.392374981470889e+17
19172.0	6.391190528895657e+17
19173.0	6.389993879983444e+17
19174.0	6.388747958484992e+17
19175.0	6.387595387513512e+17
19176.0	6.386397944479743e+17
19177.0	6.385051010159956e+17
19178.0	6.383979027147433e+17
19179.0	6.382767354238292e+17
19180.0	6.381584724787199e+17
19181.0	6.380290264705705e+17
19182.0	6.379182488201897e+17
19183.0	6.378002395605673e+17
19184.0	6.376799461528916e+17
19185.0	6.375593880846336e+17
19186.0	6.37440394072337e+17
19187.0	6.373139757924351e+17
19188.0	6.372003883078996e+17
19189.0	6.370809424292522e+17
19190.0	6.369607291327827e+17
19191.0	6.368376548316502e+17
19192.0	6.36720923157026e+17
19193.0	6.366003236350633e+17
19194.0	6.36478467220002e+17
19195.0	6.363593553477631e+17
19196.0	6.362360294582954e+17
19197.0	6.361125316023635e+17
19198.0	6.359734959472639e+17
19199.0	6.355927652018858e+17
19200.0	6.355250370489002e+17
19201.0	6.356172903459498e+17
19202.0	6.355147631012521e+17
19203.0	6.353984951069353e+17
19204.0	6.35279408959761e+17
19205.0	6.351612986174122e+17
19206.0	6.350423141122045e+17
19207.0	6.349121138283859e+17
19208.0	6.347852323575124e+17
19209.0	6.346834491823444e+17
19210.0	6.345643326264659e+17
19211.0	6.344454825487017e+17
19212.0	6.343254932979711e+17
19213.0	6.341958057678163e+17
19214.0	6.340751229889193e+17
19215.0	6.33964644602129e+17
19216.0	6.338459801922218e+17
19217.0	6.337239161591124e+17
19218.0	6.335390350136659e+17
19219.0	6.334684704626003e+17
19220.0	6.333584377905151e+17
19221.0	6.332159802124969e+17
19222.0	6.331184736195924e+17
19223.0	6.330000749188436e+17
19224.0	6.328775061012479e+17
19225.0	6.327507515779753e+17
19226.0	6.32640606638353e+17
19227.0	6.325209384615935e+17
19228.0	6.324038126622038e+17
19229.0	6.322838315204608e+17
19230.0	6.321637523718144e+17
19231.0	6.320428012273663e+17
19232.0	6.319234129504938e+17
19233.0	6.317976273114452e+17
19234.0	6.316825688145919e+17
19235.0	6.315614514358954e+17
19236.0	6.314443259161257e+17
19237.0	6.31323101303057e+17
19238.0	6.311957204303872e+17
19239.0	6.310845783648938e+17
19240.0	6.309640335086931e+17
19241.0	6.308422518221482e+17
19242.0	6.307228939539795e+17
19243.0	6.305886148493311e+17
19244.0	6.304843950631594e+17
19245.0	6.303636033721684e+17
19246.0	6.302426615250943e+17
19247.0	6.301236717071017e+17
19248.0	6.300036679860223e+17
19249.0	6.29883243995682e+17
19250.0	6.297605862588415e+17
19251.0	6.296331043733503e+17
19252.0	6.29493595111424e+17
19253.0	6.293997071542953e+17
19254.0	6.292815938060287e+17
19255.0	6.291422316942675e+17
19256.0	6.290386570619562e+17
19257.0	6.289202375294976e+17
19258.0	6.287995990005075e+17
19259.0	6.286715546588499e+17
19260.0	6.285480081489919e+17
19261.0	6.284361234819754e+17
19262.0	6.283107398669652e+17
19263.0	6.28187388322338e+17
19264.0	6.280271677969747e+17
19265.0	6.279352208239274e+17
19266.0	6.27812787622161e+17
19267.0	6.277121459268265e+17
19268.0	6.275906648320681e+17
19269.0	6.274699486385491e+17
19270.0	6.273469469687807e+17
19271.0	6.271985266982911e+17
19272.0	6.271023042614612e+17
19273.0	6.269471644363433e+17
19274.0	6.268171558322173e+17
19275.0	6.267417311313919e+17
19276.0	6.266185876242432e+17
19277.0	6.264919829774335e+17
19278.0	6.26367309947426e+17
19279.0	6.262433933601449e+17
19280.0	6.261172082136403e+17
19281.0	6.26000358609169e+17
19282.0	6.258798786248701e+17
19283.0	6.257549879803904e+17
19284.0	6.256305872306176e+17
19285.0	6.254998698590208e+17
19286.0	6.253857413791744e+17
19287.0	6.252655466774527e+17
19288.0	6.250095553019901e+17
19289.0	6.24729282611336e+17
19290.0	6.248969103474687e+17
19291.0	6.247518879525546e+17
19292.0	6.246539809434281e+17
19293.0	6.245305241217706e+17
19294.0	6.244066109598378e+17
19295.0	6.242842893265578e+17
19296.0	6.241584953688063e+17
19297.0	6.240354507773268e+17
19298.0	6.239101978847913e+17
19299.0	6.237870382994772e+17
19300.0	6.236639204474879e+17
19301.0	6.235394874714793e+17
19302.0	6.234137996296191e+17
19303.0	6.232736986912084e+17
19304.0	6.23149675848226e+17
19305.0	6.230252129528489e+17
19306.0	6.229005334216701e+17
19307.0	6.227709097847466e+17
19308.0	6.226466091390291e+17
19309.0	6.225131156275199e+17
19310.0	6.223818029443753e+17
19311.0	6.222656275043668e+17
19312.0	6.221429462794239e+17
19313.0	6.220159526109183e+17
19314.0	6.213477694352037e+17
19315.0	6.212681423213917e+17
19316.0	6.216301810111827e+17
19317.0	6.215064505810944e+17
19318.0	6.213786256714408e+17
19319.0	6.212357427210921e+17
19320.0	6.211044196919977e+17
19321.0	6.209718740232873e+17
19322.0	6.208332506682708e+17
19323.0	6.207060163865257e+17
19324.0	6.205787579875327e+17
19325.0	6.204430433124351e+17
19326.0	6.203179203035135e+17
19327.0	6.201868587892735e+17
19328.0	6.200539048749737e+17
19329.0	6.199195895595007e+17
19330.0	6.197645048894806e+17
19331.0	6.196285693842771e+17
19332.0	6.194972681655635e+17
19333.0	6.193629912978772e+17
19334.0	6.192295165209258e+17
19335.0	6.190894703181823e+17
19336.0	6.189594828952916e+17
19337.0	6.188157108223999e+17
19338.0	6.186344997628585e+17
19339.0	6.185172619056468e+17
19340.0	6.183693785759744e+17
19341.0	6.18234804052514e+17
19342.0	6.180720056380073e+17
19343.0	6.179626455924736e+17
19344.0	6.178073520461139e+17
19345.0	6.174911094237862e+17
19346.0	6.174308952965119e+17
19347.0	6.173695489168724e+17
19348.0	6.172370400881321e+17
19349.0	6.170848575968596e+17
19350.0	6.169336695051604e+17
19351.0	6.167883521807699e+17
19352.0	6.166368051265535e+17
19353.0	6.164994336314708e+17
19354.0	6.163517097552553e+17
19355.0	6.161933468172287e+17
19356.0	6.160523581543764e+17
19357.0	6.159013033716393e+17
19358.0	6.157485248697683e+17
19359.0	6.155911244546047e+17
19360.0	6.154339719228074e+17
19361.0	6.152808798967124e+17
19362.0	6.15126209204497e+17
19363.0	6.149448587542527e+17
19364.0	6.147842418671615e+17
19365.0	6.146221564843348e+17
19366.0	6.144585085135529e+17
19367.0	6.14293241541427e+17
19368.0	6.141263014614356e+17
19369.0	6.139535004707498e+17
19370.0	6.1378342696605e+17
19371.0	6.135969507267924e+17
19372.0	6.13405710806767e+17
19373.0	6.132279008384339e+17
19374.0	6.130507681802921e+17
19375.0	6.128704656769023e+17
19376.0	6.126876373636435e+17
19377.0	6.12500957700642e+17
19378.0	6.122840163439956e+17
19379.0	6.120695796159827e+17
19380.0	6.118749883771561e+17
19381.0	6.116765088088063e+17
19382.0	6.114547969206953e+17
19383.0	6.111958881271808e+17
19384.0	6.109735704417619e+17
19385.0	6.107622846846294e+17
19386.0	6.105469995188223e+17
19387.0	6.102607429544618e+17
19388.0	6.100077298843647e+17
19389.0	6.097774165972308e+17
19390.0	6.095018736134825e+17
19391.0	6.087976010383354e+17
19392.0	6.089176445353983e+17
19393.0	6.086304276152321e+17
19394.0	6.082825967108095e+17
19395.0	6.079889578917887e+17
19396.0	6.075679233802237e+17
19397.0	6.072763429857962e+17
19398.0	6.069241881733801e+17
19399.0	6.065479079340714e+17
19400.0	6.063054234058751e+17
19401.0	6.060166415908863e+17
19402.0	6.056509052026879e+17
19403.0	6.053159146706259e+17
19404.0	6.049893443436544e+17
19405.0	6.046481759513257e+17
19406.0	6.042834118027946e+17
19407.0	6.038108441848489e+17
19408.0	6.033690113780394e+17
19409.0	6.030322570013353e+17
19410.0	6.025220863295487e+17
19411.0	6.020038959387988e+17
19412.0	6.015484185018367e+17
19413.0	6.009048357579433e+17
19414.0	6.00338540195567e+17
19415.0	5.997167736345943e+17
19416.0	5.98983215030818e+17
19417.0	5.983243223782735e+17
19418.0	5.975083119367508e+17
19419.0	5.966399873395369e+17
19420.0	5.957818981023743e+17
19421.0	5.945396273261226e+17
19422.0	5.934997880613542e+17
19423.0	5.923904110111396e+17
19424.0	5.909401776248148e+17
19425.0	5.897849778034006e+17
19426.0	5.888658399122772e+17
19427.0	5.878232242279763e+17
19428.0	5.868693578492584e+17
19429.0	5.856426025025535e+17
19430.0	5.843897647366144e+17
19431.0	5.82934015770624e+17
19432.0	5.813868865519613e+17
19433.0	5.795882498086232e+17
19434.0	5.775291972583423e+17
19435.0	5.7517106336017075e+17
19436.0	5.724984071334567e+17
19437.0	5.695871548478798e+17
19438.0	5.658282580508666e+17
19439.0	5.634460689803947e+17
19440.0	5.608324870089386e+17
19441.0	5.578783546059434e+17
19442.0	5.54444968165376e+17
19443.0	5.5034134473823584e+17
19444.0	5.455261075155625e+17
19445.0	5.397108335749805e+17
19446.0	5.324547421110271e+17
19447.0	5.233263605273937e+17
19448.0	5.112499541464411e+17
19449.0	4.937524347316906e+17
19450.0	4.62732199251148e+17
19451.0	4.4164439147370016e+17
19452.0	4.809973203380906e+17
19453.0	5.033849478184967e+17
19454.0	5.1737632863245594e+17
19455.0	5.2760200788049926e+17
19456.0	5.354151591193261e+17
19457.0	5.417071563243516e+17
19458.0	5.4551634443414374e+17
19459.0	5.509489865610584e+17
19460.0	5.5448530248007654e+17
19461.0	5.574908850121386e+17
19462.0	5.600260331492694e+17
19463.0	5.6261198877818886e+17
19464.0	5.6545390439519514e+17
19465.0	5.682667134298797e+17
19466.0	5.708432678759081e+17
19467.0	5.731378243742384e+17
19468.0	5.7514072574962304e+17
19469.0	5.76789859183275e+17
19470.0	5.782558831454886e+17
19471.0	5.79510020726238e+17
19472.0	5.807122304466943e+17
19473.0	5.816482966885715e+17
19474.0	5.825207344999082e+17
19475.0	5.832282524177747e+17
19476.0	5.840014934015999e+17
19477.0	5.848994033609384e+17
19478.0	5.859419183819432e+17
19479.0	5.868912525355694e+17
19480.0	5.879600467585706e+17
19481.0	5.887710250139653e+17
19482.0	5.894552623775745e+17
19483.0	5.903098673364993e+17
19484.0	5.90749825708851e+17
19485.0	5.913764565439827e+17
19486.0	5.917315697388205e+17
19487.0	5.922742278116691e+17
19488.0	5.925634799479465e+17
19489.0	5.929845485731839e+17
19490.0	5.931728442316115e+17
19491.0	5.935051860606975e+17
19492.0	5.938752892086954e+17
19493.0	5.940663714927956e+17
19494.0	5.942275561488383e+17
19495.0	5.94417193914641e+17
19496.0	5.945872428127571e+17
19497.0	5.947362195275773e+17
19498.0	5.947768183630506e+17
19499.0	5.943252020625404e+17
19500.0	5.950758550416041e+17
19501.0	5.951859067278676e+17
19502.0	5.95256428007697e+17
19503.0	5.953196976155305e+17
19504.0	5.954622248889001e+17
19505.0	5.955268050070185e+17
19506.0	5.956734164839081e+17
19507.0	5.957821015960234e+17
19508.0	5.958588090548221e+17
19509.0	5.960112845881343e+17
19510.0	5.960094697127936e+17
19511.0	5.951163590159009e+17
19512.0	5.960580025636179e+17
19513.0	5.959728882515964e+17
19514.0	5.960389044294995e+17
19515.0	5.962024504786944e+17
19516.0	5.962579288173226e+17
19517.0	5.962434960774484e+17
19518.0	5.962337933241001e+17
19519.0	5.962621354246143e+17
19520.0	5.962577977453226e+17
19521.0	5.962497825002836e+17
19522.0	5.962177246658557e+17
19523.0	5.961880809330004e+17
19524.0	5.961865026164052e+17
19525.0	5.961621431473492e+17
19526.0	5.961218742637908e+17
19527.0	5.960778843335338e+17
19528.0	5.960313587367935e+17
19529.0	5.959838107784532e+17
19530.0	5.959339172954112e+17
19531.0	5.959058155285161e+17
19532.0	5.958605185832276e+17
19533.0	5.958046385001812e+17
19534.0	5.957468397327699e+17
19535.0	5.9568658331293e+17
19536.0	5.95623025975842e+17
19537.0	5.955639370405203e+17
19538.0	5.954849183804074e+17
19539.0	5.953888582631424e+17
19540.0	5.95382362055202e+17
19541.0	5.953201069096959e+17
19542.0	5.952501577329321e+17
19543.0	5.951773715289427e+17
19544.0	5.951061705621503e+17
19545.0	5.949864016521897e+17
19546.0	5.948827254478163e+17
19547.0	5.948833989132287e+17
19548.0	5.948082187403263e+17
19549.0	5.947215346401279e+17
19550.0	5.946525681188863e+17
19551.0	5.945733316345855e+17
19552.0	5.944928903364608e+17
19553.0	5.944097094587734e+17
19554.0	5.943323646055763e+17
19555.0	5.942576151876948e+17
19556.0	5.941757680287744e+17
19557.0	5.940913750671359e+17
19558.0	5.940110803599359e+17
19559.0	5.939408440131583e+17
19560.0	5.938513785301674e+17
19561.0	5.937654083704147e+17
19562.0	5.93680213807377e+17
19563.0	5.935931864733012e+17
19564.0	5.935048092024831e+17
19565.0	5.934237470774611e+17
19566.0	5.933535238029311e+17
19567.0	5.93266134290705e+17
19568.0	5.931734139579049e+17
19569.0	5.930831113617407e+17
19570.0	5.929939405985108e+17
19571.0	5.92902027809041e+17
19572.0	5.928069332904618e+17
19573.0	5.92716151984401e+17
19574.0	5.926345118842879e+17
19575.0	5.925534745056595e+17
19576.0	5.924593215384233e+17
19577.0	5.923635600556032e+17
19578.0	5.922677299959126e+17
19579.0	5.921735296330409e+17
19580.0	5.920786688070996e+17
19581.0	5.919849877689684e+17
19582.0	5.918939984254292e+17
19583.0	5.917980179999401e+17
19584.0	5.917015661346815e+17
19585.0	5.915967239837012e+17
19586.0	5.915129285006675e+17
19587.0	5.914299408405843e+17
19588.0	5.912966141924694e+17
19589.0	5.912425869432148e+17
19590.0	5.911390668368553e+17
19591.0	5.910495758385151e+17
19592.0	5.90951981584657e+17
19593.0	5.908517028364288e+17
19594.0	5.907312882832724e+17
19595.0	5.906535836286975e+17
19596.0	5.905492021521066e+17
19597.0	5.904560570062163e+17
19598.0	5.903221654552575e+17
19599.0	5.902575449320105e+17
19600.0	5.901588773557588e+17
19601.0	5.90052585513506e+17
19602.0	5.899513461997567e+17
19603.0	5.898316779530921e+17
19604.0	5.897627435182762e+17
19605.0	5.896409085640703e+17
19606.0	5.895672057648467e+17
19607.0	5.894674487880361e+17
19608.0	5.893649269959337e+17
19609.0	5.892607333542569e+17
19610.0	5.891631200163158e+17
19611.0	5.890609974520489e+17
19612.0	5.889616611639295e+17
19613.0	5.888590610781524e+17
19614.0	5.887544830984191e+17
19615.0	5.886563274369705e+17
19616.0	5.885500309809833e+17
19617.0	5.884492490560852e+17
19618.0	5.882961217978367e+17
19619.0	5.881802141641384e+17
19620.0	5.880871549315753e+17
19621.0	5.880403181873833e+17
19622.0	5.879412924175699e+17
19623.0	5.878390695395327e+17
19624.0	5.877356097612457e+17
19625.0	5.876338066631337e+17
19626.0	5.875308058116095e+17
19627.0	5.874268580959574e+17
19628.0	5.873169009213437e+17
19629.0	5.872025943233876e+17
19630.0	5.870530387946153e+17
19631.0	5.867225192508074e+17
19632.0	5.869005396333908e+17
19633.0	5.868035449552895e+17
19634.0	5.867097097065812e+17
19635.0	5.866068686580393e+17
19636.0	5.865049113493504e+17
19637.0	5.863679075549184e+17
19638.0	5.863003694738089e+17
19639.0	5.861967069009236e+17
19640.0	5.86083445243904e+17
19641.0	5.859065896894465e+17
19642.0	5.858860931743744e+17
19643.0	5.857824680006995e+17
19644.0	5.856727559831551e+17
19645.0	5.855529071717033e+17
19646.0	5.854700182175744e+17
19647.0	5.853691215085567e+17
19648.0	5.8526546788352e+17
19649.0	5.851614829084672e+17
19650.0	5.850578561968809e+17
19651.0	5.849533484717395e+17
19652.0	5.848498696093695e+17
19653.0	5.847459855772329e+17
19654.0	5.84641332519458e+17
19655.0	5.845370362571433e+17
19656.0	5.84433567670818e+17
19657.0	5.843301043273727e+17
19658.0	5.842260356759552e+17
19659.0	5.841218230201002e+17
19660.0	5.840178410509652e+17
19661.0	5.839136900513792e+17
19662.0	5.838093730272596e+17
19663.0	5.837014021352105e+17
19664.0	5.835993759001257e+17
