# Flux units: erg / (cm m2 s)
# Wavelength units: Angstrom
wave	flux
19000.0	6.358357452171944e+17
19001.0	6.356772431680852e+17
19002.0	6.355997065652904e+17
19003.0	6.354784240009215e+17
19004.0	6.353590622180691e+17
19005.0	6.352393071493119e+17
19006.0	6.351212992178857e+17
19007.0	6.34977206071023e+17
19008.0	6.348573205594111e+17
19009.0	6.347553008954028e+17
19010.0	6.344286596846927e+17
19011.0	6.345156064881322e+17
19012.0	6.343288168644605e+17
19013.0	6.342862882996223e+17
19014.0	6.341447409554772e+17
19015.0	6.34034387489041e+17
19016.0	6.339104870498301e+17
19017.0	6.337964881739775e+17
19018.0	6.33685208465408e+17
19019.0	6.33570274189858e+17
19020.0	6.334398455960916e+17
19021.0	6.333304011052372e+17
19022.0	6.332169179889663e+17
19023.0	6.330828627203412e+17
19024.0	6.329704452369065e+17
19025.0	6.328582016073727e+17
19026.0	6.327274912961875e+17
19027.0	6.325820919032489e+17
19028.0	6.325048425403734e+17
19029.0	6.323790441786025e+17
19030.0	6.322716021882879e+17
19031.0	6.32155231363618e+17
19032.0	6.320347993341951e+17
19033.0	6.318782096779944e+17
19034.0	6.317920102995284e+17
19035.0	6.316654377391444e+17
19036.0	6.283267166000439e+17
19037.0	6.314377821028351e+17
19038.0	6.313149748390569e+17
19039.0	6.312038505993556e+17
19040.0	6.310872336389459e+17
19041.0	6.309668549470889e+17
19042.0	6.30812721754931e+17
19043.0	6.30731579728418e+17
19044.0	6.306094643150847e+17
19045.0	6.304944236440233e+17
19046.0	6.303503936214355e+17
19047.0	6.302588049817599e+17
19048.0	6.300473125153448e+17
19049.0	6.299922960394921e+17
19050.0	6.298831535385258e+17
19051.0	6.292313198996127e+17
19052.0	6.296371592866476e+17
19053.0	6.295415421577897e+17
19054.0	6.294276884048553e+17
19055.0	6.292065631600644e+17
19056.0	6.291822994609491e+17
19057.0	6.290728584653481e+17
19058.0	6.289448799043583e+17
19059.0	6.288378658029568e+17
19060.0	6.287108977197055e+17
19061.0	6.286041134661632e+17
19062.0	6.28482383159842e+17
19063.0	6.28367374225681e+17
19064.0	6.281942428636502e+17
19065.0	6.280571359592445e+17
19066.0	6.279879396600489e+17
19067.0	6.278899199639551e+17
19068.0	6.277766301351935e+17
19069.0	6.276592980459519e+17
19070.0	6.275293138386944e+17
19071.0	6.274199894447444e+17
19072.0	6.273055974927018e+17
19073.0	6.271847018528768e+17
19074.0	6.270707540077225e+17
19075.0	6.269531034309971e+17
19076.0	6.268257555535188e+17
19077.0	6.267131011618132e+17
19078.0	6.265794542785875e+17
19079.0	6.264811539835562e+17
19080.0	6.26358386495761e+17
19081.0	6.262255153490601e+17
19082.0	6.261052977184767e+17
19083.0	6.259685017518077e+17
19084.0	6.257965183008765e+17
19085.0	6.257696497292628e+17
19086.0	6.254985824873129e+17
19087.0	6.254403348594687e+17
19088.0	6.253919876765011e+17
19089.0	6.251775918429526e+17
19090.0	6.251729281963348e+17
19091.0	6.250602686316544e+17
19092.0	6.249029976107689e+17
19093.0	6.248327082759508e+17
19094.0	6.247152507071146e+17
19095.0	6.24599229407778e+17
19096.0	6.244733798055935e+17
19097.0	6.243646206640128e+17
19098.0	6.242454977467732e+17
19099.0	6.241273086913193e+17
19100.0	6.240056666750976e+17
19101.0	6.23893902664226e+17
19102.0	6.237355153992362e+17
19103.0	6.236581927059455e+17
19104.0	6.235439658696704e+17
19105.0	6.234236803612671e+17
19106.0	6.232903760827731e+17
19107.0	6.231833733059924e+17
19108.0	6.230745481041235e+17
19109.0	6.2266283186804e+17
19110.0	6.228387174896979e+17
19111.0	6.227215271679315e+17
19112.0	6.226060307857408e+17
19113.0	6.224878055194623e+17
19114.0	6.223700099596285e+17
19115.0	6.222286501008726e+17
19116.0	6.221284158122665e+17
19117.0	6.22013560599347e+17
19118.0	6.218564070888788e+17
19119.0	6.202033102476604e+17
19120.0	6.216339802117459e+17
19121.0	6.215349616421546e+17
19122.0	6.214361665590612e+17
19123.0	6.213167891873791e+17
19124.0	6.211836603006976e+17
19125.0	6.210825668089171e+17
19126.0	6.209637070842537e+17
19127.0	6.201393559896052e+17
19128.0	6.20559578064486e+17
19129.0	6.205803065245695e+17
19130.0	6.20495154324002e+17
19131.0	6.203774250341716e+17
19132.0	6.202659823768915e+17
19133.0	6.200221714000557e+17
19134.0	6.199460606509056e+17
19135.0	6.19914307183138e+17
19136.0	6.198011487059967e+17
19137.0	6.196161684351657e+17
19138.0	6.195520707319124e+17
19139.0	6.194507575984125e+17
19140.0	6.193342396934826e+17
19141.0	6.192176385316179e+17
19142.0	6.190893033149779e+17
19143.0	6.18957805383407e+17
19144.0	6.18853776158447e+17
19145.0	6.187497908338687e+17
19146.0	6.183854389854209e+17
19147.0	6.184801558069248e+17
19148.0	6.183990808193706e+17
19149.0	6.182819004940287e+17
19150.0	6.181642583758164e+17
19151.0	6.180506677455529e+17
19152.0	6.179309142846121e+17
19153.0	6.178103685196457e+17
19154.0	6.176508274715305e+17
19155.0	6.175871440257024e+17
19156.0	6.174701002249558e+17
19157.0	6.173503554322432e+17
19158.0	6.170347987883345e+17
19159.0	6.17113494556945e+17
19160.0	6.169954901207721e+17
19161.0	6.168725148052138e+17
19162.0	6.163169607854767e+17
19163.0	6.166547348673876e+17
19164.0	6.165417470984191e+17
19165.0	6.164131483396777e+17
19166.0	6.162526491727188e+17
19167.0	6.161498367852543e+17
19168.0	6.160491276315306e+17
19169.0	6.159375727766185e+17
19170.0	6.158449357007529e+17
19171.0	6.156997263796906e+17
19172.0	6.156092623727273e+17
19173.0	6.154962537021439e+17
19174.0	6.153560986572118e+17
19175.0	6.152640777246036e+17
19176.0	6.151472273511764e+17
19177.0	6.149706284881235e+17
19178.0	6.149116786638847e+17
19179.0	6.147586378082988e+17
19180.0	6.146623010067798e+17
19181.0	6.145179228569599e+17
19182.0	6.144403396274857e+17
19183.0	6.143358658762067e+17
19184.0	6.141955396337663e+17
19185.0	6.14099511812642e+17
19186.0	6.13989671309585e+17
19187.0	6.138416947265536e+17
19188.0	6.137552838852607e+17
19189.0	6.136356849844223e+17
19190.0	6.135185561791146e+17
19191.0	6.133933169180672e+17
19192.0	6.132956851950932e+17
19193.0	6.131692160942079e+17
19194.0	6.130521146916863e+17
19195.0	6.129455628025855e+17
19196.0	6.128240937314986e+17
19197.0	6.127119734844073e+17
19198.0	6.125968589236905e+17
19199.0	6.098400640499706e+17
19200.0	6.107093657802079e+17
19201.0	6.122486549359273e+17
19202.0	6.121360124979882e+17
19203.0	6.12014936363281e+17
19204.0	6.118928231869097e+17
19205.0	6.11784922898978e+17
19206.0	6.116666108106068e+17
19207.0	6.115226977391956e+17
19208.0	6.113465104072701e+17
19209.0	6.113189246795776e+17
19210.0	6.112067842998271e+17
19211.0	6.110970202729129e+17
19212.0	6.109801178202112e+17
19213.0	6.108067042514259e+17
19214.0	6.106798226407425e+17
19215.0	6.106263417694889e+17
19216.0	6.105160337413462e+17
19217.0	6.104008901001215e+17
19218.0	6.099512340774906e+17
19219.0	6.101097234038781e+17
19220.0	6.100463046186324e+17
19221.0	6.098026271604736e+17
19222.0	6.098258005502633e+17
19223.0	6.097007017984e+17
19224.0	6.095715700834301e+17
19225.0	6.094167591616511e+17
19226.0	6.093534370551124e+17
19227.0	6.09238514803234e+17
19228.0	6.091334388897108e+17
19229.0	6.090180608567978e+17
19230.0	6.088925922372266e+17
19231.0	6.087773224872618e+17
19232.0	6.086650635485183e+17
19233.0	6.085263161819133e+17
19234.0	6.084294611042303e+17
19235.0	6.083104461903188e+17
19236.0	6.08210559050274e+17
19237.0	6.080872741950803e+17
19238.0	6.079393108940116e+17
19239.0	6.078648373914281e+17
19240.0	6.076959220039679e+17
19241.0	6.07611695276578e+17
19242.0	6.075100227611306e+17
19243.0	6.073313583431679e+17
19244.0	6.072870502050474e+17
19245.0	6.071698124177408e+17
19246.0	6.070495402612052e+17
19247.0	6.069360772076884e+17
19248.0	6.068253003961684e+17
19249.0	6.067089684387156e+17
19250.0	6.065862438027263e+17
19251.0	6.0644437028154e+17
19252.0	6.062290840671572e+17
19253.0	6.062380097557844e+17
19254.0	6.061243161553578e+17
19255.0	6.05931140494131e+17
19256.0	6.058915520664916e+17
19257.0	6.05784787526178e+17
19258.0	6.056701513258324e+17
19259.0	6.055213147706707e+17
19260.0	6.0537768537402e+17
19261.0	6.053181977001983e+17
19262.0	6.051825885817514e+17
19263.0	6.050707476054015e+17
19264.0	6.047572686099794e+17
19265.0	6.04776482436983e+17
19266.0	6.046686807851007e+17
19267.0	6.046308772435283e+17
19268.0	6.045118459019263e+17
19269.0	6.043960731850068e+17
19270.0	6.042810896263849e+17
19271.0	6.040258628725423e+17
19272.0	6.040349901673811e+17
19273.0	6.024859574337516e+17
19274.0	6.030688007837001e+17
19275.0	6.037026284852564e+17
19276.0	6.035782189274452e+17
19277.0	6.034627247123113e+17
19278.0	6.033481556907348e+17
19279.0	6.032168314732543e+17
19280.0	6.030779077361664e+17
19281.0	6.02997679788305e+17
19282.0	6.028866750862675e+17
19283.0	6.027291547140095e+17
19284.0	6.02589181841681e+17
19285.0	6.024511515612499e+17
19286.0	6.024069644287999e+17
19287.0	6.023049272186196e+17
19288.0	6.014874069674666e+17
19289.0	5.997582260808314e+17
19290.0	6.019542779516243e+17
19291.0	6.017304775098372e+17
19292.0	6.01720131490065e+17
19293.0	6.016002088588628e+17
19294.0	6.014814075748351e+17
19295.0	6.013688383974057e+17
19296.0	6.012484028028244e+17
19297.0	6.011207196606463e+17
19298.0	6.010029184385023e+17
19299.0	6.008972619634006e+17
19300.0	6.007793644120746e+17
19301.0	6.006588795344212e+17
19302.0	6.005401770961577e+17
19303.0	6.003873061797887e+17
19304.0	6.002871041174186e+17
19305.0	6.00180579770914e+17
19306.0	6.000639679135743e+17
19307.0	5.99925798871586e+17
19308.0	5.998184660030804e+17
19309.0	5.996167180932435e+17
19310.0	5.994527617712124e+17
19311.0	5.994539077948756e+17
19312.0	5.993480407657129e+17
19313.0	5.992247089343146e+17
19314.0	5.967074428627569e+17
19315.0	5.968269868182243e+17
19316.0	5.988714090769065e+17
19317.0	5.987522127593472e+17
19318.0	5.986306653246804e+17
19319.0	5.985169618676394e+17
19320.0	5.983935365032618e+17
19321.0	5.982753529703082e+17
19322.0	5.981124246721876e+17
19323.0	5.979845243349674e+17
19324.0	5.979083257151487e+17
19325.0	5.977033760134484e+17
19326.0	5.976659618430976e+17
19327.0	5.975376285837993e+17
19328.0	5.974229903562068e+17
19329.0	5.973002812391423e+17
19330.0	5.970960449186474e+17
19331.0	5.969497215904426e+17
19332.0	5.968424986826067e+17
19333.0	5.967119233581055e+17
19334.0	5.965897725728084e+17
19335.0	5.964682066832042e+17
19336.0	5.963422642470911e+17
19337.0	5.962161368421716e+17
19338.0	5.960059968989864e+17
19339.0	5.959638335881215e+17
19340.0	5.957998528692223e+17
19341.0	5.957069736422057e+17
19342.0	5.95416817423701e+17
19343.0	5.954550817794732e+17
19344.0	5.953198560903167e+17
19345.0	5.942826904147259e+17
19346.0	5.94855454013304e+17
19347.0	5.949094896511657e+17
19348.0	5.948064500722345e+17
19349.0	5.94659758973474e+17
19350.0	5.945311973343231e+17
19351.0	5.943923881716394e+17
19352.0	5.94246965989649e+17
19353.0	5.941442414728532e+17
19354.0	5.940093458055167e+17
19355.0	5.938326188064768e+17
19356.0	5.937365510695594e+17
19357.0	5.93598275002914e+17
19358.0	5.934494019573076e+17
19359.0	5.932428973572096e+17
19360.0	5.931653449558698e+17
19361.0	5.930220547386025e+17
19362.0	5.929010366950057e+17
19363.0	5.927571489991338e+17
19364.0	5.926109891089748e+17
19365.0	5.924651776955732e+17
19366.0	5.923205385901396e+17
19367.0	5.921722048621225e+17
19368.0	5.920239524336979e+17
19369.0	5.918360608964608e+17
19370.0	5.915499831492607e+17
19371.0	5.914782853671593e+17
19372.0	5.912964969616724e+17
19373.0	5.911277842989055e+17
19374.0	5.909773063727785e+17
19375.0	5.908178736076116e+17
19376.0	5.906557727757652e+17
19377.0	5.904872724146858e+17
19378.0	5.903220937326591e+17
19379.0	5.901530374165844e+17
19380.0	5.899823569960959e+17
19381.0	5.898057305205417e+17
19382.0	5.895950583900842e+17
19383.0	5.894085762788009e+17
19384.0	5.892703582333609e+17
19385.0	5.890162310862166e+17
19386.0	5.887439787436714e+17
19387.0	5.885496924307455e+17
19388.0	5.883521662976e+17
19389.0	5.88153562018611e+17
19390.0	5.879490318172159e+17
19391.0	5.848199292693115e+17
19392.0	5.875218759985833e+17
19393.0	5.871791680170668e+17
19394.0	5.868892310208512e+17
19395.0	5.866557590732799e+17
19396.0	5.864214748987391e+17
19397.0	5.861884899797674e+17
19398.0	5.858024644848297e+17
19399.0	5.851482346400421e+17
19400.0	5.851652072407039e+17
19401.0	5.849091421853011e+17
19402.0	5.843902586858156e+17
19403.0	5.84049638838545e+17
19404.0	5.837540219158525e+17
19405.0	5.831014070179155e+17
19406.0	5.827762241667071e+17
19407.0	5.821725261081258e+17
19408.0	5.813944727197021e+17
19409.0	5.809455396552701e+17
19410.0	5.803737210333865e+17
19411.0	5.795614094087508e+17
19412.0	5.788654161799852e+17
19413.0	5.783380035633151e+17
19414.0	5.778346337457492e+17
19415.0	5.77332091953698e+17
19416.0	5.7673452107421e+17
19417.0	5.7619979387098426e+17
19418.0	5.756610258053803e+17
19419.0	5.7504176967516154e+17
19420.0	5.7440980039980365e+17
19421.0	5.7373847813707085e+17
19422.0	5.7297620497858554e+17
19423.0	5.7220558746200723e+17
19424.0	5.7142572346245114e+17
19425.0	5.706052582506494e+17
19426.0	5.6965343247073274e+17
19427.0	5.6866924330134176e+17
19428.0	5.6768458954287795e+17
19429.0	5.665453488384681e+17
19430.0	5.652477456853678e+17
19431.0	5.6333398186830624e+17
19432.0	5.6234769988102784e+17
19433.0	5.6039326627485024e+17
19434.0	5.579731113432409e+17
19435.0	5.547424742724945e+17
19436.0	5.509276238523051e+17
19437.0	5.487662309834751e+17
19438.0	5.4225023075177734e+17
19439.0	5.434815072086701e+17
19440.0	5.404856842627753e+17
19441.0	5.371347191114409e+17
19442.0	5.332682241561943e+17
19443.0	5.2834272119794374e+17
19444.0	5.209850556448766e+17
19445.0	5.13058253168094e+17
19446.0	5.05510902243874e+17
19447.0	4.9574679853137805e+17
19448.0	4.81056756491879e+17
19449.0	4.6136098410550586e+17
19450.0	4.205634074094238e+17
19451.0	4.082462864965618e+17
19452.0	4.4283733541737926e+17
19453.0	4.72737644823621e+17
19454.0	4.885885637449031e+17
19455.0	5.005016031035392e+17
19456.0	5.0869220374391475e+17
19457.0	5.157402163456676e+17
19458.0	5.194964540937648e+17
19459.0	5.295649910161416e+17
19460.0	5.3366162785129786e+17
19461.0	5.3701602380349434e+17
19462.0	5.399496345954986e+17
19463.0	5.4264841245818854e+17
19464.0	5.450436722382164e+17
19465.0	5.472481960438443e+17
19466.0	5.498860943529293e+17
19467.0	5.5338901347587405e+17
19468.0	5.559112690914649e+17
19469.0	5.575768472726185e+17
19470.0	5.593348263204181e+17
19471.0	5.6062571404328954e+17
19472.0	5.617099587540308e+17
19473.0	5.6261224463073274e+17
19474.0	5.635426904353449e+17
19475.0	5.639440010226342e+17
19476.0	5.650234538808657e+17
19477.0	5.6567860360642554e+17
19478.0	5.662657685574996e+17
19479.0	5.6680724397643085e+17
19480.0	5.67374881366562e+17
19481.0	5.67859792192034e+17
19482.0	5.682948613341184e+17
19483.0	5.6871435660602016e+17
19484.0	5.6908634698110285e+17
19485.0	5.694213341577214e+17
19486.0	5.697555562932906e+17
19487.0	5.700671837831166e+17
19488.0	5.7035207027807565e+17
19489.0	5.706053128465066e+17
19490.0	5.7051252176977805e+17
19491.0	5.71453259976977e+17
19492.0	5.7204077990597965e+17
19493.0	5.724626427925849e+17
19494.0	5.7278255410271565e+17
19495.0	5.731602281092434e+17
19496.0	5.732452172911954e+17
19497.0	5.7360059472718483e+17
19498.0	5.7381951971000365e+17
19499.0	5.693134351979803e+17
19500.0	5.7416698375263584e+17
19501.0	5.7438753451758925e+17
19502.0	5.744337919584938e+17
19503.0	5.7447718678691834e+17
19504.0	5.746266499011923e+17
19505.0	5.747630203557204e+17
19506.0	5.747853581702484e+17
19507.0	5.7478911437919565e+17
19508.0	5.7480753541283834e+17
19509.0	5.748364517834749e+17
19510.0	5.749096272887806e+17
19511.0	5.6984014897369965e+17
19512.0	5.744289442518327e+17
19513.0	5.7350028004774976e+17
19514.0	5.740516403926347e+17
19515.0	5.74672319999728e+17
19516.0	5.748798688417109e+17
19517.0	5.748224860793513e+17
19518.0	5.74926923689711e+17
19519.0	5.74921658020659e+17
19520.0	5.748700204761087e+17
19521.0	5.7484070718450336e+17
19522.0	5.747779728397653e+17
19523.0	5.7474737930676896e+17
19524.0	5.746959441373866e+17
19525.0	5.7463104881732256e+17
19526.0	5.745885029160277e+17
19527.0	5.745270736988842e+17
19528.0	5.744703710429183e+17
19529.0	5.744088687050751e+17
19530.0	5.7435010070391456e+17
19531.0	5.742891738944851e+17
19532.0	5.742232129415849e+17
19533.0	5.7415752692531194e+17
19534.0	5.741339313788243e+17
19535.0	5.7411923446770336e+17
19536.0	5.7404170779142816e+17
19537.0	5.739845356530345e+17
19538.0	5.7389878003193184e+17
19539.0	5.735874431374692e+17
19540.0	5.7375012802614605e+17
19541.0	5.736855295929002e+17
19542.0	5.736051504403796e+17
19543.0	5.73526028530483e+17
19544.0	5.7344845550714874e+17
19545.0	5.7323213567644896e+17
19546.0	5.7287706491398835e+17
19547.0	5.732072930235732e+17
19548.0	5.7312567941748045e+17
19549.0	5.729991406212436e+17
19550.0	5.729584380466516e+17
19551.0	5.7287483095777274e+17
19552.0	5.727884273167018e+17
19553.0	5.7269569964386976e+17
19554.0	5.725977574724949e+17
19555.0	5.7252352045875174e+17
19556.0	5.724411162263551e+17
19557.0	5.7235257866321914e+17
19558.0	5.7226374540165114e+17
19559.0	5.7217043989353805e+17
19560.0	5.72075104412194e+17
19561.0	5.719845500179796e+17
19562.0	5.7190261037465594e+17
19563.0	5.7181464393591456e+17
19564.0	5.7172323082786125e+17
19565.0	5.716307743167828e+17
19566.0	5.715271974475092e+17
19567.0	5.7144772901819725e+17
19568.0	5.713437156616873e+17
19569.0	5.712524314585769e+17
19570.0	5.7116828470258336e+17
19571.0	5.710750943980202e+17
19572.0	5.709654590663338e+17
19573.0	5.708817833306794e+17
19574.0	5.70750741459763e+17
19575.0	5.706957097446058e+17
19576.0	5.706011196609876e+17
19577.0	5.7048447424921594e+17
19578.0	5.703942611315369e+17
19579.0	5.703042038322516e+17
19580.0	5.7021077899618976e+17
19581.0	5.7011689586251085e+17
19582.0	5.700286224007166e+17
19583.0	5.699317390114815e+17
19584.0	5.698340081631232e+17
19585.0	5.696902968377342e+17
19586.0	5.6958158697922566e+17
19587.0	5.695237267652607e+17
19588.0	5.6925029232803846e+17
19589.0	5.693371286115668e+17
19590.0	5.6921096520553805e+17
19591.0	5.6914976506729805e+17
19592.0	5.6905360987914234e+17
19593.0	5.689479439668564e+17
19594.0	5.6874979826510483e+17
19595.0	5.6874999896255136e+17
19596.0	5.68281390837487e+17
19597.0	5.6855514830602234e+17
19598.0	5.683232850837502e+17
19599.0	5.683612482185898e+17
19600.0	5.682655598564692e+17
19601.0	5.6813917464166394e+17
19602.0	5.680509766074366e+17
19603.0	5.67758855497318e+17
19604.0	5.678504000968021e+17
19605.0	5.6764146671506797e+17
19606.0	5.676653822170452e+17
19607.0	5.675674074699092e+17
19608.0	5.674635013477716e+17
19609.0	5.673453572412756e+17
19610.0	5.672704910120276e+17
19611.0	5.671657065327273e+17
19612.0	5.6707153615912954e+17
19613.0	5.6696602529628154e+17
19614.0	5.668541283958783e+17
19615.0	5.667701290696703e+17
19616.0	5.666442706594473e+17
19617.0	5.6657062965630285e+17
19618.0	5.6633364064501734e+17
19619.0	5.661459854568099e+17
19620.0	5.660702015138469e+17
19621.0	5.662382949575338e+17
19622.0	5.661418055532543e+17
19623.0	5.6604217070059514e+17
19624.0	5.659371503615999e+17
19625.0	5.658402025198932e+17
19626.0	5.6573474883938963e+17
19627.0	5.6563830179758074e+17
19628.0	5.6546950531863904e+17
19629.0	5.653983871893502e+17
19630.0	5.653056277097131e+17
19631.0	5.6235261679370035e+17
19632.0	5.6512991041945594e+17
19633.0	5.6501141231370234e+17
19634.0	5.6493109747384326e+17
19635.0	5.648140981327188e+17
19636.0	5.6472420133546643e+17
19637.0	5.6447186746299757e+17
19638.0	5.6452108622233594e+17
19639.0	5.6442103578405536e+17
19640.0	5.642994675875839e+17
19641.0	5.6389315759964294e+17
19642.0	5.641173219672063e+17
19643.0	5.6401014757348685e+17
19644.0	5.6389367923124896e+17
19645.0	5.6370550506782694e+17
19646.0	5.6371619250394445e+17
19647.0	5.636155792599722e+17
19648.0	5.635122227314687e+17
19649.0	5.6340947186046285e+17
19650.0	5.633110781722623e+17
19651.0	5.632068743244458e+17
19652.0	5.631045512025428e+17
19653.0	5.6300522791676576e+17
19654.0	5.629011877167103e+17
19655.0	5.6279674542271136e+17
19656.0	5.62698939146786e+17
19657.0	5.6259716946329594e+17
19658.0	5.624981749410474e+17
19659.0	5.623959868757332e+17
19660.0	5.622969585893375e+17
19661.0	5.621936033890302e+17
19662.0	5.6209386018351776e+17
