# Flux units: erg / (cm m2 s)
# Wavelength units: Angstrom
wave	flux
19000.0	8.214012546252799e+17
19001.0	8.212536117690365e+17
19002.0	8.211154950160383e+17
19003.0	8.209763741466621e+17
19004.0	8.208473229623296e+17
19005.0	8.20703781995588e+17
19006.0	8.205599193257298e+17
19007.0	8.204124498340522e+17
19008.0	8.202694513306281e+17
19009.0	8.20120273778551e+17
19010.0	8.199673337959764e+17
19011.0	8.198339304620031e+17
19012.0	8.196786429274794e+17
19013.0	8.195551422054397e+17
19014.0	8.194065294863017e+17
19015.0	8.192625690891603e+17
19016.0	8.191177484402685e+17
19017.0	8.189732125846185e+17
19018.0	8.188268966663508e+17
19019.0	8.186812851115348e+17
19020.0	8.185344718886228e+17
19021.0	8.183898287986004e+17
19022.0	8.182435113424212e+17
19023.0	8.18094597472256e+17
19024.0	8.17948706017553e+17
19025.0	8.178004210133676e+17
19026.0	8.176509718102016e+17
19027.0	8.174922729084246e+17
19028.0	8.173602064389459e+17
19029.0	8.172132120221012e+17
19030.0	8.170665393083731e+17
19031.0	8.169184803771731e+17
19032.0	8.167697249118889e+17
19033.0	8.166150672220157e+17
19034.0	8.164640088042154e+17
19035.0	8.162551398749523e+17
19036.0	8.15068169319219e+17
19037.0	8.159764514428243e+17
19038.0	8.15871062983748e+17
19039.0	8.157304968970239e+17
19040.0	8.156187062523219e+17
19041.0	8.154846535002792e+17
19042.0	8.153311492440063e+17
19043.0	8.151874575619412e+17
19044.0	8.150382570810026e+17
19045.0	8.148880315121663e+17
19046.0	8.147376885028182e+17
19047.0	8.145874412634111e+17
19048.0	8.144329850399402e+17
19049.0	8.142823703795028e+17
19050.0	8.14127644741905e+17
19051.0	8.138303186403328e+17
19052.0	8.137657285956947e+17
19053.0	8.136829485536595e+17
19054.0	8.135391548101972e+17
19055.0	8.133778608925354e+17
19056.0	8.132397315566249e+17
19057.0	8.130902817942185e+17
19058.0	8.129381588620627e+17
19059.0	8.127897631282515e+17
19060.0	8.1263875602077e+17
19061.0	8.124886648094719e+17
19062.0	8.12337700483891e+17
19063.0	8.121866166206464e+17
19064.0	8.120318796584276e+17
19065.0	8.118760437885609e+17
19066.0	8.117303287742463e+17
19067.0	8.115825621860353e+17
19068.0	8.114313146051241e+17
19069.0	8.11279917706991e+17
19070.0	8.111274781048831e+17
19071.0	8.109760897351679e+17
19072.0	8.108250650116093e+17
19073.0	8.106734295973885e+17
19074.0	8.105217635647488e+17
19075.0	8.103698433572861e+17
19076.0	8.102172983383379e+17
19077.0	8.100650592239615e+17
19078.0	8.099128113015464e+17
19079.0	8.097614002825896e+17
19080.0	8.096088461759828e+17
19081.0	8.094542595096573e+17
19082.0	8.093026658986666e+17
19083.0	8.091446443769856e+17
19084.0	8.089851707872596e+17
19085.0	8.088438660836012e+17
19086.0	8.086662856835072e+17
19087.0	8.085242331354451e+17
19088.0	8.083728089743357e+17
19089.0	8.082144713419434e+17
19090.0	8.080746196850003e+17
19091.0	8.079242343131817e+17
19092.0	8.077682527611562e+17
19093.0	8.076212583443113e+17
19094.0	8.074691361112064e+17
19095.0	8.073163693533866e+17
19096.0	8.071630065849683e+17
19097.0	8.070100551379625e+17
19098.0	8.06856429806114e+17
19099.0	8.067028682276863e+17
19100.0	8.065474376673962e+17
19101.0	8.063946444854612e+17
19102.0	8.062389215821821e+17
19103.0	8.060881211140777e+17
19104.0	8.059338455252992e+17
19105.0	8.057777693218132e+17
19106.0	8.056221490391722e+17
19107.0	8.054665722374826e+17
19108.0	8.053046213520042e+17
19109.0	8.050997424641364e+17
19110.0	8.049824716816384e+17
19111.0	8.048487361587881e+17
19112.0	8.046984399858344e+17
19113.0	8.045457488652969e+17
19114.0	8.043914752338602e+17
19115.0	8.042342510493693e+17
19116.0	8.040811701381802e+17
19117.0	8.039259933332819e+17
19118.0	8.037649790358868e+17
19119.0	8.035049244983293e+17
19120.0	8.034519431686826e+17
19121.0	8.032998170208936e+17
19122.0	8.031533101219837e+17
19123.0	8.02998730026735e+17
19124.0	8.028341472154964e+17
19125.0	8.026869907587071e+17
19126.0	8.02527587353668e+17
19127.0	8.023172232948392e+17
19128.0	8.021967291897172e+17
19129.0	8.020612635164671e+17
19130.0	8.019107189009068e+17
19131.0	8.017550498245289e+17
19132.0	8.015995019635369e+17
19133.0	8.014385560332968e+17
19134.0	8.012790072257194e+17
19135.0	8.01132078240017e+17
19136.0	8.00975643283729e+17
19137.0	8.008149699832488e+17
19138.0	8.006625854663336e+17
19139.0	8.005074736731475e+17
19140.0	8.003513393086464e+17
19141.0	8.001949268617897e+17
19142.0	8.000371223254356e+17
19143.0	7.998800635363325e+17
19144.0	7.997233809762986e+17
19145.0	7.995679555889834e+17
19146.0	7.993815656125779e+17
19147.0	7.992515454042111e+17
19148.0	7.990961797158228e+17
19149.0	7.989390236188672e+17
19150.0	7.987822877911722e+17
19151.0	7.986248817136979e+17
19152.0	7.984654762115071e+17
19153.0	7.983070647593641e+17
19154.0	7.981467446192809e+17
19155.0	7.979910404505599e+17
19156.0	7.978306642466132e+17
19157.0	7.976637204616532e+17
19158.0	7.97487187379268e+17
19159.0	7.973413154979839e+17
19160.0	7.971857526773076e+17
19161.0	7.970148029125972e+17
19162.0	7.967782403921238e+17
19163.0	7.966793954667177e+17
19164.0	7.965524287116628e+17
19165.0	7.96397894893568e+17
19166.0	7.962368861885779e+17
19167.0	7.960755980031315e+17
19168.0	7.959230079653204e+17
19169.0	7.957541677957117e+17
19170.0	7.955909765147305e+17
19171.0	7.95430259453679e+17
19172.0	7.952716388455763e+17
19173.0	7.951135611202218e+17
19174.0	7.94953008755507e+17
19175.0	7.947949380206588e+17
19176.0	7.94634995228126e+17
19177.0	7.944669268104531e+17
19178.0	7.943113553215484e+17
19179.0	7.94149984088883e+17
19180.0	7.939924179288061e+17
19181.0	7.9382944181562e+17
19182.0	7.936716376986964e+17
19183.0	7.935119406923773e+17
19184.0	7.933507001821868e+17
19185.0	7.931894479279442e+17
19186.0	7.93027968761856e+17
19187.0	7.928627851864744e+17
19188.0	7.927037457072125e+17
19189.0	7.92540454461986e+17
19190.0	7.923765255427411e+17
19191.0	7.922126069694461e+17
19192.0	7.920496082070185e+17
19193.0	7.918834908397567e+17
19194.0	7.917147987290794e+17
19195.0	7.915432091931987e+17
19196.0	7.913621149450236e+17
19197.0	7.911601798993236e+17
19198.0	7.908851251325612e+17
19199.0	7.902035336757245e+17
19200.0	7.901123665636009e+17
19201.0	7.904100911240531e+17
19202.0	7.90348989342242e+17
19203.0	7.902191985623039e+17
19204.0	7.900749198174889e+17
19205.0	7.899208447164415e+17
19206.0	7.897455295201279e+17
19207.0	7.895721634168832e+17
19208.0	7.894091273251497e+17
19209.0	7.892526957243049e+17
19210.0	7.890889966529192e+17
19211.0	7.889243721782612e+17
19212.0	7.887586083908266e+17
19213.0	7.885863635648511e+17
19214.0	7.884189558898685e+17
19215.0	7.882596249064787e+17
19216.0	7.880964796230313e+17
19217.0	7.879287804439209e+17
19218.0	7.877394592082604e+17
19219.0	7.875867949312681e+17
19220.0	7.874298335898281e+17
19221.0	7.872556886043308e+17
19222.0	7.870950719269545e+17
19223.0	7.869299069463209e+17
19224.0	7.867592932851711e+17
19225.0	7.865899492398422e+17
19226.0	7.864245999894527e+17
19227.0	7.862559172460544e+17
19228.0	7.860880687497215e+17
19229.0	7.859184524940628e+17
19230.0	7.857419854020607e+17
19231.0	7.855461154597545e+17
19232.0	7.853767379998038e+17
19233.0	7.852032069206015e+17
19234.0	7.850351292754602e+17
19235.0	7.848634207611561e+17
19236.0	7.84693007028497e+17
19237.0	7.845206093900458e+17
19238.0	7.843441880159574e+17
19239.0	7.841670661931007e+17
19240.0	7.83989702778334e+17
19241.0	7.838152992838995e+17
19242.0	7.836423084310528e+17
19243.0	7.834605095398057e+17
19244.0	7.832951514813779e+17
19245.0	7.831204669685757e+17
19246.0	7.829450576800426e+17
19247.0	7.827699364003837e+17
19248.0	7.8259415969082e+17
19249.0	7.824062320825683e+17
19250.0	7.822001880170493e+17
19251.0	7.820188463049386e+17
19252.0	7.818307391804755e+17
19253.0	7.816676811385514e+17
19254.0	7.81489447265894e+17
19255.0	7.813004713612628e+17
19256.0	7.811293629120508e+17
19257.0	7.80951153086737e+17
19258.0	7.807707202803027e+17
19259.0	7.8058510904634e+17
19260.0	7.803885846527999e+17
19261.0	7.80226068095522e+17
19262.0	7.80041708441873e+17
19263.0	7.798567147492691e+17
19264.0	7.796596372668415e+17
19265.0	7.79476750652757e+17
19266.0	7.792806701563905e+17
19267.0	7.791019402373802e+17
19268.0	7.789167600380585e+17
19269.0	7.787307612504064e+17
19270.0	7.785426913154387e+17
19271.0	7.783460856922111e+17
19272.0	7.781668219781119e+17
19273.0	7.779548213018621e+17
19274.0	7.777446355009533e+17
19275.0	7.7757937628829e+17
19276.0	7.773897120983722e+17
19277.0	7.77200007782946e+17
19278.0	7.770100894182058e+17
19279.0	7.76816931373056e+17
19280.0	7.766240670689961e+17
19281.0	7.764318746924374e+17
19282.0	7.762382612856832e+17
19283.0	7.760408384722259e+17
19284.0	7.758401319381672e+17
19285.0	7.756472523948032e+17
19286.0	7.754402344118954e+17
19287.0	7.75233514644002e+17
19288.0	7.746605197295611e+17
19289.0	7.741656981132622e+17
19290.0	7.746333641277439e+17
19291.0	7.744346869377705e+17
19292.0	7.742486705340415e+17
19293.0	7.740464072141481e+17
19294.0	7.738426205230419e+17
19295.0	7.73637405811234e+17
19296.0	7.734053897764863e+17
19297.0	7.731866172566185e+17
19298.0	7.729778694029308e+17
19299.0	7.727683288257875e+17
19300.0	7.725577774213804e+17
19301.0	7.723454437173932e+17
19302.0	7.721312336216064e+17
19303.0	7.719140313093459e+17
19304.0	7.717000739902804e+17
19305.0	7.714823682217299e+17
19306.0	7.712633483777364e+17
19307.0	7.710401371657556e+17
19308.0	7.708159463041705e+17
19309.0	7.705740378636287e+17
19310.0	7.703388066152445e+17
19311.0	7.701357045743616e+17
19312.0	7.699149059260415e+17
19313.0	7.696429243258195e+17
19314.0	7.687436335316991e+17
19315.0	7.685597353913007e+17
19316.0	7.68925176570402e+17
19317.0	7.686966675330387e+17
19318.0	7.684592518911315e+17
19319.0	7.682207012705619e+17
19320.0	7.679785843731114e+17
19321.0	7.677339978694656e+17
19322.0	7.67484113260817e+17
19323.0	7.672354595405824e+17
19324.0	7.66990035853858e+17
19325.0	7.667349880569855e+17
19326.0	7.66452509651763e+17
19327.0	7.661424117547007e+17
19328.0	7.658882204347049e+17
19329.0	7.656331253820074e+17
19330.0	7.653739928922793e+17
19331.0	7.651127252221951e+17
19332.0	7.648530469137064e+17
19333.0	7.645887334798675e+17
19334.0	7.643236503912447e+17
19335.0	7.640544967305898e+17
19336.0	7.637866672117076e+17
19337.0	7.63515295323477e+17
19338.0	7.631938512748543e+17
19339.0	7.628870814182057e+17
19340.0	7.62603349615138e+17
19341.0	7.623133190859433e+17
19342.0	7.620119794548736e+17
19343.0	7.617285239166292e+17
19344.0	7.614280400633853e+17
19345.0	7.610682328132264e+17
19346.0	7.607835736495442e+17
19347.0	7.604973000982528e+17
19348.0	7.601393140148905e+17
19349.0	7.597377281414484e+17
19350.0	7.594210711917908e+17
19351.0	7.59099941855778e+17
19352.0	7.587720531192489e+17
19353.0	7.584468941755732e+17
19354.0	7.581135697608703e+17
19355.0	7.577720029795668e+17
19356.0	7.574333250950484e+17
19357.0	7.57086350877218e+17
19358.0	7.567332027837097e+17
19359.0	7.563021018726399e+17
19360.0	7.559039128261972e+17
19361.0	7.555400664612863e+17
19362.0	7.551198571790335e+17
19363.0	7.547010005598205e+17
19364.0	7.543168070669651e+17
19365.0	7.539264608097619e+17
19366.0	7.535299094992211e+17
19367.0	7.531272294716756e+17
19368.0	7.52717902590771e+17
19369.0	7.522965313465004e+17
19370.0	7.51766227456273e+17
19371.0	7.513336128208896e+17
19372.0	7.508968282084691e+17
19373.0	7.504496217292799e+17
19374.0	7.499393550079318e+17
19375.0	7.494106211855017e+17
19376.0	7.489440898700627e+17
19377.0	7.484699959448914e+17
19378.0	7.479886009947475e+17
19379.0	7.474995819184127e+17
19380.0	7.470028579056296e+17
19381.0	7.4648162154141e+17
19382.0	7.459493148710228e+17
19383.0	7.454044965918036e+17
19384.0	7.448502771995987e+17
19385.0	7.44224243912977e+17
19386.0	7.435969421290156e+17
19387.0	7.430198302255786e+17
19388.0	7.424295437336575e+17
19389.0	7.41824058761762e+17
19390.0	7.411898616818345e+17
19391.0	7.39800425221324e+17
19392.0	7.398421419087186e+17
19393.0	7.392731792583338e+17
19394.0	7.385818099002025e+17
19395.0	7.378550780854272e+17
19396.0	7.371248998110548e+17
19397.0	7.362528392773632e+17
19398.0	7.355000750953812e+17
19399.0	7.347096825539241e+17
19400.0	7.339254401204224e+17
19401.0	7.331142010492244e+17
19402.0	7.322777227537064e+17
19403.0	7.314195084563796e+17
19404.0	7.305419884767913e+17
19405.0	7.295803118845952e+17
19406.0	7.28635118907119e+17
19407.0	7.276937907011583e+17
19408.0	7.26707926536465e+17
19409.0	7.257119335470419e+17
19410.0	7.246682728518995e+17
19411.0	7.235755975202131e+17
19412.0	7.22456963920691e+17
19413.0	7.212909221030569e+17
19414.0	7.200823894693204e+17
19415.0	7.188307157625514e+17
19416.0	7.175305571598335e+17
19417.0	7.16175817659733e+17
19418.0	7.147390989500416e+17
19419.0	7.133046401313449e+17
19420.0	7.118250782840148e+17
19421.0	7.102993768557226e+17
19422.0	7.086981308394153e+17
19423.0	7.070227517581993e+17
19424.0	7.052856799177386e+17
19425.0	7.034718481197737e+17
19426.0	7.015586425645736e+17
19427.0	6.995718354326868e+17
19428.0	6.975075768423763e+17
19429.0	6.953981105755474e+17
19430.0	6.930822002464086e+17
19431.0	6.905967966945279e+17
19432.0	6.88172815369284e+17
19433.0	6.855324694740992e+17
19434.0	6.827361279759699e+17
19435.0	6.797211051141801e+17
19436.0	6.765420574932992e+17
19437.0	6.7322275968669e+17
19438.0	6.688575106755242e+17
19439.0	6.657327971172353e+17
19440.0	6.61727321592081e+17
19441.0	6.573004560880978e+17
19442.0	6.525118176034817e+17
19443.0	6.472729713355433e+17
19444.0	6.41549372577109e+17
19445.0	6.352244835003052e+17
19446.0	6.281899612482218e+17
19447.0	6.20295208007543e+17
19448.0	6.113294946052781e+17
19449.0	6.009904121424553e+17
19450.0	5.884890780969633e+17
19451.0	5.811958328590335e+17
19452.0	5.950862749510314e+17
19453.0	6.060731186632024e+17
19454.0	6.15435594069879e+17
19455.0	6.235930858531497e+17
19456.0	6.307921798015661e+17
19457.0	6.372009711064401e+17
19458.0	6.422154186850314e+17
19459.0	6.481537841932974e+17
19460.0	6.529464963956732e+17
19461.0	6.57300429873698e+17
19462.0	6.613162500205228e+17
19463.0	6.650158171291645e+17
19464.0	6.684641710833663e+17
19465.0	6.716553504489473e+17
19466.0	6.746397957860008e+17
19467.0	6.774501329076224e+17
19468.0	6.800799304078678e+17
19469.0	6.825249858737491e+17
19470.0	6.848414177645907e+17
19471.0	6.870483149870422e+17
19472.0	6.891365491976873e+17
19473.0	6.910452337126057e+17
19474.0	6.928584911006378e+17
19475.0	6.945929820460372e+17
19476.0	6.962860920580778e+17
19477.0	6.978836421935104e+17
19478.0	6.993757725523967e+17
19479.0	7.008114654751401e+17
19480.0	7.021732335801684e+17
19481.0	7.034580769614506e+17
19482.0	7.046831671694675e+17
19483.0	7.058656323436543e+17
19484.0	7.070269070551721e+17
19485.0	7.081551670018047e+17
19486.0	7.091891507385684e+17
19487.0	7.101819047466326e+17
19488.0	7.111314448405844e+17
19489.0	7.120277990626644e+17
19490.0	7.12867503616819e+17
19491.0	7.137208553177087e+17
19492.0	7.145112320606207e+17
19493.0	7.152602486319785e+17
19494.0	7.159654063450794e+17
19495.0	7.166359388203689e+17
19496.0	7.172689884785321e+17
19497.0	7.179671616968019e+17
19498.0	7.183519646220287e+17
19499.0	7.180025164638888e+17
19500.0	7.197172128109908e+17
19501.0	7.202870210330624e+17
19502.0	7.208152979559763e+17
19503.0	7.213191524253696e+17
19504.0	7.21798950883601e+17
19505.0	7.223377250309462e+17
19506.0	7.228487711937876e+17
19507.0	7.23274587841058e+17
19508.0	7.237195412799488e+17
19509.0	7.240966916975274e+17
19510.0	7.244378352735572e+17
19511.0	7.235630417313784e+17
19512.0	7.248609390450003e+17
19513.0	7.250902170380966e+17
19514.0	7.254775498276861e+17
19515.0	7.260567769186301e+17
19516.0	7.263741699686399e+17
19517.0	7.267811344777215e+17
19518.0	7.270556937573716e+17
19519.0	7.273204467542697e+17
19520.0	7.275573888592552e+17
19521.0	7.278069865775101e+17
19522.0	7.28024200913442e+17
19523.0	7.282322431453866e+17
19524.0	7.284313640927232e+17
19525.0	7.286234776163667e+17
19526.0	7.288081310111062e+17
19527.0	7.290000949379071e+17
19528.0	7.292749563472552e+17
19529.0	7.294388508732072e+17
19530.0	7.295955239261526e+17
19531.0	7.297449248948224e+17
19532.0	7.299671263980202e+17
19533.0	7.301232596440404e+17
19534.0	7.302497194475519e+17
19535.0	7.303685028358825e+17
19536.0	7.304804191698943e+17
19537.0	7.305885694383444e+17
19538.0	7.306821415643817e+17
19539.0	7.307681735901183e+17
19540.0	7.30953397969442e+17
19541.0	7.310387277288787e+17
19542.0	7.311324339328339e+17
19543.0	7.312820015551828e+17
19544.0	7.313571736890025e+17
19545.0	7.314010617675773e+17
19546.0	7.314514325624147e+17
19547.0	7.315316714154664e+17
19548.0	7.315819590232744e+17
19549.0	7.316223115831977e+17
19550.0	7.316677617603926e+17
19551.0	7.317044556289364e+17
19552.0	7.317369640015187e+17
19553.0	7.318246284503721e+17
19554.0	7.318828774064127e+17
19555.0	7.31955501081122e+17
19556.0	7.319761645993983e+17
19557.0	7.319925053281619e+17
19558.0	7.320056986512041e+17
19559.0	7.320157083577002e+17
19560.0	7.320210439318185e+17
19561.0	7.320252613044905e+17
19562.0	7.320249958050474e+17
19563.0	7.320341231697919e+17
19564.0	7.320776585074003e+17
19565.0	7.320636554040659e+17
19566.0	7.320472366612479e+17
19567.0	7.320299622804138e+17
19568.0	7.320090627626323e+17
19569.0	7.31988836430643e+17
19570.0	7.319658154338985e+17
19571.0	7.319405748114772e+17
19572.0	7.319121378497875e+17
19573.0	7.318843862373716e+17
19574.0	7.31849744781585e+17
19575.0	7.318439011374419e+17
19576.0	7.318597802131455e+17
19577.0	7.318395022912169e+17
19578.0	7.3180146330938e+17
19579.0	7.317625238104745e+17
19580.0	7.317218519242068e+17
19581.0	7.3168009049757e+17
19582.0	7.3163670042269e+17
19583.0	7.315912433947987e+17
19584.0	7.315439959583402e+17
19585.0	7.314898283397119e+17
19586.0	7.314375090110463e+17
19587.0	7.313899893642582e+17
19588.0	7.31324794081553e+17
19589.0	7.313208894641492e+17
19590.0	7.312710635094015e+17
19591.0	7.312157576964778e+17
19592.0	7.311548568218281e+17
19593.0	7.31091320246545e+17
19594.0	7.310167174195881e+17
19595.0	7.30961714295603e+17
19596.0	7.30851204731153e+17
19597.0	7.30826887275042e+17
19598.0	7.307472546387283e+17
19599.0	7.306878669291519e+17
19600.0	7.306160208784042e+17
19601.0	7.305398310666237e+17
19602.0	7.304631923245053e+17
19603.0	7.303709721624573e+17
19604.0	7.303084343907668e+17
19605.0	7.30226012262673e+17
19606.0	7.301835740151807e+17
19607.0	7.30112913973794e+17
19608.0	7.300321437024255e+17
19609.0	7.299489537370793e+17
19610.0	7.298680951057064e+17
19611.0	7.297845263947091e+17
19612.0	7.297007811035133e+17
19613.0	7.296149511034195e+17
19614.0	7.295253967011839e+17
19615.0	7.294380845738666e+17
19616.0	7.293419265196032e+17
19617.0	7.2925863491229e+17
19618.0	7.29146947028036e+17
19619.0	7.290524412499283e+17
19620.0	7.289739389785428e+17
19621.0	7.289021593376084e+17
19622.0	7.288108563300351e+17
19623.0	7.287169650174633e+17
19624.0	7.286219114632531e+17
19625.0	7.285255427151187e+17
19626.0	7.284271339973289e+17
19627.0	7.283232986890237e+17
19628.0	7.282088838081194e+17
19629.0	7.28101030076962e+17
19630.0	7.277640108998653e+17
19631.0	7.272353419493375e+17
19632.0	7.277717635115689e+17
19633.0	7.277394756195667e+17
19634.0	7.276592655674026e+17
19635.0	7.275812819916116e+17
19636.0	7.274880990969855e+17
19637.0	7.27368752833058e+17
19638.0	7.272889575975594e+17
19639.0	7.271872609648639e+17
19640.0	7.270800700735488e+17
19641.0	7.269604581703679e+17
19642.0	7.268802572058623e+17
19643.0	7.267766804064936e+17
19644.0	7.266825157651113e+17
19645.0	7.266094405036714e+17
19646.0	7.265121287361876e+17
19647.0	7.264079068528637e+17
19648.0	7.263172405406378e+17
19649.0	7.262283899426132e+17
19650.0	7.261218788081664e+17
19651.0	7.260148895230633e+17
19652.0	7.259074778715476e+17
19653.0	7.257996421758975e+17
19654.0	7.256913547537066e+17
19655.0	7.255822396555263e+17
19656.0	7.254728866004991e+17
19657.0	7.253634265907199e+17
19658.0	7.252533976935081e+17
19659.0	7.251429669819732e+17
19660.0	7.250322527354879e+17
19661.0	7.24921107733982e+17
19662.0	7.248133124434602e+17
19663.0	7.247062108908202e+17
19664.0	7.245943211207338e+17
19665.0	7.244840172169898e+17
19666.0	7.243852736539305e+17
