# Flux units: erg / (cm m2 s)
# Wavelength units: Angstrom
wave	flux
19000.0	7.340281977722195e+17
19001.0	7.338627579248639e+17
19002.0	7.337549840252928e+17
19003.0	7.336168437841919e+17
19004.0	7.334801030425257e+17
19005.0	7.333415819586217e+17
19006.0	7.332048229018284e+17
19007.0	7.330548090055336e+17
19008.0	7.329110892216319e+17
19009.0	7.327655285577044e+17
19010.0	7.325277990420475e+17
19011.0	7.325076961624063e+17
19012.0	7.323414213689343e+17
19013.0	7.322408559400275e+17
19014.0	7.320854084627113e+17
19015.0	7.319558230638591e+17
19016.0	7.318155405120854e+17
19017.0	7.316738443400531e+17
19018.0	7.315500003841364e+17
19019.0	7.314135227651412e+17
19020.0	7.312662495668906e+17
19021.0	7.311366658457599e+17
19022.0	7.31003010154496e+17
19023.0	7.308540168721748e+17
19024.0	7.307233388571305e+17
19025.0	7.305894028465492e+17
19026.0	7.304450761468585e+17
19027.0	7.302997331673088e+17
19028.0	7.301779957306706e+17
19029.0	7.300360462226774e+17
19030.0	7.299060626445651e+17
19031.0	7.297703091022506e+17
19032.0	7.296321049679187e+17
19033.0	7.294675618627581e+17
19034.0	7.293517649586858e+17
19035.0	7.292080560799741e+17
19036.0	7.276810498037076e+17
19037.0	7.289401684000768e+17
19038.0	7.287994420909395e+17
19039.0	7.28667811549457e+17
19040.0	7.285318178133331e+17
19041.0	7.283915957993471e+17
19042.0	7.282296795867817e+17
19043.0	7.281195064055123e+17
19044.0	7.279779160697513e+17
19045.0	7.278433813921791e+17
19046.0	7.276878161947306e+17
19047.0	7.275627844119208e+17
19048.0	7.273711542119081e+17
19049.0	7.272725849920851e+17
19050.0	7.271411738127017e+17
19051.0	7.267973874057211e+17
19052.0	7.268386013358761e+17
19053.0	7.267395426407764e+17
19054.0	7.266044573908992e+17
19055.0	7.263924476269908e+17
19056.0	7.263224953044991e+17
19057.0	7.26190255051025e+17
19058.0	7.260480909344765e+17
19059.0	7.259166835299667e+17
19060.0	7.257735232662185e+17
19061.0	7.256434977450666e+17
19062.0	7.255038260237651e+17
19063.0	7.253676330582016e+17
19064.0	7.251910529996116e+17
19065.0	7.250384507983187e+17
19066.0	7.249373223540051e+17
19067.0	7.248134336588458e+17
19068.0	7.246804143833087e+17
19069.0	7.245430061880659e+17
19070.0	7.243966357438463e+17
19071.0	7.242660706953897e+17
19072.0	7.241309032371539e+17
19073.0	7.23990961262865e+17
19074.0	7.238563770925055e+17
19075.0	7.23718980641314e+17
19076.0	7.23575452537105e+17
19077.0	7.234403636521642e+17
19078.0	7.232927740635817e+17
19079.0	7.231678892212223e+17
19080.0	7.23026343764514e+17
19081.0	7.228818799110824e+17
19082.0	7.227425616297981e+17
19083.0	7.225834904136361e+17
19084.0	7.224086557447508e+17
19085.0	7.223406632807081e+17
19086.0	7.22091323092719e+17
19087.0	7.220238345043968e+17
19088.0	7.219067205888681e+17
19089.0	7.217185941706068e+17
19090.0	7.216491078352893e+17
19091.0	7.215116125383338e+17
19092.0	7.21357395390191e+17
19093.0	7.212458817093632e+17
19094.0	7.211079179086504e+17
19095.0	7.209710977548288e+17
19096.0	7.208297553024339e+17
19097.0	7.206968803109545e+17
19098.0	7.205593211207679e+17
19099.0	7.204215153055059e+17
19100.0	7.202829729704617e+17
19101.0	7.201474692688553e+17
19102.0	7.199851807419049e+17
19103.0	7.198727272573608e+17
19104.0	7.19737817609011e+17
19105.0	7.195995495814484e+17
19106.0	7.194554074311336e+17
19107.0	7.193204373848063e+17
19108.0	7.191889741960531e+17
19109.0	7.189158729962835e+17
19110.0	7.189102773753172e+17
19111.0	7.187780104181075e+17
19112.0	7.186410862455466e+17
19113.0	7.185034698730153e+17
19114.0	7.183651140446889e+17
19115.0	7.182139520275795e+17
19116.0	7.180857795499347e+17
19117.0	7.17947511382562e+17
19118.0	7.177886746279935e+17
19119.0	7.168601541487263e+17
19120.0	7.175283854890323e+17
19121.0	7.173988491635369e+17
19122.0	7.172710639599616e+17
19123.0	7.171328110318931e+17
19124.0	7.169894258136403e+17
19125.0	7.168576349099348e+17
19126.0	7.167207399576916e+17
19127.0	7.160906647601151e+17
19128.0	7.163587055321084e+17
19129.0	7.162872127815679e+17
19130.0	7.161686006606505e+17
19131.0	7.160348743652692e+17
19132.0	7.158999950557183e+17
19133.0	7.156567972861271e+17
19134.0	7.155870383210496e+17
19135.0	7.154891691305641e+17
19136.0	7.153546410240681e+17
19137.0	7.151710932478633e+17
19138.0	7.150715053714089e+17
19139.0	7.149436344642217e+17
19140.0	7.148075025956863e+17
19141.0	7.146706635674964e+17
19142.0	7.145266961798483e+17
19143.0	7.143804965836116e+17
19144.0	7.142480031339859e+17
19145.0	7.141215238968659e+17
19146.0	7.1381414838272e+17
19147.0	7.138198583683753e+17
19148.0	7.137116888061267e+17
19149.0	7.13574068658722e+17
19150.0	7.134369325339987e+17
19151.0	7.133012835696639e+17
19152.0	7.131617922034345e+17
19153.0	7.130239999497555e+17
19154.0	7.128554427558569e+17
19155.0	7.127563400205651e+17
19156.0	7.126186840817663e+17
19157.0	7.124787429463382e+17
19158.0	7.122501926649853e+17
19159.0	7.122034566539945e+17
19160.0	7.120658530041853e+17
19161.0	7.119264302847316e+17
19162.0	7.115861700291242e+17
19163.0	7.116548334419968e+17
19164.0	7.115259881979904e+17
19165.0	7.113832916844543e+17
19166.0	7.112184944044713e+17
19167.0	7.110962034595156e+17
19168.0	7.109554491883519e+17
19169.0	7.108260062560255e+17
19170.0	7.107057348684457e+17
19171.0	7.105562765776212e+17
19172.0	7.104310149469523e+17
19173.0	7.102957893277011e+17
19174.0	7.101423381992787e+17
19175.0	7.100228440162304e+17
19176.0	7.098848839903914e+17
19177.0	7.097053567341908e+17
19178.0	7.096077277375145e+17
19179.0	7.094592303617364e+17
19180.0	7.093266298175488e+17
19181.0	7.091745777691305e+17
19182.0	7.090529692374356e+17
19183.0	7.089278156799999e+17
19184.0	7.087708774072319e+17
19185.0	7.086507735121919e+17
19186.0	7.085188668456959e+17
19187.0	7.083587501293565e+17
19188.0	7.082440708674899e+17
19189.0	7.081056610724522e+17
19190.0	7.079680444203007e+17
19191.0	7.078247289673044e+17
19192.0	7.076979130673833e+17
19193.0	7.075541018476543e+17
19194.0	7.0741765680442e+17
19195.0	7.07286544818722e+17
19196.0	7.071457147704659e+17
19197.0	7.07010524802799e+17
19198.0	7.068715595421011e+17
19199.0	7.054873258360828e+17
19200.0	7.057249492358488e+17
19201.0	7.064621641542314e+17
19202.0	7.06329697128721e+17
19203.0	7.061910272868351e+17
19204.0	7.06050084971042e+17
19205.0	7.059165456018089e+17
19206.0	7.05776755740945e+17
19207.0	7.056142314941097e+17
19208.0	7.054539932827645e+17
19209.0	7.053676364780883e+17
19210.0	7.052313653586602e+17
19211.0	7.050981060291242e+17
19212.0	7.049608646273705e+17
19213.0	7.047932170381993e+17
19214.0	7.046435823069866e+17
19215.0	7.045453912735743e+17
19216.0	7.044094854780244e+17
19217.0	7.04274071953954e+17
19218.0	7.038992942541477e+17
19219.0	7.039532495011837e+17
19220.0	7.038561133352276e+17
19221.0	7.036314482376704e+17
19222.0	7.035868188158634e+17
19223.0	7.034444998595926e+17
19224.0	7.032934764642304e+17
19225.0	7.031284004727465e+17
19226.0	7.030288917987327e+17
19227.0	7.028909310738431e+17
19228.0	7.027614449401855e+17
19229.0	7.026245109809151e+17
19230.0	7.024796483190783e+17
19231.0	7.023419547713536e+17
19232.0	7.02203714286387e+17
19233.0	7.020518645432319e+17
19234.0	7.019273782296575e+17
19235.0	7.017859286127958e+17
19236.0	7.016593924729513e+17
19237.0	7.015158251519997e+17
19238.0	7.013558997658281e+17
19239.0	7.012455976097108e+17
19240.0	7.010639153201151e+17
19241.0	7.009473302364159e+17
19242.0	7.008234534950227e+17
19243.0	7.006387064973992e+17
19244.0	7.005538980200447e+17
19245.0	7.004139660421801e+17
19246.0	7.002715493586259e+17
19247.0	7.001353962389503e+17
19248.0	6.999999061688319e+17
19249.0	6.998596138303487e+17
19250.0	6.997159958981289e+17
19251.0	6.995410332330665e+17
19252.0	6.993589710793385e+17
19253.0	6.992981102602921e+17
19254.0	6.991587164116308e+17
19255.0	6.989720934416381e+17
19256.0	6.988709615020713e+17
19257.0	6.987461700528809e+17
19258.0	6.986070326160042e+17
19259.0	6.984467070233257e+17
19260.0	6.982997310614185e+17
19261.0	6.981833307368105e+17
19262.0	6.980301759359658e+17
19263.0	6.978897609140906e+17
19264.0	6.976162820172454e+17
19265.0	6.975732755114665e+17
19266.0	6.974441149956096e+17
19267.0	6.973461865256276e+17
19268.0	6.972031597106516e+17
19269.0	6.970631865587027e+17
19270.0	6.969226901673299e+17
19271.0	6.966865848958976e+17
19272.0	6.966288191236778e+17
19273.0	6.953125958473033e+17
19274.0	6.95679011782655e+17
19275.0	6.962151922423124e+17
19276.0	6.960676652886698e+17
19277.0	6.959266376886953e+17
19278.0	6.957849492062205e+17
19279.0	6.956340185748819e+17
19280.0	6.954642585944063e+17
19281.0	6.952894406328319e+17
19282.0	6.951513962315775e+17
19283.0	6.949883518211412e+17
19284.0	6.948274472747005e+17
19285.0	6.946588734433961e+17
19286.0	6.945667605157203e+17
19287.0	6.944334021307049e+17
19288.0	6.938775156424698e+17
19289.0	6.93265870915719e+17
19290.0	6.940001221388969e+17
19291.0	6.937762429140992e+17
19292.0	6.937096335917055e+17
19293.0	6.935617216009555e+17
19294.0	6.934148221151913e+17
19295.0	6.932720607297535e+17
19296.0	6.931236554888532e+17
19297.0	6.929711389911721e+17
19298.0	6.928225691937449e+17
19299.0	6.926839311586644e+17
19300.0	6.925358737653759e+17
19301.0	6.923860811885225e+17
19302.0	6.922340406045353e+17
19303.0	6.920669361777321e+17
19304.0	6.919269215720787e+17
19305.0	6.917859877147987e+17
19306.0	6.916421342025043e+17
19307.0	6.914794212818943e+17
19308.0	6.913344949365417e+17
19309.0	6.911472860222803e+17
19310.0	6.909754379774633e+17
19311.0	6.908740804542463e+17
19312.0	6.907083103753555e+17
19313.0	6.905492871839743e+17
19314.0	6.896896675151876e+17
19315.0	6.895630156824582e+17
19316.0	6.900954167945897e+17
19317.0	6.899416287237459e+17
19318.0	6.897844849999872e+17
19319.0	6.896326439949652e+17
19320.0	6.894743663411199e+17
19321.0	6.893191387851433e+17
19322.0	6.891278725109076e+17
19323.0	6.889576703109802e+17
19324.0	6.887532945997823e+17
19325.0	6.885587430670336e+17
19326.0	6.884334315940521e+17
19327.0	6.882693991454035e+17
19328.0	6.881118683572905e+17
19329.0	6.87949352149538e+17
19330.0	6.877744564535293e+17
19331.0	6.876080054992895e+17
19332.0	6.87454003868467e+17
19333.0	6.872832701104127e+17
19334.0	6.871177070204243e+17
19335.0	6.869534868067668e+17
19336.0	6.867830980302163e+17
19337.0	6.866119989482835e+17
19338.0	6.863807588597759e+17
19339.0	6.862688746121897e+17
19340.0	6.860789403090941e+17
19341.0	6.859150659158015e+17
19342.0	6.856251088568316e+17
19343.0	6.854520532019881e+17
19344.0	6.85270933508369e+17
19345.0	6.845747761425056e+17
19346.0	6.846657860381352e+17
19347.0	6.84711127163426e+17
19348.0	6.845465339363328e+17
19349.0	6.843506148507647e+17
19350.0	6.841649548929706e+17
19351.0	6.839732240995667e+17
19352.0	6.837713207208617e+17
19353.0	6.836017269047293e+17
19354.0	6.833404879656276e+17
19355.0	6.830378816547498e+17
19356.0	6.828674057065811e+17
19357.0	6.826655123243007e+17
19358.0	6.824498043726506e+17
19359.0	6.82195995922705e+17
19360.0	6.820373260315305e+17
19361.0	6.818298900163242e+17
19362.0	6.815486153763498e+17
19363.0	6.812360606657194e+17
19364.0	6.810171492444842e+17
19365.0	6.807948839179604e+17
19366.0	6.805721261801471e+17
19367.0	6.803451356905471e+17
19368.0	6.800045345079295e+17
19369.0	6.796295089946623e+17
19370.0	6.792930520640169e+17
19371.0	6.791713287482026e+17
19372.0	6.789401672329898e+17
19373.0	6.784169396928511e+17
19374.0	6.781332005497514e+17
19375.0	6.778758507091282e+17
19376.0	6.775879935983617e+17
19377.0	6.770448623381162e+17
19378.0	6.767719407244627e+17
19379.0	6.764926476834132e+17
19380.0	6.760538702173527e+17
19381.0	6.757455261685076e+17
19382.0	6.754283582827178e+17
19383.0	6.751148674034346e+17
19384.0	6.748376968899242e+17
19385.0	6.745219542286336e+17
19386.0	6.742002717338281e+17
19387.0	6.738494451176787e+17
19388.0	6.734534140406441e+17
19389.0	6.731076758142973e+17
19390.0	6.727524412642644e+17
19391.0	6.71243913763224e+17
19392.0	6.719875807794514e+17
19393.0	6.716344521894568e+17
19394.0	6.712402410209279e+17
19395.0	6.707637694147241e+17
19396.0	6.703068231325012e+17
19397.0	6.698826428230314e+17
19398.0	6.694366764597245e+17
19399.0	6.688068712355155e+17
19400.0	6.683810516522324e+17
19401.0	6.678808174264319e+17
19402.0	6.673840453888681e+17
19403.0	6.668055878128979e+17
19404.0	6.661359966093311e+17
19405.0	6.655782486190761e+17
19406.0	6.648508451564202e+17
19407.0	6.641631781104298e+17
19408.0	6.632147136457388e+17
19409.0	6.625767611957247e+17
19410.0	6.616642572954282e+17
19411.0	6.60762403991279e+17
19412.0	6.596774374408192e+17
19413.0	6.58457067292809e+17
19414.0	6.571553519741613e+17
19415.0	6.556758914891777e+17
19416.0	6.542775659702949e+17
19417.0	6.532597229638996e+17
19418.0	6.522302186739027e+17
19419.0	6.511547826307071e+17
19420.0	6.500384326199977e+17
19421.0	6.488694124969984e+17
19422.0	6.476437332688895e+17
19423.0	6.463626841948159e+17
19424.0	6.449810404715178e+17
19425.0	6.435851746323114e+17
19426.0	6.420852416096936e+17
19427.0	6.404496315908096e+17
19428.0	6.387864359840425e+17
19429.0	6.369820586366294e+17
19430.0	6.349772842248874e+17
19431.0	6.326637098434561e+17
19432.0	6.304099841955151e+17
19433.0	6.275910554615808e+17
19434.0	6.242125504402775e+17
19435.0	6.200899551275693e+17
19436.0	6.16354517422353e+17
19437.0	6.131537059075412e+17
19438.0	6.084725999403009e+17
19439.0	6.057127435741866e+17
19440.0	6.015267158447443e+17
19441.0	5.966938926743547e+17
19442.0	5.908452492006743e+17
19443.0	5.833989191368701e+17
19444.0	5.760299079215782e+17
19445.0	5.6823181710022e+17
19446.0	5.587979993087998e+17
19447.0	5.4706010311010944e+17
19448.0	5.3352477693924755e+17
19449.0	5.159827537220949e+17
19450.0	4.894000481129763e+17
19451.0	4.807499463699118e+17
19452.0	5.033814888458927e+17
19453.0	5.25414898615365e+17
19454.0	5.402304017945936e+17
19455.0	5.526129186177025e+17
19456.0	5.629076906355374e+17
19457.0	5.7122182778934566e+17
19458.0	5.775299702685706e+17
19459.0	5.857825671260847e+17
19460.0	5.921340401210705e+17
19461.0	5.971702023804244e+17
19462.0	6.01435640098543e+17
19463.0	6.052080279442771e+17
19464.0	6.086669186192724e+17
19465.0	6.118321325167958e+17
19466.0	6.148298673662629e+17
19467.0	6.188074950896297e+17
19468.0	6.222607228250802e+17
19469.0	6.24938464855108e+17
19470.0	6.274474651418623e+17
19471.0	6.294735169082707e+17
19472.0	6.312696713925974e+17
19473.0	6.32868659545156e+17
19474.0	6.344232405041152e+17
19475.0	6.356197619094866e+17
19476.0	6.371023629494953e+17
19477.0	6.382991045558272e+17
19478.0	6.394306765346131e+17
19479.0	6.40527901008418e+17
19480.0	6.41514929581807e+17
19481.0	6.424595101908991e+17
19482.0	6.433522433305257e+17
19483.0	6.442008291136852e+17
19484.0	6.449963821869738e+17
19485.0	6.457619075388756e+17
19486.0	6.466924032557052e+17
19487.0	6.479077542199287e+17
19488.0	6.4904933919075e+17
19489.0	6.499944436684113e+17
19490.0	6.50528148649847e+17
19491.0	6.515995443899049e+17
19492.0	6.52326948901137e+17
19493.0	6.528072441746771e+17
19494.0	6.534756964848978e+17
19495.0	6.538275459519828e+17
19496.0	6.542682474151932e+17
19497.0	6.547031222211923e+17
19498.0	6.54855711559953e+17
19499.0	6.536664181287589e+17
19500.0	6.55710162587921e+17
19501.0	6.559454152272553e+17
19502.0	6.562523646700204e+17
19503.0	6.565172060968276e+17
19504.0	6.567065018171391e+17
19505.0	6.568862805218644e+17
19506.0	6.57054848131618e+17
19507.0	6.57269659410978e+17
19508.0	6.574589930897405e+17
19509.0	6.575897594647892e+17
19510.0	6.576603067493034e+17
19511.0	6.562129208759631e+17
19512.0	6.576162865501522e+17
19513.0	6.574320664270157e+17
19514.0	6.577103081657681e+17
19515.0	6.581158675131054e+17
19516.0	6.583257629982719e+17
19517.0	6.583790263249578e+17
19518.0	6.58450728231458e+17
19519.0	6.584991079202815e+17
19520.0	6.585355180441599e+17
19521.0	6.585822237163519e+17
19522.0	6.586493508255743e+17
19523.0	6.588027021295615e+17
19524.0	6.588235973831337e+17
19525.0	6.588337497658707e+17
19526.0	6.591269133702484e+17
19527.0	6.591307930315434e+17
19528.0	6.591317268234237e+17
19529.0	6.59140378693905e+17
19530.0	6.593610032786089e+17
19531.0	6.59389484699921e+17
19532.0	6.59377780564514e+17
19533.0	6.593590488727552e+17
19534.0	6.593734549088937e+17
19535.0	6.59502835835426e+17
19536.0	6.594672282217129e+17
19537.0	6.594445845725183e+17
19538.0	6.593770696998913e+17
19539.0	6.592285592518659e+17
19540.0	6.593210851786752e+17
19541.0	6.594266164538025e+17
19542.0	6.594007706632191e+17
19543.0	6.593508235629908e+17
19544.0	6.593007797141503e+17
19545.0	6.591130063863805e+17
19546.0	6.589558869196799e+17
19547.0	6.591340701810687e+17
19548.0	6.590746195569321e+17
19549.0	6.590059014083924e+17
19550.0	6.590825119787689e+17
19551.0	6.590179958936916e+17
19552.0	6.589506627043327e+17
19553.0	6.588751862737578e+17
19554.0	6.588008755101696e+17
19555.0	6.587361114019156e+17
19556.0	6.586666343639721e+17
19557.0	6.585916027393363e+17
19558.0	6.585153985970176e+17
19559.0	6.584349723983872e+17
19560.0	6.583526040272895e+17
19561.0	6.582730101882879e+17
19562.0	6.582012034940927e+17
19563.0	6.582218505147731e+17
19564.0	6.581384408378025e+17
19565.0	6.580534608134143e+17
19566.0	6.579608882599252e+17
19567.0	6.578829599091369e+17
19568.0	6.577871016777044e+17
19569.0	6.577022510475946e+17
19570.0	6.576190894637053e+17
19571.0	6.575284094500863e+17
19572.0	6.574290152805716e+17
19573.0	6.57340840874257e+17
19574.0	6.572287678130857e+17
19575.0	6.571616851634857e+17
19576.0	6.57068501569809e+17
19577.0	6.569628037109076e+17
19578.0	6.568666373379412e+17
19579.0	6.567757484479828e+17
19580.0	6.566795885062826e+17
19581.0	6.565870657951059e+17
19582.0	6.564941085540351e+17
19583.0	6.563960485926227e+17
19584.0	6.562950013779967e+17
19585.0	6.561661559941801e+17
19586.0	6.560623849985364e+17
19587.0	6.560655933614761e+17
19588.0	6.558399453986816e+17
19589.0	6.558647907778559e+17
19590.0	6.557486902760787e+17
19591.0	6.556674503125673e+17
19592.0	6.555668284003668e+17
19593.0	6.554577853743103e+17
19594.0	6.552919808322216e+17
19595.0	6.552424507856212e+17
19596.0	6.54951517782016e+17
19597.0	6.55035869499665e+17
19598.0	6.548598095347711e+17
19599.0	6.548358931939328e+17
19600.0	6.547321590382591e+17
19601.0	6.546067673841663e+17
19602.0	6.545048208408576e+17
19603.0	6.542858859315197e+17
19604.0	6.542880154495658e+17
19605.0	6.541116835539626e+17
19606.0	6.540887082052266e+17
19607.0	6.539839154072234e+17
19608.0	6.538708317285034e+17
19609.0	6.53751700492561e+17
19610.0	6.536590408373588e+17
19611.0	6.535480689907028e+17
19612.0	6.534419436623188e+17
19613.0	6.533291947589631e+17
19614.0	6.532107232171347e+17
19615.0	6.531132326324905e+17
19616.0	6.529934360401235e+17
19617.0	6.528926509694976e+17
19618.0	6.52624876815428e+17
19619.0	6.52482944783701e+17
19620.0	6.523766320398333e+17
19621.0	6.52449007341841e+17
19622.0	6.523393574699007e+17
19623.0	6.522287766022826e+17
19624.0	6.521143514453331e+17
19625.0	6.520056475986602e+17
19626.0	6.518906330021887e+17
19627.0	6.517818117150035e+17
19628.0	6.516379884716032e+17
19629.0	6.515314903394985e+17
19630.0	6.513547919316308e+17
19631.0	6.500234361656662e+17
19632.0	6.512174608416767e+17
19633.0	6.510936916142761e+17
19634.0	6.509943158996991e+17
19635.0	6.508889110129321e+17
19636.0	6.507855021954387e+17
19637.0	6.505562088232278e+17
19638.0	6.505590106182996e+17
19639.0	6.504432174191955e+17
19640.0	6.503049499508736e+17
19641.0	6.500500813905921e+17
19642.0	6.501042774605823e+17
19643.0	6.499872626005331e+17
19644.0	6.498611461008042e+17
19645.0	6.496893660037119e+17
19646.0	6.496518162874367e+17
19647.0	6.495375851869523e+17
19648.0	6.494218273598122e+17
19649.0	6.493065379665235e+17
19650.0	6.491942930087933e+17
19651.0	6.490778227092137e+17
19652.0	6.489620801213782e+17
19653.0	6.488497149269332e+17
19654.0	6.487323218105683e+17
19655.0	6.48615901073681e+17
19656.0	6.485036176681642e+17
19657.0	6.483883305118378e+17
19658.0	6.482747911219881e+17
19659.0	6.481591138254847e+17
19660.0	6.480451735999828e+17
19661.0	6.47929099522321e+17
19662.0	6.478145704864426e+17
19663.0	6.476848058509994e+17
19664.0	6.475767929460052e+17
19665.0	6.474683047564628e+17
