# Flux units: erg / (cm m2 s)
# Wavelength units: Angstrom
wave	flux
19000.0	5.7190543244219725e+17
19001.0	5.717933403668479e+17
19002.0	5.716999607593641e+17
19003.0	5.7159721170589e+17
19004.0	5.7149436653294925e+17
19005.0	5.713903019360255e+17
19006.0	5.712872672504489e+17
19007.0	5.7118426905531725e+17
19008.0	5.710778619396094e+17
19009.0	5.709643788233386e+17
19010.0	5.708571568941738e+17
19011.0	5.7076810692689914e+17
19012.0	5.706608834598228e+17
19013.0	5.705679586547028e+17
19014.0	5.704614315119956e+17
19015.0	5.7035958227653965e+17
19016.0	5.702600164900863e+17
19017.0	5.7015853984863565e+17
19018.0	5.7005533641222816e+17
19019.0	5.699531350649513e+17
19020.0	5.6984999286538234e+17
19021.0	5.6974893062116685e+17
19022.0	5.696459090777428e+17
19023.0	5.695398767930026e+17
19024.0	5.6943807719014394e+17
19025.0	5.693376351436799e+17
19026.0	5.692341773926399e+17
19027.0	5.6913153627258874e+17
19028.0	5.690300411762004e+17
19029.0	5.6892680830976e+17
19030.0	5.6882638898244256e+17
19031.0	5.687239443655337e+17
19032.0	5.686199217116501e+17
19033.0	5.685074800410623e+17
19034.0	5.6840420432281594e+17
19035.0	5.6825946595218765e+17
19036.0	5.679935405075113e+17
19037.0	5.6806552021674656e+17
19038.0	5.679958947004415e+17
19039.0	5.6790213075490125e+17
19040.0	5.678025530146814e+17
19041.0	5.677009457905662e+17
19042.0	5.675573500182526e+17
19043.0	5.6749815028340045e+17
19044.0	5.673950984011775e+17
19045.0	5.672929336142506e+17
19046.0	5.6718816800931834e+17
19047.0	5.67083996877073e+17
19048.0	5.669732767585621e+17
19049.0	5.668035959106217e+17
19050.0	5.6677007915745274e+17
19051.0	5.666472602195285e+17
19052.0	5.6655760242769914e+17
19053.0	5.664720450573652e+17
19054.0	5.6637444227508896e+17
19055.0	5.662415049282901e+17
19056.0	5.661671390096042e+17
19057.0	5.660708188454912e+17
19058.0	5.6593227245595296e+17
19059.0	5.658537889191253e+17
19060.0	5.657658501627903e+17
19061.0	5.6566445300340045e+17
19062.0	5.6556245808578554e+17
19063.0	5.654600233953962e+17
19064.0	5.6535387024479565e+17
19065.0	5.6524498688191136e+17
19066.0	5.6513735719649274e+17
19067.0	5.6505342267228154e+17
19068.0	5.6495320851633485e+17
19069.0	5.64851711742225e+17
19070.0	5.64748219458082e+17
19071.0	5.6464788849076896e+17
19072.0	5.645337217728511e+17
19073.0	5.6444567676081485e+17
19074.0	5.643442208112639e+17
19075.0	5.642426188999337e+17
19076.0	5.641406297145343e+17
19077.0	5.6403825605126816e+17
19078.0	5.639356380697941e+17
19079.0	5.6383652673617914e+17
19080.0	5.6373430868159136e+17
19081.0	5.6362957823890765e+17
19082.0	5.635316390035455e+17
19083.0	5.6342318849283405e+17
19084.0	5.6331047069723296e+17
19085.0	5.632267412045823e+17
19086.0	5.630758072877055e+17
19087.0	5.629930608001023e+17
19088.0	5.628985409710761e+17
19089.0	5.6280679064098125e+17
19090.0	5.627191620534271e+17
19091.0	5.6261731771132576e+17
19092.0	5.62487024873199e+17
19093.0	5.624191673958399e+17
19094.0	5.6231831724359654e+17
19095.0	5.6221731560707405e+17
19096.0	5.6211600652806816e+17
19097.0	5.6201516217794554e+17
19098.0	5.618992579695956e+17
19099.0	5.6179470564502176e+17
19100.0	5.6171024333755725e+17
19101.0	5.616092038823936e+17
19102.0	5.6150489412840096e+17
19103.0	5.6140854229729274e+17
19104.0	5.6130836805713914e+17
19105.0	5.6117388650741766e+17
19106.0	5.6110561805817165e+17
19107.0	5.609955805626366e+17
19108.0	5.608894462864042e+17
19109.0	5.6079903149260794e+17
19110.0	5.606997918132905e+17
19111.0	5.605914230216021e+17
19112.0	5.604893419110399e+17
19113.0	5.6040000344555514e+17
19114.0	5.602922744250367e+17
19115.0	5.6019364893163514e+17
19116.0	5.6009317955229e+17
19117.0	5.5998725694859936e+17
19118.0	5.598362931822592e+17
19119.0	5.5928043088117715e+17
19120.0	5.5966097756651514e+17
19121.0	5.5958641332715514e+17
19122.0	5.5949141304060576e+17
19123.0	5.5939210289698125e+17
19124.0	5.59288153154082e+17
19125.0	5.591864053508777e+17
19126.0	5.590704053026815e+17
19127.0	5.5892606063738854e+17
19128.0	5.588671334623913e+17
19129.0	5.5877786741855565e+17
19130.0	5.586881767014398e+17
19131.0	5.5859070911556256e+17
19132.0	5.5849105315157325e+17
19133.0	5.583880254565034e+17
19134.0	5.582906045672107e+17
19135.0	5.5819053665266336e+17
19136.0	5.5808961330981536e+17
19137.0	5.5798612368206496e+17
19138.0	5.5788832949971616e+17
19139.0	5.5779025262127776e+17
19140.0	5.5769076953251834e+17
19141.0	5.575907850147156e+17
19142.0	5.574882790211583e+17
19143.0	5.5738849799700474e+17
19144.0	5.5728666029588474e+17
19145.0	5.571899562131456e+17
19146.0	5.570345606053887e+17
19147.0	5.569872088006655e+17
19148.0	5.5687828041891834e+17
19149.0	5.567761054957568e+17
19150.0	5.5669055071191034e+17
19151.0	5.5659002345117e+17
19152.0	5.564896325752149e+17
19153.0	5.563625566983508e+17
19154.0	5.5628491684577274e+17
19155.0	5.56188726006033e+17
19156.0	5.560894640969043e+17
19157.0	5.559812194566143e+17
19158.0	5.5587056966260045e+17
19159.0	5.557884637850281e+17
19160.0	5.5568801453834234e+17
19161.0	5.555871234916351e+17
19162.0	5.5548330503045114e+17
19163.0	5.5538645561507834e+17
19164.0	5.552896493311315e+17
19165.0	5.5516317400869536e+17
19166.0	5.550867795847849e+17
19167.0	5.549913006582441e+17
19168.0	5.5489360881691296e+17
19169.0	5.5479460898187936e+17
19170.0	5.546954123640831e+17
19171.0	5.5459567656850765e+17
19172.0	5.5449624087538336e+17
19173.0	5.5439674170845856e+17
19174.0	5.5429561536129696e+17
19175.0	5.541973294667092e+17
19176.0	5.5409835521693e+17
19177.0	5.5398614521173325e+17
19178.0	5.5389980203854496e+17
19179.0	5.538001204893013e+17
19180.0	5.536997596725247e+17
19181.0	5.535952136394069e+17
19182.0	5.534988448912724e+17
19183.0	5.5340283559499085e+17
19184.0	5.5330377424349856e+17
19185.0	5.532038968202579e+17
19186.0	5.531051162075136e+17
19187.0	5.5300039771859616e+17
19188.0	5.529060264378366e+17
19189.0	5.5280655089882445e+17
19190.0	5.527067535867904e+17
19191.0	5.526041583244628e+17
19192.0	5.525063579904683e+17
19193.0	5.5240151486081696e+17
19194.0	5.522967238803456e+17
19195.0	5.5220009983890765e+17
19196.0	5.520932505037483e+17
19197.0	5.5198297714851834e+17
19198.0	5.518628784264532e+17
19199.0	5.5172456824613536e+17
19200.0	5.516317979312126e+17
19201.0	5.5156778649081165e+17
19202.0	5.51489316795187e+17
19203.0	5.5140099307165005e+17
19204.0	5.513090916068009e+17
19205.0	5.512134402244607e+17
19206.0	5.511172249878526e+17
19207.0	5.510079625297919e+17
19208.0	5.509141862809598e+17
19209.0	5.508238556528639e+17
19210.0	5.507267491266558e+17
19211.0	5.5062984588438176e+17
19212.0	5.5053078788833254e+17
19213.0	5.504239379240276e+17
19214.0	5.503297276346366e+17
19215.0	5.502335967734442e+17
19216.0	5.5013380030027085e+17
19217.0	5.500285220814848e+17
19218.0	5.4991556751742285e+17
19219.0	5.498171929832106e+17
19220.0	5.4973458162210125e+17
19221.0	5.4963421786931194e+17
19222.0	5.4954046958250643e+17
19223.0	5.494442117038078e+17
19224.0	5.493438153053524e+17
19225.0	5.4924736826354336e+17
19226.0	5.491504639726932e+17
19227.0	5.4905311774201165e+17
19228.0	5.4895740435387725e+17
19229.0	5.488591821428051e+17
19230.0	5.487604766081023e+17
19231.0	5.4866133696293536e+17
19232.0	5.485638886009515e+17
19233.0	5.4846107355709434e+17
19234.0	5.4836717413553485e+17
19235.0	5.4826634222851405e+17
19236.0	5.481710883962879e+17
19237.0	5.48072247804996e+17
19238.0	5.479684569563135e+17
19239.0	5.478766385386836e+17
19240.0	5.4777851314612896e+17
19241.0	5.476789037389142e+17
19242.0	5.475811099060906e+17
19243.0	5.4747031456972794e+17
19244.0	5.473864099648852e+17
19245.0	5.4728765941131936e+17
19246.0	5.4718973094133754e+17
19247.0	5.470911733257556e+17
19248.0	5.469940212214442e+17
19249.0	5.468950330605567e+17
19250.0	5.467909138677758e+17
19251.0	5.466874391298047e+17
19252.0	5.4657475999170554e+17
19253.0	5.4650216847332685e+17
19254.0	5.464059258339326e+17
19255.0	5.462903029934762e+17
19256.0	5.4620892832290125e+17
19257.0	5.461119982370815e+17
19258.0	5.460137846942377e+17
19259.0	5.4590788655732045e+17
19260.0	5.4580885994864634e+17
19261.0	5.45716815597841e+17
19262.0	5.4561331695233683e+17
19263.0	5.455103129550847e+17
19264.0	5.453994924528979e+17
19265.0	5.453094934544383e+17
19266.0	5.452109253530964e+17
19267.0	5.4513048503364256e+17
19268.0	5.450333990595242e+17
19269.0	5.449353841169747e+17
19270.0	5.4483384491048954e+17
19271.0	5.447285072723967e+17
19272.0	5.4463939047587834e+17
19273.0	5.4452935081328634e+17
19274.0	5.444132822581246e+17
19275.0	5.4435091330717005e+17
19276.0	5.4425185845684896e+17
19277.0	5.441547536782677e+17
19278.0	5.4405632615601485e+17
19279.0	5.439571501602132e+17
19280.0	5.438590062428158e+17
19281.0	5.437625631855957e+17
19282.0	5.436664141490858e+17
19283.0	5.435678705844224e+17
19284.0	5.434677749874687e+17
19285.0	5.4336731637350394e+17
19286.0	5.4326615975744845e+17
19287.0	5.4316014131391136e+17
19288.0	5.429635930128383e+17
19289.0	5.428321646368083e+17
19290.0	5.428640376422399e+17
19291.0	5.4275970817501875e+17
19292.0	5.426882493284352e+17
19293.0	5.425924214358015e+17
19294.0	5.424944940843007e+17
19295.0	5.4239882431692794e+17
19296.0	5.4228447311953914e+17
19297.0	5.4219989183365114e+17
19298.0	5.421040315749717e+17
19299.0	5.419906315758249e+17
19300.0	5.4191101963141114e+17
19301.0	5.4181406885369165e+17
19302.0	5.4171521959417165e+17
19303.0	5.416137149207892e+17
19304.0	5.4152054453917e+17
19305.0	5.414218160756053e+17
19306.0	5.413245298234708e+17
19307.0	5.412239329372842e+17
19308.0	5.411263288967167e+17
19309.0	5.410277547136341e+17
19310.0	5.40927444787746e+17
19311.0	5.408281633751039e+17
19312.0	5.407278375807658e+17
19313.0	5.406080557383679e+17
19314.0	5.397634485321728e+17
19315.0	5.3970855243284506e+17
19316.0	5.402950669172736e+17
19317.0	5.4024062401249274e+17
19318.0	5.401497781141504e+17
19319.0	5.400562755436543e+17
19320.0	5.3995310496262816e+17
19321.0	5.398472263292245e+17
19322.0	5.397638039994367e+17
19323.0	5.396665241785685e+17
19324.0	5.3956964281658016e+17
19325.0	5.394725620154367e+17
19326.0	5.3937547009938765e+17
19327.0	5.3927782726150816e+17
19328.0	5.3915111160545274e+17
19329.0	5.390832044954964e+17
19330.0	5.38984831848721e+17
19331.0	5.388838893518848e+17
19332.0	5.3878996672184314e+17
19333.0	5.3869045287485434e+17
19334.0	5.3859308245701965e+17
19335.0	5.3843560472685216e+17
19336.0	5.383970246098943e+17
19337.0	5.382989570288298e+17
19338.0	5.381830291925673e+17
19339.0	5.381009208683177e+17
19340.0	5.3799062297640954e+17
19341.0	5.3787163986930336e+17
19342.0	5.377855709336917e+17
19343.0	5.376979498958848e+17
19344.0	5.3756518185915725e+17
19345.0	5.3741202719812256e+17
19346.0	5.373351882478932e+17
19347.0	5.3726714426381645e+17
19348.0	5.3720984315057485e+17
19349.0	5.371127248104105e+17
19350.0	5.37005603824162e+17
19351.0	5.369170101272575e+17
19352.0	5.3678735461362323e+17
19353.0	5.3672312765590176e+17
19354.0	5.366245390723753e+17
19355.0	5.365167142120106e+17
19356.0	5.3642612137000954e+17
19357.0	5.36326658204194e+17
19358.0	5.3622669885221536e+17
19359.0	5.3611859779693216e+17
19360.0	5.360014431267497e+17
19361.0	5.35926301331729e+17
19362.0	5.3582713973637114e+17
19363.0	5.357271338276181e+17
19364.0	5.3562670716026874e+17
19365.0	5.3552602352189434e+17
19366.0	5.354250303438847e+17
19367.0	5.353232093500758e+17
19368.0	5.352213664759807e+17
19369.0	5.351178374916777e+17
19370.0	5.3501645011899725e+17
19371.0	5.34910896124723e+17
19372.0	5.348133524122283e+17
19373.0	5.3470934569669965e+17
19374.0	5.3460725969278285e+17
19375.0	5.3450418551084365e+17
19376.0	5.344005639023274e+17
19377.0	5.342957173473279e+17
19378.0	5.3419131308168506e+17
19379.0	5.3408669693378554e+17
19380.0	5.3398151385579514e+17
19381.0	5.338750624202751e+17
19382.0	5.337615853158398e+17
19383.0	5.336575781109759e+17
19384.0	5.3355340921569274e+17
19385.0	5.334463196867242e+17
19386.0	5.333377474013865e+17
19387.0	5.332268011399849e+17
19388.0	5.331149242324309e+17
19389.0	5.329989759139839e+17
19390.0	5.3286527247755936e+17
19391.0	5.325920806109183e+17
19392.0	5.325960991036757e+17
19393.0	5.3254031814601376e+17
19394.0	5.3243305217665696e+17
19395.0	5.3230979004061005e+17
19396.0	5.321991116554239e+17
19397.0	5.3208075091312634e+17
19398.0	5.3194304128723616e+17
19399.0	5.3179923628905805e+17
19400.0	5.3168800313726285e+17
19401.0	5.315834464785747e+17
19402.0	5.314598250304853e+17
19403.0	5.313298792011092e+17
19404.0	5.3119954064506874e+17
19405.0	5.310620801608361e+17
19406.0	5.3092128890989216e+17
19407.0	5.3076624254784845e+17
19408.0	5.306102740680703e+17
19409.0	5.304786939281406e+17
19410.0	5.303384688383317e+17
19411.0	5.3018564028443296e+17
19412.0	5.300212916551679e+17
19413.0	5.2984692576965965e+17
19414.0	5.2968730286271123e+17
19415.0	5.295122722499242e+17
19416.0	5.2932005806298445e+17
19417.0	5.2914550797762554e+17
19418.0	5.2894648391871136e+17
19419.0	5.2874266262459725e+17
19420.0	5.2852985419530234e+17
19421.0	5.2830570758362445e+17
19422.0	5.2806658437065376e+17
19423.0	5.278156745342974e+17
19424.0	5.2754628690138445e+17
19425.0	5.272683242935637e+17
19426.0	5.269752762422612e+17
19427.0	5.2666501637515936e+17
19428.0	5.2632720601251834e+17
19429.0	5.259600994850131e+17
19430.0	5.255627044203178e+17
19431.0	5.2512423306854406e+17
19432.0	5.246827845997908e+17
19433.0	5.241846912865621e+17
19434.0	5.2364125118573216e+17
19435.0	5.2303238413680634e+17
19436.0	5.223668964305578e+17
19437.0	5.216051624498517e+17
19438.0	5.204644036870143e+17
19439.0	5.197594198278143e+17
19440.0	5.188540183521962e+17
19441.0	5.177257877656917e+17
19442.0	5.163726623036757e+17
19443.0	5.147973255517525e+17
19444.0	5.129980156925267e+17
19445.0	5.108260424821419e+17
19446.0	5.081510085044906e+17
19447.0	5.0484980960897683e+17
19448.0	5.004135731909976e+17
19449.0	4.939864912254294e+17
19450.0	4.818411114026317e+17
19451.0	4.7109964314269056e+17
19452.0	4.891464797170347e+17
19453.0	4.972882113331201e+17
19454.0	5.0230736673832934e+17
19455.0	5.0591650115747834e+17
19456.0	5.08658247008256e+17
19457.0	5.108224683758932e+17
19458.0	5.103588756597437e+17
19459.0	5.1371346294210605e+17
19460.0	5.1540074685617485e+17
19461.0	5.164903321741994e+17
19462.0	5.1739912600289274e+17
19463.0	5.18189341684531e+17
19464.0	5.1887496016254285e+17
19465.0	5.1947038202047136e+17
19466.0	5.199587598576299e+17
19467.0	5.2040135190336845e+17
19468.0	5.2077655071129594e+17
19469.0	5.210814145363966e+17
19470.0	5.2139825981030394e+17
19471.0	5.216574382276606e+17
19472.0	5.21869094691362e+17
19473.0	5.2205191538496845e+17
19474.0	5.2218658337150285e+17
19475.0	5.223045660671998e+17
19476.0	5.224446428883625e+17
19477.0	5.225521303868757e+17
19478.0	5.22638575341841e+17
19479.0	5.226947531505662e+17
19480.0	5.2276771782219085e+17
19481.0	5.22808310296303e+17
19482.0	5.2284116756507296e+17
19483.0	5.2286140396339194e+17
19484.0	5.228720632976724e+17
19485.0	5.228760861245439e+17
19486.0	5.228487114402475e+17
19487.0	5.2285902830960634e+17
19488.0	5.22837597303603e+17
19489.0	5.227890803212288e+17
19490.0	5.2274200415218336e+17
19491.0	5.2275481963834016e+17
19492.0	5.227325222988457e+17
19493.0	5.2269563675060896e+17
19494.0	5.226513222511274e+17
19495.0	5.225997761424041e+17
19496.0	5.225277023409494e+17
19497.0	5.2247447613385376e+17
19498.0	5.223038033330175e+17
19499.0	5.22094729302289e+17
19500.0	5.222910453787306e+17
19501.0	5.2226287894964896e+17
19502.0	5.222079899806378e+17
19503.0	5.221469695683242e+17
19504.0	5.220812983020202e+17
19505.0	5.2201529442740896e+17
19506.0	5.219472110867796e+17
19507.0	5.2187387018608634e+17
19508.0	5.2179951188705274e+17
19509.0	5.217137747907924e+17
19510.0	5.215722383518377e+17
19511.0	5.204768679002108e+17
19512.0	5.213123308246356e+17
19513.0	5.212833516792489e+17
19514.0	5.2123429558900045e+17
19515.0	5.212423942307839e+17
19516.0	5.2118423817857696e+17
19517.0	5.211152787177471e+17
19518.0	5.21035057410867e+17
19519.0	5.209557640937471e+17
19520.0	5.208594328846335e+17
19521.0	5.208023419759274e+17
19522.0	5.2071427487389e+17
19523.0	5.206329666131286e+17
19524.0	5.205392680987306e+17
19525.0	5.2047237852692474e+17
19526.0	5.203898445507242e+17
19527.0	5.2030535826582176e+17
19528.0	5.2021913910422176e+17
19529.0	5.201334409450836e+17
19530.0	5.200559843835903e+17
19531.0	5.1997094724676256e+17
19532.0	5.1988545880282445e+17
19533.0	5.1979965445789005e+17
19534.0	5.197133413438804e+17
19535.0	5.1962496365363194e+17
19536.0	5.195361387107668e+17
19537.0	5.1944986705046176e+17
19538.0	5.1933105038731936e+17
19539.0	5.192590769695402e+17
19540.0	5.1918613131209376e+17
19541.0	5.1909878045736954e+17
19542.0	5.190141720483157e+17
19543.0	5.1890523101375136e+17
19544.0	5.188328041218047e+17
19545.0	5.1871886263801165e+17
19546.0	5.186274309352106e+17
19547.0	5.1857030996732576e+17
19548.0	5.1848911103808845e+17
19549.0	5.183940465786879e+17
19550.0	5.183156760084479e+17
19551.0	5.182276891574272e+17
19552.0	5.181393915084798e+17
19553.0	5.1805030547019085e+17
19554.0	5.1796154686723405e+17
19555.0	5.178703624885588e+17
19556.0	5.1778407502970874e+17
19557.0	5.176966582545066e+17
19558.0	5.1760792258041165e+17
19559.0	5.1751916313859405e+17
19560.0	5.1741994785614496e+17
19561.0	5.1733872089497594e+17
19562.0	5.1724344238626125e+17
19563.0	5.171629348880383e+17
19564.0	5.1707364829211296e+17
19565.0	5.1698421363725645e+17
19566.0	5.1689346644486816e+17
19567.0	5.168052375126015e+17
19568.0	5.1671392206192634e+17
19569.0	5.1662516010352634e+17
19570.0	5.165369108987904e+17
19571.0	5.164472981258239e+17
19572.0	5.1635491256838816e+17
19573.0	5.1626514404693325e+17
19574.0	5.161693785096191e+17
19575.0	5.1608938970699085e+17
19576.0	5.1599768138984083e+17
19577.0	5.159036149650773e+17
19578.0	5.1581960801921696e+17
19579.0	5.1572852234649594e+17
19580.0	5.1563929279310496e+17
19581.0	5.1555148503886496e+17
19582.0	5.15462199841041e+17
19583.0	5.1537242453879443e+17
19584.0	5.1528238401672525e+17
19585.0	5.1518181117788154e+17
19586.0	5.150892610639188e+17
19587.0	5.150070142577321e+17
19588.0	5.1490547637944314e+17
19589.0	5.1482480593250976e+17
19590.0	5.1473356143547725e+17
19591.0	5.1465172350402554e+17
19592.0	5.145635310622036e+17
19593.0	5.144700722522794e+17
19594.0	5.143595508039678e+17
19595.0	5.142923035978409e+17
19596.0	5.1420232515147085e+17
19597.0	5.1411068471214074e+17
19598.0	5.139928707672745e+17
19599.0	5.1392965973988685e+17
19600.0	5.138431912968191e+17
19601.0	5.137486434358612e+17
19602.0	5.1365515351818234e+17
19603.0	5.135591438723753e+17
19604.0	5.134756031234047e+17
19605.0	5.1337476261806074e+17
19606.0	5.1330359261921274e+17
19607.0	5.132157317371221e+17
19608.0	5.1312513735720954e+17
19609.0	5.130336426699435e+17
19610.0	5.129362844854954e+17
19611.0	5.128410687515306e+17
19612.0	5.1276723935423136e+17
19613.0	5.1267631942642336e+17
19614.0	5.125834165714943e+17
19615.0	5.1249561797481805e+17
19616.0	5.123924449471147e+17
19617.0	5.1229128238912845e+17
19618.0	5.121860406607871e+17
19619.0	5.120845291367081e+17
19620.0	5.120084504040788e+17
19621.0	5.119260256894974e+17
19622.0	5.1186510908620794e+17
19623.0	5.11775964327663e+17
19624.0	5.116834859362985e+17
19625.0	5.1159780364561056e+17
19626.0	5.1150643331945805e+17
19627.0	5.114142893539328e+17
19628.0	5.1131835415702176e+17
19629.0	5.111587425047892e+17
19630.0	5.1110007810293754e+17
19631.0	5.1098647391109114e+17
19632.0	5.1094122478086816e+17
19633.0	5.1086548138284365e+17
19634.0	5.107865958918825e+17
19635.0	5.106949210592596e+17
19636.0	5.105874316034046e+17
19637.0	5.1047030251847674e+17
19638.0	5.104322798245204e+17
19639.0	5.103425182935722e+17
19640.0	5.1022744211073696e+17
19641.0	5.1009909612871674e+17
19642.0	5.100702772057428e+17
19643.0	5.099833041179987e+17
19644.0	5.098905247154175e+17
19645.0	5.097997931817642e+17
19646.0	5.0969221256970234e+17
19647.0	5.096307978229076e+17
19648.0	5.095421198903977e+17
19649.0	5.094530095251455e+17
19650.0	5.093643051685205e+17
19651.0	5.092745063082665e+17
19652.0	5.091851966436693e+17
19653.0	5.090965754740734e+17
19654.0	5.0900661611178656e+17
