# Flux units: erg / (cm m2 s)
# Wavelength units: Angstrom
wave	flux
19000.0	5.366513437507583e+17
19001.0	5.365380965640874e+17
19002.0	5.3645235254722554e+17
19003.0	5.3635210609513805e+17
19004.0	5.3625232248449696e+17
19005.0	5.3615232433520634e+17
19006.0	5.360541066679636e+17
19007.0	5.359527000014847e+17
19008.0	5.35846183833873e+17
19009.0	5.357432831563092e+17
19010.0	5.3558482479786656e+17
19011.0	5.3555127532912634e+17
19012.0	5.354166674609492e+17
19013.0	5.353569038718292e+17
19014.0	5.3525080748414285e+17
19015.0	5.3515247622116685e+17
19016.0	5.3505070667748685e+17
19017.0	5.349600047136767e+17
19018.0	5.348580699843241e+17
19019.0	5.34760037495603e+17
19020.0	5.3465950583084365e+17
19021.0	5.345626473278121e+17
19022.0	5.3446283449685325e+17
19023.0	5.343591570341887e+17
19024.0	5.342610594638505e+17
19025.0	5.3416344123255456e+17
19026.0	5.340602867296938e+17
19027.0	5.339412429449898e+17
19028.0	5.3386836579450874e+17
19029.0	5.337664911136085e+17
19030.0	5.336709854833322e+17
19031.0	5.335727104240298e+17
19032.0	5.3347260888514554e+17
19033.0	5.333617458107732e+17
19034.0	5.3327290353145165e+17
19035.0	5.3316879328651936e+17
19036.0	5.31049523812761e+17
19037.0	5.3297489508652365e+17
19038.0	5.3287621066315085e+17
19039.0	5.3278017641076045e+17
19040.0	5.3268196992832845e+17
19041.0	5.3258199547685536e+17
19042.0	5.324505515819007e+17
19043.0	5.3238554077866656e+17
19044.0	5.3228504308776954e+17
19045.0	5.321868304536917e+17
19046.0	5.32080180278067e+17
19047.0	5.3198802303057914e+17
19048.0	5.318560987480062e+17
19049.0	5.317408212385791e+17
19050.0	5.316864272673451e+17
19051.0	5.31306474145928e+17
19052.0	5.3145218825147725e+17
19053.0	5.313972739768319e+17
19054.0	5.3129943938935456e+17
19055.0	5.3116046720805555e+17
19056.0	5.3109599145820154e+17
19057.0	5.3100274802578765e+17
19058.0	5.3088137108957856e+17
19059.0	5.3079744082957645e+17
19060.0	5.307047341981696e+17
19061.0	5.306097237054805e+17
19062.0	5.305105038792021e+17
19063.0	5.304123468895573e+17
19064.0	5.302965292935851e+17
19065.0	5.301930333044736e+17
19066.0	5.3010189562238285e+17
19067.0	5.3001723758073165e+17
19068.0	5.299205286046378e+17
19069.0	5.298224044703742e+17
19070.0	5.2971993797317965e+17
19071.0	5.296241725756756e+17
19072.0	5.2951882990441805e+17
19073.0	5.294285527536979e+17
19074.0	5.293310430150655e+17
19075.0	5.2923281542130336e+17
19076.0	5.2913169242958496e+17
19077.0	5.2903413354769056e+17
19078.0	5.2893208361478803e+17
19079.0	5.288396190646271e+17
19080.0	5.2873992912677536e+17
19081.0	5.286379017033044e+17
19082.0	5.285396191641599e+17
19083.0	5.284353203852627e+17
19084.0	5.283213216492202e+17
19085.0	5.2824946769920006e+17
19086.0	5.2809386244614816e+17
19087.0	5.279880639239509e+17
19088.0	5.2793486484002125e+17
19089.0	5.2781135901491194e+17
19090.0	5.277575845423785e+17
19091.0	5.2765795709965645e+17
19092.0	5.275321713207978e+17
19093.0	5.274679390502911e+17
19094.0	5.273701982754132e+17
19095.0	5.272723819331584e+17
19096.0	5.271721528175273e+17
19097.0	5.270764466296149e+17
19098.0	5.2696949781954554e+17
19099.0	5.268694928894634e+17
19100.0	5.2677859484194125e+17
19101.0	5.266843328228009e+17
19102.0	5.265705733718015e+17
19103.0	5.2648999191401805e+17
19104.0	5.263927944413183e+17
19105.0	5.262744287357611e+17
19106.0	5.2618804753421645e+17
19107.0	5.2609182265070925e+17
19108.0	5.259943642223956e+17
19109.0	5.2577511075566906e+17
19110.0	5.258037078698666e+17
19111.0	5.2570312608317434e+17
19112.0	5.256051525244245e+17
19113.0	5.2551402483875834e+17
19114.0	5.2541301327571616e+17
19115.0	5.2530868793289376e+17
19116.0	5.252194492918442e+17
19117.0	5.251216377031338e+17
19118.0	5.2500884650721274e+17
19119.0	5.237772581339119e+17
19120.0	5.248152514854911e+17
19121.0	5.247239814731094e+17
19122.0	5.2463821159137254e+17
19123.0	5.245409402989225e+17
19124.0	5.2443529444939085e+17
19125.0	5.2434550404765e+17
19126.0	5.242481873868117e+17
19127.0	5.238970980674217e+17
19128.0	5.2403752462363296e+17
19129.0	5.239472086756009e+17
19130.0	5.238581138991786e+17
19131.0	5.2376283923524256e+17
19132.0	5.2366566811675296e+17
19133.0	5.23557073391889e+17
19134.0	5.2346344345436154e+17
19135.0	5.233739117712725e+17
19136.0	5.232780999568042e+17
19137.0	5.2315803597755725e+17
19138.0	5.2308170915184634e+17
19139.0	5.229870374191102e+17
19140.0	5.2289026601779194e+17
19141.0	5.227933291511806e+17
19142.0	5.226929668663977e+17
19143.0	5.225911448240126e+17
19144.0	5.224975809467732e+17
19145.0	5.224057800753151e+17
19146.0	5.222262738605398e+17
19147.0	5.2219777664068256e+17
19148.0	5.221071675108009e+17
19149.0	5.2200866875528525e+17
19150.0	5.219206322716671e+17
19151.0	5.218242803007487e+17
19152.0	5.217259545602729e+17
19153.0	5.2161423976256845e+17
19154.0	5.2151519665629856e+17
19155.0	5.214376253106858e+17
19156.0	5.213410793532074e+17
19157.0	5.212371565237588e+17
19158.0	5.210524764951891e+17
19159.0	5.2104821676004685e+17
19160.0	5.2095196643109536e+17
19161.0	5.2085635167901e+17
19162.0	5.2055997362995206e+17
19163.0	5.206603657641984e+17
19164.0	5.205685653121706e+17
19165.0	5.204506601411924e+17
19166.0	5.203525419488596e+17
19167.0	5.2026058539881805e+17
19168.0	5.2018185558644045e+17
19169.0	5.2008188148449274e+17
19170.0	5.199902271340543e+17
19171.0	5.1988105296609274e+17
19172.0	5.197965041860607e+17
19173.0	5.1970069705523194e+17
19174.0	5.1959644804874234e+17
19175.0	5.1950851194879994e+17
19176.0	5.1941212509525325e+17
19177.0	5.192956768856746e+17
19178.0	5.1921529186112845e+17
19179.0	5.1910547198006605e+17
19180.0	5.1902559020209485e+17
19181.0	5.1891123502011725e+17
19182.0	5.18832402796817e+17
19183.0	5.187392749174782e+17
19184.0	5.1864203445316256e+17
19185.0	5.185455284114772e+17
19186.0	5.184506640203775e+17
19187.0	5.1834613001093114e+17
19188.0	5.182581524572842e+17
19189.0	5.1816233050658125e+17
19190.0	5.180653856008874e+17
19191.0	5.1796467735592954e+17
19192.0	5.178746973017428e+17
19193.0	5.1777556842195616e+17
19194.0	5.1767765938558285e+17
19195.0	5.175863547002879e+17
19196.0	5.174877043905877e+17
19197.0	5.1739198729748474e+17
19198.0	5.1729239592577696e+17
19199.0	5.160162314682364e+17
19200.0	5.163033845650777e+17
19201.0	5.170057733384874e+17
19202.0	5.1691420581014176e+17
19203.0	5.168158000982698e+17
19204.0	5.167195672455849e+17
19205.0	5.1662691583918074e+17
19206.0	5.165303493296127e+17
19207.0	5.1642178501345274e+17
19208.0	5.163070582161407e+17
19209.0	5.162442451582974e+17
19210.0	5.161484107644928e+17
19211.0	5.1605453196492794e+17
19212.0	5.1595840019496954e+17
19213.0	5.1584312981585914e+17
19214.0	5.1574023640842234e+17
19215.0	5.1566737617496736e+17
19216.0	5.15576332165666e+17
19217.0	5.1547989435132576e+17
19218.0	5.1527022032540986e+17
19219.0	5.152705559396351e+17
19220.0	5.1519037280092154e+17
19221.0	5.150528396853248e+17
19222.0	5.1500217584844794e+17
19223.0	5.149047847387135e+17
19224.0	5.148062355117396e+17
19225.0	5.1469593971698336e+17
19226.0	5.14618418073873e+17
19227.0	5.145229427124906e+17
19228.0	5.144306883668649e+17
19229.0	5.143351709226324e+17
19230.0	5.1423862839050234e+17
19231.0	5.1414273639492256e+17
19232.0	5.1404780839021216e+17
19233.0	5.139442340375211e+17
19234.0	5.1385498700786336e+17
19235.0	5.1375855960937805e+17
19236.0	5.1366760836410016e+17
19237.0	5.135701257486336e+17
19238.0	5.1346216918712314e+17
19239.0	5.1338198716689056e+17
19240.0	5.132848035353941e+17
19241.0	5.131875226659498e+17
19242.0	5.13092714758144e+17
19243.0	5.129785014834517e+17
19244.0	5.129045029857961e+17
19245.0	5.128085947023359e+17
19246.0	5.1271163197085005e+17
19247.0	5.1261773192014496e+17
19248.0	5.125233907684693e+17
19249.0	5.1242691828121594e+17
19250.0	5.12327466230306e+17
19251.0	5.122190905180159e+17
19252.0	5.1210743884458656e+17
19253.0	5.1204430911679136e+17
19254.0	5.1195260338612896e+17
19255.0	5.1183397693467296e+17
19256.0	5.11757964611857e+17
19257.0	5.1166759092223994e+17
19258.0	5.115723929441621e+17
19259.0	5.1146815519238816e+17
19260.0	5.113381422541481e+17
19261.0	5.112852535487146e+17
19262.0	5.111841309065215e+17
19263.0	5.1108796705013754e+17
19264.0	5.109221032984575e+17
19265.0	5.108772726199636e+17
19266.0	5.107694532121941e+17
19267.0	5.1071685852747085e+17
19268.0	5.106208666375508e+17
19269.0	5.1052623789643085e+17
19270.0	5.104313835017556e+17
19271.0	5.102868577823403e+17
19272.0	5.102366615404543e+17
19273.0	5.100617453622612e+17
19274.0	5.0997712150418746e+17
19275.0	5.099564582655317e+17
19276.0	5.0985869784733005e+17
19277.0	5.097644645591722e+17
19278.0	5.096693246022996e+17
19279.0	5.095722879811583e+17
19280.0	5.0946786588972365e+17
19281.0	5.093837300389204e+17
19282.0	5.0929092917548365e+17
19283.0	5.0917831288203936e+17
19284.0	5.090661466374143e+17
19285.0	5.089134577538388e+17
19286.0	5.088372206862335e+17
19287.0	5.0874649558384634e+17
19288.0	5.0810038528245696e+17
19289.0	5.072174217254205e+17
19290.0	5.084612160126975e+17
19291.0	5.083335735552683e+17
19292.0	5.0827190029953696e+17
19293.0	5.081758197699924e+17
19294.0	5.080803302178814e+17
19295.0	5.079865888516778e+17
19296.0	5.0788126547421856e+17
19297.0	5.0779068025186976e+17
19298.0	5.0769685052566176e+17
19299.0	5.075948666530474e+17
19300.0	5.0750896479054496e+17
19301.0	5.074142869760681e+17
19302.0	5.073177717768191e+17
19303.0	5.0721382070572365e+17
19304.0	5.0712428776434336e+17
19305.0	5.0703097135104e+17
19306.0	5.069363960173908e+17
19307.0	5.0683461410051405e+17
19308.0	5.067421717102591e+17
19309.0	5.0660557965666976e+17
19310.0	5.0649525289396896e+17
19311.0	5.0645090113508685e+17
19312.0	5.0636280446320634e+17
19313.0	5.0626818453012474e+17
19314.0	5.027417090075317e+17
19315.0	5.0291509510362874e+17
19316.0	5.05964259250449e+17
19317.0	5.058842596824405e+17
19318.0	5.0578825926410234e+17
19319.0	5.0569482506076154e+17
19320.0	5.055943769325568e+17
19321.0	5.054944296042494e+17
19322.0	5.053946935989588e+17
19323.0	5.052912441666217e+17
19324.0	5.052119964975103e+17
19325.0	5.0507529720954874e+17
19326.0	5.050209233010687e+17
19327.0	5.0492260168499194e+17
19328.0	5.0480615333560314e+17
19329.0	5.046478294046036e+17
19330.0	5.045456103713451e+17
19331.0	5.044481198566057e+17
19332.0	5.0435703453341e+17
19333.0	5.0425796178739194e+17
19334.0	5.0416239296293536e+17
19335.0	5.0403053550960634e+17
19336.0	5.039670661829972e+17
19337.0	5.0387057482137594e+17
19338.0	5.0374506314028365e+17
19339.0	5.036751020796585e+17
19340.0	5.0355214885410125e+17
19341.0	5.034601055518719e+17
19342.0	5.0332221326404256e+17
19343.0	5.032831255663957e+17
19344.0	5.031711753983317e+17
19345.0	5.027857861793103e+17
19346.0	5.028643617112062e+17
19347.0	5.028627724195157e+17
19348.0	5.027388535253675e+17
19349.0	5.0258268567633914e+17
19350.0	5.0247791468871674e+17
19351.0	5.0238315655331834e+17
19352.0	5.022603817953961e+17
19353.0	5.021883690210645e+17
19354.0	5.02088341861171e+17
19355.0	5.0197441785364474e+17
19356.0	5.018862475018239e+17
19357.0	5.017853124149247e+17
19358.0	5.0168259502844576e+17
19359.0	5.015700143166804e+17
19360.0	5.013561451479039e+17
19361.0	5.0126020953156256e+17
19362.0	5.011627529207807e+17
19363.0	5.0105927475746125e+17
19364.0	5.0095529194946554e+17
19365.0	5.0085124846387194e+17
19366.0	5.007465707995135e+17
19367.0	5.006415797507412e+17
19368.0	5.005362075795454e+17
19369.0	5.004228490341034e+17
19370.0	5.00313815585041e+17
19371.0	5.002092952769877e+17
19372.0	5.00108690980864e+17
19373.0	4.99997744369937e+17
19374.0	4.9989068545938765e+17
19375.0	4.9978140524543994e+17
19376.0	4.996716020017834e+17
19377.0	4.995590591785642e+17
19378.0	4.994477486418602e+17
19379.0	4.993354998393515e+17
19380.0	4.992220794978304e+17
19381.0	4.9910703218578765e+17
19382.0	4.989826540852564e+17
19383.0	4.988605218947072e+17
19384.0	4.987289166588585e+17
19385.0	4.9856378334522016e+17
19386.0	4.984441882891605e+17
19387.0	4.9832267140300806e+17
19388.0	4.981997905291945e+17
19389.0	4.980752747855871e+17
19390.0	4.979484897138004e+17
19391.0	4.959654236913635e+17
19392.0	4.976679032892072e+17
19393.0	4.9756238809224525e+17
19394.0	4.974093868029269e+17
19395.0	4.9717875006504966e+17
19396.0	4.970452785736361e+17
19397.0	4.969103028649983e+17
19398.0	4.967587254020778e+17
19399.0	4.9649676727965005e+17
19400.0	4.96422120132881e+17
19401.0	4.961677035787604e+17
19402.0	4.960138347675647e+17
19403.0	4.958523373562538e+17
19404.0	4.956633508959575e+17
19405.0	4.953346861432832e+17
19406.0	4.9516224355587405e+17
19407.0	4.949361132481194e+17
19408.0	4.944493302251521e+17
19409.0	4.9436997923635194e+17
19410.0	4.9391999410066765e+17
19411.0	4.9367301936032416e+17
19412.0	4.931205454277289e+17
19413.0	4.9270320791551974e+17
19414.0	4.9216908776789286e+17
19415.0	4.914609502814207e+17
19416.0	4.908940730389847e+17
19417.0	4.9055838751074976e+17
19418.0	4.9025158815416314e+17
19419.0	4.899074357242538e+17
19420.0	4.895490102875476e+17
19421.0	4.8917167706821965e+17
19422.0	4.887703771065002e+17
19423.0	4.883599920726015e+17
19424.0	4.879143150463658e+17
19425.0	4.874372830811476e+17
19426.0	4.8696295539343354e+17
19427.0	4.8646463971218765e+17
19428.0	4.8594785245593594e+17
19429.0	4.8534806264982163e+17
19430.0	4.8472980301632864e+17
19431.0	4.8379590194408154e+17
19432.0	4.834308067950591e+17
19433.0	4.826372878893055e+17
19434.0	4.8174102419428666e+17
19435.0	4.8050314156878445e+17
19436.0	4.7873915690680294e+17
19437.0	4.7616708889804794e+17
19438.0	4.692862681743363e+17
19439.0	4.704317641239212e+17
19440.0	4.6847959040873805e+17
19441.0	4.662662239617022e+17
19442.0	4.639537433848491e+17
19443.0	4.615348091355136e+17
19444.0	4.5890761385137446e+17
19445.0	4.551367789466974e+17
19446.0	4.4586184901045165e+17
19447.0	4.379147331698684e+17
19448.0	4.298994784840365e+17
19449.0	4.13019943137006e+17
19450.0	3.6955989160755616e+17
19451.0	3.4806612630350566e+17
19452.0	3.9611447245100435e+17
19453.0	4.2366955662868506e+17
19454.0	4.337704172344657e+17
19455.0	4.4092051737804826e+17
19456.0	4.5058535212100506e+17
19457.0	4.563979228326569e+17
19458.0	4.495536133155646e+17
19459.0	4.6121665195322304e+17
19460.0	4.636670631258793e+17
19461.0	4.6576680042495994e+17
19462.0	4.677373131052373e+17
19463.0	4.6947503023936845e+17
19464.0	4.720686824161274e+17
19465.0	4.75373746013252e+17
19466.0	4.772495012571815e+17
19467.0	4.784490955494743e+17
19468.0	4.7928081792368614e+17
19469.0	4.798786249424896e+17
19470.0	4.8045998700407443e+17
19471.0	4.809943019771221e+17
19472.0	4.8139243684713805e+17
19473.0	4.81820646834176e+17
19474.0	4.821844908223146e+17
19475.0	4.8239737391022054e+17
19476.0	4.8281726847986336e+17
19477.0	4.831094557201749e+17
19478.0	4.834095527886847e+17
19479.0	4.8363841540587514e+17
19480.0	4.838702545108991e+17
19481.0	4.840728095446357e+17
19482.0	4.8426306380322125e+17
19483.0	4.8443598782682445e+17
19484.0	4.845884051991211e+17
19485.0	4.8472156274687994e+17
19486.0	4.849897550730578e+17
19487.0	4.854121183401304e+17
19488.0	4.857902682603521e+17
19489.0	4.862094862887594e+17
19490.0	4.862153427255295e+17
19491.0	4.8663492062522016e+17
19492.0	4.868203120776532e+17
19493.0	4.869590015628628e+17
19494.0	4.8700856761057254e+17
19495.0	4.871934314195626e+17
19496.0	4.871230651192659e+17
19497.0	4.8719520239452154e+17
19498.0	4.871531082197676e+17
19499.0	4.843383441500825e+17
19500.0	4.8729419034569376e+17
19501.0	4.872679767845546e+17
19502.0	4.873678728724479e+17
19503.0	4.873413516591102e+17
19504.0	4.8730364360785914e+17
19505.0	4.872646456683177e+17
19506.0	4.872310919353683e+17
19507.0	4.8718273713274874e+17
19508.0	4.872122145614507e+17
19509.0	4.8719109211641165e+17
19510.0	4.8710675647692794e+17
19511.0	4.812607285712178e+17
19512.0	4.8658333536965875e+17
19513.0	4.861215726982471e+17
19514.0	4.863151337461069e+17
19515.0	4.867744604356609e+17
19516.0	4.867950461495978e+17
19517.0	4.867274110402559e+17
19518.0	4.866719022929236e+17
19519.0	4.86651732234513e+17
19520.0	4.8660036473323514e+17
19521.0	4.8655145851944954e+17
19522.0	4.8647788539412474e+17
19523.0	4.864126671825578e+17
19524.0	4.8633817221911885e+17
19525.0	4.862763604115455e+17
19526.0	4.8620800227409914e+17
19527.0	4.861359218316628e+17
19528.0	4.860627972172457e+17
19529.0	4.8598948434848416e+17
19530.0	4.859201552296619e+17
19531.0	4.8584663704971936e+17
19532.0	4.85772577804561e+17
19533.0	4.8569798511383885e+17
19534.0	4.8562240990740474e+17
19535.0	4.8554478592327674e+17
19536.0	4.8546569686876154e+17
19537.0	4.853947860779007e+17
19538.0	4.8529128659353594e+17
19539.0	4.851582634732203e+17
19540.0	4.8515908520727885e+17
19541.0	4.8508157418973856e+17
19542.0	4.8500425079739725e+17
19543.0	4.8491415281336314e+17
19544.0	4.8484721172152314e+17
19545.0	4.847349339783165e+17
19546.0	4.846148630085632e+17
19547.0	4.8466715465482234e+17
19548.0	4.8458690846173856e+17
19549.0	4.84493650698786e+17
19550.0	4.844633218962772e+17
19551.0	4.843901556883455e+17
19552.0	4.8430884393233056e+17
19553.0	4.842241906442238e+17
19554.0	4.8414007967962445e+17
19555.0	4.8406070009965216e+17
19556.0	4.839814428535466e+17
19557.0	4.838997062844415e+17
19558.0	4.8381738146420045e+17
19559.0	4.837683173348693e+17
19560.0	4.837381168780629e+17
19561.0	4.836597064619349e+17
19562.0	4.835749486657534e+17
19563.0	4.834976247840768e+17
19564.0	4.8341444921917434e+17
19565.0	4.8333281631928314e+17
19566.0	4.8324558045839354e+17
19567.0	4.8316623785820154e+17
19568.0	4.830795782946815e+17
19569.0	4.829958763446271e+17
19570.0	4.8291512571658234e+17
19571.0	4.8283037015736314e+17
19572.0	4.8274264873588045e+17
19573.0	4.826585444821674e+17
19574.0	4.825664221872127e+17
19575.0	4.8249455467560954e+17
19576.0	4.8240883526533114e+17
19577.0	4.823198615644842e+17
19578.0	4.822347942286676e+17
19579.0	4.8215304584560634e+17
19580.0	4.8206855159152634e+17
19581.0	4.8198500629872634e+17
19582.0	4.819028231061502e+17
19583.0	4.8181803881594874e+17
19584.0	4.817319094823593e+17
19585.0	4.8163330901497165e+17
19586.0	4.8154432531770016e+17
19587.0	4.8149340262236154e+17
19588.0	4.814003686954326e+17
19589.0	4.813796384178175e+17
19590.0	4.812797727386282e+17
19591.0	4.8121104263632205e+17
19592.0	4.811265389450581e+17
19593.0	4.810378396215978e+17
19594.0	4.809222529220607e+17
19595.0	4.808661055919445e+17
19596.0	4.8074846571069434e+17
19597.0	4.806978185112233e+17
19598.0	4.8054300199703885e+17
19599.0	4.8052859358412806e+17
19600.0	4.804443323935401e+17
19601.0	4.803495277712725e+17
19602.0	4.8026651844061856e+17
19603.0	4.8010980197662694e+17
19604.0	4.800944606106964e+17
19605.0	4.799753701993131e+17
19606.0	4.799299971973119e+17
19607.0	4.7984560416576845e+17
19608.0	4.79757507703603e+17
19609.0	4.7966698148113056e+17
19610.0	4.7958212232260256e+17
19611.0	4.794923927382698e+17
19612.0	4.794174302497451e+17
19613.0	4.793303505567743e+17
19614.0	4.792408620750164e+17
19615.0	4.791600075680425e+17
19616.0	4.790519334961151e+17
19617.0	4.7897793534798496e+17
19618.0	4.788178019243348e+17
19619.0	4.7871071924606266e+17
19620.0	4.786293911322623e+17
19621.0	4.786328787659434e+17
19622.0	4.7856038126987936e+17
19623.0	4.784739563776682e+17
19624.0	4.78385692283153e+17
19625.0	4.783030846969173e+17
19626.0	4.7821672062211405e+17
19627.0	4.781312375608661e+17
19628.0	4.7801480682755424e+17
19629.0	4.779154892040874e+17
19630.0	4.7780638878597126e+17
19631.0	4.764458902268585e+17
19632.0	4.7769949757767674e+17
19633.0	4.7760879882949965e+17
19634.0	4.775311419200853e+17
19635.0	4.7743887638964896e+17
19636.0	4.773449767583743e+17
19637.0	4.772167094195541e+17
19638.0	4.7718524941325645e+17
19639.0	4.771011691369812e+17
19640.0	4.7700181201715194e+17
19641.0	4.767530156905817e+17
19642.0	4.768435001797289e+17
19643.0	4.7675699510640634e+17
19644.0	4.7666559367249914e+17
19645.0	4.765482305454078e+17
19646.0	4.764876587139071e+17
19647.0	4.7641687969409696e+17
19648.0	4.7633126646961485e+17
19649.0	4.762451310542846e+17
19650.0	4.761603011859796e+17
19651.0	4.760740924402346e+17
19652.0	4.759881612875092e+17
19653.0	4.759026483767977e+17
19654.0	4.75816970420224e+17
