# Flux units: erg / (cm m2 s)
# Wavelength units: Angstrom
wave	flux
19000.0	3.589496760522069e+17
19001.0	3.5886598605591885e+17
19002.0	3.588218219222357e+17
19003.0	3.5875662880658765e+17
19004.0	3.58689386074385e+17
19005.0	3.5862208308401485e+17
19006.0	3.585376404897791e+17
19007.0	3.5850136870802765e+17
19008.0	3.5842367453921274e+17
19009.0	3.5834864920603296e+17
19010.0	3.5819915994726374e+17
19011.0	3.5823637006472525e+17
19012.0	3.5813988128959136e+17
19013.0	3.581163221636437e+17
19014.0	3.580439037302101e+17
19015.0	3.5796960813602125e+17
19016.0	3.579039203022165e+17
19017.0	3.5785874876661754e+17
19018.0	3.577935527848618e+17
19019.0	3.57726881316864e+17
19020.0	3.5766652080837965e+17
19021.0	3.576042403572393e+17
19022.0	3.5754008519202125e+17
19023.0	3.5746699916520096e+17
19024.0	3.5739841824030714e+17
19025.0	3.57347563143168e+17
19026.0	3.572781220364287e+17
19027.0	3.572062593482752e+17
19028.0	3.5715684772085754e+17
19029.0	3.570905945647786e+17
19030.0	3.5703058609821e+17
19031.0	3.5696448323802445e+17
19032.0	3.5690118748569594e+17
19033.0	3.5682336664890016e+17
19034.0	3.5677443596834125e+17
19035.0	3.5670686153659725e+17
19036.0	3.5518481341699366e+17
19037.0	3.5658099725434874e+17
19038.0	3.5651730989383674e+17
19039.0	3.5645577169469434e+17
19040.0	3.56393377927441e+17
19041.0	3.563281793591978e+17
19042.0	3.558117655358117e+17
19043.0	3.562051058969258e+17
19044.0	3.561396425981951e+17
19045.0	3.5607580249511245e+17
19046.0	3.560005283698005e+17
19047.0	3.559468464515754e+17
19048.0	3.557687992254463e+17
19049.0	3.549245445505015e+17
19050.0	3.557367735473492e+17
19051.0	3.555082543737511e+17
19052.0	3.556050938626048e+17
19053.0	3.5557004772638714e+17
19054.0	3.5550539022335994e+17
19055.0	3.552669358620672e+17
19056.0	3.553236133522089e+17
19057.0	3.5531579691717965e+17
19058.0	3.547835314907812e+17
19059.0	3.5499935450617165e+17
19060.0	3.5512140735447034e+17
19061.0	3.550629179250005e+17
19062.0	3.549987150146218e+17
19063.0	3.5493660506193914e+17
19064.0	3.548493420079787e+17
19065.0	3.5478089481147725e+17
19066.0	3.545587752370177e+17
19067.0	3.5468033686241274e+17
19068.0	3.546202019375786e+17
19069.0	3.5455779181253965e+17
19070.0	3.5448837055883936e+17
19071.0	3.5442920521727994e+17
19072.0	3.541813358318931e+17
19073.0	3.543034234230101e+17
19074.0	3.542421514922666e+17
19075.0	3.5417917940039674e+17
19076.0	3.5409963526389754e+17
19077.0	3.5404780422212256e+17
19078.0	3.5397695075341645e+17
19079.0	3.539253594860202e+17
19080.0	3.5386093392800416e+17
19081.0	3.537895378561706e+17
19082.0	3.5372812905130656e+17
19083.0	3.536614494044159e+17
19084.0	3.5357829998400845e+17
19085.0	3.5354152942960634e+17
19086.0	3.53214978326528e+17
19087.0	3.530215286374397e+17
19088.0	3.531362717925372e+17
19089.0	3.532534389058219e+17
19090.0	3.532299823306069e+17
19091.0	3.531196729043628e+17
19092.0	3.527677201175899e+17
19093.0	3.5304537178767354e+17
19094.0	3.529824832323584e+17
19095.0	3.5291921327499936e+17
19096.0	3.5285361149433165e+17
19097.0	3.5279310082976416e+17
19098.0	3.525433440425301e+17
19099.0	3.524500915224577e+17
19100.0	3.525933204679338e+17
19101.0	3.5253698047945376e+17
19102.0	3.5244669661784736e+17
19103.0	3.5241578270993056e+17
19104.0	3.5235485324410874e+17
19105.0	3.518940300268893e+17
19106.0	3.5221897051723085e+17
19107.0	3.5206509052122445e+17
19108.0	3.519629428610389e+17
19109.0	3.519744347646633e+17
19110.0	3.519770281727316e+17
19111.0	3.518059766611966e+17
19112.0	3.5171240069038054e+17
19113.0	3.5178742270306976e+17
19114.0	3.5166071022769485e+17
19115.0	3.516282764787712e+17
19116.0	3.5159300685605536e+17
19117.0	3.5153663044703565e+17
19118.0	3.5145796875714554e+17
19119.0	3.472684526600131e+17
19120.0	3.513403219902463e+17
19121.0	3.5128291787188896e+17
19122.0	3.5122806259711994e+17
19123.0	3.511655949751637e+17
19124.0	3.5109929299039565e+17
19125.0	3.510404732594858e+17
19126.0	3.5097835596677114e+17
19127.0	3.505193986206377e+17
19128.0	3.5085090134425594e+17
19129.0	3.507782717625684e+17
19130.0	3.5072606127609165e+17
19131.0	3.5066565501474125e+17
19132.0	3.5060217558685005e+17
19133.0	3.505322521001984e+17
19134.0	3.5047865459234125e+17
19135.0	3.5041502305102496e+17
19136.0	3.5035152691582285e+17
19137.0	3.502569712954026e+17
19138.0	3.5022762735042554e+17
19139.0	3.5016856183330125e+17
19140.0	3.501066197226837e+17
19141.0	3.500438596179285e+17
19142.0	3.4997442620074656e+17
19143.0	3.49905545068544e+17
19144.0	3.4985019434161485e+17
19145.0	3.4979461044633594e+17
19146.0	3.4961679446616755e+17
19147.0	3.4963247766787405e+17
19148.0	3.4944950535017824e+17
19149.0	3.4936633792921606e+17
19150.0	3.4948311801309856e+17
19151.0	3.4942139372666874e+17
19152.0	3.493590614758741e+17
19153.0	3.489871114709671e+17
19154.0	3.4916574610937165e+17
19155.0	3.4917421930250234e+17
19156.0	3.491118000548522e+17
19157.0	3.489340045219159e+17
19158.0	3.487272287251117e+17
19159.0	3.4891451995258874e+17
19160.0	3.4886172960358394e+17
19161.0	3.488019322153642e+17
19162.0	3.4863753570112864e+17
19163.0	3.486774563176448e+17
19164.0	3.486112946323455e+17
19165.0	3.482035871023099e+17
19166.0	3.4845787080185165e+17
19167.0	3.4840922771073696e+17
19168.0	3.483682219229183e+17
19169.0	3.4830356431503354e+17
19170.0	3.4824580794504525e+17
19171.0	3.481759948384938e+17
19172.0	3.4812108269595296e+17
19173.0	3.480594712013482e+17
19174.0	3.479847877388971e+17
19175.0	3.4793520998208845e+17
19176.0	3.4787425601454074e+17
19177.0	3.4778350225107616e+17
19178.0	3.4773511515231565e+17
19179.0	3.476634679465301e+17
19180.0	3.476263380800853e+17
19181.0	3.4752221773387085e+17
19182.0	3.4749445902609056e+17
19183.0	3.4744252078489594e+17
19184.0	3.473752889578837e+17
19185.0	3.473162742617429e+17
19186.0	3.472579084244309e+17
19187.0	3.4718530666496e+17
19188.0	3.471305970723498e+17
19189.0	3.4707344052278605e+17
19190.0	3.470120182262443e+17
19191.0	3.469401012218538e+17
19192.0	3.468884635724459e+17
19193.0	3.467893897079466e+17
19194.0	3.46706792677376e+17
19195.0	3.467029105694037e+17
19196.0	3.4663861950873594e+17
19197.0	3.465784237664938e+17
19198.0	3.465199048021333e+17
19199.0	3.458209029641555e+17
19200.0	3.4597238472704026e+17
19201.0	3.463320139639466e+17
19202.0	3.4627468342067194e+17
19203.0	3.46210772259089e+17
19204.0	3.4614595491812685e+17
19205.0	3.4608858907279354e+17
19206.0	3.4602524557530445e+17
19207.0	3.459440295193258e+17
19208.0	3.45845595321139e+17
19209.0	3.4584202380137805e+17
19210.0	3.4578015239973536e+17
19211.0	3.4572145297544525e+17
19212.0	3.4566060190815565e+17
19213.0	3.4558030667666765e+17
19214.0	3.4550969563873274e+17
19215.0	3.4547490699782816e+17
19216.0	3.4541622728676685e+17
19217.0	3.4535425085276154e+17
19218.0	3.451276251627517e+17
19219.0	3.452105032466431e+17
19220.0	3.451668242541227e+17
19221.0	3.450446132106581e+17
19222.0	3.4504820727480314e+17
19223.0	3.449841539263146e+17
19224.0	3.449197486058154e+17
19225.0	3.4483414401460896e+17
19226.0	3.4480146395518285e+17
19227.0	3.447409809730218e+17
19228.0	3.4468228046520314e+17
19229.0	3.44621213356305e+17
19230.0	3.4455932182200314e+17
19231.0	3.4449809057600845e+17
19232.0	3.4443785946180256e+17
19233.0	3.44365980520721e+17
19234.0	3.443113267473067e+17
19235.0	3.44250411716881e+17
19236.0	3.4419502603741856e+17
19237.0	3.441302699682474e+17
19238.0	3.4405085120648525e+17
19239.0	3.4401239548559354e+17
19240.0	3.439500143012522e+17
19241.0	3.438868465800533e+17
19242.0	3.438265465744042e+17
19243.0	3.4374356786216954e+17
19244.0	3.4370739328341325e+17
19245.0	3.4364250663157754e+17
19246.0	3.435818267617962e+17
19247.0	3.435236129680042e+17
19248.0	3.4346472500974925e+17
19249.0	3.4339745106493434e+17
19250.0	3.4328429821515085e+17
19251.0	3.432048830534995e+17
19252.0	3.431785837188437e+17
19253.0	3.4315479803057485e+17
19254.0	3.4310000486645754e+17
19255.0	3.430093073066665e+17
19256.0	3.4297057860648954e+17
19257.0	3.429182300924586e+17
19258.0	3.4285742282069325e+17
19259.0	3.427851965912405e+17
19260.0	3.426939893186559e+17
19261.0	3.426738972043946e+17
19262.0	3.426032240208554e+17
19263.0	3.425385202057216e+17
19264.0	3.4236667509691706e+17
19265.0	3.4238347283005434e+17
19266.0	3.42259724049886e+17
19267.0	3.4231213048026445e+17
19268.0	3.422500854693887e+17
19269.0	3.421905533359445e+17
19270.0	3.4213072602835616e+17
19271.0	3.419910255061676e+17
19272.0	3.4200246284888736e+17
19273.0	3.4187967491386016e+17
19274.0	3.418110270898174e+17
19275.0	3.4182877930673485e+17
19276.0	3.417645197732522e+17
19277.0	3.4170560430735354e+17
19278.0	3.4164134662635514e+17
19279.0	3.4158164270120954e+17
19280.0	3.4150677458452474e+17
19281.0	3.414628816475477e+17
19282.0	3.4140611471387296e+17
19283.0	3.4133662026956794e+17
19284.0	3.4127966546602656e+17
19285.0	3.4119371187377485e+17
19286.0	3.4115748144087034e+17
19287.0	3.411030581095082e+17
19288.0	3.4063394457081126e+17
19289.0	3.400141807899973e+17
19290.0	3.409235237229909e+17
19291.0	3.408194451101014e+17
19292.0	3.408030788659882e+17
19293.0	3.407416444409173e+17
19294.0	3.4068013913210874e+17
19295.0	3.4062257182037325e+17
19296.0	3.4039008902949574e+17
19297.0	3.40457293873152e+17
19298.0	3.4043680973127674e+17
19299.0	3.401812490059777e+17
19300.0	3.403083078959104e+17
19301.0	3.402591897299626e+17
19302.0	3.4019853215989754e+17
19303.0	3.401265248032084e+17
19304.0	3.400749714243584e+17
19305.0	3.4001697314788685e+17
19306.0	3.39958795145489e+17
19307.0	3.398893906340522e+17
19308.0	3.398341964245674e+17
19309.0	3.397535876688554e+17
19310.0	3.396871529343658e+17
19311.0	3.3965261846828365e+17
19312.0	3.3959874270330874e+17
19313.0	3.395397444348586e+17
19314.0	3.331978990452772e+17
19315.0	3.3341999481706477e+17
19316.0	3.391247727547736e+17
19317.0	3.3929804815619405e+17
19318.0	3.3923923824694605e+17
19319.0	3.3918168659394554e+17
19320.0	3.390419429403305e+17
19321.0	3.389081504798037e+17
19322.0	3.3898941896458234e+17
19323.0	3.389316863972693e+17
19324.0	3.3888196180486816e+17
19325.0	3.387997544600917e+17
19326.0	3.3876364209684474e+17
19327.0	3.386942060931754e+17
19328.0	3.3828657552861894e+17
19329.0	3.3858445880852474e+17
19330.0	3.3851672953705805e+17
19331.0	3.3845682928353274e+17
19332.0	3.3840486423374496e+17
19333.0	3.3834314564457805e+17
19334.0	3.3826572515409926e+17
19335.0	3.3750810026311744e+17
19336.0	3.381515624906752e+17
19337.0	3.3810612926545914e+17
19338.0	3.380070567990612e+17
19339.0	3.3798670323985056e+17
19340.0	3.3782460020599456e+17
19341.0	3.375941572449624e+17
19342.0	3.376419104096256e+17
19343.0	3.3774909015108256e+17
19344.0	3.374337837323609e+17
19345.0	3.3703301061017536e+17
19346.0	3.373634601790121e+17
19347.0	3.371757733937152e+17
19348.0	3.3745184870454605e+17
19349.0	3.3738652241974605e+17
19350.0	3.372181623581354e+17
19351.0	3.3726099368181754e+17
19352.0	3.368501644012197e+17
19353.0	3.371510931652607e+17
19354.0	3.370954209449301e+17
19355.0	3.370179961203371e+17
19356.0	3.3697597681390925e+17
19357.0	3.369168509337599e+17
19358.0	3.3685679112191994e+17
19359.0	3.366970457063422e+17
19360.0	3.364702516150271e+17
19361.0	3.3667113612738554e+17
19362.0	3.366210792412501e+17
19363.0	3.365609798281898e+17
19364.0	3.3650152497479674e+17
19365.0	3.36441688789265e+17
19366.0	3.363821490361685e+17
19367.0	3.3632349207920634e+17
19368.0	3.3626499139502074e+17
19369.0	3.361960019099648e+17
19370.0	3.3614003423586976e+17
19371.0	3.36078013272337e+17
19372.0	3.36027809026321e+17
19373.0	3.35965221622033e+17
19374.0	3.3590897429271885e+17
19375.0	3.3584992621690874e+17
19376.0	3.3579216047964154e+17
19377.0	3.3573105565696e+17
19378.0	3.3567266811412474e+17
19379.0	3.356141319181653e+17
19380.0	3.3555398745128954e+17
19381.0	3.3549231132945056e+17
19382.0	3.35425515884817e+17
19383.0	3.3535655464140794e+17
19384.0	3.3531005892908365e+17
19385.0	3.3525861977511245e+17
19386.0	3.3520021147047245e+17
19387.0	3.351415227766101e+17
19388.0	3.350800848912383e+17
19389.0	3.3501964123067725e+17
19390.0	3.3496050986298016e+17
19391.0	3.3354227947055584e+17
19392.0	3.348222687139155e+17
19393.0	3.3478390117826554e+17
19394.0	3.347229960743594e+17
19395.0	3.3456137535051104e+17
19396.0	3.345731747315712e+17
19397.0	3.345485784241493e+17
19398.0	3.3439640743226035e+17
19399.0	3.341274221379582e+17
19400.0	3.342890148997803e+17
19401.0	3.34310265655569e+17
19402.0	3.3425332504275616e+17
19403.0	3.3419083291907405e+17
19404.0	3.3413500599883085e+17
19405.0	3.3407225900127565e+17
19406.0	3.340156275436202e+17
19407.0	3.33826293969715e+17
19408.0	3.337084152927577e+17
19409.0	3.3383729793597434e+17
19410.0	3.3378160659660794e+17
19411.0	3.3372230175948794e+17
19412.0	3.336593557072555e+17
19413.0	3.334688570605568e+17
19414.0	3.335361813370197e+17
19415.0	3.334824119675562e+17
19416.0	3.333923068182527e+17
19417.0	3.3335367112676685e+17
19418.0	3.333070567855445e+17
19419.0	3.33247798645009e+17
19420.0	3.331893786312704e+17
19421.0	3.331292705499818e+17
19422.0	3.33062256267537e+17
19423.0	3.33009543827729e+17
19424.0	3.3295083884598605e+17
19425.0	3.328896791827797e+17
19426.0	3.328312640623957e+17
19427.0	3.327691169551701e+17
19428.0	3.327107102233941e+17
19429.0	3.3265044363236685e+17
19430.0	3.3256954424634035e+17
19431.0	3.323029724594179e+17
19432.0	3.3246730092107085e+17
19433.0	3.3240386703633056e+17
19434.0	3.3234008170386765e+17
19435.0	3.322481756602367e+17
19436.0	3.3209679061101203e+17
19437.0	3.3214573429391354e+17
19438.0	3.290145385436511e+17
19439.0	3.319110182109185e+17
19440.0	3.319227482112e+17
19441.0	3.318449095835648e+17
19442.0	3.3176182293790714e+17
19443.0	3.3166316147834874e+17
19444.0	3.315469606977536e+17
19445.0	3.313952462209024e+17
19446.0	3.311769609743018e+17
19447.0	3.3081654083147085e+17
19448.0	3.300552756690944e+17
19449.0	3.2649724045557734e+17
19450.0	2.855298228289511e+17
19451.0	2.5445925335859117e+17
19452.0	3.007507828047872e+17
19453.0	3.2819016315699245e+17
19454.0	3.29963896639761e+17
19455.0	3.304517498044416e+17
19456.0	3.306396121912662e+17
19457.0	3.307215082138282e+17
19458.0	3.0904862896731744e+17
19459.0	3.297984132066036e+17
19460.0	3.3072314989936634e+17
19461.0	3.3069474911354874e+17
19462.0	3.306529912520704e+17
19463.0	3.3061230147010554e+17
19464.0	3.305645019234304e+17
19465.0	3.305194423058432e+17
19466.0	3.3046011020574714e+17
19467.0	3.304167857018197e+17
19468.0	3.303643932175018e+17
19469.0	3.299847420160678e+17
19470.0	3.302533127383722e+17
19471.0	3.302031332387498e+17
19472.0	3.3013144293649056e+17
19473.0	3.3007307814775456e+17
19474.0	3.2976986446670464e+17
19475.0	3.297562948097362e+17
19476.0	3.2990482402727245e+17
19477.0	3.2985620029986125e+17
19478.0	3.2980945960523085e+17
19479.0	3.2949525586902995e+17
19480.0	3.2969110581848736e+17
19481.0	3.296018016763904e+17
19482.0	3.29577392504832e+17
19483.0	3.2952618047242234e+17
19484.0	3.2946538648261965e+17
19485.0	3.293975556041386e+17
19486.0	3.290715414069253e+17
19487.0	3.29292966334737e+17
19488.0	3.2924033134974285e+17
19489.0	3.2915859670302714e+17
19490.0	3.2876776603866406e+17
19491.0	3.2906142390681594e+17
19492.0	3.290107110664874e+17
19493.0	3.289539106133333e+17
19494.0	3.2889532066037754e+17
19495.0	3.2883679519484576e+17
19496.0	3.2866043498769043e+17
19497.0	3.2871620395663354e+17
19498.0	3.285263148471638e+17
19499.0	3.2641434797124166e+17
19500.0	3.28547946201088e+17
19501.0	3.284957787411797e+17
19502.0	3.284386457845759e+17
19503.0	3.28381770043665e+17
19504.0	3.283250762306901e+17
19505.0	3.2826316264133965e+17
19506.0	3.282107818661205e+17
19507.0	3.281457567323477e+17
19508.0	3.2809557681329485e+17
19509.0	3.2803767451647994e+17
19510.0	3.2790973793348256e+17
19511.0	3.181532074562843e+17
19512.0	3.275265438384122e+17
19513.0	3.2712078547135046e+17
19514.0	3.2727681983665434e+17
19515.0	3.275811292446722e+17
19516.0	3.27605681197329e+17
19517.0	3.2755547212786336e+17
19518.0	3.274552565039102e+17
19519.0	3.273941161694548e+17
19520.0	3.271755207191207e+17
19521.0	3.2734772615359136e+17
19522.0	3.2725953021651616e+17
19523.0	3.2717161802410675e+17
19524.0	3.2700896448785094e+17
19525.0	3.27115958456593e+17
19526.0	3.270641153212415e+17
19527.0	3.2700154472912205e+17
19528.0	3.2693371657693856e+17
19529.0	3.268666167306922e+17
19530.0	3.2683508748342605e+17
19531.0	3.2677816581488634e+17
19532.0	3.267205559659178e+17
19533.0	3.2666331500598605e+17
19534.0	3.2660658386370554e+17
19535.0	3.265467042321749e+17
19536.0	3.264847124540074e+17
19537.0	3.264335090548735e+17
19538.0	3.2613147110714054e+17
19539.0	3.261903691666776e+17
19540.0	3.2625852908830714e+17
19541.0	3.2616578893742074e+17
19542.0	3.2613022637752314e+17
19543.0	3.258616679235585e+17
19544.0	3.260200664083114e+17
19545.0	3.258699775388328e+17
19546.0	3.257114557065899e+17
19547.0	3.2586517530542074e+17
19548.0	3.2580711313571834e+17
19549.0	3.257344925368319e+17
19550.0	3.2569226554245114e+17
19551.0	3.256372301572778e+17
19552.0	3.2557855275308365e+17
19553.0	3.255174450642944e+17
19554.0	3.254548758702762e+17
19555.0	3.253832417367381e+17
19556.0	3.253359423957674e+17
19557.0	3.252929556731221e+17
19558.0	3.2523758568734714e+17
19559.0	3.251813629646165e+17
19560.0	3.250418393022462e+17
19561.0	3.250629003356842e+17
19562.0	3.2493098709811194e+17
19563.0	3.249542557335552e+17
19564.0	3.2489695441059834e+17
19565.0	3.248400215222954e+17
19566.0	3.2477755669654176e+17
19567.0	3.247275811449514e+17
19568.0	3.246675649189205e+17
19569.0	3.2460928003167565e+17
19570.0	3.2455566927680845e+17
19571.0	3.244980827761322e+17
19572.0	3.2443807493870925e+17
19573.0	3.2435964592783354e+17
19574.0	3.2430719622621856e+17
19575.0	3.2427359369953274e+17
19576.0	3.242053126673749e+17
19577.0	3.24124223209472e+17
19578.0	3.2409389790221645e+17
19579.0	3.240415769307818e+17
19580.0	3.2398614829465594e+17
19581.0	3.239299905137322e+17
19582.0	3.2387712672945485e+17
19583.0	3.238213468553215e+17
19584.0	3.2376287308458656e+17
19585.0	3.2368753863120205e+17
19586.0	3.236262380044288e+17
19587.0	3.2359061413778765e+17
19588.0	3.23430314270174e+17
19589.0	3.2347733472488096e+17
19590.0	3.2338508279098016e+17
19591.0	3.2336649541823136e+17
19592.0	3.23309337645329e+17
19593.0	3.232339500990463e+17
19594.0	3.231374437078356e+17
19595.0	3.2313510674650445e+17
19596.0	3.2307724670730234e+17
19597.0	3.230277300824746e+17
19598.0	3.227873017419091e+17
19599.0	3.229160740399786e+17
19600.0	3.2286076410265594e+17
19601.0	3.227918309960363e+17
19602.0	3.227391977586687e+17
19603.0	3.225885401765203e+17
19604.0	3.2262844017104205e+17
19605.0	3.225225562947584e+17
19606.0	3.2252008004758176e+17
19607.0	3.2246600585707514e+17
19608.0	3.2240691859947514e+17
19609.0	3.2234348646236154e+17
19610.0	3.2217652740314464e+17
19611.0	3.2207262694331744e+17
19612.0	3.2218576902772045e+17
19613.0	3.2212762024564045e+17
19614.0	3.220669350980266e+17
19615.0	3.2201679044608e+17
19616.0	3.2182930649033395e+17
19617.0	3.2172770436928864e+17
19618.0	3.2170673124147174e+17
19619.0	3.215965059110226e+17
19620.0	3.2150206220861414e+17
19621.0	3.214486362827433e+17
19622.0	3.2162425717391354e+17
19623.0	3.2155924193170765e+17
19624.0	3.214853590919851e+17
19625.0	3.214552971520682e+17
19626.0	3.2139828887115085e+17
19627.0	3.2134416291594234e+17
19628.0	3.212624988383915e+17
19629.0	3.206215981072381e+17
19630.0	3.2114784173643085e+17
19631.0	3.2042254891745274e+17
19632.0	3.210557896960682e+17
19633.0	3.209922169099605e+17
19634.0	3.20945464086801e+17
19635.0	3.208471782271657e+17
19636.0	3.205612255750824e+17
19637.0	3.2047152080704826e+17
19638.0	3.206905851805695e+17
19639.0	3.206648376765098e+17
19640.0	3.205767455834113e+17
19641.0	3.200741923618826e+17
19642.0	3.2048645207490554e+17
19643.0	3.2042809563982496e+17
19644.0	3.2037819642456736e+17
19645.0	3.202715936795305e+17
19646.0	3.1998296558578304e+17
19647.0	3.2021170181461325e+17
19648.0	3.20168179269632e+17
19649.0	3.201087662544213e+17
19650.0	3.200574089592832e+17
19651.0	3.200013830892202e+17
19652.0	3.1994470825547085e+17
19653.0	3.1988896903113376e+17
19654.0	3.1983352026234874e+17
