# Flux units: erg / (cm m2 s)
# Wavelength units: Angstrom
wave	flux
19000.0	5.822215664697341e+17
19001.0	5.821027904913407e+17
19002.0	5.820102251380735e+17
19003.0	5.819037644750848e+17
19004.0	5.817981012890964e+17
19005.0	5.81689469514547e+17
19006.0	5.815845471824554e+17
19007.0	5.814802168763734e+17
19008.0	5.813714357146966e+17
19009.0	5.812482196460884e+17
19010.0	5.811339068265812e+17
19011.0	5.810440711962623e+17
19012.0	5.808893561842344e+17
19013.0	5.808468267805354e+17
19014.0	5.807389778728275e+17
19015.0	5.806347662655487e+17
19016.0	5.80531211276561e+17
19017.0	5.804279151460351e+17
19018.0	5.803213795448148e+17
19019.0	5.802172987998205e+17
19020.0	5.801114247102463e+17
19021.0	5.800077677297663e+17
19022.0	5.799018111522132e+17
19023.0	5.797895064955561e+17
19024.0	5.796790047604735e+17
19025.0	5.795747390466729e+17
19026.0	5.794576340789929e+17
19027.0	5.793239005833897e+17
19028.0	5.792597408044372e+17
19029.0	5.791575847556436e+17
19030.0	5.790547381146963e+17
19031.0	5.789475168146772e+17
19032.0	5.788351957303295e+17
19033.0	5.787077185284777e+17
19034.0	5.785657837704532e+17
19035.0	5.781409665559209e+17
19036.0	5.749147921547262e+17
19037.0	5.78012663915042e+17
19038.0	5.781514814663337e+17
19039.0	5.780874635247615e+17
19040.0	5.779954765660157e+17
19041.0	5.778959936170665e+17
19042.0	5.775522924942673e+17
19043.0	5.776940071911423e+17
19044.0	5.775880589322922e+17
19045.0	5.774796096099667e+17
19046.0	5.773749457868115e+17
19047.0	5.772673030990505e+17
19048.0	5.771155036176383e+17
19049.0	5.765534278047054e+17
19050.0	5.768936963790164e+17
19051.0	5.763675423331667e+17
19052.0	5.764669936151209e+17
19053.0	5.76606670229777e+17
19054.0	5.765316815268522e+17
19055.0	5.7634320928822605e+17
19056.0	5.7630997858658976e+17
19057.0	5.7623141333073914e+17
19058.0	5.7587826509742035e+17
19059.0	5.7593113667611283e+17
19060.0	5.75919243797026e+17
19061.0	5.758155856281599e+17
19062.0	5.757123675815934e+17
19063.0	5.756075653464064e+17
19064.0	5.754953386338986e+17
19065.0	5.753841258244777e+17
19066.0	5.752010775898794e+17
19067.0	5.7518982923550714e+17
19068.0	5.7508761572474874e+17
19069.0	5.749834361339903e+17
19070.0	5.7487682999855776e+17
19071.0	5.747708196640084e+17
19072.0	5.745785121538046e+17
19073.0	5.745665802676905e+17
19074.0	5.744625735521621e+17
19075.0	5.743582826725375e+17
19076.0	5.7425311574261754e+17
19077.0	5.741478412288e+17
19078.0	5.7404154812825594e+17
19079.0	5.7394104197884576e+17
19080.0	5.7383557438723405e+17
19081.0	5.737270059466751e+17
19082.0	5.7362557719019514e+17
19083.0	5.735127902584831e+17
19084.0	5.733946637680639e+17
19085.0	5.733053155158698e+17
19086.0	5.730216443903998e+17
19087.0	5.728518221944146e+17
19088.0	5.7283102963138534e+17
19089.0	5.7284904556516685e+17
19090.0	5.727733882202794e+17
19091.0	5.726604295318186e+17
19092.0	5.723755349278724e+17
19093.0	5.7247892193498445e+17
19094.0	5.723791910327637e+17
19095.0	5.722772539266387e+17
19096.0	5.721737190004051e+17
19097.0	5.720709316389545e+17
19098.0	5.7186420998362445e+17
19099.0	5.7173925355847686e+17
19100.0	5.71750876184576e+17
19101.0	5.716511626887167e+17
19102.0	5.715440881893375e+17
19103.0	5.714477351698432e+17
19104.0	5.713434816894292e+17
19105.0	5.7101022759922394e+17
19106.0	5.7112318258271565e+17
19107.0	5.709614844040531e+17
19108.0	5.708070102848853e+17
19109.0	5.7070467961323514e+17
19110.0	5.7065829613349536e+17
19111.0	5.705353768818004e+17
19112.0	5.704312955775657e+17
19113.0	5.7041029287990605e+17
19114.0	5.7026093651066874e+17
19115.0	5.701855830431062e+17
19116.0	5.7009814354875725e+17
19117.0	5.6999102333146445e+17
19118.0	5.698549970894848e+17
19119.0	5.6914581046777094e+17
19120.0	5.696404350216873e+17
19121.0	5.695553870495743e+17
19122.0	5.694810052624383e+17
19123.0	5.6938131923927034e+17
19124.0	5.692500850595156e+17
19125.0	5.691725493654868e+17
19126.0	5.690561760941397e+17
19127.0	5.6885522216605e+17
19128.0	5.6883886934370976e+17
19129.0	5.687538136121343e+17
19130.0	5.6866037122990074e+17
19131.0	5.685595490396842e+17
19132.0	5.684567366522196e+17
19133.0	5.6834926879703034e+17
19134.0	5.6824596784305485e+17
19135.0	5.6814749767871136e+17
19136.0	5.680439272407038e+17
19137.0	5.6793272274998605e+17
19138.0	5.678362486549162e+17
19139.0	5.677361959097684e+17
19140.0	5.6763392374865914e+17
19141.0	5.675309784017577e+17
19142.0	5.6742464475627514e+17
19143.0	5.673220787142656e+17
19144.0	5.6721820845342714e+17
19145.0	5.671192180555776e+17
19146.0	5.669546787252905e+17
19147.0	5.669087608132949e+17
19148.0	5.667302138358443e+17
19149.0	5.6661330851703456e+17
19150.0	5.6660530872101536e+17
19151.0	5.66501843350323e+17
19152.0	5.663930811329194e+17
19153.0	5.661242948932946e+17
19154.0	5.661687120833195e+17
19155.0	5.660809085932884e+17
19156.0	5.65973192225587e+17
19157.0	5.657960889974784e+17
19158.0	5.656007939544407e+17
19159.0	5.65643578511633e+17
19160.0	5.6554498195892896e+17
19161.0	5.654129518400852e+17
19162.0	5.651753557032958e+17
19163.0	5.651653601176235e+17
19164.0	5.6513383579866445e+17
19165.0	5.648639139512316e+17
19166.0	5.649376726745087e+17
19167.0	5.6483499394553165e+17
19168.0	5.647444440951466e+17
19169.0	5.646484215169023e+17
19170.0	5.645478206461268e+17
19171.0	5.6444273669352096e+17
19172.0	5.643410094424062e+17
19173.0	5.6424425139295565e+17
19174.0	5.64141439914257e+17
19175.0	5.6404238744070816e+17
19176.0	5.6393979413572256e+17
19177.0	5.6382018160339616e+17
19178.0	5.637242494124031e+17
19179.0	5.636210510790656e+17
19180.0	5.635263726354431e+17
19181.0	5.6341895280503456e+17
19182.0	5.6332174065227085e+17
19183.0	5.6322609968578554e+17
19184.0	5.6312424192191136e+17
19185.0	5.630202953946452e+17
19186.0	5.6291869956505594e+17
19187.0	5.628075888170324e+17
19188.0	5.627104030184788e+17
19189.0	5.626051140343124e+17
19190.0	5.6249881485202765e+17
19191.0	5.623891833651199e+17
19192.0	5.6228373884218016e+17
19193.0	5.6214766422589434e+17
19194.0	5.6201443173990394e+17
19195.0	5.6192138844569594e+17
19196.0	5.617625551863807e+17
19197.0	5.615383477572947e+17
19198.0	5.6109328023333523e+17
19199.0	5.5988727285022714e+17
19200.0	5.5991155046045005e+17
19201.0	5.608288539028138e+17
19202.0	5.610450356710057e+17
19203.0	5.610488090066943e+17
19204.0	5.610081130730837e+17
19205.0	5.609366041045674e+17
19206.0	5.6085199849171616e+17
19207.0	5.607472543476393e+17
19208.0	5.606525255024639e+17
19209.0	5.605694096364884e+17
19210.0	5.6047100259642003e+17
19211.0	5.603732252611924e+17
19212.0	5.602701539453609e+17
19213.0	5.601514833838079e+17
19214.0	5.600476041052158e+17
19215.0	5.59962858332706e+17
19216.0	5.598690832722602e+17
19217.0	5.5976351557659296e+17
19218.0	5.596253047313747e+17
19219.0	5.5954733415792634e+17
19220.0	5.5946441898939725e+17
19221.0	5.5935534317786445e+17
19222.0	5.5926478584763725e+17
19223.0	5.5916840696326816e+17
19224.0	5.5906445736017914e+17
19225.0	5.589622228079956e+17
19226.0	5.5886621945364474e+17
19227.0	5.587664439519913e+17
19228.0	5.586683254101332e+17
19229.0	5.585674521892181e+17
19230.0	5.584660924989439e+17
19231.0	5.583644452891305e+17
19232.0	5.5826367140331514e+17
19233.0	5.581569280442368e+17
19234.0	5.5806209315307514e+17
19235.0	5.579589006917631e+17
19236.0	5.5786118676043085e+17
19237.0	5.5775878024178323e+17
19238.0	5.576501932763817e+17
19239.0	5.5755848978268154e+17
19240.0	5.574584262022485e+17
19241.0	5.573554642878462e+17
19242.0	5.572555496052052e+17
19243.0	5.5714074451421856e+17
19244.0	5.570558037065726e+17
19245.0	5.569543747403775e+17
19246.0	5.568534660775935e+17
19247.0	5.5675249366138874e+17
19248.0	5.566516932116479e+17
19249.0	5.565434493403135e+17
19250.0	5.5641210855533216e+17
19251.0	5.5630470955663334e+17
19252.0	5.562205058979158e+17
19253.0	5.561472339935231e+17
19254.0	5.560483291594751e+17
19255.0	5.559286845407231e+17
19256.0	5.5584594266685434e+17
19257.0	5.557461477315924e+17
19258.0	5.556447241480875e+17
19259.0	5.555290628598441e+17
19260.0	5.553416417837055e+17
19261.0	5.5533548384638285e+17
19262.0	5.552313935243947e+17
19263.0	5.5512572502562125e+17
19264.0	5.550019788668926e+17
19265.0	5.549206520812884e+17
19266.0	5.548168116000085e+17
19267.0	5.547395042858326e+17
19268.0	5.546391754156715e+17
19269.0	5.545385865685675e+17
19270.0	5.5443376021613216e+17
19271.0	5.543160391750996e+17
19272.0	5.542330664047957e+17
19273.0	5.541160822330708e+17
19274.0	5.539965256947028e+17
19275.0	5.53935602590242e+17
19276.0	5.538332108215636e+17
19277.0	5.5373303133853005e+17
19278.0	5.5362616613492045e+17
19279.0	5.5352673386714445e+17
19280.0	5.534245260886015e+17
19281.0	5.5332456009564154e+17
19282.0	5.5322250219356154e+17
19283.0	5.531143619914409e+17
19284.0	5.530066788286462e+17
19285.0	5.529014197638484e+17
19286.0	5.527851695953236e+17
19287.0	5.5261401794478074e+17
19288.0	5.511558092991138e+17
19289.0	5.502420612983452e+17
19290.0	5.52289836273937e+17
19291.0	5.522609385679531e+17
19292.0	5.522087592591358e+17
19293.0	5.521174324838398e+17
19294.0	5.5201818539458554e+17
19295.0	5.519239156858878e+17
19296.0	5.5171136359847277e+17
19297.0	5.5170131418589856e+17
19298.0	5.516219448819711e+17
19299.0	5.5139679674040326e+17
19300.0	5.5142183967129594e+17
19301.0	5.513236707278847e+17
19302.0	5.512213854246228e+17
19303.0	5.5111354308799136e+17
19304.0	5.510188171788287e+17
19305.0	5.5091607141089274e+17
19306.0	5.508121126502399e+17
19307.0	5.5070141462173e+17
19308.0	5.5059108499292154e+17
19309.0	5.5044328408132256e+17
19310.0	5.5032052805795834e+17
19311.0	5.502545717886975e+17
19312.0	5.5014968965201914e+17
19313.0	5.4993927505182714e+17
19314.0	5.4220471535315616e+17
19315.0	5.426689839814048e+17
19316.0	5.4948892871666355e+17
19317.0	5.496524564507307e+17
19318.0	5.4958366818740896e+17
19319.0	5.4949730935548576e+17
19320.0	5.493561383103145e+17
19321.0	5.4919922268678816e+17
19322.0	5.4919079164641274e+17
19323.0	5.4908506987997856e+17
19324.0	5.489835763914069e+17
19325.0	5.488745009293994e+17
19326.0	5.4879086510953805e+17
19327.0	5.4869862970818554e+17
19328.0	5.484029794407767e+17
19329.0	5.4850649751988896e+17
19330.0	5.484048742875135e+17
19331.0	5.48301902586402e+17
19332.0	5.482053928397481e+17
19333.0	5.481020553953278e+17
19334.0	5.48000009097489e+17
19335.0	5.474944677489328e+17
19336.0	5.477969492093609e+17
19337.0	5.4770062548008954e+17
19338.0	5.475793486479358e+17
19339.0	5.4749554121113594e+17
19340.0	5.4738027313889274e+17
19341.0	5.471315651723266e+17
19342.0	5.4711865342689286e+17
19343.0	5.4708312480590496e+17
19344.0	5.468247441451692e+17
19345.0	5.46680931946769e+17
19346.0	5.4667794322554874e+17
19347.0	5.4647485949979296e+17
19348.0	5.465752458319188e+17
19349.0	5.464706818331988e+17
19350.0	5.462950367548757e+17
19351.0	5.46264487961122e+17
19352.0	5.4595460949606355e+17
19353.0	5.4606415898432845e+17
19354.0	5.459618187356841e+17
19355.0	5.458487147145898e+17
19356.0	5.457541106499583e+17
19357.0	5.4565082437604685e+17
19358.0	5.4554451442838176e+17
19359.0	5.4539376023743123e+17
19360.0	5.4517421128198816e+17
19361.0	5.452301595224745e+17
19362.0	5.4512819899815245e+17
19363.0	5.450232829575167e+17
19364.0	5.4491781208036685e+17
19365.0	5.4481164928286714e+17
19366.0	5.447059690400426e+17
19367.0	5.4459851663387296e+17
19368.0	5.444927276187648e+17
19369.0	5.4437942408861005e+17
19370.0	5.4427183802395296e+17
19371.0	5.441627713699839e+17
19372.0	5.440590279169364e+17
19373.0	5.439483853231445e+17
19374.0	5.438416743301119e+17
19375.0	5.437316301236906e+17
19376.0	5.4362230796670285e+17
19377.0	5.435105961050111e+17
19378.0	5.433992623598249e+17
19379.0	5.432873229571413e+17
19380.0	5.4317325767147514e+17
19381.0	5.4305649020545696e+17
19382.0	5.42933345509922e+17
19383.0	5.4281909183010125e+17
19384.0	5.4270684093044045e+17
19385.0	5.425910891850409e+17
19386.0	5.4247138123229856e+17
19387.0	5.4234737663453856e+17
19388.0	5.422143110818474e+17
19389.0	5.42063142703377e+17
19390.0	5.417947567401641e+17
19391.0	5.38801902662449e+17
19392.0	5.41092794807091e+17
19393.0	5.415320497946624e+17
19394.0	5.414490571014143e+17
19395.0	5.4127753488411315e+17
19396.0	5.411984861648213e+17
19397.0	5.410857961215317e+17
19398.0	5.408854821044224e+17
19399.0	5.4069140921166496e+17
19400.0	5.405994129555456e+17
19401.0	5.4052236317163514e+17
19402.0	5.4037565816176634e+17
19403.0	5.402255851956905e+17
19404.0	5.4007731067726496e+17
19405.0	5.399219259746985e+17
19406.0	5.397650193689258e+17
19407.0	5.3953000293881146e+17
19408.0	5.3938572461342714e+17
19409.0	5.3925216497172474e+17
19410.0	5.3908861675547296e+17
19411.0	5.3890796815209805e+17
19412.0	5.387187653356202e+17
19413.0	5.3844549251891194e+17
19414.0	5.3830802015081805e+17
19415.0	5.38091309760512e+17
19416.0	5.3784306938893645e+17
19417.0	5.3761409366534816e+17
19418.0	5.373895761373866e+17
19419.0	5.3714628406586016e+17
19420.0	5.3688910528293536e+17
19421.0	5.36599080206336e+17
19422.0	5.3630029637440845e+17
19423.0	5.359916225833642e+17
19424.0	5.356415293412691e+17
19425.0	5.3528690974610765e+17
19426.0	5.348969996965204e+17
19427.0	5.3445691507561805e+17
19428.0	5.3401090683917645e+17
19429.0	5.334964295259476e+17
19430.0	5.3276432033382406e+17
19431.0	5.31970448757009e+17
19432.0	5.317756299072852e+17
19433.0	5.311638603999913e+17
19434.0	5.304110786718378e+17
19435.0	5.2942842203122336e+17
19436.0	5.283890021269503e+17
19437.0	5.2733264205796685e+17
19438.0	5.20885809254674e+17
19439.0	5.23957507998788e+17
19440.0	5.238046855266303e+17
19441.0	5.222880484087123e+17
19442.0	5.2045050872681805e+17
19443.0	5.182780068943189e+17
19444.0	5.1565147228296506e+17
19445.0	5.125005404099925e+17
19446.0	5.0866457243811834e+17
19447.0	5.0367842501700243e+17
19448.0	4.9701609383744877e+17
19449.0	4.8706495625297894e+17
19450.0	4.679756021410461e+17
19451.0	4.521377393191611e+17
19452.0	4.7954066875787923e+17
19453.0	4.9240575885093574e+17
19454.0	5.001752144598353e+17
19455.0	5.056431636086783e+17
19456.0	5.097460310125227e+17
19457.0	5.1271017158410234e+17
19458.0	4.947203641224104e+17
19459.0	5.1545483114796845e+17
19460.0	5.1959332147473056e+17
19461.0	5.2129934295258445e+17
19462.0	5.226838655762432e+17
19463.0	5.238473974524585e+17
19464.0	5.248182572635477e+17
19465.0	5.256749172916223e+17
19466.0	5.264163980967936e+17
19467.0	5.270826602812756e+17
19468.0	5.2766811081058976e+17
19469.0	5.280121908188497e+17
19470.0	5.2860424423123616e+17
19471.0	5.289969627168767e+17
19472.0	5.2932229963885216e+17
19473.0	5.2963143969669114e+17
19474.0	5.2974212395390266e+17
19475.0	5.300607374065662e+17
19476.0	5.303341632454655e+17
19477.0	5.3051893554872314e+17
19478.0	5.3067627102208e+17
19479.0	5.306753869327016e+17
19480.0	5.309184494359892e+17
19481.0	5.310168464097279e+17
19482.0	5.311006400053247e+17
19483.0	5.3116128670515194e+17
19484.0	5.3120966939989325e+17
19485.0	5.312568697902421e+17
19486.0	5.311431053759832e+17
19487.0	5.313133103022079e+17
19488.0	5.313250535145471e+17
19489.0	5.312987227226111e+17
19490.0	5.3124495286381216e+17
19491.0	5.313166874858836e+17
19492.0	5.313111481384959e+17
19493.0	5.3128841459138554e+17
19494.0	5.312545816575999e+17
19495.0	5.3120934294323194e+17
19496.0	5.311128408162302e+17
19497.0	5.309919083364351e+17
19498.0	5.296010379132922e+17
19499.0	5.26306649588804e+17
19500.0	5.307361166797481e+17
19501.0	5.309072172296873e+17
19502.0	5.3090128676345165e+17
19503.0	5.308653013128532e+17
19504.0	5.308234109113685e+17
19505.0	5.3076439831237965e+17
19506.0	5.3070531042563405e+17
19507.0	5.306325627393363e+17
19508.0	5.305496641383081e+17
19509.0	5.3043193128331936e+17
19510.0	5.300238764649129e+17
19511.0	5.181246175619689e+17
19512.0	5.286111396670119e+17
19513.0	5.2856202206030406e+17
19514.0	5.2879873173094317e+17
19515.0	5.2995225033550496e+17
19516.0	5.299647590782292e+17
19517.0	5.2993451164521805e+17
19518.0	5.298318252266836e+17
19519.0	5.297557839631699e+17
19520.0	5.2957843823438483e+17
19521.0	5.2965711708596896e+17
19522.0	5.2955488365226656e+17
19523.0	5.294636475438421e+17
19524.0	5.293100223518039e+17
19525.0	5.293399845721428e+17
19526.0	5.292638725647019e+17
19527.0	5.291811840983039e+17
19528.0	5.290862216303955e+17
19529.0	5.289957053344426e+17
19530.0	5.2893271702459725e+17
19531.0	5.288486129106943e+17
19532.0	5.2876406133445965e+17
19533.0	5.2867908144988154e+17
19534.0	5.285951836957353e+17
19535.0	5.2850766618733216e+17
19536.0	5.284195905568766e+17
19537.0	5.283325278508372e+17
19538.0	5.2808969533521926e+17
19539.0	5.28128815608627e+17
19540.0	5.2807261403217914e+17
19541.0	5.2795534429825696e+17
19542.0	5.2788788884493645e+17
19543.0	5.276626193481728e+17
19544.0	5.277128882214228e+17
19545.0	5.2758616291846816e+17
19546.0	5.274889317515264e+17
19547.0	5.2745775444131834e+17
19548.0	5.2737371044577274e+17
19549.0	5.2727634932531194e+17
19550.0	5.2719774932664314e+17
19551.0	5.271088493057366e+17
19552.0	5.270193687931562e+17
19553.0	5.269280256600745e+17
19554.0	5.2683759548716365e+17
19555.0	5.267321692094464e+17
19556.0	5.266482470584319e+17
19557.0	5.265695483538089e+17
19558.0	5.2648160351573325e+17
19559.0	5.2639225092942496e+17
19560.0	5.2624489216737254e+17
19561.0	5.262091545302357e+17
19562.0	5.2606613232899405e+17
19563.0	5.260311535113557e+17
19564.0	5.2594031558219085e+17
19565.0	5.258498516451326e+17
19566.0	5.257570794427732e+17
19567.0	5.256680338795178e+17
19568.0	5.2557518317376845e+17
19569.0	5.254848147969364e+17
19570.0	5.253936331445588e+17
19571.0	5.2530327112908794e+17
19572.0	5.252100516741119e+17
19573.0	5.251018239508479e+17
19574.0	5.250149819351038e+17
19575.0	5.249403455537151e+17
19576.0	5.248380726935551e+17
19577.0	5.247258759004159e+17
19578.0	5.246634788476244e+17
19579.0	5.245718544165546e+17
19580.0	5.2448073721664845e+17
19581.0	5.243911266806441e+17
19582.0	5.243005344677887e+17
19583.0	5.242088776007679e+17
19584.0	5.2411476895334394e+17
19585.0	5.240126317789183e+17
19586.0	5.239157523043669e+17
19587.0	5.2383127384883194e+17
19588.0	5.237174809832106e+17
19589.0	5.236509125552811e+17
19590.0	5.235536261633364e+17
19591.0	5.2347439583068154e+17
19592.0	5.233843091712681e+17
19593.0	5.2327594191749114e+17
19594.0	5.231624609682772e+17
19595.0	5.231072923090943e+17
19596.0	5.2299712297260365e+17
19597.0	5.229232108776106e+17
19598.0	5.227927847305215e+17
19599.0	5.227390823301118e+17
19600.0	5.2264935001948154e+17
19601.0	5.225508794357076e+17
19602.0	5.224510762516479e+17
19603.0	5.2232911015553696e+17
19604.0	5.2226212285644794e+17
19605.0	5.221633179866453e+17
19606.0	5.2209715402943136e+17
19607.0	5.2200766911283194e+17
19608.0	5.21914823090722e+17
19609.0	5.2182063908563616e+17
19610.0	5.216612549743958e+17
19611.0	5.215362676512085e+17
19612.0	5.215490401457493e+17
19613.0	5.2145586396200954e+17
19614.0	5.213603280628393e+17
19615.0	5.2126620186924365e+17
19616.0	5.210823588140374e+17
19617.0	5.209756453743275e+17
19618.0	5.209342678663166e+17
19619.0	5.208167724788393e+17
19620.0	5.2072360363513146e+17
19621.0	5.205620909146111e+17
19622.0	5.206232202390186e+17
19623.0	5.205216735526911e+17
19624.0	5.2040992527045965e+17
19625.0	5.203381634553172e+17
19626.0	5.202355987415038e+17
19627.0	5.20117845823761e+17
19628.0	5.199656211098283e+17
19629.0	5.1942206965022694e+17
19630.0	5.190961396536659e+17
19631.0	5.183100100629845e+17
19632.0	5.193853089524394e+17
19633.0	5.194995480920064e+17
19634.0	5.194775603620522e+17
19635.0	5.1938870256380576e+17
19636.0	5.1916114752088723e+17
19637.0	5.190496334905343e+17
19638.0	5.19142740468258e+17
19639.0	5.1906390090492576e+17
19640.0	5.1895281658101754e+17
19641.0	5.187927585150294e+17
19642.0	5.1877984586082976e+17
19643.0	5.186892654619306e+17
19644.0	5.186042922882388e+17
19645.0	5.1850548881653754e+17
19646.0	5.1825240269564563e+17
19647.0	5.1833781354495994e+17
19648.0	5.182496286528854e+17
19649.0	5.181583957600938e+17
19650.0	5.180677730686293e+17
19651.0	5.1797589229568e+17
19652.0	5.178845212704766e+17
19653.0	5.177920375663274e+17
19654.0	5.17701863875106e+17
19655.0	5.176103378004649e+17
19656.0	5.175196520546303e+17
