# Flux units: erg / (cm m2 s)
# Wavelength units: Angstrom
wave	flux
19000.0	7.319336960131072e+17
19001.0	7.31794419954483e+17
19002.0	7.316686811518291e+17
19003.0	7.315358627834538e+17
19004.0	7.314030049886207e+17
19005.0	7.312703085346815e+17
19006.0	7.311373327400957e+17
19007.0	7.309997872513023e+17
19008.0	7.308670758376787e+17
19009.0	7.307325470321322e+17
19010.0	7.305735994081279e+17
19011.0	7.304683419511466e+17
19012.0	7.303139662583123e+17
19013.0	7.302032227915092e+17
19014.0	7.300656438880938e+17
19015.0	7.299335402291199e+17
19016.0	7.297991907999743e+17
19017.0	7.296683539606186e+17
19018.0	7.295331248461139e+17
19019.0	7.294001756154538e+17
19020.0	7.292648861029718e+17
19021.0	7.291329029603325e+17
19022.0	7.289990596438697e+17
19023.0	7.288617438631251e+17
19024.0	7.287283510149119e+17
19025.0	7.285937296550569e+17
19026.0	7.284574286162602e+17
19027.0	7.283068866570921e+17
19028.0	7.281915585363965e+17
19029.0	7.280567789114708e+17
19030.0	7.27923272257809e+17
19031.0	7.277885064740863e+17
19032.0	7.27653631079219e+17
19033.0	7.275123849560063e+17
19034.0	7.27381970063633e+17
19035.0	7.273674103761578e+17
19036.0	7.260600563051173e+17
19037.0	7.272083834798079e+17
19038.0	7.270759898546175e+17
19039.0	7.269678900576253e+17
19040.0	7.268333001550504e+17
19041.0	7.266978983750314e+17
19042.0	7.265558180047529e+17
19043.0	7.264269341731497e+17
19044.0	7.262911153395027e+17
19045.0	7.261548569427968e+17
19046.0	7.260166034554879e+17
19047.0	7.258831155363839e+17
19048.0	7.257347206414335e+17
19049.0	7.256060445676884e+17
19050.0	7.254727652453033e+17
19051.0	7.251321136611324e+17
19052.0	7.251684279451647e+17
19053.0	7.250672550412287e+17
19054.0	7.249329072898047e+17
19055.0	7.247794156164438e+17
19056.0	7.246595143062867e+17
19057.0	7.245243708953939e+17
19058.0	7.243862842015744e+17
19059.0	7.242526557732863e+17
19060.0	7.241150586945536e+17
19061.0	7.239804123086847e+17
19062.0	7.238438617087999e+17
19063.0	7.237077036957696e+17
19064.0	7.235639788787028e+17
19065.0	7.234228124472659e+17
19066.0	7.232945833465172e+17
19067.0	7.231625002396329e+17
19068.0	7.2302611936925e+17
19069.0	7.228897481457663e+17
19070.0	7.227516337695402e+17
19071.0	7.2261613677882e+17
19072.0	7.224801180166825e+17
19073.0	7.223434446635007e+17
19074.0	7.222072357595817e+17
19075.0	7.220706422379859e+17
19076.0	7.219326532714496e+17
19077.0	7.217965060237994e+17
19078.0	7.216590014993747e+17
19079.0	7.215239320480425e+17
19080.0	7.213862091401897e+17
19081.0	7.212476939283113e+17
19082.0	7.211108125376511e+17
19083.0	7.209689102854825e+17
19084.0	7.208233908655444e+17
19085.0	7.207028253174441e+17
19086.0	7.205364708321961e+17
19087.0	7.203948484799145e+17
19088.0	7.202807340509864e+17
19089.0	7.201241729859583e+17
19090.0	7.200141221385556e+17
19091.0	7.198788329056938e+17
19092.0	7.197324303051434e+17
19093.0	7.196073637096105e+17
19094.0	7.194704691767978e+17
19095.0	7.193334627958783e+17
19096.0	7.191958637598036e+17
19097.0	7.190597708982956e+17
19098.0	7.189224614090068e+17
19099.0	7.187852873957375e+17
19100.0	7.186462527892138e+17
19101.0	7.185105969741824e+17
19102.0	7.183679614178644e+17
19103.0	7.182371152112297e+17
19104.0	7.180998247361194e+17
19105.0	7.179611870505642e+17
19106.0	7.178189017186301e+17
19107.0	7.17685880206131e+17
19108.0	7.175482986463232e+17
19109.0	7.17305490387763e+17
19110.0	7.172669271179263e+17
19111.0	7.171377379409919e+17
19112.0	7.170009091189417e+17
19113.0	7.168640281477119e+17
19114.0	7.167266237273428e+17
19115.0	7.165840215856468e+17
19116.0	7.164500643239251e+17
19117.0	7.163123418355028e+17
19118.0	7.161653801342292e+17
19119.0	7.158054632729254e+17
19120.0	7.158890164649983e+17
19121.0	7.157557079222952e+17
19122.0	7.156266090627071e+17
19123.0	7.154890167375187e+17
19124.0	7.153438186012671e+17
19125.0	7.152130048305833e+17
19126.0	7.150749550466387e+17
19127.0	7.148241342693373e+17
19128.0	7.147729975945897e+17
19129.0	7.146568416580948e+17
19130.0	7.145239560410454e+17
19131.0	7.143867167364436e+17
19132.0	7.140495144080723e+17
19133.0	7.138754271641599e+17
19134.0	7.137352415008084e+17
19135.0	7.136095295417002e+17
19136.0	7.134722585001981e+17
19137.0	7.133237748258132e+17
19138.0	7.131948747762345e+17
19139.0	7.130582453234344e+17
19140.0	7.129203833044991e+17
19141.0	7.127823249921364e+17
19142.0	7.126425017166505e+17
19143.0	7.125025323395753e+17
19144.0	7.123652674497194e+17
19145.0	7.122295053789866e+17
19146.0	7.120506257233236e+17
19147.0	7.119474721292288e+17
19148.0	7.118138315374591e+17
19149.0	7.116756072704681e+17
19150.0	7.115375784580436e+17
19151.0	7.113996635908778e+17
19152.0	7.112595769131007e+17
19153.0	7.111205308421459e+17
19154.0	7.109756040773632e+17
19155.0	7.108451408106836e+17
19156.0	7.107056740510377e+17
19157.0	7.105607902079657e+17
19158.0	7.103621386032467e+17
19159.0	7.102855370506239e+17
19160.0	7.101492101469523e+17
19161.0	7.100075370435923e+17
19162.0	7.097080247309654e+17
19163.0	7.097224415324842e+17
19164.0	7.095954809290752e+17
19165.0	7.094537731528019e+17
19166.0	7.093078200418301e+17
19167.0	7.091637842870271e+17
19168.0	7.090384127655933e+17
19169.0	7.088983627180713e+17
19170.0	7.087620154021203e+17
19171.0	7.086149470257152e+17
19172.0	7.084824098155177e+17
19173.0	7.083445153606314e+17
19174.0	7.082022676376233e+17
19175.0	7.080666178344275e+17
19176.0	7.079271382122493e+17
19177.0	7.077770021218985e+17
19178.0	7.076424878566058e+17
19179.0	7.07496303080243e+17
19180.0	7.073669026501972e+17
19181.0	7.072216147558399e+17
19182.0	7.070881364836351e+17
19183.0	7.069494262366207e+17
19184.0	7.068086344963411e+17
19185.0	7.066692941250559e+17
19186.0	7.06529509576977e+17
19187.0	7.063842327276202e+17
19188.0	7.062490452765353e+17
19189.0	7.061080021576361e+17
19190.0	7.05966526046754e+17
19191.0	7.05824042324241e+17
19192.0	7.056872326561791e+17
19193.0	7.055456295976959e+17
19194.0	7.054040248614911e+17
19195.0	7.052634317914111e+17
19196.0	7.051197086520659e+17
19197.0	7.049733474353151e+17
19198.0	7.048088454343338e+17
19199.0	7.036843944749736e+17
19200.0	7.038083256724141e+17
19201.0	7.043896499153577e+17
19202.0	7.042695342762665e+17
19203.0	7.041309389531817e+17
19204.0	7.039927605439145e+17
19205.0	7.038532020688212e+17
19206.0	7.037122933773652e+17
19207.0	7.035652815541588e+17
19208.0	7.03416759292177e+17
19209.0	7.032878608504148e+17
19210.0	7.03006766006272e+17
19211.0	7.027213589282815e+17
19212.0	7.025785408498345e+17
19213.0	7.024236045882707e+17
19214.0	7.022761847990956e+17
19215.0	7.021459815792639e+17
19216.0	7.020073471792468e+17
19217.0	7.018642127104681e+17
19218.0	7.016680202261843e+17
19219.0	7.015667641352192e+17
19220.0	7.014330471372116e+17
19221.0	7.012705992966143e+17
19222.0	7.011467350682281e+17
19223.0	7.010028822549844e+17
19224.0	7.008564019199999e+17
19225.0	7.007063870450346e+17
19226.0	7.005697167676755e+17
19227.0	7.004251156206931e+17
19228.0	7.002825921221972e+17
19229.0	7.001378039092563e+17
19230.0	6.99991673938466e+17
19231.0	6.998462054094163e+17
19232.0	6.997020183101439e+17
19233.0	6.995523925267795e+17
19234.0	6.994101751425706e+17
19235.0	6.992644311875583e+17
19236.0	6.991200411538772e+17
19237.0	6.989729158048425e+17
19238.0	6.988202035030697e+17
19239.0	6.986813102445908e+17
19240.0	6.985326616641535e+17
19241.0	6.983856183836672e+17
19242.0	6.98239653388834e+17
19243.0	6.979073205775021e+17
19244.0	6.97592890663458e+17
19245.0	6.974442670391295e+17
19246.0	6.972944159517353e+17
19247.0	6.971462574757204e+17
19248.0	6.969970105079123e+17
19249.0	6.968472736453971e+17
19250.0	6.966961571364861e+17
19251.0	6.965398972224852e+17
19252.0	6.963770667215529e+17
19253.0	6.962448670130175e+17
19254.0	6.960952622710783e+17
19255.0	6.95931275260723e+17
19256.0	6.957901491645097e+17
19257.0	6.956411014261417e+17
19258.0	6.954890354666153e+17
19259.0	6.953315122981546e+17
19260.0	6.95160745894434e+17
19261.0	6.9503062376448e+17
19262.0	6.9487421306525e+17
19263.0	6.946141932705112e+17
19264.0	6.941042663576915e+17
19265.0	6.939700345088681e+17
19266.0	6.938151755623081e+17
19267.0	6.936699681286826e+17
19268.0	6.935130753641129e+17
19269.0	6.933557368848383e+17
19270.0	6.931976195233108e+17
19271.0	6.93018667515904e+17
19272.0	6.928785347007827e+17
19273.0	6.926528320023208e+17
19274.0	6.925104318862676e+17
19275.0	6.924024747655167e+17
19276.0	6.922409433803434e+17
19277.0	6.920803472550569e+17
19278.0	6.916924076894889e+17
19279.0	6.914958275816104e+17
19280.0	6.91328287576337e+17
19281.0	6.911681020734121e+17
19282.0	6.910036885023401e+17
19283.0	6.90826344870707e+17
19284.0	6.906608314832212e+17
19285.0	6.904944066734761e+17
19286.0	6.903360520541524e+17
19287.0	6.901697155345066e+17
19288.0	6.896657805344764e+17
19289.0	6.89011436394904e+17
19290.0	6.896619386918227e+17
19291.0	6.894755863243434e+17
19292.0	6.893220594188287e+17
19293.0	6.891497520977236e+17
19294.0	6.889767422306985e+17
19295.0	6.888040627350185e+17
19296.0	6.886293062899027e+17
19297.0	6.884531829211136e+17
19298.0	6.882776195618132e+17
19299.0	6.881015923124906e+17
19300.0	6.879244273582079e+17
19301.0	6.877456745802409e+17
19302.0	6.875662711259135e+17
19303.0	6.873829241869652e+17
19304.0	6.872054173270015e+17
19305.0	6.870252409323519e+17
19306.0	6.868433960435711e+17
19307.0	6.8665686374045e+17
19308.0	6.864737073627135e+17
19309.0	6.862578630961832e+17
19310.0	6.860583144696489e+17
19311.0	6.859118534284627e+17
19312.0	6.857300264353791e+17
19313.0	6.855410978564778e+17
19314.0	6.844569604500136e+17
19315.0	6.843317231463094e+17
19316.0	6.849619658364244e+17
19317.0	6.847732379549695e+17
19318.0	6.845782186175146e+17
19319.0	6.843834063388671e+17
19320.0	6.841856333709311e+17
19321.0	6.839864794284031e+17
19322.0	6.837788580948649e+17
19323.0	6.835622602517161e+17
19324.0	6.833700610943657e+17
19325.0	6.831405084442623e+17
19326.0	6.829599358975997e+17
19327.0	6.827538338807807e+17
19328.0	6.82545401438754e+17
19329.0	6.823359163662335e+17
19330.0	6.821214365067946e+17
19331.0	6.819071443424595e+17
19332.0	6.816944512565247e+17
19333.0	6.814753289317033e+17
19334.0	6.812536099132755e+17
19335.0	6.81029126988322e+17
19336.0	6.808060208436563e+17
19337.0	6.805797765906431e+17
19338.0	6.803391347600042e+17
19339.0	6.801233244673363e+17
19340.0	6.798885779406847e+17
19341.0	6.796588349390847e+17
19342.0	6.794026357358591e+17
19343.0	6.791920185507839e+17
19344.0	6.789547183221417e+17
19345.0	6.785973146178897e+17
19346.0	6.784274564907005e+17
19347.0	6.782328280623785e+17
19348.0	6.779960812721492e+17
19349.0	6.77750874570752e+17
19350.0	6.775057509165738e+17
19351.0	6.772595071735126e+17
19352.0	6.770078882201599e+17
19353.0	6.767642596256425e+17
19354.0	6.765138033333587e+17
19355.0	6.762557391328595e+17
19356.0	6.760074719876436e+17
19357.0	6.757459860739412e+17
19358.0	6.754792860112212e+17
19359.0	6.752071562821632e+17
19360.0	6.749372191255209e+17
19361.0	6.746649555282602e+17
19362.0	6.743916836203178e+17
19363.0	6.741134739679914e+17
19364.0	6.738326841196543e+17
19365.0	6.735493432956243e+17
19366.0	6.732633734818474e+17
19367.0	6.72974798725666e+17
19368.0	6.72676632924433e+17
19369.0	6.723572445741055e+17
19370.0	6.72057611465523e+17
19371.0	6.717616536857258e+17
19372.0	6.714627575862612e+17
19373.0	6.711562725927593e+17
19374.0	6.708490532465322e+17
19375.0	6.70537257914641e+17
19376.0	6.702224057040896e+17
19377.0	6.699030851616767e+17
19378.0	6.695805509435391e+17
19379.0	6.692542928825002e+17
19380.0	6.689243678113791e+17
19381.0	6.685906647209299e+17
19382.0	6.682297083712854e+17
19383.0	6.678421155348479e+17
19384.0	6.675019225279146e+17
19385.0	6.671512661306025e+17
19386.0	6.667971481042943e+17
19387.0	6.664378666800467e+17
19388.0	6.66073378796339e+17
19389.0	6.657032285323263e+17
19390.0	6.652534252896256e+17
19391.0	6.638253107052529e+17
19392.0	6.644277451598504e+17
19393.0	6.640495200916819e+17
19394.0	6.636454790823935e+17
19395.0	6.631240866201597e+17
19396.0	6.626467223961599e+17
19397.0	6.622180912310953e+17
19398.0	6.617612442839721e+17
19399.0	6.610529270016681e+17
19400.0	6.606210339263828e+17
19401.0	6.600256497472851e+17
19402.0	6.593447592285523e+17
19403.0	6.587778227765245e+17
19404.0	6.579146487846227e+17
19405.0	6.572882652736166e+17
19406.0	6.563154537829716e+17
19407.0	6.554955397726203e+17
19408.0	6.544835658558122e+17
19409.0	6.5335738691311e+17
19410.0	6.521174732658004e+17
19411.0	6.50676484894447e+17
19412.0	6.491049439876433e+17
19413.0	6.478667864255145e+17
19414.0	6.469916928507901e+17
19415.0	6.460950560025258e+17
19416.0	6.451580061264554e+17
19417.0	6.442044403395241e+17
19418.0	6.432337728372736e+17
19419.0	6.421999384177321e+17
19420.0	6.411291666502995e+17
19421.0	6.40043383398946e+17
19422.0	6.389129099083773e+17
19423.0	6.377212092263082e+17
19424.0	6.364850182335146e+17
19425.0	6.352534001505619e+17
19426.0	6.33856939209523e+17
19427.0	6.325149733224448e+17
19428.0	6.30926704972049e+17
19429.0	6.292864985552212e+17
19430.0	6.274315209845418e+17
19431.0	6.252069028276906e+17
19432.0	6.230064386189994e+17
19433.0	6.20242414792431e+17
19434.0	6.169206669530449e+17
19435.0	6.13096230101537e+17
19436.0	6.092301087189673e+17
19437.0	6.063061663569236e+17
19438.0	6.020027337670655e+17
19439.0	5.996928152109057e+17
19440.0	5.958267331149823e+17
19441.0	5.914392019337215e+17
19442.0	5.864502432803503e+17
19443.0	5.804181169722708e+17
19444.0	5.73322714048102e+17
19445.0	5.6508002812122496e+17
19446.0	5.5530371234310784e+17
19447.0	5.4366852024893376e+17
19448.0	5.291646372194992e+17
19449.0	5.097149069000702e+17
19450.0	4.817608808682826e+17
19451.0	4.6848034223772986e+17
19452.0	4.9690390102889734e+17
19453.0	5.20195708114262e+17
19454.0	5.365536758169593e+17
19455.0	5.491805569854124e+17
19456.0	5.5955024661271936e+17
19457.0	5.683149896592039e+17
19458.0	5.7440196781670605e+17
19459.0	5.820094606562648e+17
19460.0	5.872488788874577e+17
19461.0	5.916794127297193e+17
19462.0	5.955890974818305e+17
19463.0	5.990182141908307e+17
19464.0	6.02041009377553e+17
19465.0	6.048116107116544e+17
19466.0	6.079505753265494e+17
19467.0	6.116757269206359e+17
19468.0	6.14991428251375e+17
19469.0	6.176905197081935e+17
19470.0	6.200743702123858e+17
19471.0	6.220193824331094e+17
19472.0	6.23709084083814e+17
19473.0	6.252529052549117e+17
19474.0	6.26580580938547e+17
19475.0	6.27744684917828e+17
19476.0	6.289195039457277e+17
19477.0	6.2998529455773e+17
19478.0	6.309612936495101e+17
19479.0	6.319627138585939e+17
19480.0	6.328631507462826e+17
19481.0	6.337264741952169e+17
19482.0	6.345529803931647e+17
19483.0	6.353742961399124e+17
19484.0	6.361297629915816e+17
19485.0	6.368486417410729e+17
19486.0	6.375401285397161e+17
19487.0	6.382060910411775e+17
19488.0	6.388428115542015e+17
19489.0	6.396088648990721e+17
19490.0	6.406961694943908e+17
19491.0	6.420148922963295e+17
19492.0	6.431934316019711e+17
19493.0	6.441443923066875e+17
19494.0	6.447657763471352e+17
19495.0	6.455988917895168e+17
19496.0	6.46075837072452e+17
19497.0	6.467023320121343e+17
19498.0	6.470294750713172e+17
19499.0	6.460361981733535e+17
19500.0	6.479299260798291e+17
19501.0	6.484290837676032e+17
19502.0	6.486520099766271e+17
19503.0	6.489598885975378e+17
19504.0	6.492838081243817e+17
19505.0	6.494698457792511e+17
19506.0	6.496468271628287e+17
19507.0	6.499416236097536e+17
19508.0	6.501276175040511e+17
19509.0	6.502773106059946e+17
19510.0	6.504070715364691e+17
19511.0	6.487999916627274e+17
19512.0	6.505145101014351e+17
19513.0	6.504442917901645e+17
19514.0	6.506923217474895e+17
19515.0	6.510951388588714e+17
19516.0	6.512401482514431e+17
19517.0	6.513387446643369e+17
19518.0	6.514397676918099e+17
19519.0	6.515317639479295e+17
19520.0	6.516756387812692e+17
19521.0	6.517623980993193e+17
19522.0	6.518400106889215e+17
19523.0	6.519175166732969e+17
19524.0	6.5198906422941e+17
19525.0	6.520569233145856e+17
19526.0	6.521218996546217e+17
19527.0	6.521822052876287e+17
19528.0	6.522384573355347e+17
19529.0	6.522924504711168e+17
19530.0	6.523432464984745e+17
19531.0	6.523906008896852e+17
19532.0	6.524349202825215e+17
19533.0	6.524762719256575e+17
19534.0	6.525271979065343e+17
19535.0	6.525769791919443e+17
19536.0	6.526084124246015e+17
19537.0	6.52641331699166e+17
19538.0	6.526625932552874e+17
19539.0	6.526612963764906e+17
19540.0	6.527146896566953e+17
19541.0	6.527362854988457e+17
19542.0	6.527533747011583e+17
19543.0	6.527677812266323e+17
19544.0	6.527807008713385e+17
19545.0	6.527626940252157e+17
19546.0	6.527394570917204e+17
19547.0	6.527917832710825e+17
19548.0	6.527886335584938e+17
19549.0	6.527775633222314e+17
19550.0	6.527776823705597e+17
19551.0	6.5277009082013e+17
19552.0	6.527607573752489e+17
19553.0	6.527486061969408e+17
19554.0	6.527353867294035e+17
19555.0	6.527229375457961e+17
19556.0	6.527086493695999e+17
19557.0	6.526916829904895e+17
19558.0	6.526735375925247e+17
19559.0	6.526537681600511e+17
19560.0	6.526306714561193e+17
19561.0	6.526077330871636e+17
19562.0	6.525852051308543e+17
19563.0	6.525591971605161e+17
19564.0	6.525316784018772e+17
19565.0	6.525026146014547e+17
19566.0	6.524700631673514e+17
19567.0	6.524398500577279e+17
19568.0	6.524045085026985e+17
19569.0	6.52370612654353e+17
19570.0	6.523325774473897e+17
19571.0	6.522913236713471e+17
19572.0	6.522467858251776e+17
19573.0	6.522033307385855e+17
19574.0	6.521524710277119e+17
19575.0	6.521113381874346e+17
19576.0	6.520624779711827e+17
19577.0	6.520115950518271e+17
19578.0	6.51957771505937e+17
19579.0	6.519053652153684e+17
19580.0	6.518509413946707e+17
19581.0	6.517954664813908e+17
19582.0	6.517392795850067e+17
19583.0	6.516807472338259e+17
19584.0	6.516208080431785e+17
19585.0	6.515527262404607e+17
19586.0	6.514880790833834e+17
19587.0	6.514291435896831e+17
19588.0	6.513485768119636e+17
19589.0	6.513115281752063e+17
19590.0	6.512406677858986e+17
19591.0	6.511786567488851e+17
19592.0	6.511099594320553e+17
19593.0	6.510389632172031e+17
19594.0	6.509535174153556e+17
19595.0	6.508959298311508e+17
19596.0	6.507663511431849e+17
19597.0	6.507500908052477e+17
19598.0	6.506569991367337e+17
19599.0	6.506022748640595e+17
19600.0	6.505262699511808e+17
19601.0	6.504455306477565e+17
19602.0	6.503693444011348e+17
19603.0	6.502550761810601e+17
19604.0	6.502108192833535e+17
19605.0	6.501174323358378e+17
19606.0	6.50056658199074e+17
19607.0	6.499759809014441e+17
19608.0	6.498937036865536e+17
19609.0	6.49808392102434e+17
19610.0	6.497284242713257e+17
19611.0	6.496441477715284e+17
19612.0	6.495604930772992e+17
19613.0	6.494746137941332e+17
19614.0	6.493867741631827e+17
19615.0	6.493028423652692e+17
19616.0	6.492062233569961e+17
19617.0	6.491275472317097e+17
19618.0	6.490047608695464e+17
19619.0	6.489066938477225e+17
19620.0	6.488201724166143e+17
19621.0	6.487713424692564e+17
19622.0	6.486817172531881e+17
19623.0	6.485907779616768e+17
19624.0	6.484992592270676e+17
19625.0	6.484071489557846e+17
19626.0	6.483144328871936e+17
19627.0	6.483584458861225e+17
19628.0	6.483265550548992e+17
19629.0	6.482438654001151e+17
19630.0	6.480624904830975e+17
19631.0	6.469963832710484e+17
19632.0	6.47958270976546e+17
19633.0	6.47867071078946e+17
19634.0	6.477751460560895e+17
19635.0	6.476756488465065e+17
19636.0	6.475804025640276e+17
19637.0	6.474567017037824e+17
19638.0	6.473841963084457e+17
19639.0	6.47285172216354e+17
19640.0	6.471816027570176e+17
19641.0	6.470414163946156e+17
19642.0	6.469884721845587e+17
19643.0	6.471115381669889e+17
19644.0	6.471788140341929e+17
19645.0	6.470637456807251e+17
19646.0	6.46978141963332e+17
19647.0	6.468763854219945e+17
19648.0	6.467736031636138e+17
19649.0	6.466703601609385e+17
19650.0	6.465672108310527e+17
19651.0	6.464636374570324e+17
19652.0	6.463598166190762e+17
19653.0	6.462556388458495e+17
19654.0	6.461514679932244e+17
19655.0	6.46046642549555e+17
19656.0	6.459417505562623e+17
19657.0	6.458372347920383e+17
19658.0	6.457320520635731e+17
19659.0	6.45626562871296e+17
19660.0	6.455210680167081e+17
19661.0	6.454152621544788e+17
19662.0	6.453092167974911e+17
19663.0	6.451996626954922e+17
19664.0	6.450927867265023e+17
19665.0	6.45088757118839e+17
