# Flux units: erg / (cm m2 s)
# Wavelength units: Angstrom
wave	flux
19000.0	6.618572137343657e+17
19001.0	6.61724578517265e+17
19002.0	6.6161235474077e+17
19003.0	6.614887807582207e+17
19004.0	6.613657284072788e+17
19005.0	6.612440023651668e+17
19006.0	6.611219003037012e+17
19007.0	6.609948781139284e+17
19008.0	6.608716145098752e+17
19009.0	6.607416794458793e+17
19010.0	6.60591336436531e+17
19011.0	6.605011405154985e+17
19012.0	6.603122069034323e+17
19013.0	6.602633308187305e+17
19014.0	6.601361404373673e+17
19015.0	6.600153727937193e+17
19016.0	6.598925900666196e+17
19017.0	6.597733620820649e+17
19018.0	6.596483501522943e+17
19019.0	6.595286041012906e+17
19020.0	6.594050457774761e+17
19021.0	6.592844379368106e+17
19022.0	6.591614547219796e+17
19023.0	6.590349735275177e+17
19024.0	6.589128992882687e+17
19025.0	6.587858881434963e+17
19026.0	6.586575920037887e+17
19027.0	6.584812329151145e+17
19028.0	6.584238251966461e+17
19029.0	6.583012456136701e+17
19030.0	6.581815368220672e+17
19031.0	6.58058584854801e+17
19032.0	6.579341279712596e+17
19033.0	6.577995684773888e+17
19034.0	6.576728286341802e+17
19035.0	6.574523470752425e+17
19036.0	6.530868502506143e+17
19037.0	6.572368164727466e+17
19038.0	6.571842958873939e+17
19039.0	6.570747396882432e+17
19040.0	6.569559184812714e+17
19041.0	6.568343728641363e+17
19042.0	6.566733190004735e+17
19043.0	6.565920201069908e+17
19044.0	6.564686267591338e+17
19045.0	6.563445342207997e+17
19046.0	6.562207083702953e+17
19047.0	6.560992565657599e+17
19048.0	6.559558337385812e+17
19049.0	6.557830266661546e+17
19050.0	6.557149111691946e+17
19051.0	6.549524364044963e+17
19052.0	6.552894038518441e+17
19053.0	6.553581618462719e+17
19054.0	6.552449772246355e+17
19055.0	6.550916134775466e+17
19056.0	6.54997751734818e+17
19057.0	6.548812082446335e+17
19058.0	6.547249267299667e+17
19059.0	6.546252788050601e+17
19060.0	6.545136517382143e+17
19061.0	6.54394204880896e+17
19062.0	6.542717649682431e+17
19063.0	6.541497075761151e+17
19064.0	6.540171195449343e+17
19065.0	6.538889428729856e+17
19066.0	6.537666650701823e+17
19067.0	6.536609128251391e+17
19068.0	6.535402308151978e+17
19069.0	6.53418358252066e+17
19070.0	6.532936476830378e+17
19071.0	6.531706504172884e+17
19072.0	6.530399916261375e+17
19073.0	6.529303017684991e+17
19074.0	6.528087977448788e+17
19075.0	6.526868686285482e+17
19076.0	6.525633835652436e+17
19077.0	6.524414343162538e+17
19078.0	6.523181328236543e+17
19079.0	6.521991744629418e+17
19080.0	6.520759911099049e+17
19081.0	6.519508798450345e+17
19082.0	6.518299303783082e+17
19083.0	6.517005170158249e+17
19084.0	6.515662388898474e+17
19085.0	6.514633259788969e+17
19086.0	6.512752147999401e+17
19087.0	6.511087862852266e+17
19088.0	6.510407213296297e+17
19089.0	6.509106953890473e+17
19090.0	6.508402644265641e+17
19091.0	6.507244757013843e+17
19092.0	6.505630004499796e+17
19093.0	6.504902500373843e+17
19094.0	6.503721433300991e+17
19095.0	6.502514453818025e+17
19096.0	6.501289680000339e+17
19097.0	6.500085695250431e+17
19098.0	6.498733989210793e+17
19099.0	6.497493155403094e+17
19100.0	6.496359874035711e+17
19101.0	6.495194063743657e+17
19102.0	6.49391643959842e+17
19103.0	6.492792394088447e+17
19104.0	6.491575075646121e+17
19105.0	6.490026793063764e+17
19106.0	6.488963894913705e+17
19107.0	6.487770317630121e+17
19108.0	6.486416381618857e+17
19109.0	6.482810591597906e+17
19110.0	6.483690326589439e+17
19111.0	6.48290101380164e+17
19112.0	6.481739708192084e+17
19113.0	6.480650775997097e+17
19114.0	6.479372997361663e+17
19115.0	6.478075571208191e+17
19116.0	6.476990539016873e+17
19117.0	6.475752119031123e+17
19118.0	6.474329076269055e+17
19119.0	6.468627091947512e+17
19120.0	6.471738349060095e+17
19121.0	6.470647079938729e+17
19122.0	6.469746571957588e+17
19123.0	6.468544208306175e+17
19124.0	6.4670610765469e+17
19125.0	6.466103405794644e+17
19126.0	6.464860312655188e+17
19127.0	6.462166662818474e+17
19128.0	6.462125625748137e+17
19129.0	6.461194320390826e+17
19130.0	6.460059162072404e+17
19131.0	6.458857979816617e+17
19132.0	6.457652265615359e+17
19133.0	6.456356420015444e+17
19134.0	6.455084939127466e+17
19135.0	6.454014392664063e+17
19136.0	6.452813630537727e+17
19137.0	6.451475614007295e+17
19138.0	6.450378962894847e+17
19139.0	6.449191314959018e+17
19140.0	6.447986201941331e+17
19141.0	6.446778014498815e+17
19142.0	6.445530912303785e+17
19143.0	6.444315147152042e+17
19144.0	6.443112334011049e+17
19145.0	6.441941816311805e+17
19146.0	6.440132782238378e+17
19147.0	6.439451716048212e+17
19148.0	6.438192904754516e+17
19149.0	6.436964544107862e+17
19150.0	6.435895724299604e+17
19151.0	6.434685426423124e+17
19152.0	6.433427553255423e+17
19153.0	6.432027449141929e+17
19154.0	6.430924658267476e+17
19155.0	6.429805512403625e+17
19156.0	6.428563712507903e+17
19157.0	6.426979497323178e+17
19158.0	6.424525184259412e+17
19159.0	6.424736896647167e+17
19160.0	6.423643124225366e+17
19161.0	6.422275421809321e+17
19162.0	6.417191203241985e+17
19163.0	6.419278859337727e+17
19164.0	6.41885019377937e+17
19165.0	6.417407884481875e+17
19166.0	6.416331367426729e+17
19167.0	6.414938844517716e+17
19168.0	6.414059360485376e+17
19169.0	6.412881052565503e+17
19170.0	6.411714799774378e+17
19171.0	6.410347035841876e+17
19172.0	6.409259381511508e+17
19173.0	6.40812335637026e+17
19174.0	6.406902461584723e+17
19175.0	6.405744233196201e+17
19176.0	6.40453357740578e+17
19177.0	6.403165291282431e+17
19178.0	6.401938781721939e+17
19179.0	6.400622820240042e+17
19180.0	6.399667508084733e+17
19181.0	6.398403386103124e+17
19182.0	6.397287123124223e+17
19183.0	6.396117766548137e+17
19184.0	6.394910512338259e+17
19185.0	6.393698983433556e+17
19186.0	6.392501669025107e+17
19187.0	6.391212942557183e+17
19188.0	6.390072377780906e+17
19189.0	6.388859345917268e+17
19190.0	6.387615743169876e+17
19191.0	6.386361693809322e+17
19192.0	6.385211394752511e+17
19193.0	6.383933363759785e+17
19194.0	6.382651088131412e+17
19195.0	6.381416849866751e+17
19196.0	6.380001479185748e+17
19197.0	6.378319508755796e+17
19198.0	6.37516652880418e+17
19199.0	6.348364799016955e+17
19200.0	6.352059018947247e+17
19201.0	6.371857294251348e+17
19202.0	6.372373940928511e+17
19203.0	6.371524553823572e+17
19204.0	6.37052929511697e+17
19205.0	6.369432679656105e+17
19206.0	6.368286982449833e+17
19207.0	6.367010678811305e+17
19208.0	6.365756558147583e+17
19209.0	6.364748281719465e+17
19210.0	6.36355521684002e+17
19211.0	6.362369389232127e+17
19212.0	6.36114931093777e+17
19213.0	6.359659534701908e+17
19214.0	6.358331927035901e+17
19215.0	6.357421241576106e+17
19216.0	6.356358017668435e+17
19217.0	6.35514132767266e+17
19218.0	6.353281019630931e+17
19219.0	6.352594781164884e+17
19220.0	6.35153662677265e+17
19221.0	6.350124422791168e+17
19222.0	6.349144662037843e+17
19223.0	6.347960278668628e+17
19224.0	6.346730969410217e+17
19225.0	6.345459203309567e+17
19226.0	6.344354572533759e+17
19227.0	6.343153875419135e+17
19228.0	6.341978558038015e+17
19229.0	6.340774784401407e+17
19230.0	6.339558866157567e+17
19231.0	6.338348075450367e+17
19232.0	6.337152699509417e+17
19233.0	6.335886502046377e+17
19234.0	6.334740702079657e+17
19235.0	6.333525003337727e+17
19236.0	6.3323489973917e+17
19237.0	6.331129959983785e+17
19238.0	6.32981666538018e+17
19239.0	6.328733207450964e+17
19240.0	6.327527854658899e+17
19241.0	6.326306038524585e+17
19242.0	6.325108099863891e+17
19243.0	6.323760256778237e+17
19244.0	6.322714089007785e+17
19245.0	6.321501631064746e+17
19246.0	6.320287377959593e+17
19247.0	6.319092970203818e+17
19248.0	6.317877281248596e+17
19249.0	6.316647734312959e+17
19250.0	6.315400228066643e+17
19251.0	6.314114263547901e+17
19252.0	6.312767347403434e+17
19253.0	6.311824564333225e+17
19254.0	6.31063450816785e+17
19255.0	6.309239040158377e+17
19256.0	6.308190723506176e+17
19257.0	6.307008884681385e+17
19258.0	6.305796102378835e+17
19259.0	6.304494465843199e+17
19260.0	6.302425142351186e+17
19261.0	6.302134170200746e+17
19262.0	6.300881319712083e+17
19263.0	6.299646432728404e+17
19264.0	6.298042239374676e+17
19265.0	6.297119231049727e+17
19266.0	6.295889984006825e+17
19267.0	6.294879073555796e+17
19268.0	6.293657498593961e+17
19269.0	6.292443375512233e+17
19270.0	6.29121157763345e+17
19271.0	6.289654692533588e+17
19272.0	6.28866917020467e+17
19273.0	6.287107753159338e+17
19274.0	6.285796008351058e+17
19275.0	6.285046431001257e+17
19276.0	6.283808766689279e+17
19277.0	6.282591092430163e+17
19278.0	6.281359202276692e+17
19279.0	6.280099436778835e+17
19280.0	6.278844085086889e+17
19281.0	6.277664620238164e+17
19282.0	6.276410459029503e+17
19283.0	6.274944287637503e+17
19284.0	6.273784559086249e+17
19285.0	6.27259671192098e+17
19286.0	6.271413450528083e+17
19287.0	6.270024478796457e+17
19288.0	6.255824640933876e+17
19289.0	6.239248963338198e+17
19290.0	6.266263309385727e+17
19291.0	6.265042261508096e+17
19292.0	6.264113067982847e+17
19293.0	6.262894118655316e+17
19294.0	6.26165967556881e+17
19295.0	6.260436482304682e+17
19296.0	6.25903902200081e+17
19297.0	6.257883510123177e+17
19298.0	6.256684450185215e+17
19299.0	6.25520137085474e+17
19300.0	6.254080184461993e+17
19301.0	6.252833303166976e+17
19302.0	6.251569444028415e+17
19303.0	6.250241361707007e+17
19304.0	6.249040948406953e+17
19305.0	6.247783339480404e+17
19306.0	6.246502026444799e+17
19307.0	6.245171134638762e+17
19308.0	6.243863368127828e+17
19309.0	6.241704973697023e+17
19310.0	6.240049202287955e+17
19311.0	6.239858612415146e+17
19312.0	6.238803278692351e+17
19313.0	6.237377320889002e+17
19314.0	6.186612549484522e+17
19315.0	6.189585236579743e+17
19316.0	6.232948895733076e+17
19317.0	6.23216947101696e+17
19318.0	6.230909020449449e+17
19319.0	6.22965906542865e+17
19320.0	6.228306039581353e+17
19321.0	6.226924209351338e+17
19322.0	6.225566738939903e+17
19323.0	6.224090034252457e+17
19324.0	6.222959678412116e+17
19325.0	6.221117199657642e+17
19326.0	6.220381532018004e+17
19327.0	6.219045799985151e+17
19328.0	6.217386652161364e+17
19329.0	6.216342712964435e+17
19330.0	6.214987040511316e+17
19331.0	6.213636420097364e+17
19332.0	6.212333385460393e+17
19333.0	6.210972888858623e+17
19334.0	6.209645413313194e+17
19335.0	6.207658240158378e+17
19336.0	6.206585704196778e+17
19337.0	6.205245652729853e+17
19338.0	6.203679438798847e+17
19339.0	6.202489183404032e+17
19340.0	6.201011259572223e+17
19341.0	6.199477544506708e+17
19342.0	6.197811201354409e+17
19343.0	6.196707680671059e+17
19344.0	6.195087502125737e+17
19345.0	6.192095972818941e+17
19346.0	6.191505524566698e+17
19347.0	6.190596603510783e+17
19348.0	6.189493049972051e+17
19349.0	6.188002289472852e+17
19350.0	6.186466203227476e+17
19351.0	6.185101208933716e+17
19352.0	6.183326733129043e+17
19353.0	6.182191985153364e+17
19354.0	6.18070431375906e+17
19355.0	6.179108718728532e+17
19356.0	6.177687243238058e+17
19357.0	6.176164460625919e+17
19358.0	6.174607529388714e+17
19359.0	6.17297608773905e+17
19360.0	6.171244804876969e+17
19361.0	6.169681740868265e+17
19362.0	6.168131584830122e+17
19363.0	6.166528119188138e+17
19364.0	6.164908443260243e+17
19365.0	6.163273304331604e+17
19366.0	6.161622262699348e+17
19367.0	6.159947939184639e+17
19368.0	6.158272931998377e+17
19369.0	6.156457736492372e+17
19370.0	6.154448976652969e+17
19371.0	6.152720020231508e+17
19372.0	6.151017049620479e+17
19373.0	6.149213008166911e+17
19374.0	6.147432259081555e+17
19375.0	6.145604414253737e+17
19376.0	6.143720211262122e+17
19377.0	6.141370949435391e+17
19378.0	6.139466034271572e+17
19379.0	6.137469938434047e+17
19380.0	6.135405132906495e+17
19381.0	6.133397183266815e+17
19382.0	6.13059995509282e+17
19383.0	6.128503458802345e+17
19384.0	6.126473379315712e+17
19385.0	6.124338635167059e+17
19386.0	6.121319825408e+17
19387.0	6.118971609361065e+17
19388.0	6.116667421622271e+17
19389.0	6.11377577127663e+17
19390.0	6.110350248946346e+17
19391.0	6.07052505074888e+17
19392.0	6.103040553648124e+17
19393.0	6.101518839185408e+17
19394.0	6.098959602810879e+17
19395.0	6.094777166594045e+17
19396.0	6.091896294211583e+17
19397.0	6.088660446696787e+17
19398.0	6.085288787618474e+17
19399.0	6.081860748705791e+17
19400.0	6.07940591554833e+17
19401.0	6.075826289595731e+17
19402.0	6.072712101363711e+17
19403.0	6.069480173426006e+17
19404.0	6.066170336990548e+17
19405.0	6.062548402394451e+17
19406.0	6.057953064211796e+17
19407.0	6.054148446704979e+17
19408.0	6.049744607860054e+17
19409.0	6.045445908332543e+17
19410.0	6.040283593222825e+17
19411.0	6.035842906019156e+17
19412.0	6.029963808123561e+17
19413.0	6.023840195586729e+17
19414.0	6.018620128406186e+17
19415.0	6.010759988729172e+17
19416.0	6.004873804556969e+17
19417.0	5.995779705536511e+17
19418.0	5.989345505487529e+17
19419.0	5.979417203441663e+17
19420.0	5.969364953421138e+17
19421.0	5.959722780502697e+17
19422.0	5.946620944318463e+17
19423.0	5.934378357445969e+17
19424.0	5.922228347251366e+17
19425.0	5.911588610856276e+17
19426.0	5.902043766063103e+17
19427.0	5.892642674748073e+17
19428.0	5.881504269860863e+17
19429.0	5.870232668558678e+17
19430.0	5.854805074029228e+17
19431.0	5.835267666258605e+17
19432.0	5.82498847992491e+17
19433.0	5.806472683672913e+17
19434.0	5.784781811875836e+17
19435.0	5.758456924121768e+17
19436.0	5.728960257545556e+17
19437.0	5.700974535857496e+17
19438.0	5.6190020588230035e+17
19439.0	5.641495561022124e+17
19440.0	5.618926950722217e+17
19441.0	5.5893720350501523e+17
19442.0	5.554917022367744e+17
19443.0	5.513629754807636e+17
19444.0	5.464928656468646e+17
19445.0	5.406276935396012e+17
19446.0	5.3335665364609683e+17
19447.0	5.24149858989943e+17
19448.0	5.12042977425272e+17
19449.0	4.945041987119787e+17
19450.0	4.6357120692169274e+17
19451.0	4.4256514305338323e+17
19452.0	4.8176849457861997e+17
19453.0	5.0415339904696384e+17
19454.0	5.1819567899825434e+17
19455.0	5.2844533624340474e+17
19456.0	5.363019771718318e+17
19457.0	5.426520694019411e+17
19458.0	5.371595045819912e+17
19459.0	5.516238687393131e+17
19460.0	5.555337210538663e+17
19461.0	5.5857097044131834e+17
19462.0	5.6112623201375565e+17
19463.0	5.63490161041954e+17
19464.0	5.660691018372437e+17
19465.0	5.6895253610059014e+17
19466.0	5.716561596426914e+17
19467.0	5.7405179844799123e+17
19468.0	5.7613140022176403e+17
19469.0	5.77856503755571e+17
19470.0	5.794650245824512e+17
19471.0	5.808116283211779e+17
19472.0	5.8194973453626e+17
19473.0	5.829653900034048e+17
19474.0	5.838912305321299e+17
19475.0	5.845799853009577e+17
19476.0	5.854135348538028e+17
19477.0	5.861321726405292e+17
19478.0	5.8701600274077e+17
19479.0	5.882098060973395e+17
19480.0	5.891033348265302e+17
19481.0	5.899110866135721e+17
19482.0	5.9089734322531e+17
19483.0	5.915019926219437e+17
19484.0	5.921974936491348e+17
19485.0	5.927153589813249e+17
19486.0	5.931988484270764e+17
19487.0	5.936379170477399e+17
19488.0	5.940898280680106e+17
19489.0	5.943400303951871e+17
19490.0	5.947197130539007e+17
19491.0	5.95060187079202e+17
19492.0	5.952833017522858e+17
19493.0	5.956364795554474e+17
19494.0	5.958025303730857e+17
19495.0	5.959504219515561e+17
19496.0	5.960867345945939e+17
19497.0	5.962886259496276e+17
19498.0	5.957040999847254e+17
19499.0	5.906087103081101e+17
19500.0	5.965622171839146e+17
19501.0	5.96728268211268e+17
19502.0	5.968523643846655e+17
19503.0	5.969245418553343e+17
19504.0	5.969832121991167e+17
19505.0	5.971304070337875e+17
19506.0	5.971817256015187e+17
19507.0	5.973255445108052e+17
19508.0	5.974169410513578e+17
19509.0	5.974621039886336e+17
19510.0	5.975544062891348e+17
19511.0	5.886927835583761e+17
19512.0	5.965438253006833e+17
19513.0	5.960313558706834e+17
19514.0	5.964585512555846e+17
19515.0	5.976967587299327e+17
19516.0	5.978245047167657e+17
19517.0	5.978629435555837e+17
19518.0	5.978516522795007e+17
19519.0	5.978321682694143e+17
19520.0	5.978235231797247e+17
19521.0	5.978638349150889e+17
19522.0	5.978301205402964e+17
19523.0	5.978056687965524e+17
19524.0	5.977706780950527e+17
19525.0	5.977544699062954e+17
19526.0	5.977571661447167e+17
19527.0	5.977143528565417e+17
19528.0	5.976671070278995e+17
19529.0	5.976185677458089e+17
19530.0	5.975734955453097e+17
19531.0	5.975219983002282e+17
19532.0	5.974685346955263e+17
19533.0	5.974443160152746e+17
19534.0	5.973883164644692e+17
19535.0	5.973286139024724e+17
19536.0	5.972657470177279e+17
19537.0	5.972068833864362e+17
19538.0	5.971113984480595e+17
19539.0	5.97033275691281e+17
19540.0	5.970099236241408e+17
19541.0	5.969399617945599e+17
19542.0	5.968872600152745e+17
19543.0	5.968043256927572e+17
19544.0	5.967512952897536e+17
19545.0	5.966327948771327e+17
19546.0	5.965299576733696e+17
19547.0	5.965314175008768e+17
19548.0	5.964566108307455e+17
19549.0	5.963702561931263e+17
19550.0	5.963016999447209e+17
19551.0	5.962228644358825e+17
19552.0	5.96142698074385e+17
19553.0	5.960596712674644e+17
19554.0	5.959769595925844e+17
19555.0	5.958937907385684e+17
19556.0	5.958131051222356e+17
19557.0	5.957325561004031e+17
19558.0	5.956571188865706e+17
19559.0	5.955722319757311e+17
19560.0	5.954811278480724e+17
19561.0	5.954159371791018e+17
19562.0	5.953239352606719e+17
19563.0	5.952439869330772e+17
19564.0	5.951557252852394e+17
19565.0	5.950668797203795e+17
19566.0	5.949748499098281e+17
19567.0	5.948913957732351e+17
19568.0	5.948238531482964e+17
19569.0	5.947336194086228e+17
19570.0	5.946441213498707e+17
19571.0	5.945523996109482e+17
19572.0	5.944570152659625e+17
19573.0	5.943638100716201e+17
19574.0	5.942648756677289e+17
19575.0	5.941819154803369e+17
19576.0	5.94095552663825e+17
19577.0	5.940090964541439e+17
19578.0	5.939177438139731e+17
19579.0	5.938234778102442e+17
19580.0	5.937285423256916e+17
19581.0	5.936344552090281e+17
19582.0	5.935400967208959e+17
19583.0	5.93443985293312e+17
19584.0	5.933454906621951e+17
19585.0	5.932392065794047e+17
19586.0	5.931357663745363e+17
19587.0	5.930415168684031e+17
19588.0	5.929174483774124e+17
19589.0	5.928789490008063e+17
19590.0	5.927764482501289e+17
19591.0	5.926888171459924e+17
19592.0	5.925914519710376e+17
19593.0	5.924928321399465e+17
19594.0	5.923729570441898e+17
19595.0	5.922978273427455e+17
19596.0	5.92132615246097e+17
19597.0	5.920995902051668e+17
19598.0	5.919658252522835e+17
19599.0	5.919012000453972e+17
19600.0	5.918023319115092e+17
19601.0	5.916955612195498e+17
19602.0	5.915928646647807e+17
19603.0	5.914277272966484e+17
19604.0	5.913859230881108e+17
19605.0	5.912747811624276e+17
19606.0	5.91201695834658e+17
19607.0	5.911073174235818e+17
19608.0	5.910099264536573e+17
19609.0	5.90905534980642e+17
19610.0	5.907988079793492e+17
19611.0	5.90692756610526e+17
19612.0	5.906057951969279e+17
19613.0	5.905029010904406e+17
19614.0	5.903979319918592e+17
19615.0	5.902974040320682e+17
19616.0	5.901533850544809e+17
19617.0	5.900788809334783e+17
19618.0	5.899371828041043e+17
19619.0	5.898191605421395e+17
19620.0	5.897230147212627e+17
19621.0	5.896629046826324e+17
19622.0	5.895814606662314e+17
19623.0	5.894769953734656e+17
19624.0	5.89369817834018e+17
19625.0	5.892698824594771e+17
19626.0	5.89163514770227e+17
19627.0	5.890484246063786e+17
19628.0	5.888733880516608e+17
19629.0	5.887327833074344e+17
19630.0	5.880915848156499e+17
19631.0	5.857770838425603e+17
19632.0	5.884186803393876e+17
19633.0	5.884042092915369e+17
19634.0	5.883294879055871e+17
19635.0	5.88227171983906e+17
19636.0	5.881102387030697e+17
19637.0	5.879759189136724e+17
19638.0	5.879268040332628e+17
19639.0	5.878248625231188e+17
19640.0	5.877124212020564e+17
19641.0	5.875354110175916e+17
19642.0	5.875183067856895e+17
19643.0	5.874155027169279e+17
19644.0	5.873085106356223e+17
19645.0	5.871884247760895e+17
19646.0	5.870839424264874e+17
19647.0	5.870038802235391e+17
19648.0	5.869005390042452e+17
19649.0	5.867963349467135e+17
19650.0	5.866924804145152e+17
19651.0	5.865877356412927e+17
19652.0	5.864834121859071e+17
19653.0	5.863781463403178e+17
19654.0	5.862749596112212e+17
19655.0	5.861704003660458e+17
19656.0	5.86066660617967e+17
19657.0	5.859629324042239e+17
19658.0	5.858581884698623e+17
19659.0	5.857540768268287e+17
19660.0	5.856497946853375e+17
19661.0	5.855452946497535e+17
19662.0	5.854404696255146e+17
19663.0	5.85329259192866e+17
19664.0	5.852203560468477e+17
19665.0	5.851268989845503e+17
