# Flux units: erg / (cm m2 s)
# Wavelength units: Angstrom
wave	flux
19000.0	6.056800140219731e+17
19001.0	6.055560361978538e+17
19002.0	6.054566235734015e+17
19003.0	6.053441882641748e+17
19004.0	6.05232291713297e+17
19005.0	6.051201955135487e+17
19006.0	6.05009282736674e+17
19007.0	6.048967984939007e+17
19008.0	6.047793425328809e+17
19009.0	6.046597875324243e+17
19010.0	6.045091637843284e+17
19011.0	6.044454177035604e+17
19012.0	6.042952832210259e+17
19013.0	6.042271454942547e+17
19014.0	6.041098423457108e+17
19015.0	6.039996745471316e+17
19016.0	6.038874578310482e+17
19017.0	6.03781302653201e+17
19018.0	6.036679825555455e+17
19019.0	6.035576200014506e+17
19020.0	6.034452629159935e+17
19021.0	6.033358747686228e+17
19022.0	6.032238687464106e+17
19023.0	6.031079272087551e+17
19024.0	6.029969408218452e+17
19025.0	6.028864871814484e+17
19026.0	6.027705716484778e+17
19027.0	6.026336518799359e+17
19028.0	6.025547952597674e+17
19029.0	6.024418444705791e+17
19030.0	6.023336663799124e+17
19031.0	6.022226571340458e+17
19032.0	6.02110029865506e+17
19033.0	6.019872332972031e+17
19034.0	6.018801205597524e+17
19035.0	6.017256745424211e+17
19036.0	5.993666585122124e+17
19037.0	6.015175148000598e+17
19038.0	6.014350619137364e+17
19039.0	6.01330602353186e+17
19040.0	6.012212681026218e+17
19041.0	6.011101461697875e+17
19042.0	6.009460258504701e+17
19043.0	6.00889647833634e+17
19044.0	6.00777282429474e+17
19045.0	6.006657231705427e+17
19046.0	6.005498644703913e+17
19047.0	6.00441622626304e+17
19048.0	6.003036372948307e+17
19049.0	6.001241096191997e+17
19050.0	6.000998894709417e+17
19051.0	5.996576679220561e+17
19052.0	5.997988042943146e+17
19053.0	5.997761983239508e+17
19054.0	5.996684924420096e+17
19055.0	5.995164097052672e+17
19056.0	5.994404184937812e+17
19057.0	5.993366167399081e+17
19058.0	5.991794198882984e+17
19059.0	5.990980984853844e+17
19060.0	5.990031279783935e+17
19061.0	5.988948315384489e+17
19062.0	5.987836271176361e+17
19063.0	5.98672996897041e+17
19064.0	5.985493495141716e+17
19065.0	5.984318386776746e+17
19066.0	5.983184667803647e+17
19067.0	5.98229636944145e+17
19068.0	5.981205751136255e+17
19069.0	5.980101669115222e+17
19070.0	5.978962584928255e+17
19071.0	5.977871673720831e+17
19072.0	5.976614913441791e+17
19073.0	5.975678079292756e+17
19074.0	5.974578822119423e+17
19075.0	5.973474317871786e+17
19076.0	5.972350039577939e+17
19077.0	5.971245466823337e+17
19078.0	5.970113977122815e+17
19079.0	5.969056217694207e+17
19080.0	5.967940307735892e+17
19081.0	5.966797742975657e+17
19082.0	5.965706092871679e+17
19083.0	5.964527455698943e+17
19084.0	5.963285513895935e+17
19085.0	5.962410029132457e+17
19086.0	5.960612930650111e+17
19087.0	5.959391852713299e+17
19088.0	5.958655359494825e+17
19089.0	5.957564702741844e+17
19090.0	5.956833667710975e+17
19091.0	5.955741441589247e+17
19092.0	5.95420320436497e+17
19093.0	5.95361525801506e+17
19094.0	5.952529417721172e+17
19095.0	5.951432427569151e+17
19096.0	5.950316953119402e+17
19097.0	5.949230639568212e+17
19098.0	5.947942895965526e+17
19099.0	5.946800883455316e+17
19100.0	5.945885243823444e+17
19101.0	5.944816568019625e+17
19102.0	5.943607861182463e+17
19103.0	5.942635528541524e+17
19104.0	5.941539714891775e+17
19105.0	5.940011319601834e+17
19106.0	5.939245155876863e+17
19107.0	5.938091586661033e+17
19108.0	5.936919656879444e+17
19109.0	5.934739805787475e+17
19110.0	5.934712980417193e+17
19111.0	5.933702936788991e+17
19112.0	5.932608674332672e+17
19113.0	5.931659560659625e+17
19114.0	5.930480271971668e+17
19115.0	5.929354667578708e+17
19116.0	5.928347319489876e+17
19117.0	5.927239561860435e+17
19118.0	5.925958061479252e+17
19119.0	5.91728117756722e+17
19120.0	5.923746205051561e+17
19121.0	5.922741440653993e+17
19122.0	5.92180505879074e+17
19123.0	5.92071508570931e+17
19124.0	5.919492730606934e+17
19125.0	5.91851445953058e+17
19126.0	5.917378174342484e+17
19127.0	5.914375007939241e+17
19128.0	5.915084252162729e+17
19129.0	5.914051062966954e+17
19130.0	5.913045741426003e+17
19131.0	5.911969287285417e+17
19132.0	5.910875120599039e+17
19133.0	5.909714697191424e+17
19134.0	5.908642306632362e+17
19135.0	5.907595023177044e+17
19136.0	5.906508744578388e+17
19137.0	5.905250776339795e+17
19138.0	5.904308012143956e+17
19139.0	5.903239365001215e+17
19140.0	5.902151937163263e+17
19141.0	5.901061860622335e+17
19142.0	5.89993493991697e+17
19143.0	5.898818480504831e+17
19144.0	5.897742041044308e+17
19145.0	5.896700472328191e+17
19146.0	5.894886403691862e+17
19147.0	5.894424421378729e+17
19148.0	5.893274284501674e+17
19149.0	5.892154976458068e+17
19150.0	5.891246925021183e+17
19151.0	5.890156909297663e+17
19152.0	5.889046733651967e+17
19153.0	5.887648472236031e+17
19154.0	5.886730035003391e+17
19155.0	5.885785496616959e+17
19156.0	5.884689743085567e+17
19157.0	5.883372867944448e+17
19158.0	5.881549562751657e+17
19159.0	5.88133488009762e+17
19160.0	5.880297968457044e+17
19161.0	5.879161637830655e+17
19162.0	5.87614336913681e+17
19163.0	5.876743585923071e+17
19164.0	5.875971466985472e+17
19165.0	5.874530597732351e+17
19166.0	5.873645598190249e+17
19167.0	5.872556671587668e+17
19168.0	5.871636295188479e+17
19169.0	5.870552154985812e+17
19170.0	5.869493361661267e+17
19171.0	5.868315586418004e+17
19172.0	5.86730038239778e+17
19173.0	5.866247988882089e+17
19174.0	5.865111401005055e+17
19175.0	5.864089584664575e+17
19176.0	5.863004085507412e+17
19177.0	5.861740049509033e+17
19178.0	5.860747231887359e+17
19179.0	5.859597860470783e+17
19180.0	5.858646619586559e+17
19181.0	5.857438430046889e+17
19182.0	5.856481177326932e+17
19183.0	5.855430177718272e+17
19184.0	5.854344772233897e+17
19185.0	5.853253291999231e+17
19186.0	5.852180956665172e+17
19187.0	5.851018898178048e+17
19188.0	5.850010353314474e+17
19189.0	5.848929001624916e+17
19190.0	5.847817130781354e+17
19191.0	5.846670128447487e+17
19192.0	5.845638819698004e+17
19193.0	5.844495303529812e+17
19194.0	5.843360677188947e+17
19195.0	5.84233070502434e+17
19196.0	5.84116252844578e+17
19197.0	5.839922613889705e+17
19198.0	5.838127029551101e+17
19199.0	5.824191948739922e+17
19200.0	5.825822243946497e+17
19201.0	5.834999467780778e+17
19202.0	5.834554777883988e+17
19203.0	5.833586369713492e+17
19204.0	5.832585248068948e+17
19205.0	5.831560401343828e+17
19206.0	5.830502472744959e+17
19207.0	5.829306641722025e+17
19208.0	5.82811896652322e+17
19209.0	5.827290687952212e+17
19210.0	5.826215994021203e+17
19211.0	5.825155727097855e+17
19212.0	5.824066850127871e+17
19213.0	5.822790714261503e+17
19214.0	5.821659342001492e+17
19215.0	5.820776977181354e+17
19216.0	5.819765056602112e+17
19217.0	5.81866345271569e+17
19218.0	5.816748878768808e+17
19219.0	5.816336532548265e+17
19220.0	5.815425407385599e+17
19221.0	5.814064295619242e+17
19222.0	5.813282876511571e+17
19223.0	5.812218877356714e+17
19224.0	5.811111901265919e+17
19225.0	5.80994195399202e+17
19226.0	5.8089928668829e+17
19227.0	5.807920028232361e+17
19228.0	5.806875203338239e+17
19229.0	5.805798591212201e+17
19230.0	5.804715179420329e+17
19231.0	5.803633753631401e+17
19232.0	5.802562342442326e+17
19233.0	5.801415302359721e+17
19234.0	5.800401431429119e+17
19235.0	5.799309784121343e+17
19236.0	5.798273688971945e+17
19237.0	5.797182616982868e+17
19238.0	5.796002732004692e+17
19239.0	5.79505206993442e+17
19240.0	5.79397514043938e+17
19241.0	5.792880023743146e+17
19242.0	5.791813324155562e+17
19243.0	5.790569794808489e+17
19244.0	5.789685527172436e+17
19245.0	5.788604231406932e+17
19246.0	5.787520037377363e+17
19247.0	5.786452076702378e+17
19248.0	5.785385120563199e+17
19249.0	5.784292029715795e+17
19250.0	5.783149378273279e+17
19251.0	5.781987529501353e+17
19252.0	5.78075338351138e+17
19253.0	5.779992326351532e+17
19254.0	5.778948661881513e+17
19255.0	5.777649329416873e+17
19256.0	5.776778783446356e+17
19257.0	5.775728928183636e+17
19258.0	5.774653902902612e+17
19259.0	5.773486328206676e+17
19260.0	5.771950093762559e+17
19261.0	5.771389670435497e+17
19262.0	5.770259571845801e+17
19263.0	5.769158604095487e+17
19264.0	5.767571816404307e+17
19265.0	5.766873636754772e+17
19266.0	5.765736605679615e+17
19267.0	5.764969688378026e+17
19268.0	5.763889211899903e+17
19269.0	5.762818315911167e+17
19270.0	5.7617296339763174e+17
19271.0	5.760294140422827e+17
19272.0	5.759555537469439e+17
19273.0	5.758139432785236e+17
19274.0	5.7569281904913043e+17
19275.0	5.756369160372222e+17
19276.0	5.755235833566549e+17
19277.0	5.7541679169317536e+17
19278.0	5.753085137780735e+17
19279.0	5.75198980088354e+17
19280.0	5.750855981247145e+17
19281.0	5.7498523688850765e+17
19282.0	5.7487812701716474e+17
19283.0	5.747575432238419e+17
19284.0	5.7465492978619725e+17
19285.0	5.745387647620437e+17
19286.0	5.744410244765013e+17
19287.0	5.743298140438526e+17
19288.0	5.7356506100312685e+17
19289.0	5.7259388200550144e+17
19290.0	5.740043817713663e+17
19291.0	5.738786205990912e+17
19292.0	5.7380271593007776e+17
19293.0	5.736953753021098e+17
19294.0	5.735869384927913e+17
19295.0	5.734811824029696e+17
19296.0	5.733520752945834e+17
19297.0	5.732584763250005e+17
19298.0	5.73154008305937e+17
19299.0	5.730261236973568e+17
19300.0	5.729404056851796e+17
19301.0	5.728329263655594e+17
19302.0	5.727236300734463e+17
19303.0	5.726073175496021e+17
19304.0	5.725051963834368e+17
19305.0	5.7239770762663245e+17
19306.0	5.722881668065962e+17
19307.0	5.721684345268906e+17
19308.0	5.720599441702911e+17
19309.0	5.719076042528083e+17
19310.0	5.7178042953018016e+17
19311.0	5.717243249819647e+17
19312.0	5.716260739700052e+17
19313.0	5.7150911125913594e+17
19314.0	5.67798488873913e+17
19315.0	5.680263433202405e+17
19316.0	5.711469459712682e+17
19317.0	5.710816974908073e+17
19318.0	5.7097577076271776e+17
19319.0	5.708699681161215e+17
19320.0	5.7075230257971194e+17
19321.0	5.706323022839807e+17
19322.0	5.7052856889726285e+17
19323.0	5.7041351033050445e+17
19324.0	5.703107712734549e+17
19325.0	5.701689701739177e+17
19326.0	5.7009169914047136e+17
19327.0	5.699856558107305e+17
19328.0	5.6984089667829754e+17
19329.0	5.6976835479251616e+17
19330.0	5.696540512703828e+17
19331.0	5.6954143392836256e+17
19332.0	5.694358590324735e+17
19333.0	5.6932291998733645e+17
19334.0	5.6921326137726285e+17
19335.0	5.690276527297877e+17
19336.0	5.68989273170466e+17
19337.0	5.688788379850068e+17
19338.0	5.6873913725310285e+17
19339.0	5.6864985583015245e+17
19340.0	5.6851985351748256e+17
19341.0	5.6839097534818976e+17
19342.0	5.682612407020202e+17
19343.0	5.6819749664849914e+17
19344.0	5.680548147451222e+17
19345.0	5.677338684205735e+17
19346.0	5.677463803789311e+17
19347.0	5.6769955733613216e+17
19348.0	5.676278293550421e+17
19349.0	5.675082000454996e+17
19350.0	5.6738078226295456e+17
19351.0	5.672776184627199e+17
19352.0	5.671206748771668e+17
19353.0	5.6705075436148045e+17
19354.0	5.669345629132116e+17
19355.0	5.6680608557957114e+17
19356.0	5.6669976200041805e+17
19357.0	5.6658206934084256e+17
19358.0	5.66462474424593e+17
19359.0	5.663316793884671e+17
19360.0	5.6618426547131725e+17
19361.0	5.6609365690067616e+17
19362.0	5.659775889047551e+17
19363.0	5.6585653178422605e+17
19364.0	5.657347006048938e+17
19365.0	5.6561230067793914e+17
19366.0	5.6548922504861e+17
19367.0	5.6536547854035616e+17
19368.0	5.6524100131444045e+17
19369.0	5.651098924744703e+17
19370.0	5.6498435269154125e+17
19371.0	5.6485280233117e+17
19372.0	5.647229313701205e+17
19373.0	5.6459159904365216e+17
19374.0	5.6446359307987616e+17
19375.0	5.643330155883177e+17
19376.0	5.642013435931305e+17
19377.0	5.6406685155764896e+17
19378.0	5.6393269338876576e+17
19379.0	5.637836887119188e+17
19380.0	5.636427003985919e+17
19381.0	5.635032899824298e+17
19382.0	5.633542859347284e+17
19383.0	5.632102001978026e+17
19384.0	5.630626180890623e+17
19385.0	5.629073124491264e+17
19386.0	5.627602026889215e+17
19387.0	5.6260452144906234e+17
19388.0	5.624347309899774e+17
19389.0	5.622613397209087e+17
19390.0	5.620883435552766e+17
19391.0	5.598717237963407e+17
19392.0	5.616433748071763e+17
19393.0	5.6157444484628474e+17
19394.0	5.6141022295490554e+17
19395.0	5.6117512781168634e+17
19396.0	5.610114331443199e+17
19397.0	5.60823903925043e+17
19398.0	5.6060779821356365e+17
19399.0	5.6033553769212576e+17
19400.0	5.60219120939827e+17
19401.0	5.6004645255905274e+17
19402.0	5.598499150233598e+17
19403.0	5.596441840626345e+17
19404.0	5.5943003052004685e+17
19405.0	5.5919612264448e+17
19406.0	5.589754982694911e+17
19407.0	5.587352256774143e+17
19408.0	5.584240389390337e+17
19409.0	5.582285803880447e+17
19410.0	5.5798445497821856e+17
19411.0	5.5771599526516045e+17
19412.0	5.574014560195926e+17
19413.0	5.570927100166143e+17
19414.0	5.5678219108133536e+17
19415.0	5.5642165786705914e+17
19416.0	5.5604073152730445e+17
19417.0	5.5563540146858656e+17
19418.0	5.552253411437225e+17
19419.0	5.5478313259717946e+17
19420.0	5.5421803639603194e+17
19421.0	5.536518509341353e+17
19422.0	5.530330010222591e+17
19423.0	5.5242690200425786e+17
19424.0	5.518511671607296e+17
19425.0	5.5132638395323725e+17
19426.0	5.5079140313442976e+17
19427.0	5.5010465568959136e+17
19428.0	5.494750696876713e+17
19429.0	5.486245042629289e+17
19430.0	5.477017696163158e+17
19431.0	5.464264050824533e+17
19432.0	5.456529485813077e+17
19433.0	5.4434301990666214e+17
19434.0	5.427430589551956e+17
19435.0	5.408396071840422e+17
19436.0	5.385807244296186e+17
19437.0	5.3625076171407386e+17
19438.0	5.30615865704448e+17
19439.0	5.321593184758441e+17
19440.0	5.30113540198673e+17
19441.0	5.27332090437086e+17
19442.0	5.237368430788602e+17
19443.0	5.190076712965444e+17
19444.0	5.133535411874475e+17
19445.0	5.080735418766679e+17
19446.0	5.027044017220265e+17
19447.0	4.9550714229227475e+17
19448.0	4.852935942995972e+17
19449.0	4.6917575881960096e+17
19450.0	4.363311373440357e+17
19451.0	4.141202535699845e+17
19452.0	4.562441964879873e+17
19453.0	4.7820030027148006e+17
19454.0	4.905265995098786e+17
19455.0	4.988063786030419e+17
19456.0	5.047296672661506e+17
19457.0	5.0954084538122234e+17
19458.0	5.058817552635375e+17
19459.0	5.1986611376401254e+17
19460.0	5.2403449374965786e+17
19461.0	5.2696605821064506e+17
19462.0	5.293099442678442e+17
19463.0	5.31121827741696e+17
19464.0	5.32751396215193e+17
19465.0	5.3482912963625e+17
19466.0	5.370636523623763e+17
19467.0	5.388318917263361e+17
19468.0	5.4031396673071763e+17
19469.0	5.414755058231976e+17
19470.0	5.425136300370599e+17
19471.0	5.43353196318993e+17
19472.0	5.441254951223294e+17
19473.0	5.447286269498709e+17
19474.0	5.45225971929361e+17
19475.0	5.456141474245289e+17
19476.0	5.461017946838356e+17
19477.0	5.464235723194368e+17
19478.0	5.4676490079436794e+17
19479.0	5.471329848743253e+17
19480.0	5.476014625565356e+17
19481.0	5.479774229102589e+17
19482.0	5.4830286364125843e+17
19483.0	5.485909234767187e+17
19484.0	5.488672210856617e+17
19485.0	5.490321009934335e+17
19486.0	5.492132531230038e+17
19487.0	5.493666846780073e+17
19488.0	5.4952618965510816e+17
19489.0	5.495876534053547e+17
19490.0	5.495593840061096e+17
19491.0	5.4979350257554765e+17
19492.0	5.4985527257989114e+17
19493.0	5.499103319774549e+17
19494.0	5.4996468736109216e+17
19495.0	5.4998852582768634e+17
19496.0	5.499560789715625e+17
19497.0	5.5000388571845965e+17
19498.0	5.4970433824358406e+17
19499.0	5.467228880590145e+17
19500.0	5.5001794880034125e+17
19501.0	5.500342187152724e+17
19502.0	5.5002445199878816e+17
19503.0	5.500102022703785e+17
19504.0	5.499996548541098e+17
19505.0	5.5000513394333005e+17
19506.0	5.4997842573393914e+17
19507.0	5.499597479389866e+17
19508.0	5.499590533622441e+17
19509.0	5.4991326141917856e+17
19510.0	5.498258965834409e+17
19511.0	5.437039246486132e+17
19512.0	5.492394627694582e+17
19513.0	5.4879861471532224e+17
19514.0	5.490322895973025e+17
19515.0	5.496262530957313e+17
19516.0	5.4964299626796365e+17
19517.0	5.49587667596083e+17
19518.0	5.4954480733170336e+17
19519.0	5.4948935513757005e+17
19520.0	5.494058448672084e+17
19521.0	5.4937296886388045e+17
19522.0	5.492984474064211e+17
19523.0	5.492354157554345e+17
19524.0	5.491653431962283e+17
19525.0	5.491145235409577e+17
19526.0	5.4904500658722125e+17
19527.0	5.489716064769365e+17
19528.0	5.488951243920724e+17
19529.0	5.488187175949652e+17
19530.0	5.487483261288447e+17
19531.0	5.4867575089834656e+17
19532.0	5.4860495293426336e+17
19533.0	5.48526659609122e+17
19534.0	5.484472636014592e+17
19535.0	5.4836518736363514e+17
19536.0	5.482822122165588e+17
19537.0	5.4820466491828896e+17
19538.0	5.480815638435158e+17
19539.0	5.479796135253335e+17
19540.0	5.479541014615382e+17
19541.0	5.478672484007935e+17
19542.0	5.4778623409083725e+17
19543.0	5.476763271080618e+17
19544.0	5.4762158780579834e+17
19545.0	5.4747994958506643e+17
19546.0	5.4735283246421325e+17
19547.0	5.473668438862505e+17
19548.0	5.4728123884066125e+17
19549.0	5.471823193964543e+17
19550.0	5.4710636334721696e+17
19551.0	5.4701857216047776e+17
19552.0	5.4692999621946016e+17
19553.0	5.468385606718804e+17
19554.0	5.467478066987007e+17
19555.0	5.4665777938868896e+17
19556.0	5.4657110157994656e+17
19557.0	5.4648248830962336e+17
19558.0	5.46392556769553e+17
19559.0	5.463025114939391e+17
19560.0	5.4619876188924576e+17
19561.0	5.4611777770837325e+17
19562.0	5.460191164934825e+17
19563.0	5.459441365286911e+17
19564.0	5.4585268175721805e+17
19565.0	5.457608670445567e+17
19566.0	5.4566552778833914e+17
19567.0	5.4557650515394554e+17
19568.0	5.4548153660429645e+17
19569.0	5.453908319840939e+17
19570.0	5.4530241158184954e+17
19571.0	5.4520933424387405e+17
19572.0	5.4511266518357325e+17
19573.0	5.450185330480468e+17
19574.0	5.4491826618368e+17
19575.0	5.4483730828711245e+17
19576.0	5.447412920003242e+17
19577.0	5.44642082869521e+17
19578.0	5.4455186073408845e+17
19579.0	5.444590618279936e+17
19580.0	5.4436534926267725e+17
19581.0	5.4427279194849274e+17
19582.0	5.441841535822505e+17
19583.0	5.440898814268756e+17
19584.0	5.4399440592568314e+17
19585.0	5.438873283504809e+17
19586.0	5.437880851759104e+17
19587.0	5.437032726440617e+17
19588.0	5.435647648421205e+17
19589.0	5.435182019859796e+17
19590.0	5.434132591017983e+17
19591.0	5.4333151218674336e+17
19592.0	5.432374324800171e+17
19593.0	5.431375884713983e+17
19594.0	5.430153355547987e+17
19595.0	5.4294957536925005e+17
19596.0	5.428337424640681e+17
19597.0	5.427599551496192e+17
19598.0	5.4261372661268474e+17
19599.0	5.4256995219974816e+17
19600.0	5.424759447049556e+17
19601.0	5.4237259209113594e+17
19602.0	5.42275878850833e+17
19603.0	5.4212811338110285e+17
19604.0	5.420879575340372e+17
19605.0	5.419692304192852e+17
19606.0	5.41907076915746e+17
19607.0	5.4181267977011194e+17
19608.0	5.4171508992027296e+17
19609.0	5.4161538152748365e+17
19610.0	5.415120085013845e+17
19611.0	5.4140927112205645e+17
19612.0	5.413340037076308e+17
19613.0	5.4123687313408e+17
19614.0	5.411374786150399e+17
19615.0	5.4104506446643194e+17
19616.0	5.409185483194367e+17
19617.0	5.4083215663213216e+17
19618.0	5.406872806184276e+17
19619.0	5.4057105442734054e+17
19620.0	5.404823753064447e+17
19621.0	5.404404643528702e+17
19622.0	5.403734492315648e+17
19623.0	5.402758375713451e+17
19624.0	5.401754077582677e+17
19625.0	5.400844149194751e+17
19626.0	5.399865767668393e+17
19627.0	5.398863998702931e+17
19628.0	5.397553765941248e+17
19629.0	5.395984551684777e+17
19630.0	5.3932975889667405e+17
19631.0	5.380900759360854e+17
19632.0	5.393628734859947e+17
19633.0	5.392963129573375e+17
19634.0	5.392151612839253e+17
19635.0	5.3911429491370656e+17
19636.0	5.389958286147581e+17
19637.0	5.3886249329841485e+17
19638.0	5.3883231856667296e+17
19639.0	5.3873865402613754e+17
19640.0	5.386305763890517e+17
19641.0	5.384187530619566e+17
19642.0	5.384480288145407e+17
19643.0	5.383514471355732e+17
19644.0	5.382509113464149e+17
19645.0	5.381330188981588e+17
19646.0	5.380344424781141e+17
19647.0	5.3797096748919456e+17
19648.0	5.3787509632532474e+17
19649.0	5.3777869528104954e+17
19650.0	5.3768340593704954e+17
19651.0	5.3758833993973754e+17
19652.0	5.37493894279987e+17
19653.0	5.373976354925226e+17
19654.0	5.3730162123298125e+17
19655.0	5.372050912138581e+17
19656.0	5.371095788726953e+17
19657.0	5.3701342018928634e+17
19658.0	5.369175860051966e+17
19659.0	5.3682183843348474e+17
19660.0	5.3672590211809274e+17
