# Flux units: erg / (cm m2 s)
# Wavelength units: Angstrom
wave	flux
19000.0	8.368303332392957e+17
19001.0	8.366873930366972e+17
19002.0	8.365441739128831e+17
19003.0	8.364006817398781e+17
19004.0	8.362569289607849e+17
19005.0	8.361867354658131e+17
19006.0	8.362370380333055e+17
19007.0	8.360925004999337e+17
19008.0	8.359474764272979e+17
19009.0	8.358022921322493e+17
19010.0	8.356556457028266e+17
19011.0	8.355117311634089e+17
19012.0	8.35365861658897e+17
19013.0	8.35220161045026e+17
19014.0	8.350739564156243e+17
19015.0	8.349895057823059e+17
19016.0	8.348506069314217e+17
19017.0	8.347037769312936e+17
19018.0	8.345566805928616e+17
19019.0	8.344093120441002e+17
19020.0	8.342616939342505e+17
19021.0	8.341138988247721e+17
19022.0	8.3396592154269e+17
19023.0	8.338177236402173e+17
19024.0	8.336692904372905e+17
19025.0	8.335207335023955e+17
19026.0	8.333718316559017e+17
19027.0	8.332226987032573e+17
19028.0	8.330738396386642e+17
19029.0	8.329245045205672e+17
19030.0	8.327749835948031e+17
19031.0	8.326252893044736e+17
19032.0	8.324754142396415e+17
19033.0	8.32325360497459e+17
19034.0	8.321751154950143e+17
19035.0	8.320245293558442e+17
19036.0	8.3185562039965e+17
19037.0	8.317233168121853e+17
19038.0	8.315725714292735e+17
19039.0	8.314215316062204e+17
19040.0	8.312703349161981e+17
19041.0	8.311189736696489e+17
19042.0	8.309674517812562e+17
19043.0	8.308157839310845e+17
19044.0	8.306639474698921e+17
19045.0	8.305119767909715e+17
19046.0	8.30359651693363e+17
19047.0	8.302074805267113e+17
19048.0	8.30054391226914e+17
19049.0	8.299025933533183e+17
19050.0	8.297498714745514e+17
19051.0	8.295941577987412e+17
19052.0	8.294433862713343e+17
19053.0	8.292909508635304e+17
19054.0	8.291377193768275e+17
19055.0	8.289843367553704e+17
19056.0	8.288308157218815e+17
19057.0	8.286771650843987e+17
19058.0	8.285233785514664e+17
19059.0	8.28369452348211e+17
19060.0	8.282153323681106e+17
19061.0	8.280612551699114e+17
19062.0	8.279069425314473e+17
19063.0	8.277525183244969e+17
19064.0	8.275976019858772e+17
19065.0	8.274430276228436e+17
19066.0	8.272885295961428e+17
19067.0	8.271336217859411e+17
19068.0	8.269785860494676e+17
19069.0	8.268234404222291e+17
19070.0	8.26668133733717e+17
19071.0	8.265127790903293e+17
19072.0	8.26357279743454e+17
19073.0	8.262016415651156e+17
19074.0	8.260686232682496e+17
19075.0	8.259521326262953e+17
19076.0	8.257958913070419e+17
19077.0	8.256396441157631e+17
19078.0	8.254832094390954e+17
19079.0	8.253268322243924e+17
19080.0	8.251702180315135e+17
19081.0	8.250134943673002e+17
19082.0	8.248565024074409e+17
19083.0	8.246996476013226e+17
19084.0	8.245415437314728e+17
19085.0	8.243855153430525e+17
19086.0	8.242266904723455e+17
19087.0	8.240705004634111e+17
19088.0	8.23913267331072e+17
19089.0	8.237556052612436e+17
19090.0	8.235980723759785e+17
19091.0	8.234402862945619e+17
19092.0	8.232823370547199e+17
19093.0	8.23124382781713e+17
19094.0	8.229654007644157e+17
19095.0	8.228070288785407e+17
19096.0	8.226496824999935e+17
19097.0	8.224913535358291e+17
19098.0	8.22332849669188e+17
19099.0	8.221742178762752e+17
19100.0	8.22015479967471e+17
19101.0	8.218566299309394e+17
19102.0	8.216973944378708e+17
19103.0	8.215387304886272e+17
19104.0	8.213796220829693e+17
19105.0	8.21220389106483e+17
19106.0	8.210610051350527e+17
19107.0	8.209015909646336e+17
19108.0	8.20742068581171e+17
19109.0	8.205809442532008e+17
19110.0	8.204225290261842e+17
19111.0	8.202629305860093e+17
19112.0	8.201030139379711e+17
19113.0	8.199429790105599e+17
19114.0	8.197828245454847e+17
19115.0	8.19622455611665e+17
19116.0	8.194622023008255e+17
19117.0	8.193016998483283e+17
19118.0	8.191409721617064e+17
19119.0	8.189709689115986e+17
19120.0	8.188195049046015e+17
19121.0	8.186586638319615e+17
19122.0	8.184978022072319e+17
19123.0	8.183366901825535e+17
19124.0	8.181754577813503e+17
19125.0	8.180141175865343e+17
19126.0	8.178525634822143e+17
19127.0	8.176844239011839e+17
19128.0	8.175293125274281e+17
19129.0	8.173676572005715e+17
19130.0	8.172058062793385e+17
19131.0	8.170438072991743e+17
19132.0	8.168816699069779e+17
19133.0	8.167190984043177e+17
19134.0	8.165571279454208e+17
19135.0	8.163946931770706e+17
19136.0	8.162321099303594e+17
19137.0	8.160688196638036e+17
19138.0	8.159065620348928e+17
19139.0	8.157437015446868e+17
19140.0	8.155806662918143e+17
19141.0	8.154174976600748e+17
19142.0	8.15254196208708e+17
19143.0	8.150905934665043e+17
19144.0	8.149272029560831e+17
19145.0	8.147635813395113e+17
19146.0	8.145972729916073e+17
19147.0	8.144355389516458e+17
19148.0	8.14271800873233e+17
19149.0	8.141076267270143e+17
19150.0	8.13943322976802e+17
19151.0	8.137789009472169e+17
19152.0	8.136143177165481e+17
19153.0	8.134495952349866e+17
19154.0	8.132509490828627e+17
19155.0	8.130537604513791e+17
19156.0	8.128885726816936e+17
19157.0	8.1272311395997e+17
19158.0	8.125569732444157e+17
19159.0	8.12392041746705e+17
19160.0	8.120591078217047e+17
19161.0	8.118051508234921e+17
19162.0	8.116368876503037e+17
19163.0	8.114729072809302e+17
19164.0	8.113070411524777e+17
19165.0	8.111406557691903e+17
19166.0	8.109737423230292e+17
19167.0	8.108072547385343e+17
19168.0	8.106405167540905e+17
19169.0	8.104735346611538e+17
19170.0	8.103064454736553e+17
19171.0	8.101390333247485e+17
19172.0	8.099715954507775e+17
19173.0	8.098039583473663e+17
19174.0	8.096360293203967e+17
19175.0	8.094683515322367e+17
19176.0	8.093002933207039e+17
19177.0	8.091320274911231e+17
19178.0	8.089635530648233e+17
19179.0	8.087948903142739e+17
19180.0	8.086261919121404e+17
19181.0	8.084568773667497e+17
19182.0	8.082880089554944e+17
19183.0	8.081187366327634e+17
19184.0	8.079490999648255e+17
19185.0	8.077794075126442e+17
19186.0	8.076094751462739e+17
19187.0	8.07439302725905e+17
19188.0	8.072689361092608e+17
19189.0	8.070983820072276e+17
19190.0	8.069275871521446e+17
19191.0	8.067565618899624e+17
19192.0	8.064109730507433e+17
19193.0	8.060998089616041e+17
19194.0	8.059282988378794e+17
19195.0	8.057565274090152e+17
19196.0	8.055844332983638e+17
19197.0	8.054119977713661e+17
19198.0	8.052385757440681e+17
19199.0	8.050519823439186e+17
19200.0	8.04881907650833e+17
19201.0	8.047197253795839e+17
19202.0	8.045470518957395e+17
19203.0	8.043735342383103e+17
19204.0	8.04199552271428e+17
19205.0	8.04025450627072e+17
19206.0	8.038509425546582e+17
19207.0	8.036761295563433e+17
19208.0	8.035004936355839e+17
19209.0	8.03325944738611e+17
19210.0	8.031503854338045e+17
19211.0	8.029745337860093e+17
19212.0	8.026945925152767e+17
19213.0	8.02431475856179e+17
19214.0	8.022545605328893e+17
19215.0	8.020780313651884e+17
19216.0	8.019008910873939e+17
19217.0	8.017233647938217e+17
19218.0	8.015425222038868e+17
19219.0	8.01367458526003e+17
19220.0	8.011891362933416e+17
19221.0	8.010092284739581e+17
19222.0	8.008313062380883e+17
19223.0	8.006520883817128e+17
19224.0	8.0047240146234e+17
19225.0	8.002919159474857e+17
19226.0	8.000177958114644e+17
19227.0	7.998258307661821e+17
19228.0	7.996445486131881e+17
19229.0	7.994628977808724e+17
19230.0	7.992809172762624e+17
19231.0	7.990988335917738e+17
19232.0	7.989163659886591e+17
19233.0	7.987335236943871e+17
19234.0	7.985503466946557e+17
19235.0	7.98366868963328e+17
19236.0	7.981828837212157e+17
19237.0	7.979984417193981e+17
19238.0	7.978135924506621e+17
19239.0	7.976285312297641e+17
19240.0	7.974427343279444e+17
19241.0	7.972567724501672e+17
19242.0	7.970703589856596e+17
19243.0	7.968834417852416e+17
19244.0	7.966960513275219e+17
19245.0	7.965081976788308e+17
19246.0	7.963198352610644e+17
19247.0	7.961310970336595e+17
19248.0	7.959416917721088e+17
19249.0	7.957516007418538e+17
19250.0	7.955608415589718e+17
19251.0	7.953690814753449e+17
19252.0	7.951764384907261e+17
19253.0	7.949853397090303e+17
19254.0	7.947924218576897e+17
19255.0	7.945981047865343e+17
19256.0	7.944047503081472e+17
19257.0	7.940826423012008e+17
19258.0	7.938578647962964e+17
19259.0	7.936613880780115e+17
19260.0	7.934639867953152e+17
19261.0	7.932665288895145e+17
19262.0	7.930681306207572e+17
19263.0	7.92868890555187e+17
19264.0	7.926674233141928e+17
19265.0	7.924681576633683e+17
19266.0	7.922672116345513e+17
19267.0	7.920659061538816e+17
19268.0	7.918633580407466e+17
19269.0	7.91660232651571e+17
19270.0	7.914563648705876e+17
19271.0	7.91250601264196e+17
19272.0	7.910462606453417e+17
19273.0	7.908346236152489e+17
19274.0	7.90629272448751e+17
19275.0	7.904241139406163e+17
19276.0	7.899976945718611e+17
19277.0	7.897856613198505e+17
19278.0	7.895731822133247e+17
19279.0	7.893598688597332e+17
19280.0	7.891454796671657e+17
19281.0	7.889307560487594e+17
19282.0	7.88714923036945e+17
19283.0	7.884980994703357e+17
19284.0	7.882805219076778e+17
19285.0	7.880616738903382e+17
19286.0	7.878427703683753e+17
19287.0	7.876224898564096e+17
19288.0	7.872868265579859e+17
19289.0	7.868744035816787e+17
19290.0	7.866607816671232e+17
19291.0	7.864336482216617e+17
19292.0	7.862076580036607e+17
19293.0	7.859795149892264e+17
19294.0	7.857503645029715e+17
19295.0	7.855201412535636e+17
19296.0	7.852888353144832e+17
19297.0	7.850564598278825e+17
19298.0	7.84768663045188e+17
19299.0	7.842123273469951e+17
19300.0	7.839740637566291e+17
19301.0	7.837346319127892e+17
19302.0	7.834940554433876e+17
19303.0	7.832521422493011e+17
19304.0	7.830091378371241e+17
19305.0	7.827650487779328e+17
19306.0	7.825198247400787e+17
19307.0	7.820802922992975e+17
19308.0	7.815582630718121e+17
19309.0	7.813061364678653e+17
19310.0	7.810529714940585e+17
19311.0	7.807975481671679e+17
19312.0	7.80537505653282e+17
19313.0	7.802746747660969e+17
19314.0	7.798804455620605e+17
19315.0	7.791680234542418e+17
19316.0	7.789024404045824e+17
19317.0	7.786274433794047e+17
19318.0	7.783503928229888e+17
19319.0	7.780713157186902e+17
19320.0	7.774631771504635e+17
19321.0	7.768282168470185e+17
19322.0	7.765363781533696e+17
19323.0	7.76242773098496e+17
19324.0	7.759468351717373e+17
19325.0	7.754606199876264e+17
19326.0	7.749500523948714e+17
19327.0	7.746431484603049e+17
19328.0	7.743338344786604e+17
19329.0	7.740219670047402e+17
19330.0	7.737074147568296e+17
19331.0	7.733904924475391e+17
19332.0	7.730708922149545e+17
19333.0	7.727485682013523e+17
19334.0	7.724234960797696e+17
19335.0	7.720956734734336e+17
19336.0	7.717607515881471e+17
19337.0	7.714235232550913e+17
19338.0	7.710877464308393e+17
19339.0	7.707505871639892e+17
19340.0	7.70409411571439e+17
19341.0	7.700643438045864e+17
19342.0	7.697147063435263e+17
19343.0	7.693641810881194e+17
19344.0	7.690092393704106e+17
19345.0	7.686447614831274e+17
19346.0	7.682866597767852e+17
19347.0	7.679243468494164e+17
19348.0	7.675561723822076e+17
19349.0	7.671842072428544e+17
19350.0	7.668085614619305e+17
19351.0	7.664292016248148e+17
19352.0	7.6604599435264e+17
19353.0	7.656590117874344e+17
19354.0	7.652680282756438e+17
19355.0	7.648729864951123e+17
19356.0	7.64473789837039e+17
19357.0	7.640703447684434e+17
19358.0	7.63662468976913e+17
19359.0	7.632497929442644e+17
19360.0	7.628300776112127e+17
19361.0	7.624050218106879e+17
19362.0	7.619604227904854e+17
19363.0	7.615101534907049e+17
19364.0	7.610702147616765e+17
19365.0	7.606254752322899e+17
19366.0	7.601762884823721e+17
19367.0	7.597225632159059e+17
19368.0	7.59264176959215e+17
19369.0	7.588008263243091e+17
19370.0	7.583325399722664e+17
19371.0	7.578598572905812e+17
19372.0	7.573815408197632e+17
19373.0	7.568978331303935e+17
19374.0	7.563823712043007e+17
19375.0	7.558468395335679e+17
19376.0	7.55345235308271e+17
19377.0	7.548373561245692e+17
19378.0	7.543186531199657e+17
19379.0	7.537859207277226e+17
19380.0	7.532443295460008e+17
19381.0	7.526943698889385e+17
19382.0	7.520963341407572e+17
19383.0	7.514552252672681e+17
19384.0	7.50875832221696e+17
19385.0	7.5028556166813e+17
19386.0	7.496839550293332e+17
19387.0	7.490703363233106e+17
19388.0	7.483150752721578e+17
19389.0	7.476361842480468e+17
19390.0	7.469801320480768e+17
19391.0	7.462966765027327e+17
19392.0	7.455377204095658e+17
19393.0	7.446869371606356e+17
19394.0	7.439613078885715e+17
19395.0	7.432157709118122e+17
19396.0	7.422168824545276e+17
19397.0	7.41336312656691e+17
19398.0	7.405145229535913e+17
19399.0	7.394596301919575e+17
19400.0	7.384480598370986e+17
19401.0	7.375643441714516e+17
19402.0	7.363041259683836e+17
19403.0	7.353015514169344e+17
19404.0	7.341849401709912e+17
19405.0	7.328805046364841e+17
19406.0	7.317882773962755e+17
19407.0	7.302744416539987e+17
19408.0	7.291180998634156e+17
19409.0	7.274145006660268e+17
19410.0	7.261618562575017e+17
19411.0	7.243631415700138e+17
19412.0	7.230708579128662e+17
19413.0	7.215198911157587e+17
19414.0	7.202317897389395e+17
19415.0	7.188725120019114e+17
19416.0	7.1742364071581e+17
19417.0	7.159716861968381e+17
19418.0	7.144750658355199e+17
19419.0	7.129328514323798e+17
19420.0	7.112668496964265e+17
19421.0	7.096354895560704e+17
19422.0	7.079389653106687e+17
19423.0	7.060220677193727e+17
19424.0	7.04069224103936e+17
19425.0	7.020329439679827e+17
19426.0	6.997429868735144e+17
19427.0	6.974651964063744e+17
19428.0	6.949884913516541e+17
19429.0	6.924229647794173e+17
19430.0	6.897490411039404e+17
19431.0	6.868738304726355e+17
19432.0	6.838558285365247e+17
19433.0	6.805015872842412e+17
19434.0	6.771089516527615e+17
19435.0	6.734211127268691e+17
19436.0	6.695666909358762e+17
19437.0	6.654345016421034e+17
19438.0	6.6094850141498e+17
19439.0	6.561643602029229e+17
19440.0	6.510336749688148e+17
19441.0	6.45492173596262e+17
19442.0	6.394568758351191e+17
19443.0	6.329156516883114e+17
19444.0	6.25765537703526e+17
19445.0	6.179489874007383e+17
19446.0	6.093647186143913e+17
19447.0	5.99905926538854e+17
19448.0	5.894155695816708e+17
19449.0	5.776689181229055e+17
19450.0	5.642011061256183e+17
19451.0	5.5754197016685254e+17
19452.0	5.711693490072235e+17
19453.0	5.834796333443759e+17
19454.0	5.943293349199867e+17
19455.0	6.040471301608788e+17
19456.0	6.12810199050923e+17
19457.0	6.207583741629777e+17
19458.0	6.279851468827306e+17
19459.0	6.345678504591363e+17
19460.0	6.406103997524648e+17
19461.0	6.461268786064041e+17
19462.0	6.512161705339562e+17
19463.0	6.558822958454097e+17
19464.0	6.602923204498772e+17
19465.0	6.643248509834582e+17
19466.0	6.680215783385768e+17
19467.0	6.715683330413911e+17
19468.0	6.748160701497345e+17
19469.0	6.779175411821222e+17
19470.0	6.808527077113855e+17
19471.0	6.834965848610131e+17
19472.0	6.860385407729661e+17
19473.0	6.883229871112191e+17
19474.0	6.906428279226368e+17
19475.0	6.927060743574867e+17
19476.0	6.947217965318143e+17
19477.0	6.966102620547754e+17
19478.0	6.98310771098692e+17
19479.0	6.999997523077802e+17
19480.0	7.015155836299945e+17
19481.0	7.028947812351999e+17
19482.0	7.04270347272192e+17
19483.0	7.055946945658879e+17
19484.0	7.068373056400041e+17
19485.0	7.080333648330751e+17
19486.0	7.092020146689364e+17
19487.0	7.103376968559272e+17
19488.0	7.113723558756351e+17
19489.0	7.12499285389039e+17
19490.0	7.136805413453824e+17
19491.0	7.149131684380671e+17
19492.0	7.16175547826176e+17
19493.0	7.173483937835692e+17
19494.0	7.184973229806931e+17
19495.0	7.195077113806839e+17
19496.0	7.205659737063423e+17
19497.0	7.213838113964026e+17
19498.0	7.224255531974655e+17
19499.0	7.230617030055251e+17
19500.0	7.240259730756952e+17
19501.0	7.247365234054484e+17
19502.0	7.25324547909222e+17
19503.0	7.262367128398504e+17
19504.0	7.267836390364499e+17
19505.0	7.27308380021282e+17
19506.0	7.280545722881367e+17
19507.0	7.285738225096022e+17
19508.0	7.290213069313363e+17
19509.0	7.294972811629908e+17
19510.0	7.300774024795475e+17
19511.0	7.304528438580564e+17
19512.0	7.308421899135658e+17
19513.0	7.311997255286781e+17
19514.0	7.316709319551657e+17
19515.0	7.320411919701331e+17
19516.0	7.323618283356157e+17
19517.0	7.326691749090644e+17
19518.0	7.329656435550888e+17
19519.0	7.332688016965632e+17
19520.0	7.336318687597908e+17
19521.0	7.338968271377747e+17
19522.0	7.341535785211219e+17
19523.0	7.344015053684735e+17
19524.0	7.346384989235881e+17
19525.0	7.348611672528211e+17
19526.0	7.350764779339775e+17
19527.0	7.352894609162237e+17
19528.0	7.355501645922301e+17
19529.0	7.357466064977919e+17
19530.0	7.359373735100415e+17
19531.0	7.361226443063296e+17
19532.0	7.363025852607145e+17
19533.0	7.364773442923177e+17
19534.0	7.366470579956394e+17
19535.0	7.368118847755603e+17
19536.0	7.369719006887935e+17
19537.0	7.371272483416745e+17
19538.0	7.372776218296319e+17
19539.0	7.374212304644777e+17
19540.0	7.375857800009044e+17
19541.0	7.37726816408917e+17
19542.0	7.378573083366739e+17
19543.0	7.379808263951699e+17
19544.0	7.380984711697747e+17
19545.0	7.382100308481364e+17
19546.0	7.383174843028819e+17
19547.0	7.384246926704639e+17
19548.0	7.385248416049833e+17
19549.0	7.386209430361428e+17
19550.0	7.387130433809064e+17
19551.0	7.38801195487505e+17
19552.0	7.388854926092969e+17
19553.0	7.389658979762175e+17
19554.0	7.390426628270761e+17
19555.0	7.391159954789716e+17
19556.0	7.391856740532223e+17
19557.0	7.392518796039508e+17
19558.0	7.393147238394538e+17
19559.0	7.39374223397137e+17
19560.0	7.394304841132714e+17
19561.0	7.39483516473617e+17
19562.0	7.395325209040212e+17
19563.0	7.395780321782441e+17
19564.0	7.396205076152319e+17
19565.0	7.396600029992276e+17
19566.0	7.396966823275177e+17
19567.0	7.397373646995453e+17
19568.0	7.397726873103017e+17
19569.0	7.398019852227923e+17
19570.0	7.398286038138879e+17
19571.0	7.398524935908009e+17
19572.0	7.398737304704339e+17
19573.0	7.398923371020288e+17
19574.0	7.399084514781866e+17
19575.0	7.399220263430825e+17
19576.0	7.40046620659985e+17
19577.0	7.402997270533459e+17
19578.0	7.403023217896105e+17
19579.0	7.4030279294976e+17
19580.0	7.403008297358676e+17
19581.0	7.404649004225874e+17
19582.0	7.408985696458068e+17
19583.0	7.408842174365693e+17
19584.0	7.408678198050815e+17
19585.0	7.408493988413439e+17
19586.0	7.408289806898515e+17
19587.0	7.410692560082257e+17
19588.0	7.412873484916051e+17
19589.0	7.412582475715922e+17
19590.0	7.412254787327315e+17
19591.0	7.411896933504339e+17
19592.0	7.411498498392063e+17
19593.0	7.411083119689727e+17
19594.0	7.411834793492479e+17
19595.0	7.414367491806548e+17
19596.0	7.413871518154751e+17
19597.0	7.413393311574697e+17
19598.0	7.412882211864573e+17
19599.0	7.412374045371048e+17
19600.0	7.411846002070867e+17
19601.0	7.411304686594729e+17
19602.0	7.41075207725602e+17
19603.0	7.411521135050746e+17
19604.0	7.412921548843689e+17
19605.0	7.412307286032381e+17
19606.0	7.411690858960212e+17
19607.0	7.411059142251859e+17
19608.0	7.410416506372096e+17
19609.0	7.409762810112681e+17
19610.0	7.409100501549053e+17
19611.0	7.408427085070333e+17
19612.0	7.40774338835251e+17
19613.0	7.407053765083133e+17
19614.0	7.408880204120061e+17
19615.0	7.40816632938496e+17
19616.0	7.407425025299795e+17
19617.0	7.406676964190889e+17
19618.0	7.405898293051391e+17
19619.0	7.405126219552083e+17
19620.0	7.404352980036264e+17
19621.0	7.403592956772351e+17
19622.0	7.40280099807778e+17
19623.0	7.402000622813183e+17
19624.0	7.401192169319081e+17
19625.0	7.400375587263828e+17
19626.0	7.399550240511318e+17
19627.0	7.400543007102294e+17
19628.0	7.399725035334313e+17
19629.0	7.398857486893055e+17
19630.0	7.397956354659667e+17
19631.0	7.396936708172458e+17
19632.0	7.396201961182548e+17
19633.0	7.395305821569024e+17
19634.0	7.394401387020287e+17
19635.0	7.393490254168063e+17
19636.0	7.392572125216768e+17
19637.0	7.391636915661481e+17
19638.0	7.390715050983423e+17
19639.0	7.389777067595092e+17
19640.0	7.3888308410013e+17
19641.0	7.387859796710739e+17
19642.0	7.386924143957332e+17
19643.0	7.385960776641194e+17
19644.0	7.384990175548756e+17
19645.0	7.384006622445568e+17
19646.0	7.383582272126975e+17
19647.0	7.383362104721407e+17
19648.0	7.382364426600447e+17
19649.0	7.381361403538088e+17
19650.0	7.38035306070016e+17
19651.0	7.379339596617042e+17
19652.0	7.378321100767232e+17
19653.0	7.377296959384234e+17
19654.0	7.376266883061075e+17
19655.0	7.375230245448362e+17
19656.0	7.374188880855039e+17
19657.0	7.373143451981139e+17
19658.0	7.372093307311444e+17
19659.0	7.371038883053568e+17
19660.0	7.369980419680938e+17
19661.0	7.368917661341011e+17
19662.0	7.36785087926545e+17
19663.0	7.366778413907965e+17
19664.0	7.36570487341056e+17
19665.0	7.36462693728256e+17
19666.0	7.363544018321407e+17
