# Flux units: erg / (cm m2 s)
# Wavelength units: Angstrom
wave	flux
19000.0	7.478492052586496e+17
19001.0	7.476645149540351e+17
19002.0	7.475791322065578e+17
19003.0	7.474413659575636e+17
19004.0	7.473052907121322e+17
19005.0	7.471672505750867e+17
19006.0	7.470308432805887e+17
19007.0	7.468896184085161e+17
19008.0	7.467273698672636e+17
19009.0	7.465777432450387e+17
19010.0	7.462595763459406e+17
19011.0	7.463324502807892e+17
19012.0	7.461566741304659e+17
19013.0	7.460710544048128e+17
19014.0	7.459035963981823e+17
19015.0	7.457794311585791e+17
19016.0	7.456375631598931e+17
19017.0	7.455110528849236e+17
19018.0	7.4538019731101e+17
19019.0	7.452428595800744e+17
19020.0	7.450970669711357e+17
19021.0	7.449706256225619e+17
19022.0	7.448348754356905e+17
19023.0	7.446777624002557e+17
19024.0	7.445513806107987e+17
19025.0	7.444214365989544e+17
19026.0	7.44272595709679e+17
19027.0	7.441313607712765e+17
19028.0	7.440088567556778e+17
19029.0	7.438627562848256e+17
19030.0	7.437386205451603e+17
19031.0	7.4360362645149e+17
19032.0	7.4346436507293e+17
19033.0	7.432799092299091e+17
19034.0	7.431792102823254e+17
19035.0	7.430291568197632e+17
19036.0	7.413861270071973e+17
19037.0	7.427652123448662e+17
19038.0	7.426228009041917e+17
19039.0	7.424946937178793e+17
19040.0	7.423591592580436e+17
19041.0	7.422165355855871e+17
19042.0	7.420355164154536e+17
19043.0	7.41942360084753e+17
19044.0	7.417992121242964e+17
19045.0	7.416661111996415e+17
19046.0	7.414960369259862e+17
19047.0	7.413799309017088e+17
19048.0	7.411457732553385e+17
19049.0	7.410750098942633e+17
19050.0	7.409465863176192e+17
19051.0	7.405662830417233e+17
19052.0	7.406480331025066e+17
19053.0	7.405538827217578e+17
19054.0	7.404137107597993e+17
19055.0	7.40146260266189e+17
19056.0	7.401253134925824e+17
19057.0	7.399953974427645e+17
19058.0	7.398525544082089e+17
19059.0	7.397202030056787e+17
19060.0	7.395715915448319e+17
19061.0	7.394443327264084e+17
19062.0	7.393022961167017e+17
19063.0	7.391645947396093e+17
19064.0	7.389587721333417e+17
19065.0	7.387938597896191e+17
19066.0	7.387167786882387e+17
19067.0	7.386008432323242e+17
19068.0	7.384677251110228e+17
19069.0	7.383297696989183e+17
19070.0	7.381755791147007e+17
19071.0	7.380484180235604e+17
19072.0	7.379117161491113e+17
19073.0	7.377688503255039e+17
19074.0	7.376342376338772e+17
19075.0	7.374947511610025e+17
19076.0	7.373447432765439e+17
19077.0	7.37209229648418e+17
19078.0	7.370538887064233e+17
19079.0	7.369342667369129e+17
19080.0	7.367877564825597e+17
19081.0	7.366351472907603e+17
19082.0	7.364940481079977e+17
19083.0	7.363164966486016e+17
19084.0	7.361124707423575e+17
19085.0	7.360905780133887e+17
19086.0	7.357574013779968e+17
19087.0	7.357702736969728e+17
19088.0	7.356510991198889e+17
19089.0	7.354429969093974e+17
19090.0	7.354033983455232e+17
19091.0	7.352647079515476e+17
19092.0	7.351025158935892e+17
19093.0	7.349987395851603e+17
19094.0	7.348596408057855e+17
19095.0	7.347206727488854e+17
19096.0	7.345734813395626e+17
19097.0	7.344404018058578e+17
19098.0	7.342994772459519e+17
19099.0	7.341587691121322e+17
19100.0	7.340170442790228e+17
19101.0	7.338793817691475e+17
19102.0	7.336937490044244e+17
19103.0	7.335975220237651e+17
19104.0	7.334611889684479e+17
19105.0	7.333189230701225e+17
19106.0	7.331721204727807e+17
19107.0	7.330300542233258e+17
19108.0	7.328990173156691e+17
19109.0	7.326205304897533e+17
19110.0	7.326121639717544e+17
19111.0	7.324791049901395e+17
19112.0	7.323391372907862e+17
19113.0	7.321978289520639e+17
19114.0	7.320554120587945e+17
19115.0	7.318922097328127e+17
19116.0	7.317654164821332e+17
19117.0	7.316234062965417e+17
19118.0	7.314504633985705e+17
19119.0	7.298204099237181e+17
19120.0	7.311932679782399e+17
19121.0	7.310646056058879e+17
19122.0	7.30934911574562e+17
19123.0	7.307923926198952e+17
19124.0	7.306448687420755e+17
19125.0	7.305100032737279e+17
19126.0	7.303680725002921e+17
19127.0	7.293802096099327e+17
19128.0	7.300304366206975e+17
19129.0	7.299058834079741e+17
19130.0	7.297986660925439e+17
19131.0	7.29665601937954e+17
19132.0	7.295254255020714e+17
19133.0	7.292972850042196e+17
19134.0	7.292188922041684e+17
19135.0	7.291026533602644e+17
19136.0	7.289651305207126e+17
19137.0	7.287444315570175e+17
19138.0	7.286744746207914e+17
19139.0	7.285416677168468e+17
19140.0	7.284020501020671e+17
19141.0	7.282610596915881e+17
19142.0	7.281074512767658e+17
19143.0	7.27949996265745e+17
19144.0	7.278160729778858e+17
19145.0	7.276943014275753e+17
19146.0	7.272571482756439e+17
19147.0	7.273657369886719e+17
19148.0	7.272711779429033e+17
19149.0	7.271283172922708e+17
19150.0	7.269855908593661e+17
19151.0	7.268465041036628e+17
19152.0	7.267038573625344e+17
19153.0	7.265561585822377e+17
19154.0	7.263614285119487e+17
19155.0	7.262840142430207e+17
19156.0	7.261410228699135e+17
19157.0	7.25993501229056e+17
19158.0	7.257644421786281e+17
19159.0	7.257065639990611e+17
19160.0	7.255672942318931e+17
19161.0	7.254264903281322e+17
19162.0	7.250737931223041e+17
19163.0	7.251396044084564e+17
19164.0	7.250097227519316e+17
19165.0	7.248603044468051e+17
19166.0	7.246702508856658e+17
19167.0	7.245636276234922e+17
19168.0	7.244244339130365e+17
19169.0	7.242861876958547e+17
19170.0	7.241586176600745e+17
19171.0	7.240034524594173e+17
19172.0	7.238713865491795e+17
19173.0	7.237332010095955e+17
19174.0	7.23561793646319e+17
19175.0	7.234489927335935e+17
19176.0	7.233047047613098e+17
19177.0	7.230879836755284e+17
19178.0	7.2301638858397e+17
19179.0	7.228629296261802e+17
19180.0	7.227291633451008e+17
19181.0	7.225446854120787e+17
19182.0	7.224398684968275e+17
19183.0	7.223095858648404e+17
19184.0	7.22151735890193e+17
19185.0	7.220171508809727e+17
19186.0	7.218813226800468e+17
19187.0	7.216977793777663e+17
19188.0	7.215943263103658e+17
19189.0	7.214521120019795e+17
19190.0	7.213080912068607e+17
19191.0	7.211502475236692e+17
19192.0	7.210239802387113e+17
19193.0	7.208757879286442e+17
19194.0	7.207273218703357e+17
19195.0	7.205913355441492e+17
19196.0	7.204390676288854e+17
19197.0	7.202974059899562e+17
19198.0	7.201422860877823e+17
19199.0	7.187184802420049e+17
19200.0	7.189477246806702e+17
19201.0	7.197144624660479e+17
19202.0	7.195844428169216e+17
19203.0	7.194408403337215e+17
19204.0	7.192882838503423e+17
19205.0	7.191500834908841e+17
19206.0	7.190025970821802e+17
19207.0	7.188149300800169e+17
19208.0	7.186263141864786e+17
19209.0	7.185723901171028e+17
19210.0	7.184294151017811e+17
19211.0	7.182920400415402e+17
19212.0	7.18145974243601e+17
19213.0	7.17955220653124e+17
19214.0	7.177949883138047e+17
19215.0	7.177075595848361e+17
19216.0	7.175655591859539e+17
19217.0	7.174169888292863e+17
19218.0	7.168706329182202e+17
19219.0	7.170475742461948e+17
19220.0	7.169727891068244e+17
19221.0	7.166781153432918e+17
19222.0	7.166889517471062e+17
19223.0	7.165355589195092e+17
19224.0	7.16375569150771e+17
19225.0	7.161801786174118e+17
19226.0	7.160959040050518e+17
19227.0	7.159492539405651e+17
19228.0	7.158167529411923e+17
19229.0	7.156694438117373e+17
19230.0	7.155177331796649e+17
19231.0	7.153688981624147e+17
19232.0	7.152237753838249e+17
19233.0	7.150461373819561e+17
19234.0	7.149217984981674e+17
19235.0	7.147679648492202e+17
19236.0	7.146399166627837e+17
19237.0	7.144826446632276e+17
19238.0	7.142981679884969e+17
19239.0	7.141968436701865e+17
19240.0	7.140166488205993e+17
19241.0	7.138776981001555e+17
19242.0	7.137409154154493e+17
19243.0	7.135109562673833e+17
19244.0	7.134536584396799e+17
19245.0	7.133014825194836e+17
19246.0	7.131456042871468e+17
19247.0	7.129997445693437e+17
19248.0	7.128558192645459e+17
19249.0	7.127042859117225e+17
19250.0	7.125448334333267e+17
19251.0	7.12337094030131e+17
19252.0	7.121078177147561e+17
19253.0	7.12091368633139e+17
19254.0	7.119472677268136e+17
19255.0	7.117055817241938e+17
19256.0	7.116272869310463e+17
19257.0	7.114955680295594e+17
19258.0	7.113442378208598e+17
19259.0	7.111554514987688e+17
19260.0	7.110036941701119e+17
19261.0	7.108789611615572e+17
19262.0	7.107030085708457e+17
19263.0	7.105495182955859e+17
19264.0	7.101660862087163e+17
19265.0	7.101788900207272e+17
19266.0	7.100399089614847e+17
19267.0	7.099637732562259e+17
19268.0	7.098050135370408e+17
19269.0	7.096495941615615e+17
19270.0	7.094947749909844e+17
19271.0	7.091767259518295e+17
19272.0	7.091644552358569e+17
19273.0	7.081104079060982e+17
19274.0	7.082893689312588e+17
19275.0	7.087140018061311e+17
19276.0	7.085477121927849e+17
19277.0	7.083910606706004e+17
19278.0	7.082352838006099e+17
19279.0	7.080640207213908e+17
19280.0	7.078748137106089e+17
19281.0	7.077549139383636e+17
19282.0	7.076033425571837e+17
19283.0	7.074248108889428e+17
19284.0	7.07249749168401e+17
19285.0	7.07023221240627e+17
19286.0	7.069399345266687e+17
19287.0	7.067982468830548e+17
19288.0	7.062024276847268e+17
19289.0	7.055064998171973e+17
19290.0	7.063103963398143e+17
19291.0	7.060131106433708e+17
19292.0	7.05981702995968e+17
19293.0	7.058139417411583e+17
19294.0	7.056463830712319e+17
19295.0	7.054862308431187e+17
19296.0	7.053162358418089e+17
19297.0	7.051376282566655e+17
19298.0	7.049686303812266e+17
19299.0	7.048152989302783e+17
19300.0	7.046455933359444e+17
19301.0	7.044736333032105e+17
19302.0	7.042969982992383e+17
19303.0	7.040971440477523e+17
19304.0	7.039434655880531e+17
19305.0	7.037805069511338e+17
19306.0	7.036120304975871e+17
19307.0	7.034166242355881e+17
19308.0	7.032513518108671e+17
19309.0	7.030444595172691e+17
19310.0	7.028403077119997e+17
19311.0	7.026771607508308e+17
19312.0	7.025140133702313e+17
19313.0	7.023388652470272e+17
19314.0	7.012466463954264e+17
19315.0	7.011133305825971e+17
19316.0	7.018007920377855e+17
19317.0	7.016195244250452e+17
19318.0	7.014348948679338e+17
19319.0	7.012593837277183e+17
19320.0	7.010759129169919e+17
19321.0	7.008908447055871e+17
19322.0	7.006616358486015e+17
19323.0	7.00494937919761e+17
19324.0	7.003258439947604e+17
19325.0	7.001046748495872e+17
19326.0	6.999477111313747e+17
19327.0	6.997524320266921e+17
19328.0	6.995680446906367e+17
19329.0	6.993751566887593e+17
19330.0	6.991607410021716e+17
19331.0	6.989620264828927e+17
19332.0	6.98785100603938e+17
19333.0	6.985793846028969e+17
19334.0	6.983856866110121e+17
19335.0	6.981851791665834e+17
19336.0	6.979825525500585e+17
19337.0	6.977771521703933e+17
19338.0	6.974690708247891e+17
19339.0	6.973630976797353e+17
19340.0	6.971225070196051e+17
19341.0	6.969323925711529e+17
19342.0	6.965426286231548e+17
19343.0	6.965148248615593e+17
19344.0	6.962705065137491e+17
19345.0	6.951135044698095e+17
19346.0	6.953858710372347e+17
19347.0	6.955383548892499e+17
19348.0	6.953497369684649e+17
19349.0	6.951101159615146e+17
19350.0	6.948889505912148e+17
19351.0	6.946576152920061e+17
19352.0	6.944116063600639e+17
19353.0	6.942201462390783e+17
19354.0	6.939886649081853e+17
19355.0	6.93706883666193e+17
19356.0	6.935190445577555e+17
19357.0	6.932807028834304e+17
19358.0	6.93031918510626e+17
19359.0	6.927287810610518e+17
19360.0	6.924154868946259e+17
19361.0	6.921706372683091e+17
19362.0	6.919371904166569e+17
19363.0	6.916815483568127e+17
19364.0	6.9142272030365e+17
19365.0	6.911589813496489e+17
19366.0	6.908965275303935e+17
19367.0	6.906299258940074e+17
19368.0	6.903490989260797e+17
19369.0	6.898802656367956e+17
19370.0	6.895412880692564e+17
19371.0	6.893313630142463e+17
19372.0	6.890711981664938e+17
19373.0	6.887701349400575e+17
19374.0	6.884822089727999e+17
19375.0	6.880205828259839e+17
19376.0	6.876501198766079e+17
19377.0	6.873350750076925e+17
19378.0	6.870224146006015e+17
19379.0	6.867030275784704e+17
19380.0	6.860862901977088e+17
19381.0	6.857463699603455e+17
19382.0	6.853717877850111e+17
19383.0	6.84907380674833e+17
19384.0	6.843372529866068e+17
19385.0	6.839710315970559e+17
19386.0	6.834763579697836e+17
19387.0	6.827674317444436e+17
19388.0	6.82370495746321e+17
19389.0	6.816143782182907e+17
19390.0	6.810137288594771e+17
19391.0	6.79239111287328e+17
19392.0	6.794802762874877e+17
19393.0	6.786407893478054e+17
19394.0	6.778293527248895e+17
19395.0	6.769648708091903e+17
19396.0	6.763913127395327e+17
19397.0	6.758556006438228e+17
19398.0	6.752933859295231e+17
19399.0	6.744410243639977e+17
19400.0	6.74114355470882e+17
19401.0	6.735180038755668e+17
19402.0	6.728906488239443e+17
19403.0	6.722511176379049e+17
19404.0	6.716143349093716e+17
19405.0	6.709499895218175e+17
19406.0	6.702815142827348e+17
19407.0	6.696024155706708e+17
19408.0	6.686031511639387e+17
19409.0	6.681273595942228e+17
19410.0	6.673821190848511e+17
19411.0	6.666101386291881e+17
19412.0	6.658154562934102e+17
19413.0	6.649424752498004e+17
19414.0	6.640312190850388e+17
19415.0	6.631725734035456e+17
19416.0	6.621184350573907e+17
19417.0	6.611724093008553e+17
19418.0	6.601099784661672e+17
19419.0	6.589909664705193e+17
19420.0	6.576877316254378e+17
19421.0	6.563507258523645e+17
19422.0	6.547809690626733e+17
19423.0	6.530005520962902e+17
19424.0	6.509833959593303e+17
19425.0	6.485222407973553e+17
19426.0	6.457808463593473e+17
19427.0	6.43223419058039e+17
19428.0	6.413769268439721e+17
19429.0	6.394833353222824e+17
19430.0	6.374855377158144e+17
19431.0	6.352396923262295e+17
19432.0	6.332243296037544e+17
19433.0	6.3091645087744e+17
19434.0	6.283968092220074e+17
19435.0	6.256608287216978e+17
19436.0	6.22633075797743e+17
19437.0	6.19363755360256e+17
19438.0	6.142385459997356e+17
19439.0	6.107336578607789e+17
19440.0	6.050423606258348e+17
19441.0	5.992023180618408e+17
19442.0	5.939696759384748e+17
19443.0	5.879746492978518e+17
19444.0	5.809019329445885e+17
19445.0	5.72532473270545e+17
19446.0	5.623249190081876e+17
19447.0	5.501810070519804e+17
19448.0	5.356540104015878e+17
19449.0	5.1690259751458106e+17
19450.0	4.9144116393191885e+17
19451.0	4.820962732146699e+17
19452.0	5.0464957905851725e+17
19453.0	5.269127250487986e+17
19454.0	5.429646306137423e+17
19455.0	5.559226255190703e+17
19456.0	5.668056174952451e+17
19457.0	5.758589486497788e+17
19458.0	5.821962982348133e+17
19459.0	5.894978344233647e+17
19460.0	5.948334508343293e+17
19461.0	5.999482822284631e+17
19462.0	6.058255734975146e+17
19463.0	6.107162110940499e+17
19464.0	6.147473508663293e+17
19465.0	6.180885582490282e+17
19466.0	6.209458248788648e+17
19467.0	6.235606763962368e+17
19468.0	6.259159594259798e+17
19469.0	6.279742122622973e+17
19470.0	6.300920728693418e+17
19471.0	6.320065204278612e+17
19472.0	6.337767441170431e+17
19473.0	6.354472239016617e+17
19474.0	6.370681752474966e+17
19475.0	6.38635019093059e+17
19476.0	6.415496296879437e+17
19477.0	6.43785661035315e+17
19478.0	6.457417618074277e+17
19479.0	6.474184507697838e+17
19480.0	6.48777993516919e+17
19481.0	6.500344241236649e+17
19482.0	6.510627812715177e+17
19483.0	6.519382338087592e+17
19484.0	6.528855073707348e+17
19485.0	6.535575918783146e+17
19486.0	6.543716623843328e+17
19487.0	6.550226101862397e+17
19488.0	6.556266270818303e+17
19489.0	6.562718058283008e+17
19490.0	6.563271603650554e+17
19491.0	6.573728629871955e+17
19492.0	6.578930644069034e+17
19493.0	6.584084987903999e+17
19494.0	6.588760247850324e+17
19495.0	6.593081659533994e+17
19496.0	6.595806908557992e+17
19497.0	6.601259003237716e+17
19498.0	6.603860856537089e+17
19499.0	6.590747236455756e+17
19500.0	6.612767399564627e+17
19501.0	6.616550571595092e+17
19502.0	6.619980792244906e+17
19503.0	6.623179358688596e+17
19504.0	6.626180595711999e+17
19505.0	6.629039344538964e+17
19506.0	6.631814195402068e+17
19507.0	6.636952226190673e+17
19508.0	6.640708459604649e+17
19509.0	6.649535360488788e+17
19510.0	6.651227620245504e+17
19511.0	6.640933621028173e+17
19512.0	6.658160890041681e+17
19513.0	6.660209941763407e+17
19514.0	6.665119132024826e+17
19515.0	6.669378625295703e+17
19516.0	6.676042809518761e+17
19517.0	6.676969766081875e+17
19518.0	6.678703847243775e+17
19519.0	6.682653804374697e+17
19520.0	6.683374190067711e+17
19521.0	6.68431078863667e+17
19522.0	6.685890569043968e+17
19523.0	6.688446062002175e+17
19524.0	6.689017009537024e+17
19525.0	6.689450048356351e+17
19526.0	6.690013337791146e+17
19527.0	6.691505246131539e+17
19528.0	6.692898040971261e+17
19529.0	6.693251096510461e+17
19530.0	6.693604187002196e+17
19531.0	6.693872508512937e+17
19532.0	6.694059703096659e+17
19533.0	6.694253452678483e+17
19534.0	6.695887048103252e+17
19535.0	6.695927667141289e+17
19536.0	6.695894129486505e+17
19537.0	6.696095669988009e+17
19538.0	6.695601948677462e+17
19539.0	6.693613452918788e+17
19540.0	6.695870469417642e+17
19541.0	6.695912142624084e+17
19542.0	6.695764607980884e+17
19543.0	6.69609012372002e+17
19544.0	6.696497004063401e+17
19545.0	6.694064060279461e+17
19546.0	6.691998290061994e+17
19547.0	6.695809948407124e+17
19548.0	6.695532945386153e+17
19549.0	6.694736781901823e+17
19550.0	6.694928293822461e+17
19551.0	6.694609368733011e+17
19552.0	6.694254062250665e+17
19553.0	6.693775440434516e+17
19554.0	6.693313312019798e+17
19555.0	6.693037123392852e+17
19556.0	6.692684475400191e+17
19557.0	6.692245241593855e+17
19558.0	6.691793972232191e+17
19559.0	6.691421131461972e+17
19560.0	6.691423257275049e+17
19561.0	6.690928966238207e+17
19562.0	6.690531186835455e+17
19563.0	6.690047623430143e+17
19564.0	6.689503529926653e+17
19565.0	6.688948256505855e+17
19566.0	6.688225737310208e+17
19567.0	6.687794172788736e+17
19568.0	6.687033978257407e+17
19569.0	6.686464408551423e+17
19570.0	6.685944874795005e+17
19571.0	6.685288956253523e+17
19572.0	6.684474477641728e+17
19573.0	6.683885956672168e+17
19574.0	6.682855055469225e+17
19575.0	6.682616033968127e+17
19576.0	6.681918428239188e+17
19577.0	6.681091638646099e+17
19578.0	6.680290590195711e+17
19579.0	6.679624361355945e+17
19580.0	6.67888846512674e+17
19581.0	6.67820632379665e+17
19582.0	6.677525117796351e+17
19583.0	6.676755337882281e+17
19584.0	6.675946066498899e+17
19585.0	6.674633027747837e+17
19586.0	6.673685088479914e+17
19587.0	6.673490895000916e+17
19588.0	6.670549193326595e+17
19589.0	6.67181586125073e+17
19590.0	6.670702915267241e+17
19591.0	6.670238591134378e+17
19592.0	6.669424852817236e+17
19593.0	6.668470208954367e+17
19594.0	6.666535368829608e+17
19595.0	6.66663884230929e+17
19596.0	6.664723854524416e+17
19597.0	6.664997041427796e+17
19598.0	6.662732207445331e+17
19599.0	6.663295844308308e+17
19600.0	6.662483673961812e+17
19601.0	6.661577750435156e+17
19602.0	6.660747882921981e+17
19603.0	6.658015290370726e+17
19604.0	6.658871332438016e+17
19605.0	6.65672565653504e+17
19606.0	6.657261260767231e+17
19607.0	6.65632913821969e+17
19608.0	6.655332758235817e+17
19609.0	6.654185934858921e+17
19610.0	6.653511425764009e+17
19611.0	6.652505349947391e+17
19612.0	6.65160263016994e+17
19613.0	6.650576762131795e+17
19614.0	6.649446368542719e+17
19615.0	6.648669410077353e+17
19616.0	6.647586101045929e+17
19617.0	6.646690489215658e+17
19618.0	6.643002443999909e+17
19619.0	6.641417893270863e+17
19620.0	6.640521839640573e+17
19621.0	6.642673361005225e+17
19622.0	6.641703157672617e+17
19623.0	6.640705099967146e+17
19624.0	6.639639155354281e+17
19625.0	6.638671616103764e+17
19626.0	6.637591844967763e+17
19627.0	6.636616325354836e+17
19628.0	6.635220419040598e+17
19629.0	6.634080890257407e+17
19630.0	6.632499286026921e+17
19631.0	6.618627583246336e+17
19632.0	6.631368794570751e+17
19633.0	6.630147258056701e+17
19634.0	6.629350218661887e+17
19635.0	6.628096541196287e+17
19636.0	6.627197582311423e+17
19637.0	6.624178745289388e+17
19638.0	6.625081624450388e+17
19639.0	6.623997796024317e+17
19640.0	6.622542155131562e+17
19641.0	6.618767820499633e+17
19642.0	6.620828702255785e+17
19643.0	6.619731216476841e+17
19644.0	6.61842509832738e+17
19645.0	6.61635121702502e+17
19646.0	6.616594955020969e+17
19647.0	6.615517569744895e+17
19648.0	6.614412049077588e+17
19649.0	6.613312920529578e+17
19650.0	6.612261707011411e+17
19651.0	6.611145605513215e+17
19652.0	6.610038874789204e+17
19653.0	6.608986363833001e+17
19654.0	6.607838843502591e+17
19655.0	6.606715084603391e+17
19656.0	6.605664461083988e+17
19657.0	6.604563086486185e+17
19658.0	6.603491430629375e+17
19659.0	6.602382846022995e+17
19660.0	6.601299750202025e+17
19661.0	6.600169362904404e+17
19662.0	6.599084342596948e+17
19663.0	6.597734391174484e+17
19664.0	6.596777051772244e+17
19665.0	6.595751577998676e+17
