# Flux units: erg / (cm m2 s)
# Wavelength units: Angstrom
wave	flux
19000.0	7.255763372911274e+17
19001.0	7.253862517134675e+17
19002.0	7.253145815438675e+17
19003.0	7.251804871284051e+17
19004.0	7.250483300619603e+17
19005.0	7.249129906372607e+17
19006.0	7.24781702910225e+17
19007.0	7.246454881342803e+17
19008.0	7.244804858926419e+17
19009.0	7.243357580776787e+17
19010.0	7.239755411838287e+17
19011.0	7.241007657648128e+17
19012.0	7.239204432685736e+17
19013.0	7.238496787890173e+17
19014.0	7.236812653199357e+17
19015.0	7.23562715414528e+17
19016.0	7.234234733297664e+17
19017.0	7.233073775116288e+17
19018.0	7.231780054630399e+17
19019.0	7.230452732177064e+17
19020.0	7.229034313635155e+17
19021.0	7.227825950031871e+17
19022.0	7.226501683828051e+17
19023.0	7.224938854001321e+17
19024.0	7.223725392920573e+17
19025.0	7.222491098731862e+17
19026.0	7.221014039625728e+17
19027.0	7.21963780739345e+17
19028.0	7.218489370607615e+17
19029.0	7.217054784421887e+17
19030.0	7.215880702263293e+17
19031.0	7.214576928030719e+17
19032.0	7.21321662157073e+17
19033.0	7.211310069929299e+17
19034.0	7.21043847258658e+17
19035.0	7.208941937928872e+17
19036.0	7.18938485188198e+17
19037.0	7.206419937886207e+17
19038.0	7.205033670082557e+17
19039.0	7.203813597380607e+17
19040.0	7.202499966533632e+17
19041.0	7.201118829761876e+17
19042.0	7.199257751366313e+17
19043.0	7.198465226440704e+17
19044.0	7.197067984939689e+17
19045.0	7.195788699850067e+17
19046.0	7.194067107228329e+17
19047.0	7.193006041989119e+17
19048.0	7.190487875540308e+17
19049.0	7.189958404778664e+17
19050.0	7.188753014936916e+17
19051.0	7.184458352427002e+17
19052.0	7.185843315802111e+17
19053.0	7.185007501464916e+17
19054.0	7.18362617594948e+17
19055.0	7.180811598036996e+17
19056.0	7.181045328423594e+17
19057.0	7.179810171606356e+17
19058.0	7.17841121743121e+17
19059.0	7.177146392903679e+17
19060.0	7.17567717155362e+17
19061.0	7.174474440900607e+17
19062.0	7.173092157685757e+17
19063.0	7.171760558440447e+17
19064.0	7.169623329865728e+17
19065.0	7.167968211369983e+17
19066.0	7.167344828743677e+17
19067.0	7.166283639073449e+17
19068.0	7.165004611234474e+17
19069.0	7.163670071782058e+17
19070.0	7.162141322073427e+17
19071.0	7.160936297136127e+17
19072.0	7.159617635920553e+17
19073.0	7.158225326921046e+17
19074.0	7.156930557859156e+17
19075.0	7.15557850718754e+17
19076.0	7.154099809506644e+17
19077.0	7.152796593116499e+17
19078.0	7.151256788620627e+17
19079.0	7.150142884937727e+17
19080.0	7.148705578046804e+17
19081.0	7.147185559481002e+17
19082.0	7.145828032446463e+17
19083.0	7.144045881065471e+17
19084.0	7.141928697069568e+17
19085.0	7.141952239697919e+17
19086.0	7.138313127329791e+17
19087.0	7.138759774568447e+17
19088.0	7.13744898466338e+17
19089.0	7.13522105146846e+17
19090.0	7.135058557140991e+17
19091.0	7.133724312687956e+17
19092.0	7.132090894123007e+17
19093.0	7.131172650527402e+17
19094.0	7.129820943788713e+17
19095.0	7.128489208927572e+17
19096.0	7.12704090177536e+17
19097.0	7.125770602283008e+17
19098.0	7.124393641639935e+17
19099.0	7.123029226160127e+17
19100.0	7.121658211642025e+17
19101.0	7.120337286900394e+17
19102.0	7.118414022355625e+17
19103.0	7.117602522398719e+17
19104.0	7.116290710481578e+17
19105.0	7.1148905707165e+17
19106.0	7.113472640111956e+17
19107.0	7.112090925924352e+17
19108.0	7.110840740915881e+17
19109.0	7.107878585019048e+17
19110.0	7.108058015946067e+17
19111.0	7.106772263239679e+17
19112.0	7.105423419812522e+17
19113.0	7.104056266850304e+17
19114.0	7.102675285267795e+17
19115.0	7.101040109289471e+17
19116.0	7.099848178969257e+17
19117.0	7.098474530428244e+17
19118.0	7.096720265576447e+17
19119.0	7.075573085328695e+17
19120.0	7.094279720315562e+17
19121.0	7.093064547958783e+17
19122.0	7.09183451238673e+17
19123.0	7.090453788054867e+17
19124.0	7.088994356210348e+17
19125.0	7.08771072582178e+17
19126.0	7.086332832645119e+17
19127.0	7.074794060469586e+17
19128.0	7.083057904702803e+17
19129.0	7.081773013226836e+17
19130.0	7.080822128159402e+17
19131.0	7.079547262468093e+17
19132.0	7.078189450220884e+17
19133.0	7.075975875526655e+17
19134.0	7.075217050435583e+17
19135.0	7.074096101720063e+17
19136.0	7.072771224545961e+17
19137.0	7.070450454626301e+17
19138.0	7.069945637983572e+17
19139.0	7.068673645390505e+17
19140.0	7.067324632793087e+17
19141.0	7.065960671696212e+17
19142.0	7.064435025772543e+17
19143.0	7.06287865237777e+17
19144.0	7.061611274917203e+17
19145.0	7.060473182683135e+17
19146.0	7.055550862153048e+17
19147.0	7.057200881773225e+17
19148.0	7.056375404997289e+17
19149.0	7.054989142786045e+17
19150.0	7.053608932955476e+17
19151.0	7.052268265624916e+17
19152.0	7.050890252211539e+17
19153.0	7.049432509273427e+17
19154.0	7.047437357154301e+17
19155.0	7.046831845059241e+17
19156.0	7.045438118384982e+17
19157.0	7.043998074011647e+17
19158.0	7.041621670843731e+17
19159.0	7.041219660786345e+17
19160.0	7.039884397117437e+17
19161.0	7.038530691093844e+17
19162.0	7.034694032599722e+17
19163.0	7.035742740021247e+17
19164.0	7.034506691914409e+17
19165.0	7.03303656808994e+17
19166.0	7.031072819423913e+17
19167.0	7.030151725798739e+17
19168.0	7.028854071754751e+17
19169.0	7.027503752631636e+17
19170.0	7.026275886213801e+17
19171.0	7.024746493378559e+17
19172.0	7.023491637313533e+17
19173.0	7.022163643072511e+17
19174.0	7.020292111073279e+17
19175.0	7.017480934042282e+17
19176.0	7.016081488434515e+17
19177.0	7.013818473381887e+17
19178.0	7.013285727567871e+17
19179.0	7.011774935771817e+17
19180.0	7.010509011637587e+17
19181.0	7.008578074312704e+17
19182.0	7.007712175631017e+17
19183.0	7.006459463554388e+17
19184.0	7.004940615898452e+17
19185.0	7.003614340623017e+17
19186.0	7.00231190786867e+17
19187.0	7.000459819264681e+17
19188.0	6.999533493944319e+17
19189.0	6.998154385118548e+17
19190.0	6.996768147374079e+17
19191.0	6.995203423120041e+17
19192.0	6.994020525233492e+17
19193.0	6.992581827930793e+17
19194.0	6.99112779485457e+17
19195.0	6.989828900694697e+17
19196.0	6.988331364297385e+17
19197.0	6.986963982046548e+17
19198.0	6.985426512379904e+17
19199.0	6.969179745812476e+17
19200.0	6.972211068578479e+17
19201.0	6.98130243920418e+17
19202.0	6.980077670279849e+17
19203.0	6.978689022208681e+17
19204.0	6.977175612467881e+17
19205.0	6.975873695612928e+17
19206.0	6.974441502277631e+17
19207.0	6.972523010850815e+17
19208.0	6.970555349598205e+17
19209.0	6.970283467123369e+17
19210.0	6.968903782978899e+17
19211.0	6.967591965469353e+17
19212.0	6.966173957969236e+17
19213.0	6.964212421099517e+17
19214.0	6.962652646124204e+17
19215.0	6.961926589033129e+17
19216.0	6.960565124246185e+17
19217.0	6.959110912212991e+17
19218.0	6.952935467166369e+17
19219.0	6.955375458080083e+17
19220.0	6.954796184152746e+17
19221.0	6.951609505764694e+17
19222.0	6.952068608688128e+17
19223.0	6.950570571071487e+17
19224.0	6.949005561604777e+17
19225.0	6.946996794774867e+17
19226.0	6.946313983754237e+17
19227.0	6.944897842719402e+17
19228.0	6.94363450647074e+17
19229.0	6.942215445501268e+17
19230.0	6.940741469907625e+17
19231.0	6.939295073959935e+17
19232.0	6.937902128125268e+17
19233.0	6.936098555734697e+17
19234.0	6.934951312228351e+17
19235.0	6.933450565790378e+17
19236.0	6.932252492212906e+17
19237.0	6.930708896066217e+17
19238.0	6.928840662887081e+17
19239.0	6.927966639139498e+17
19240.0	6.926242297850537e+17
19241.0	6.924862366941183e+17
19242.0	6.923536886486355e+17
19243.0	6.921137915865768e+17
19244.0	6.920771317618004e+17
19245.0	6.919290987653802e+17
19246.0	6.917768345550847e+17
19247.0	6.916355956320938e+17
19248.0	6.914974475616255e+17
19249.0	6.913506116195667e+17
19250.0	6.911946494312447e+17
19251.0	6.909850357334013e+17
19252.0	6.907408460808192e+17
19253.0	6.907542480704851e+17
19254.0	6.906186573370708e+17
19255.0	6.903620380742994e+17
19256.0	6.903062859874304e+17
19257.0	6.901803373297663e+17
19258.0	6.900339722682367e+17
19259.0	6.898418301534207e+17
19260.0	6.896955774293331e+17
19261.0	6.895820197243561e+17
19262.0	6.894065197689513e+17
19263.0	6.892580590933332e+17
19264.0	6.888322580348922e+17
19265.0	6.88882119361604e+17
19266.0	6.88745708781568e+17
19267.0	6.886971747423572e+17
19268.0	6.885425603237204e+17
19269.0	6.883920313668948e+17
19270.0	6.882420625593683e+17
19271.0	6.878961120313348e+17
19272.0	6.879178116825087e+17
19273.0	6.869318818070518e+17
19274.0	6.870668552787276e+17
19275.0	6.874850210261674e+17
19276.0	6.873215590727679e+17
19277.0	6.871698776610131e+17
19278.0	6.870193058523817e+17
19279.0	6.868508063301631e+17
19280.0	6.866586867247786e+17
19281.0	6.865515372172628e+17
19282.0	6.864055992057855e+17
19283.0	6.862295999883946e+17
19284.0	6.860597113126911e+17
19285.0	6.858232313501011e+17
19286.0	6.857573388342612e+17
19287.0	6.856236402911913e+17
19288.0	6.849557535129592e+17
19289.0	6.841229666942956e+17
19290.0	6.851491456002729e+17
19291.0	6.84832810633353e+17
19292.0	6.848295510999039e+17
19293.0	6.846656149804372e+17
19294.0	6.845020464917161e+17
19295.0	6.843472884880723e+17
19296.0	6.84180552880401e+17
19297.0	6.840038167937023e+17
19298.0	6.838396191593812e+17
19299.0	6.836932487850665e+17
19300.0	6.835282775113727e+17
19301.0	6.833605894471679e+17
19302.0	6.831879950958591e+17
19303.0	6.829862945816573e+17
19304.0	6.82840641503232e+17
19305.0	6.82683843949363e+17
19306.0	6.825204183465983e+17
19307.0	6.823252761160361e+17
19308.0	6.821662671852884e+17
19309.0	6.819572722171903e+17
19310.0	6.817550084079615e+17
19311.0	6.816457630766419e+17
19312.0	6.81489116238097e+17
19313.0	6.81319954784802e+17
19314.0	6.798880540721155e+17
19315.0	6.797865830230714e+17
19316.0	6.80789882839586e+17
19317.0	6.806116046471168e+17
19318.0	6.804305695386281e+17
19319.0	6.802599123965268e+17
19320.0	6.800788857465514e+17
19321.0	6.798971523563519e+17
19322.0	6.79665859629329e+17
19323.0	6.795036804339028e+17
19324.0	6.793406275649536e+17
19325.0	6.791161015784787e+17
19326.0	6.78968233697826e+17
19327.0	6.787738470012244e+17
19328.0	6.78593460052514e+17
19329.0	6.784042757608788e+17
19330.0	6.781892073706836e+17
19331.0	6.779933723809108e+17
19332.0	6.778241269716308e+17
19333.0	6.776200428344662e+17
19334.0	6.774302191910911e+17
19335.0	6.772317361274879e+17
19336.0	6.770326006398975e+17
19337.0	6.76830942068736e+17
19338.0	6.765077352240467e+17
19339.0	6.764239166024361e+17
19340.0	6.761767158590122e+17
19341.0	6.759978280943615e+17
19342.0	6.755789087003985e+17
19343.0	6.755891890094079e+17
19344.0	6.75368664179234e+17
19345.0	6.740711272262294e+17
19346.0	6.744771448711845e+17
19347.0	6.746913437821609e+17
19348.0	6.745108511369897e+17
19349.0	6.742395253861033e+17
19350.0	6.740196351541247e+17
19351.0	6.737874715497811e+17
19352.0	6.735380260847615e+17
19353.0	6.733537988313088e+17
19354.0	6.731211317706751e+17
19355.0	6.728264445154647e+17
19356.0	6.726443688001535e+17
19357.0	6.724026960095914e+17
19358.0	6.721510894294356e+17
19359.0	6.718674420017834e+17
19360.0	6.716415744671743e+17
19361.0	6.713985559341738e+17
19362.0	6.711707494427305e+17
19363.0	6.709176668170921e+17
19364.0	6.706620927049727e+17
19365.0	6.704020469754538e+17
19366.0	6.701451593471316e+17
19367.0	6.698844916023295e+17
19368.0	6.696221532662442e+17
19369.0	6.693180677641555e+17
19370.0	6.689990480232447e+17
19371.0	6.687892343270058e+17
19372.0	6.684940434756948e+17
19373.0	6.681990565374633e+17
19374.0	6.679272775221247e+17
19375.0	6.676427161556308e+17
19376.0	6.673530435403775e+17
19377.0	6.67053387293218e+17
19378.0	6.667582667664041e+17
19379.0	6.664584482695849e+17
19380.0	6.661533382388394e+17
19381.0	6.658409003395753e+17
19382.0	6.654545499258877e+17
19383.0	6.650485380131498e+17
19384.0	6.647885096899923e+17
19385.0	6.644618384900095e+17
19386.0	6.641317153079295e+17
19387.0	6.637932005818365e+17
19388.0	6.634493462970367e+17
19389.0	6.629789531460947e+17
19390.0	6.625930865453737e+17
19391.0	6.607245199889727e+17
19392.0	6.618326839765672e+17
19393.0	6.614161813405693e+17
19394.0	6.608788910680746e+17
19395.0	6.604826169311231e+17
19396.0	6.600809227048276e+17
19397.0	6.594087114593622e+17
19398.0	6.589474436459177e+17
19399.0	6.580947828867068e+17
19400.0	6.576703467945983e+17
19401.0	6.572316846718973e+17
19402.0	6.563331768844287e+17
19403.0	6.557466311524355e+17
19404.0	6.547395884788393e+17
19405.0	6.538773566674259e+17
19406.0	6.528907053017777e+17
19407.0	6.516075980827305e+17
19408.0	6.498567372581556e+17
19409.0	6.489747982297774e+17
19410.0	6.481588610487636e+17
19411.0	6.473871850995711e+17
19412.0	6.465941971927039e+17
19413.0	6.457892114792447e+17
19414.0	6.449449664511997e+17
19415.0	6.441110933777066e+17
19416.0	6.431794526857897e+17
19417.0	6.422951939975849e+17
19418.0	6.41360665387554e+17
19419.0	6.403832490404521e+17
19420.0	6.393807195078655e+17
19421.0	6.383109727584256e+17
19422.0	6.371769441058815e+17
19423.0	6.360869009096701e+17
19424.0	6.348437117905578e+17
19425.0	6.336171330939561e+17
19426.0	6.32186442368068e+17
19427.0	6.306960311145811e+17
19428.0	6.290385856888832e+17
19429.0	6.271578426485421e+17
19430.0	6.249624227195566e+17
19431.0	6.221204219581783e+17
19432.0	6.192429407404024e+17
19433.0	6.153624099662516e+17
19434.0	6.123565473944916e+17
19435.0	6.09788206723891e+17
19436.0	6.07015202473028e+17
19437.0	6.041741686385321e+17
19438.0	5.99331407833771e+17
19439.0	5.975674077227692e+17
19440.0	5.937350047694845e+17
19441.0	5.890928253687123e+17
19442.0	5.833875751523672e+17
19443.0	5.763679426794839e+17
19444.0	5.686401013470546e+17
19445.0	5.609775328220504e+17
19446.0	5.517766696807083e+17
19447.0	5.400041573318651e+17
19448.0	5.2489029478427366e+17
19449.0	5.047154157202088e+17
19450.0	4.753833574705807e+17
19451.0	4.6405983494908525e+17
19452.0	4.909213892127415e+17
19453.0	5.1562446425074426e+17
19454.0	5.3262503239133805e+17
19455.0	5.456579406419285e+17
19456.0	5.5580275748372506e+17
19457.0	5.6388055784052006e+17
19458.0	5.6947130991902976e+17
19459.0	5.784868701776559e+17
19460.0	5.846192100824402e+17
19461.0	5.895311897657344e+17
19462.0	5.934889399134892e+17
19463.0	5.968885984176809e+17
19464.0	5.999322923532288e+17
19465.0	6.027270975477076e+17
19466.0	6.052842859834025e+17
19467.0	6.076802955651753e+17
19468.0	6.100435805579948e+17
19469.0	6.13343993790464e+17
19470.0	6.168149118418948e+17
19471.0	6.193416528461819e+17
19472.0	6.214142440505336e+17
19473.0	6.231966579250515e+17
19474.0	6.247560512187052e+17
19475.0	6.257497030874449e+17
19476.0	6.272478013816831e+17
19477.0	6.283321055816361e+17
19478.0	6.293659075652265e+17
19479.0	6.302743368389971e+17
19480.0	6.311117187973121e+17
19481.0	6.320024979505151e+17
19482.0	6.327774351108778e+17
19483.0	6.335359884809556e+17
19484.0	6.342452833856169e+17
19485.0	6.349328625609385e+17
19486.0	6.355870773062314e+17
19487.0	6.362072814190591e+17
19488.0	6.368007316744873e+17
19489.0	6.373269675791702e+17
19490.0	6.372619511835297e+17
19491.0	6.384338975326205e+17
19492.0	6.389686785627476e+17
19493.0	6.397866731896832e+17
19494.0	6.409038436062555e+17
19495.0	6.418752506342054e+17
19496.0	6.424740379317587e+17
19497.0	6.435551412486144e+17
19498.0	6.439264091548328e+17
19499.0	6.42295257121859e+17
19500.0	6.451421516573357e+17
19501.0	6.455525821295273e+17
19502.0	6.458771952544428e+17
19503.0	6.463086311505919e+17
19504.0	6.464915306272084e+17
19505.0	6.468089057815208e+17
19506.0	6.471015808892927e+17
19507.0	6.472396107502932e+17
19508.0	6.474175347337897e+17
19509.0	6.477277602775039e+17
19510.0	6.477471569761619e+17
19511.0	6.454450807199048e+17
19512.0	6.476997495270052e+17
19513.0	6.474162736463859e+17
19514.0	6.479055640941902e+17
19515.0	6.482569122720433e+17
19516.0	6.485905145593855e+17
19517.0	6.486464763614548e+17
19518.0	6.487544508186624e+17
19519.0	6.488213483596457e+17
19520.0	6.489565822976e+17
19521.0	6.490456062601897e+17
19522.0	6.490800440825171e+17
19523.0	6.491541447114752e+17
19524.0	6.492011279067817e+17
19525.0	6.492362150073684e+17
19526.0	6.492864650062505e+17
19527.0	6.493177794002943e+17
19528.0	6.493517393515859e+17
19529.0	6.493750296226474e+17
19530.0	6.494027501273087e+17
19531.0	6.49475818188527e+17
19532.0	6.494980315021311e+17
19533.0	6.49514538185523e+17
19534.0	6.49525310206771e+17
19535.0	6.495246496038911e+17
19536.0	6.495216450841257e+17
19537.0	6.49548171190818e+17
19538.0	6.494968606621696e+17
19539.0	6.492533671941468e+17
19540.0	6.495368167205546e+17
19541.0	6.495504702985556e+17
19542.0	6.495430343568041e+17
19543.0	6.495341763362815e+17
19544.0	6.495273164821844e+17
19545.0	6.492568749604859e+17
19546.0	6.490119937370796e+17
19547.0	6.494923415093247e+17
19548.0	6.494744281961812e+17
19549.0	6.493929122474665e+17
19550.0	6.494295063614804e+17
19551.0	6.4940515276445e+17
19552.0	6.493761940313428e+17
19553.0	6.493333096497151e+17
19554.0	6.49291184017681e+17
19555.0	6.49272499511842e+17
19556.0	6.492595609927677e+17
19557.0	6.492326098632703e+17
19558.0	6.491924202520575e+17
19559.0	6.491496317801812e+17
19560.0	6.490938215322964e+17
19561.0	6.490483703764308e+17
19562.0	6.490149678481405e+17
19563.0	6.489718111862783e+17
19564.0	6.489207713300477e+17
19565.0	6.488699965538303e+17
19566.0	6.487998214438911e+17
19567.0	6.487646469619711e+17
19568.0	6.486909750607871e+17
19569.0	6.48638829236497e+17
19570.0	6.485935723468116e+17
19571.0	6.485326133810516e+17
19572.0	6.484522507960319e+17
19573.0	6.484004967197353e+17
19574.0	6.482941030957055e+17
19575.0	6.482851056145747e+17
19576.0	6.482203087907497e+17
19577.0	6.481403754228393e+17
19578.0	6.480638874659497e+17
19579.0	6.480035746327209e+17
19580.0	6.479352671065427e+17
19581.0	6.478725095533226e+17
19582.0	6.478109006102527e+17
19583.0	6.477385955628372e+17
19584.0	6.476618237214719e+17
19585.0	6.475243141638825e+17
19586.0	6.47432213889024e+17
19587.0	6.474289247158271e+17
19588.0	6.470971655454723e+17
19589.0	6.472692710506496e+17
19590.0	6.471544099657044e+17
19591.0	6.471213958998698e+17
19592.0	6.470446871827796e+17
19593.0	6.46951837176081e+17
19594.0	6.467396531388412e+17
19595.0	6.467765106551465e+17
19596.0	6.465947106454185e+17
19597.0	6.466210349361834e+17
19598.0	6.463595647511208e+17
19599.0	6.464577332751017e+17
19600.0	6.463756557789866e+17
19601.0	6.462494628031146e+17
19602.0	6.461723933758803e+17
19603.0	6.458642226216955e+17
19604.0	6.459921944717993e+17
19605.0	6.457556943765505e+17
19606.0	6.458411243099476e+17
19607.0	6.457523956962644e+17
19608.0	6.456556968564052e+17
19609.0	6.455406246581588e+17
19610.0	6.454821444561578e+17
19611.0	6.453839964143615e+17
19612.0	6.452991956964692e+17
19613.0	6.451992059357865e+17
19614.0	6.450870700998655e+17
19615.0	6.450165887358294e+17
19616.0	6.449091784824148e+17
19617.0	6.448248018785619e+17
19618.0	6.444068858320207e+17
19619.0	6.44235602410427e+17
19620.0	6.441546537413286e+17
19621.0	6.444363922014208e+17
19622.0	6.443450847199232e+17
19623.0	6.442491286213972e+17
19624.0	6.441452014578345e+17
19625.0	6.440528823801172e+17
19626.0	6.439466772900521e+17
19627.0	6.438542200799231e+17
19628.0	6.437119787182762e+17
19629.0	6.435970984793427e+17
19630.0	6.434434410610687e+17
19631.0	6.418347944050687e+17
19632.0	6.433427622461439e+17
19633.0	6.432235525767165e+17
19634.0	6.431518542353748e+17
19635.0	6.430264565694463e+17
19636.0	6.429418841615017e+17
19637.0	6.426116776525824e+17
19638.0	6.427372461664937e+17
19639.0	6.426328221177171e+17
19640.0	6.424852928572074e+17
19641.0	6.420208917588659e+17
19642.0	6.42325804028177e+17
19643.0	6.422192817788244e+17
19644.0	6.420871092633597e+17
19645.0	6.418623000914601e+17
19646.0	6.419156894569812e+17
19647.0	6.418128704984403e+17
19648.0	6.417054237545812e+17
19649.0	6.415986842402815e+17
19650.0	6.414976125588819e+17
19651.0	6.413889699490472e+17
19652.0	6.412816667202899e+17
19653.0	6.411797400999252e+17
19654.0	6.410683513394515e+17
19655.0	6.409588524624553e+17
19656.0	6.408579880495785e+17
19657.0	6.407513742944938e+17
19658.0	6.406482378970452e+17
19659.0	6.405406919578964e+17
19660.0	6.404426488436052e+17
19661.0	6.403486707788458e+17
19662.0	6.402439727022079e+17
19663.0	6.401079966520659e+17
19664.0	6.40018597159458e+17
19665.0	6.399210392562345e+17
