# Flux units: erg / (cm m2 s)
# Wavelength units: Angstrom
wave	flux
19000.0	8.319914197996884e+17
19001.0	8.318106374679209e+17
19002.0	8.317031547928575e+17
19003.0	8.315567443629395e+17
19004.0	8.314121970428585e+17
19005.0	8.312649172735315e+17
19006.0	8.311186864996353e+17
19007.0	8.309643354133843e+17
19008.0	8.308048008664402e+17
19009.0	8.306490873304404e+17
19010.0	8.303767466977958e+17
19011.0	8.303757941713577e+17
19012.0	8.301908207512233e+17
19013.0	8.300902135190868e+17
19014.0	8.299189670772736e+17
19015.0	8.297822670203561e+17
19016.0	8.296330753474557e+17
19017.0	8.294887444534612e+17
19018.0	8.293476784057e+17
19019.0	8.291995027330387e+17
19020.0	8.290442579804157e+17
19021.0	8.289052728666792e+17
19022.0	8.287573824066902e+17
19023.0	8.285928774696956e+17
19024.0	8.284532351085225e+17
19025.0	8.283087396580009e+17
19026.0	8.281516393452886e+17
19027.0	8.279911965917181e+17
19028.0	8.2786131130013e+17
19029.0	8.277058326451539e+17
19030.0	8.275659224077654e+17
19031.0	8.274180962604372e+17
19032.0	8.272670831411199e+17
19033.0	8.270820055624361e+17
19034.0	8.269580124291071e+17
19035.0	8.267929486710098e+17
19036.0	8.25024074079709e+17
19037.0	8.26502258098176e+17
19038.0	8.263520800647849e+17
19039.0	8.262091590161747e+17
19040.0	8.26060263600947e+17
19041.0	8.259058056997545e+17
19042.0	8.257224817595731e+17
19043.0	8.256061882499071e+17
19044.0	8.254491944725161e+17
19045.0	8.253010091529558e+17
19046.0	8.25126743511313e+17
19047.0	8.249900577150291e+17
19048.0	8.247713221050367e+17
19049.0	8.246650057261055e+17
19050.0	8.245193450979327e+17
19051.0	8.24100387395993e+17
19052.0	8.241801476789586e+17
19053.0	8.240777763225597e+17
19054.0	8.239272023468713e+17
19055.0	8.236786695624022e+17
19056.0	8.236116835915091e+17
19057.0	8.23465524260591e+17
19058.0	8.233072041044649e+17
19059.0	8.231600999366656e+17
19060.0	8.230001549071698e+17
19061.0	8.228552661707432e+17
19062.0	8.226986767242579e+17
19063.0	8.2254620524544e+17
19064.0	8.223443916947456e+17
19065.0	8.221668916854783e+17
19066.0	8.220594596216831e+17
19067.0	8.219244532247209e+17
19068.0	8.21775035478835e+17
19069.0	8.216205669520723e+17
19070.0	8.214550033727488e+17
19071.0	8.213086998975827e+17
19072.0	8.211570633648809e+17
19073.0	8.209989136373078e+17
19074.0	8.208474644501846e+17
19075.0	8.206923104343378e+17
19076.0	8.205297048180054e+17
19077.0	8.203772638177961e+17
19078.0	8.202105441484797e+17
19079.0	8.200692439187453e+17
19080.0	8.199084605876906e+17
19081.0	8.197421525194067e+17
19082.0	8.195869628519764e+17
19083.0	8.193976160310612e+17
19084.0	8.191931944621396e+17
19085.0	8.191294140579839e+17
19086.0	8.188202577821693e+17
19087.0	8.187794132303871e+17
19088.0	8.186252412409174e+17
19089.0	8.184138336392535e+17
19090.0	8.18337183572514e+17
19091.0	8.181841177608191e+17
19092.0	8.18008087994914e+17
19093.0	8.178809134820008e+17
19094.0	8.177250186122578e+17
19095.0	8.175689748447231e+17
19096.0	8.174079079787177e+17
19097.0	8.1725577246365e+17
19098.0	8.170979180150783e+17
19099.0	8.169402523101862e+17
19100.0	8.167813769680211e+17
19101.0	8.16626015473937e+17
19102.0	8.164384899596284e+17
19103.0	8.163098189190484e+17
19104.0	8.16155028689169e+17
19105.0	8.159951704817661e+17
19106.0	8.158312442189139e+17
19107.0	8.15672648217395e+17
19108.0	8.155192577665705e+17
19109.0	8.152098921949866e+17
19110.0	8.151900072793428e+17
19111.0	8.150476713361408e+17
19112.0	8.148905884996947e+17
19113.0	8.147318697448787e+17
19114.0	8.145717349930323e+17
19115.0	8.143954240689494e+17
19116.0	8.142911127071402e+17
19117.0	8.14133951017779e+17
19118.0	8.139493659901952e+17
19119.0	8.129885148370246e+17
19120.0	8.136449386523305e+17
19121.0	8.134967193589075e+17
19122.0	8.133491789834921e+17
19123.0	8.131881350463485e+17
19124.0	8.130193863125676e+17
19125.0	8.128676078725802e+17
19126.0	8.127050475547305e+17
19127.0	8.119517084734802e+17
19128.0	8.123141220641449e+17
19129.0	8.12196165792563e+17
19130.0	8.120636295610365e+17
19131.0	8.119081622306815e+17
19132.0	8.117483009474557e+17
19133.0	8.115172772850344e+17
19134.0	8.113963450149545e+17
19135.0	8.112678294432425e+17
19136.0	8.111095383676243e+17
19137.0	8.108930576154624e+17
19138.0	8.107822720658089e+17
19139.0	8.10627465897574e+17
19140.0	8.104674766880765e+17
19141.0	8.103065777340412e+17
19142.0	8.101361055607466e+17
19143.0	8.099637432942592e+17
19144.0	8.098068819170643e+17
19145.0	8.09659373138739e+17
19146.0	8.0927830020806e+17
19147.0	8.093060016286378e+17
19148.0	8.091745436128596e+17
19149.0	8.090115668006228e+17
19150.0	8.088501385254225e+17
19151.0	8.086881213699411e+17
19152.0	8.085246246038186e+17
19153.0	8.08358094517043e+17
19154.0	8.081582897583444e+17
19155.0	8.080398399569919e+17
19156.0	8.078752184183466e+17
19157.0	8.077003314604714e+17
19158.0	8.074598121734143e+17
19159.0	8.073750290715987e+17
19160.0	8.072163813403305e+17
19161.0	8.070490309875028e+17
19162.0	8.066565681446911e+17
19163.0	8.067109987461802e+17
19164.0	8.065712958472191e+17
19165.0	8.0640329397917e+17
19166.0	8.062068908010153e+17
19167.0	8.060591225350826e+17
19168.0	8.059020257176233e+17
19169.0	8.057429286365866e+17
19170.0	8.055891320373245e+17
19171.0	8.054144880694611e+17
19172.0	8.052572234798419e+17
19173.0	8.050968703445673e+17
19174.0	8.049121558528e+17
19175.0	8.047683513439572e+17
19176.0	8.046009517779624e+17
19177.0	8.043812643405825e+17
19178.0	8.042648245895167e+17
19179.0	8.040916258390015e+17
19180.0	8.039333063819261e+17
19181.0	8.037418400393897e+17
19182.0	8.036003665849002e+17
19183.0	8.03443052921924e+17
19184.0	8.032646651183101e+17
19185.0	8.03105631511074e+17
19186.0	8.029441740155561e+17
19187.0	8.02744569884399e+17
19188.0	8.026091324527956e+17
19189.0	8.024412105561427e+17
19190.0	8.022722479128573e+17
19191.0	8.020940758362794e+17
19192.0	8.019392832296275e+17
19193.0	8.017656408615596e+17
19194.0	8.015940002949802e+17
19195.0	8.014291058469548e+17
19196.0	8.012501360137556e+17
19197.0	8.01073575109154e+17
19198.0	8.008547339425108e+17
19199.0	7.992974777865553e+17
19200.0	7.994720345128963e+17
19201.0	8.003563391986344e+17
19202.0	8.002328804196351e+17
19203.0	8.000717823759698e+17
19204.0	7.999014593800873e+17
19205.0	7.997369446563839e+17
19206.0	7.995661766448467e+17
19207.0	7.993653753195177e+17
19208.0	7.991676685516797e+17
19209.0	7.990574151193939e+17
19210.0	7.988381567593128e+17
19211.0	7.986620415694164e+17
19212.0	7.984893072681641e+17
19213.0	7.98280534668083e+17
19214.0	7.98097644978176e+17
19215.0	7.979690143427241e+17
19216.0	7.978012500120915e+17
19217.0	7.976259230717267e+17
19218.0	7.971722261867172e+17
19219.0	7.972176359587837e+17
19220.0	7.971019000119293e+17
19221.0	7.968258154037248e+17
19222.0	7.967603322519551e+17
19223.0	7.965822883812692e+17
19224.0	7.963969704689664e+17
19225.0	7.961903861770921e+17
19226.0	7.960581153051987e+17
19227.0	7.958829347460434e+17
19228.0	7.957193778615633e+17
19229.0	7.955448525925033e+17
19230.0	7.953632701273427e+17
19231.0	7.951859931152381e+17
19232.0	7.950120522525352e+17
19233.0	7.948129294876671e+17
19234.0	7.946542456853842e+17
19235.0	7.944714428175698e+17
19236.0	7.943092862713855e+17
19237.0	7.941249636674216e+17
19238.0	7.939194669585747e+17
19239.0	7.937761857590611e+17
19240.0	7.935736449160531e+17
19241.0	7.934009131313834e+17
19242.0	7.932319152559442e+17
19243.0	7.929891559309308e+17
19244.0	7.928795064784212e+17
19245.0	7.926962351068498e+17
19246.0	7.925107348821332e+17
19247.0	7.923312920712531e+17
19248.0	7.921538284126207e+17
19249.0	7.919704268778153e+17
19250.0	7.917805238921898e+17
19251.0	7.91556919813734e+17
19252.0	7.91307723350562e+17
19253.0	7.91229137752337e+17
19254.0	7.910493733781503e+17
19255.0	7.907946538554706e+17
19256.0	7.90667883393843e+17
19257.0	7.904958948398419e+17
19258.0	7.903104006269609e+17
19259.0	7.900953551656276e+17
19260.0	7.899038007427071e+17
19261.0	7.897137499777704e+17
19262.0	7.89444048261393e+17
19263.0	7.89255713526033e+17
19264.0	7.88910129300548e+17
19265.0	7.888349724060328e+17
19266.0	7.886625164667562e+17
19267.0	7.885182630275752e+17
19268.0	7.883239101650259e+17
19269.0	7.88132115128866e+17
19270.0	7.879396162884948e+17
19271.0	7.876339889602563e+17
19272.0	7.875364927832063e+17
19273.0	7.866446059143162e+17
19274.0	7.867046482149368e+17
19275.0	7.869663130856105e+17
19276.0	7.867652455617875e+17
19277.0	7.865699570898259e+17
19278.0	7.863735585254058e+17
19279.0	7.861646680653821e+17
19280.0	7.859464504519336e+17
19281.0	7.857728677827923e+17
19282.0	7.855771677097981e+17
19283.0	7.853599830136148e+17
19284.0	7.851345910431743e+17
19285.0	7.8490916384058e+17
19286.0	7.847111162156374e+17
19287.0	7.844264046231552e+17
19288.0	7.837733534476964e+17
19289.0	7.829900378155674e+17
19290.0	7.838075635892224e+17
19291.0	7.835014592288087e+17
19292.0	7.833919209253545e+17
19293.0	7.83179698789854e+17
19294.0	7.829666264689322e+17
19295.0	7.827593073349974e+17
19296.0	7.825438118248445e+17
19297.0	7.823215982979754e+17
19298.0	7.821054577038675e+17
19299.0	7.819003903519402e+17
19300.0	7.816828134883325e+17
19301.0	7.814626381135871e+17
19302.0	7.81165901591347e+17
19303.0	7.808102153846781e+17
19304.0	7.806014953532073e+17
19305.0	7.803841308611923e+17
19306.0	7.8016216563712e+17
19307.0	7.799197888326314e+17
19308.0	7.79698631291699e+17
19309.0	7.794331303105875e+17
19310.0	7.791738582903466e+17
19311.0	7.789969654764883e+17
19312.0	7.787722898931711e+17
19313.0	7.785037804776105e+17
19314.0	7.773521323928236e+17
19315.0	7.771525858634419e+17
19316.0	7.775771214304595e+17
19317.0	7.773377891314344e+17
19318.0	7.770928263987199e+17
19319.0	7.768532197922132e+17
19320.0	7.766059774552745e+17
19321.0	7.763559547142144e+17
19322.0	7.758588778206548e+17
19323.0	7.75516189762082e+17
19324.0	7.752764722861395e+17
19325.0	7.749919841102505e+17
19326.0	7.747561557327871e+17
19327.0	7.744922964022612e+17
19328.0	7.741530935306924e+17
19329.0	7.735779730827945e+17
19330.0	7.732925897026217e+17
19331.0	7.730141445401257e+17
19332.0	7.727516504555519e+17
19333.0	7.724667562710355e+17
19334.0	7.71800095557769e+17
19335.0	7.714376517681152e+17
19336.0	7.711485336398506e+17
19337.0	7.708551922668886e+17
19338.0	7.704215992401917e+17
19339.0	7.697095400794793e+17
19340.0	7.693898839228415e+17
19341.0	7.690933392201044e+17
19342.0	7.686667484441254e+17
19343.0	7.681989103233705e+17
19344.0	7.678347533003434e+17
19345.0	7.669372045404833e+17
19346.0	7.669386568881491e+17
19347.0	7.668539838169084e+17
19348.0	7.665480062642858e+17
19349.0	7.662057973350399e+17
19350.0	7.658740557108564e+17
19351.0	7.65511036322884e+17
19352.0	7.651370882564093e+17
19353.0	7.648110191487658e+17
19354.0	7.64454792995362e+17
19355.0	7.640608511011498e+17
19356.0	7.637278492284244e+17
19357.0	7.633585716592639e+17
19358.0	7.629786394394621e+17
19359.0	7.625749369804118e+17
19360.0	7.622119775709864e+17
19361.0	7.618294376125778e+17
19362.0	7.614507938829654e+17
19363.0	7.610544229274964e+17
19364.0	7.606524387349844e+17
19365.0	7.602432750125055e+17
19366.0	7.598143057865385e+17
19367.0	7.59350968713216e+17
19368.0	7.58925813228066e+17
19369.0	7.584674686347944e+17
19370.0	7.579892009577132e+17
19371.0	7.575946644510036e+17
19372.0	7.571606209560575e+17
19373.0	7.56693974576879e+17
19374.0	7.562330053279744e+17
19375.0	7.557055706213032e+17
19376.0	7.551727047103827e+17
19377.0	7.54675143095091e+17
19378.0	7.541747251587752e+17
19379.0	7.536661927821311e+17
19380.0	7.531507561616726e+17
19381.0	7.524942344792744e+17
19382.0	7.519079466969769e+17
19383.0	7.513553103749117e+17
19384.0	7.508346661066068e+17
19385.0	7.501994710619474e+17
19386.0	7.494762509981011e+17
19387.0	7.488862218966356e+17
19388.0	7.482847714257578e+17
19389.0	7.47540522939187e+17
19390.0	7.467526369138003e+17
19391.0	7.449863088242669e+17
19392.0	7.453215470998871e+17
19393.0	7.443848765287081e+17
19394.0	7.43678135186227e+17
19395.0	7.426552515351892e+17
19396.0	7.417797863451305e+17
19397.0	7.407722702045181e+17
19398.0	7.397033978276521e+17
19399.0	7.384227755939162e+17
19400.0	7.37428931486242e+17
19401.0	7.360756387414011e+17
19402.0	7.349294808607395e+17
19403.0	7.332751321595903e+17
19404.0	7.320679787528188e+17
19405.0	7.308886511976445e+17
19406.0	7.298491305601706e+17
19407.0	7.287883770975574e+17
19408.0	7.275464594817025e+17
19409.0	7.266033303814143e+17
19410.0	7.254842814059862e+17
19411.0	7.243306994674344e+17
19412.0	7.231039857841492e+17
19413.0	7.218739767760212e+17
19414.0	7.206182101275987e+17
19415.0	7.19327156380194e+17
19416.0	7.178751638328658e+17
19417.0	7.164631581021522e+17
19418.0	7.150189893298858e+17
19419.0	7.133729157109078e+17
19420.0	7.117771708039165e+17
19421.0	7.09987805359855e+17
19422.0	7.081524044933802e+17
19423.0	7.061143990304765e+17
19424.0	7.040782806548481e+17
19425.0	7.018184399213908e+17
19426.0	6.994785865476778e+17
19427.0	6.970367908249596e+17
19428.0	6.943943323986605e+17
19429.0	6.915237927540047e+17
19430.0	6.88430140813039e+17
19431.0	6.85047462599066e+17
19432.0	6.818362032827045e+17
19433.0	6.785276874238636e+17
19434.0	6.753173129658367e+17
19435.0	6.71778834044245e+17
19436.0	6.679143928299519e+17
19437.0	6.638026379755519e+17
19438.0	6.585758238375935e+17
19439.0	6.545190672837293e+17
19440.0	6.4922576762525e+17
19441.0	6.435076426432508e+17
19442.0	6.372779637779116e+17
19443.0	6.304769224911529e+17
19444.0	6.230470266890918e+17
19445.0	6.149386965527213e+17
19446.0	6.060193856443732e+17
19447.0	5.961985590034427e+17
19448.0	5.85341951646106e+17
19449.0	5.7316286080395936e+17
19450.0	5.581686376322376e+17
19451.0	5.4986758803510694e+17
19452.0	5.661412909121534e+17
19453.0	5.792303933991599e+17
19454.0	5.904486035881979e+17
19455.0	6.005335111587156e+17
19456.0	6.096429551102637e+17
19457.0	6.179151245475835e+17
19458.0	6.250361305519451e+17
19459.0	6.322551891077805e+17
19460.0	6.385485446381564e+17
19461.0	6.44232927912482e+17
19462.0	6.49513901350366e+17
19463.0	6.543149941915645e+17
19464.0	6.586533987483647e+17
19465.0	6.627015992016896e+17
19466.0	6.664479859976872e+17
19467.0	6.698606532056404e+17
19468.0	6.729354813898752e+17
19469.0	6.758587611217916e+17
19470.0	6.789881739782824e+17
19471.0	6.820532678120794e+17
19472.0	6.849396115942057e+17
19473.0	6.87619595899153e+17
19474.0	6.900936411359912e+17
19475.0	6.9227902430522e+17
19476.0	6.945019739679405e+17
19477.0	6.964767821048494e+17
19478.0	6.983680408944637e+17
19479.0	7.001632866129238e+17
19480.0	7.017558551734954e+17
19481.0	7.033533318387027e+17
19482.0	7.047227393092266e+17
19483.0	7.060890171998207e+17
19484.0	7.073448305448276e+17
19485.0	7.084874442386089e+17
19486.0	7.096702871797759e+17
19487.0	7.107362256409939e+17
19488.0	7.117264215430484e+17
19489.0	7.126562580550995e+17
19490.0	7.13356170791048e+17
19491.0	7.145315682833747e+17
19492.0	7.154013943715156e+17
19493.0	7.162336123726505e+17
19494.0	7.170383618768896e+17
19495.0	7.178174611150164e+17
19496.0	7.185179301554857e+17
19497.0	7.193157383662249e+17
19498.0	7.20304129039838e+17
19499.0	7.19936456071578e+17
19500.0	7.224819998610772e+17
19501.0	7.236556799257254e+17
19502.0	7.243547161919488e+17
19503.0	7.254489729160531e+17
19504.0	7.260173201222312e+17
19505.0	7.26955058003968e+17
19506.0	7.274260492626602e+17
19507.0	7.282362221417812e+17
19508.0	7.287140329193471e+17
19509.0	7.292374064212645e+17
19510.0	7.298104350299476e+17
19511.0	7.287330493344417e+17
19512.0	7.303208306562387e+17
19513.0	7.305992085700599e+17
19514.0	7.311232867150502e+17
19515.0	7.316848241890647e+17
19516.0	7.321578542989311e+17
19517.0	7.325908253103444e+17
19518.0	7.32877286347025e+17
19519.0	7.331360616218624e+17
19520.0	7.333786945585152e+17
19521.0	7.337288073740288e+17
19522.0	7.339976584855551e+17
19523.0	7.342329869019816e+17
19524.0	7.34448995934754e+17
19525.0	7.346507606917119e+17
19526.0	7.348554683121663e+17
19527.0	7.35131600176196e+17
19528.0	7.353204221498708e+17
19529.0	7.354917541554857e+17
19530.0	7.356607657323178e+17
19531.0	7.358202751134377e+17
19532.0	7.359692876895572e+17
19533.0	7.361149951541247e+17
19534.0	7.362511886789289e+17
19535.0	7.363765049753597e+17
19536.0	7.365537028549289e+17
19537.0	7.366844500759892e+17
19538.0	7.367674357787306e+17
19539.0	7.367506721243137e+17
19540.0	7.370000836154708e+17
19541.0	7.37106692617011e+17
19542.0	7.371981292830719e+17
19543.0	7.372853846474751e+17
19544.0	7.373699573350397e+17
19545.0	7.373077137238696e+17
19546.0	7.372638466168148e+17
19547.0	7.375973120999423e+17
19548.0	7.376653002298706e+17
19549.0	7.376926627506854e+17
19550.0	7.377870643702442e+17
19551.0	7.378488777856339e+17
19552.0	7.379161328910335e+17
19553.0	7.379500221683027e+17
19554.0	7.379825921971539e+17
19555.0	7.380251639633236e+17
19556.0	7.380609959023955e+17
19557.0	7.380892058124287e+17
19558.0	7.381144750959274e+17
19559.0	7.38331820853384e+17
19560.0	7.384448917394772e+17
19561.0	7.384604182140244e+17
19562.0	7.384805468187305e+17
19563.0	7.386634428000933e+17
19564.0	7.390060553611945e+17
19565.0	7.390068293500925e+17
19566.0	7.389958686550697e+17
19567.0	7.39001788355925e+17
19568.0	7.392245978933932e+17
19569.0	7.394024036674216e+17
19570.0	7.393960413276841e+17
19571.0	7.39379628596702e+17
19572.0	7.393492193334612e+17
19573.0	7.393718378168319e+17
19574.0	7.396343607022931e+17
19575.0	7.396405979119616e+17
19576.0	7.39611421774097e+17
19577.0	7.395725916067155e+17
19578.0	7.395324856718676e+17
19579.0	7.394992130970964e+17
19580.0	7.395865049519442e+17
19581.0	7.397063433475412e+17
19582.0	7.396679373641044e+17
19583.0	7.39622260974114e+17
19584.0	7.395731883163645e+17
19585.0	7.39485150155025e+17
19586.0	7.394230919320918e+17
19587.0	7.394127338187433e+17
19588.0	7.392172588400641e+17
19589.0	7.394518234737321e+17
19590.0	7.394469450787497e+17
19591.0	7.394103355157162e+17
19592.0	7.393517258495314e+17
19593.0	7.392815773734228e+17
19594.0	7.391391371318611e+17
19595.0	7.391483363590143e+17
19596.0	7.389429219983361e+17
19597.0	7.390263659986943e+17
19598.0	7.388745103835133e+17
19599.0	7.388931690244777e+17
19600.0	7.388241440626004e+17
19601.0	7.388800959381501e+17
19602.0	7.38823101218816e+17
19603.0	7.38617531249459e+17
19604.0	7.386676482889046e+17
19605.0	7.385042699419647e+17
19606.0	7.385325771598506e+17
19607.0	7.384552639736488e+17
19608.0	7.383701463061844e+17
19609.0	7.382755016966143e+17
19610.0	7.382129190458708e+17
19611.0	7.381276896701096e+17
19612.0	7.380477367287807e+17
19613.0	7.379589366022143e+17
19614.0	7.378617919078399e+17
19615.0	7.377912311316479e+17
19616.0	7.376925686584662e+17
19617.0	7.37615558021393e+17
19618.0	7.374579064373245e+17
19619.0	7.373250933817339e+17
19620.0	7.372441827409917e+17
19621.0	7.373696318570496e+17
19622.0	7.372804218071722e+17
19623.0	7.371887881486335e+17
19624.0	7.370914481395028e+17
19625.0	7.370010731915945e+17
19626.0	7.369015924097023e+17
19627.0	7.36808484872738e+17
19628.0	7.366740263916884e+17
19629.0	7.365750188670973e+17
19630.0	7.363482167716522e+17
19631.0	7.348696431023447e+17
19632.0	7.363033912661332e+17
19633.0	7.362037010486611e+17
19634.0	7.361246718328832e+17
19635.0	7.36009464787763e+17
19636.0	7.359213273612287e+17
19637.0	7.356672298538327e+17
19638.0	7.357198232103593e+17
19639.0	7.356150978707453e+17
19640.0	7.354872788331178e+17
19641.0	7.352268757488984e+17
19642.0	7.353077145272319e+17
19643.0	7.352018950335145e+17
19644.0	7.350802097460564e+17
19645.0	7.34916592743219e+17
19646.0	7.34972250038818e+17
19647.0	7.348667530870781e+17
19648.0	7.347586439228072e+17
19649.0	7.346509910988118e+17
19650.0	7.345466517749757e+17
19651.0	7.344366136502953e+17
19652.0	7.34327555175219e+17
19653.0	7.34222413201408e+17
19654.0	7.341103128772608e+17
19655.0	7.339991782217044e+17
19656.0	7.338929953614505e+17
19657.0	7.337828618862591e+17
19658.0	7.33675164462831e+17
19659.0	7.335642947474772e+17
19660.0	7.334549383370067e+17
19661.0	7.333422914950484e+17
19662.0	7.332312198938624e+17
19663.0	7.331014526020266e+17
19664.0	7.329979816389289e+17
19665.0	7.328937288575657e+17
19666.0	7.32774930649361e+17
