# Flux units: erg / (cm m2 s)
# Wavelength units: Angstrom
wave	flux
19000.0	8.068137646467753e+17
19001.0	8.066691453244755e+17
19002.0	8.065617072488445e+17
19003.0	8.064220984421033e+17
19004.0	8.0628127119005e+17
19005.0	8.061404217081855e+17
19006.0	8.05999233745988e+17
19007.0	8.058556116893696e+17
19008.0	8.057136193994752e+17
19009.0	8.055707916042236e+17
19010.0	8.054131809845244e+17
19011.0	8.052887046673748e+17
19012.0	8.051375823563433e+17
19013.0	8.050055315455999e+17
19014.0	8.048593281744893e+17
19015.0	8.047177490235391e+17
19016.0	8.045744591557972e+17
19017.0	8.044326129674922e+17
19018.0	8.04289053406003e+17
19019.0	8.041464958637396e+17
19020.0	8.040012950710953e+17
19021.0	8.038587534671871e+17
19022.0	8.037150338230953e+17
19023.0	8.035686691110912e+17
19024.0	8.034251657532756e+17
19025.0	8.032810733753684e+17
19026.0	8.031349759803392e+17
19027.0	8.029843399289513e+17
19028.0	8.02847423725568e+17
19029.0	8.027023556127402e+17
19030.0	8.025571167917395e+17
19031.0	8.024116864308564e+17
19032.0	8.022660799092051e+17
19033.0	8.021161935197523e+17
19034.0	8.019741307655506e+17
19035.0	8.018236606687913e+17
19036.0	8.011760489463807e+17
19037.0	8.015338648808101e+17
19038.0	8.013883780366336e+17
19039.0	8.01243373117986e+17
19040.0	8.01096856572177e+17
19041.0	8.009501582731944e+17
19042.0	8.0079958863162e+17
19043.0	8.006563777566034e+17
19044.0	8.005091831316479e+17
19045.0	8.003620312885928e+17
19046.0	8.0021255370397e+17
19047.0	8.000664140862803e+17
19048.0	7.999110419666259e+17
19049.0	7.997687957815292e+17
19050.0	7.99621705175313e+17
19051.0	7.993924586394964e+17
19052.0	7.99312167637265e+17
19053.0	7.991790496557736e+17
19054.0	7.990317662513834e+17
19055.0	7.988717644589738e+17
19056.0	7.987340419705514e+17
19057.0	7.985860446956202e+17
19058.0	7.984372566545748e+17
19059.0	7.982889822759592e+17
19060.0	7.98139195850752e+17
19061.0	7.979912230425939e+17
19062.0	7.978419526565888e+17
19063.0	7.976928231991977e+17
19064.0	7.975386700840956e+17
19065.0	7.973858314638675e+17
19066.0	7.97241819336977e+17
19067.0	7.970952244974932e+17
19068.0	7.969455871098879e+17
19069.0	7.967958654167721e+17
19070.0	7.966455993029972e+17
19071.0	7.964960691497641e+17
19072.0	7.963460235165693e+17
19073.0	7.961956771517779e+17
19074.0	7.960456822696617e+17
19075.0	7.958953581346815e+17
19076.0	7.957440679116799e+17
19077.0	7.955938882005673e+17
19078.0	7.954427312166228e+17
19079.0	7.952931701653503e+17
19080.0	7.9514555135645e+17
19081.0	7.950417105955498e+17
19082.0	7.948906906255357e+17
19083.0	7.947355651309567e+17
19084.0	7.9457846034432e+17
19085.0	7.944385461922476e+17
19086.0	7.942681047771817e+17
19087.0	7.941232498748072e+17
19088.0	7.939776084006228e+17
19089.0	7.938167375484244e+17
19090.0	7.936780461757779e+17
19091.0	7.935271883855187e+17
19092.0	7.933717820123816e+17
19093.0	7.93224819192627e+17
19094.0	7.930717853974527e+17
19095.0	7.929194860249088e+17
19096.0	7.927680448069628e+17
19097.0	7.92616399606033e+17
19098.0	7.924641741930496e+17
19099.0	7.923116782474582e+17
19100.0	7.921582651473919e+17
19101.0	7.920063589209427e+17
19102.0	7.918499513674409e+17
19103.0	7.917008879004328e+17
19104.0	7.91547932259123e+17
19105.0	7.913946935022931e+17
19106.0	7.912394389629608e+17
19107.0	7.910875453194237e+17
19108.0	7.90934198349551e+17
19109.0	7.907364847310164e+17
19110.0	7.906235968563881e+17
19111.0	7.904748556517373e+17
19112.0	7.90321677013265e+17
19113.0	7.901681408802815e+17
19114.0	7.900144071955795e+17
19115.0	7.898586545127424e+17
19116.0	7.897055748598442e+17
19117.0	7.895514940265812e+17
19118.0	7.893929108875945e+17
19119.0	7.891319930224637e+17
19120.0	7.890855848662355e+17
19121.0	7.88932568826948e+17
19122.0	7.887816310652925e+17
19123.0	7.886271071737174e+17
19124.0	7.884693408055296e+17
19125.0	7.883175118940842e+17
19126.0	7.88162327539439e+17
19127.0	7.879355787116543e+17
19128.0	7.878380264707411e+17
19129.0	7.876941900851881e+17
19130.0	7.87542978994722e+17
19131.0	7.873880253267965e+17
19132.0	7.872325205273257e+17
19133.0	7.870689130315775e+17
19134.0	7.86914382848546e+17
19135.0	7.867663462869676e+17
19136.0	7.86610760117999e+17
19137.0	7.864482722217983e+17
19138.0	7.862983030647464e+17
19139.0	7.861432491529556e+17
19140.0	7.85987363091251e+17
19141.0	7.858312618617513e+17
19142.0	7.856739167414953e+17
19143.0	7.855165472942761e+17
19144.0	7.8536187604282e+17
19145.0	7.852056875717972e+17
19146.0	7.850224259869353e+17
19147.0	7.848888018927615e+17
19148.0	7.847353418164904e+17
19149.0	7.845784765246122e+17
19150.0	7.844213423778472e+17
19151.0	7.842645082636285e+17
19152.0	7.841070468213417e+17
19153.0	7.83948878638831e+17
19154.0	7.837869081799336e+17
19155.0	7.836344913668778e+17
19156.0	7.834762981583528e+17
19157.0	7.833153455172262e+17
19158.0	7.831346860785663e+17
19159.0	7.830005179831636e+17
19160.0	7.828442499601748e+17
19161.0	7.826725392089088e+17
19162.0	7.82431467671825e+17
19163.0	7.823366238328148e+17
19164.0	7.821849104045395e+17
19165.0	7.820258078709074e+17
19166.0	7.818626888717651e+17
19167.0	7.817028349984767e+17
19168.0	7.815489013852841e+17
19169.0	7.813900649103357e+17
19170.0	7.812323088880979e+17
19171.0	7.81070351012113e+17
19172.0	7.809134745354239e+17
19173.0	7.807543476748288e+17
19174.0	7.805925859524607e+17
19175.0	7.804351519129599e+17
19176.0	7.802751782223871e+17
19177.0	7.801081039945725e+17
19178.0	7.799524806361089e+17
19179.0	7.797900616663036e+17
19180.0	7.796328507637757e+17
19181.0	7.794689581951658e+17
19182.0	7.793116097194666e+17
19183.0	7.791515651451561e+17
19184.0	7.789895038096723e+17
19185.0	7.78829019812113e+17
19186.0	7.786678227828736e+17
19187.0	7.78503151891251e+17
19188.0	7.783444120251049e+17
19189.0	7.781820159841619e+17
19190.0	7.780193769532073e+17
19191.0	7.778574023000064e+17
19192.0	7.776955144688979e+17
19193.0	7.775321926052521e+17
19194.0	7.7736938831872e+17
19195.0	7.772059473368404e+17
19196.0	7.770408863749459e+17
19197.0	7.768739890069503e+17
19198.0	7.766953329076904e+17
19199.0	7.761214555116883e+17
19200.0	7.760589648560128e+17
19201.0	7.762064112790186e+17
19202.0	7.760558366042793e+17
19203.0	7.7589393730874e+17
19204.0	7.757308631886506e+17
19205.0	7.755678406585002e+17
19206.0	7.754027861278717e+17
19207.0	7.752354452821331e+17
19208.0	7.750649313056084e+17
19209.0	7.749076997111807e+17
19210.0	7.747419457104553e+17
19211.0	7.745758783952212e+17
19212.0	7.744094686849706e+17
19213.0	7.742368950255612e+17
19214.0	7.740679151856298e+17
19215.0	7.739074658609833e+17
19216.0	7.737420227979948e+17
19217.0	7.735742341403987e+17
19218.0	7.733720475762687e+17
19219.0	7.732300262058666e+17
19220.0	7.730683408198313e+17
19221.0	7.728874413271724e+17
19222.0	7.727310311172778e+17
19223.0	7.725623243265364e+17
19224.0	7.723913162610004e+17
19225.0	7.722170576098642e+17
19226.0	7.720522266356394e+17
19227.0	7.718817586566484e+17
19228.0	7.717123849715711e+17
19229.0	7.715415731994624e+17
19230.0	7.713703958238547e+17
19231.0	7.711993035926185e+17
19232.0	7.710271516005715e+17
19233.0	7.708525416065706e+17
19234.0	7.706827877777405e+17
19235.0	7.705103776961875e+17
19236.0	7.703388544303101e+17
19237.0	7.701653480975017e+17
19238.0	7.699883576961705e+17
19239.0	7.69819560448273e+17
19240.0	7.696437448714922e+17
19241.0	7.694700785958911e+17
19242.0	7.692968978808828e+17
19243.0	7.691150651555839e+17
19244.0	7.689484128747517e+17
19245.0	7.687732654505983e+17
19246.0	7.685971743080447e+17
19247.0	7.684220084289535e+17
19248.0	7.682460489875456e+17
19249.0	7.680696151703551e+17
19250.0	7.678927032025087e+17
19251.0	7.677093329851731e+17
19252.0	7.675225322465962e+17
19253.0	7.67358122660113e+17
19254.0	7.671802364952575e+17
19255.0	7.669933585814866e+17
19256.0	7.668221342296745e+17
19257.0	7.666446054195199e+17
19258.0	7.664652143383891e+17
19259.0	7.662820314666326e+17
19260.0	7.660970945369428e+17
19261.0	7.659250332816726e+17
19262.0	7.657419811323903e+17
19263.0	7.655603126839978e+17
19264.0	7.653592430630227e+17
19265.0	7.651897573900288e+17
19266.0	7.650076256108543e+17
19267.0	7.648291944660991e+17
19268.0	7.646442214653951e+17
19269.0	7.644587219397289e+17
19270.0	7.642724338849108e+17
19271.0	7.640726903630506e+17
19272.0	7.638738314199039e+17
19273.0	7.635922939368787e+17
19274.0	7.634260087974568e+17
19275.0	7.632829729647272e+17
19276.0	7.630931001780906e+17
19277.0	7.629042254959954e+17
19278.0	7.627138001797119e+17
19279.0	7.625226123389612e+17
19280.0	7.623281375619753e+17
19281.0	7.621389512430935e+17
19282.0	7.619459443326973e+17
19283.0	7.617482424582143e+17
19284.0	7.615519431589887e+17
19285.0	7.61357059437363e+17
19286.0	7.611672832595284e+17
19287.0	7.609728502857725e+17
19288.0	7.60640542570359e+17
19289.0	7.602583195615223e+17
19290.0	7.603809829606739e+17
19291.0	7.601710116285098e+17
19292.0	7.599836094267391e+17
19293.0	7.597832219394047e+17
19294.0	7.595826104762365e+17
19295.0	7.593809121290922e+17
19296.0	7.59178385686528e+17
19297.0	7.589749457245523e+17
19298.0	7.587700234955433e+17
19299.0	7.585657832603647e+17
19300.0	7.583597512185174e+17
19301.0	7.581527061124436e+17
19302.0	7.579445425253033e+17
19303.0	7.577330763431936e+17
19304.0	7.574941862636202e+17
19305.0	7.572280481677311e+17
19306.0	7.570167011038546e+17
19307.0	7.568006431375357e+17
19308.0	7.565869051805696e+17
19309.0	7.563598129790975e+17
19310.0	7.561363106824192e+17
19311.0	7.559358602805247e+17
19312.0	7.557204160806913e+17
19313.0	7.5550085363357e+17
19314.0	7.55030602949154e+17
19315.0	7.5482545492678e+17
19316.0	7.548334782109012e+17
19317.0	7.546113112408063e+17
19318.0	7.5438514793786e+17
19319.0	7.541591475137193e+17
19320.0	7.539307170496511e+17
19321.0	7.5370091001501e+17
19322.0	7.533353060969128e+17
19323.0	7.530989456020819e+17
19324.0	7.528686018363391e+17
19325.0	7.526236909731839e+17
19326.0	7.523946877069994e+17
19327.0	7.52156019925538e+17
19328.0	7.519158707159037e+17
19329.0	7.516732902080511e+17
19330.0	7.514272481411071e+17
19331.0	7.511804393553917e+17
19332.0	7.509340144883028e+17
19333.0	7.505805690186409e+17
19334.0	7.502441728354985e+17
19335.0	7.499883613956777e+17
19336.0	7.497301420059305e+17
19337.0	7.494696237181609e+17
19338.0	7.491983453629097e+17
19339.0	7.489423393073833e+17
19340.0	7.486729576164012e+17
19341.0	7.483127773528064e+17
19342.0	7.478664280495444e+17
19343.0	7.476034134518441e+17
19344.0	7.473223630673236e+17
19345.0	7.469645690830844e+17
19346.0	7.467194538175145e+17
19347.0	7.463522891988992e+17
19348.0	7.458464281744723e+17
19349.0	7.455473611571199e+17
19350.0	7.452462758406825e+17
19351.0	7.449421509121363e+17
19352.0	7.445022964886182e+17
19353.0	7.439205203793236e+17
19354.0	7.436036116316157e+17
19355.0	7.432797016118612e+17
19356.0	7.429590452535293e+17
19357.0	7.421504348924585e+17
19358.0	7.41801185124898e+17
19359.0	7.414579769726292e+17
19360.0	7.410890124383572e+17
19361.0	7.401802360859306e+17
19362.0	7.398241881904466e+17
19363.0	7.39462466240512e+17
19364.0	7.388126804705272e+17
19365.0	7.380170219803987e+17
19366.0	7.376254116997802e+17
19367.0	7.370174417425747e+17
19368.0	7.364280972913321e+17
19369.0	7.360129485766655e+17
19370.0	7.355900759113728e+17
19371.0	7.351692871161172e+17
19372.0	7.347414212717224e+17
19373.0	7.343053754160468e+17
19374.0	7.338643242177875e+17
19375.0	7.334157996086611e+17
19376.0	7.329611866876585e+17
19377.0	7.324993125875711e+17
19378.0	7.320303593411923e+17
19379.0	7.315538532717908e+17
19380.0	7.310696660336637e+17
19381.0	7.305775779850922e+17
19382.0	7.300327659973289e+17
19383.0	7.295209533953364e+17
19384.0	7.290053541756925e+17
19385.0	7.284768411134633e+17
19386.0	7.279391985893375e+17
19387.0	7.273918118581587e+17
19388.0	7.268330447219369e+17
19389.0	7.262608078580393e+17
19390.0	7.256162121198249e+17
19391.0	7.246495443058683e+17
19392.0	7.24398105567778e+17
19393.0	7.237946921626281e+17
19394.0	7.231726175999316e+17
19395.0	7.224712427296084e+17
19396.0	7.2175995336349e+17
19397.0	7.210986373119999e+17
19398.0	7.204203828434259e+17
19399.0	7.196469382261416e+17
19400.0	7.188271654240253e+17
19401.0	7.180949986301267e+17
19402.0	7.173237426006697e+17
19403.0	7.162990714770774e+17
19404.0	7.154986351154516e+17
19405.0	7.145021691483476e+17
19406.0	7.134909916599638e+17
19407.0	7.124579028478634e+17
19408.0	7.112578480209919e+17
19409.0	7.100888978729641e+17
19410.0	7.088290252805459e+17
19411.0	7.073389340524543e+17
19412.0	7.059436847060308e+17
19413.0	7.043469495238655e+17
19414.0	7.024797710723747e+17
19415.0	7.006703118363305e+17
19416.0	6.988901196147373e+17
19417.0	6.973163165100712e+17
19418.0	6.959426957912746e+17
19419.0	6.94541978051106e+17
19420.0	6.931104034455551e+17
19421.0	6.916158608725332e+17
19422.0	6.900292919143081e+17
19423.0	6.883486371676159e+17
19424.0	6.866445698159956e+17
19425.0	6.848079043668648e+17
19426.0	6.828668269625341e+17
19427.0	6.807975731658751e+17
19428.0	6.785660262285311e+17
19429.0	6.762176966557695e+17
19430.0	6.737699731931136e+17
19431.0	6.710716295806975e+17
19432.0	6.68212178137907e+17
19433.0	6.65061643185903e+17
19434.0	6.616397011834199e+17
19435.0	6.57949908201199e+17
19436.0	6.53979149349683e+17
19437.0	6.498587002623316e+17
19438.0	6.450597883194024e+17
19439.0	6.405551455294806e+17
19440.0	6.355302201600682e+17
19441.0	6.301420573687804e+17
19442.0	6.240638928420867e+17
19443.0	6.173714248892415e+17
19444.0	6.098497568767996e+17
19445.0	6.014612474429443e+17
19446.0	5.920300272538963e+17
19447.0	5.813592916667045e+17
19448.0	5.691902697406468e+17
19449.0	5.551316359184383e+17
19450.0	5.384347454537715e+17
19451.0	5.303317273335132e+17
19452.0	5.471422805704705e+17
19453.0	5.62253563131768e+17
19454.0	5.750611574259706e+17
19455.0	5.862021061585577e+17
19456.0	5.959895215330648e+17
19457.0	6.046413811788453e+17
19458.0	6.121373721515351e+17
19459.0	6.191590875856899e+17
19460.0	6.252977666217298e+17
19461.0	6.307916629235028e+17
19462.0	6.356761293706582e+17
19463.0	6.403376148032165e+17
19464.0	6.447715089121281e+17
19465.0	6.48828595138287e+17
19466.0	6.525990025035773e+17
19467.0	6.561570678461779e+17
19468.0	6.594809326906028e+17
19469.0	6.624949257808553e+17
19470.0	6.652755440915798e+17
19471.0	6.677449928605695e+17
19472.0	6.699992460121427e+17
19473.0	6.722031740867924e+17
19474.0	6.741652348949847e+17
19475.0	6.760747729507667e+17
19476.0	6.777849725146454e+17
19477.0	6.794512629585236e+17
19478.0	6.809282517401597e+17
19479.0	6.823459731188393e+17
19480.0	6.837272264922454e+17
19481.0	6.849944210112511e+17
19482.0	6.861840551597395e+17
19483.0	6.873272535394986e+17
19484.0	6.884576074924031e+17
19485.0	6.895969405414052e+17
19486.0	6.909962684290388e+17
19487.0	6.92745752752947e+17
19488.0	6.942041289610587e+17
19489.0	6.955002820733615e+17
19490.0	6.967733997185704e+17
19491.0	6.98018183022729e+17
19492.0	6.98937812765901e+17
19493.0	7.000842657857533e+17
19494.0	7.008229921914877e+17
19495.0	7.017700620500991e+17
19496.0	7.023634886776146e+17
19497.0	7.032462109223594e+17
19498.0	7.037445023465471e+17
19499.0	7.038712267407359e+17
19500.0	7.05040200306961e+17
19501.0	7.055138419463508e+17
19502.0	7.060014535540736e+17
19503.0	7.065658410576552e+17
19504.0	7.069744600798548e+17
19505.0	7.073678248378365e+17
19506.0	7.07746495271185e+17
19507.0	7.082342159308118e+17
19508.0	7.08585103434274e+17
19509.0	7.089237695747411e+17
19510.0	7.092448695506259e+17
19511.0	7.090582191079419e+17
19512.0	7.098417332704594e+17
19513.0	7.10084035835767e+17
19514.0	7.104204364928339e+17
19515.0	7.107934430778708e+17
19516.0	7.110766009603412e+17
19517.0	7.113291039331667e+17
19518.0	7.115756351957674e+17
19519.0	7.118109328539645e+17
19520.0	7.120507621780138e+17
19521.0	7.122918963500372e+17
19522.0	7.124991116050432e+17
19523.0	7.126998870654975e+17
19524.0	7.128921798257322e+17
19525.0	7.130764212000084e+17
19526.0	7.132543125378387e+17
19527.0	7.134250588788051e+17
19528.0	7.135892453283156e+17
19529.0	7.137466700005373e+17
19530.0	7.138977800082772e+17
19531.0	7.140440904739497e+17
19532.0	7.14184396374016e+17
19533.0	7.143185706210644e+17
19534.0	7.144634965469866e+17
19535.0	7.149386531689811e+17
19536.0	7.150494662612308e+17
19537.0	7.152629919864154e+17
19538.0	7.158997969447594e+17
19539.0	7.159677912263338e+17
19540.0	7.160640735718057e+17
19541.0	7.164157319883439e+17
19542.0	7.167526872722089e+17
19543.0	7.168131347425961e+17
19544.0	7.168694358638591e+17
19545.0	7.171537705282217e+17
19546.0	7.173916344014164e+17
19547.0	7.174648577217875e+17
19548.0	7.175015875215357e+17
19549.0	7.17581154586897e+17
19550.0	7.179375785716394e+17
19551.0	7.179608359873194e+17
19552.0	7.179812375014058e+17
19553.0	7.17997612343842e+17
19554.0	7.180217364425385e+17
19555.0	7.183207787134975e+17
19556.0	7.183262763275602e+17
19557.0	7.183287863388842e+17
19558.0	7.183288078696449e+17
19559.0	7.183259820272298e+17
19560.0	7.183183711830016e+17
19561.0	7.185048983131475e+17
19562.0	7.185252355145727e+17
19563.0	7.185091208587945e+17
19564.0	7.18490673750562e+17
19565.0	7.184698737775956e+17
19566.0	7.1844606523037e+17
19567.0	7.184215553955156e+17
19568.0	7.183929122138794e+17
19569.0	7.184358500029778e+17
19570.0	7.185004878626815e+17
19571.0	7.184654594124457e+17
19572.0	7.184274469945343e+17
19573.0	7.183894245102931e+17
19574.0	7.183456604433064e+17
19575.0	7.183077932881236e+17
19576.0	7.182640394272765e+17
19577.0	7.182185085796352e+17
19578.0	7.181706181563731e+17
19579.0	7.181228506262185e+17
19580.0	7.180732215241385e+17
19581.0	7.180828429778943e+17
19582.0	7.180873142457684e+17
19583.0	7.180326490428756e+17
19584.0	7.179764343242752e+17
19585.0	7.179143534521002e+17
19586.0	7.178540694197587e+17
19587.0	7.177983542427645e+17
19588.0	7.177214179846825e+17
19589.0	7.176768635710122e+17
19590.0	7.176116828285608e+17
19591.0	7.175505076464298e+17
19592.0	7.17485072449536e+17
19593.0	7.174176553041919e+17
19594.0	7.173407997165568e+17
19595.0	7.172810013846185e+17
19596.0	7.171743563120639e+17
19597.0	7.1714079782557e+17
19598.0	7.170589862483284e+17
19599.0	7.169977969453738e+17
19600.0	7.169975080976383e+17
19601.0	7.169214038496598e+17
19602.0	7.168459541927254e+17
19603.0	7.167494768121172e+17
19604.0	7.166903919312893e+17
19605.0	7.166023733433684e+17
19606.0	7.165359466130089e+17
19607.0	7.164559799702868e+17
19608.0	7.163748536025088e+17
19609.0	7.162913842965161e+17
19610.0	7.162108558966783e+17
19611.0	7.161275075264511e+17
19612.0	7.160438496165887e+17
19613.0	7.159592408580093e+17
19614.0	7.158719951405055e+17
19615.0	7.157877668052991e+17
19616.0	7.156975290111316e+17
19617.0	7.156137103196157e+17
19618.0	7.155032359873194e+17
19619.0	7.154088579956735e+17
19620.0	7.153213490156884e+17
19621.0	7.152578780113577e+17
19622.0	7.151675564709203e+17
19623.0	7.150765829958313e+17
19624.0	7.149850575503357e+17
19625.0	7.148929049165823e+17
19626.0	7.148001196419753e+17
19627.0	7.147062778221908e+17
19628.0	7.146021733793791e+17
19629.0	7.145118483436884e+17
19630.0	7.143720254876329e+17
19631.0	7.138687169768105e+17
19632.0	7.142266237878271e+17
19633.0	7.141342762587476e+17
19634.0	7.140395203603113e+17
19635.0	7.139406958471849e+17
19636.0	7.138638075439785e+17
19637.0	7.13771401154833e+17
19638.0	7.136904090047828e+17
19639.0	7.135897669599232e+17
19640.0	7.134858825782612e+17
19641.0	7.133638212015444e+17
19642.0	7.132869396092244e+17
19643.0	7.131849124653738e+17
19644.0	7.130798879320744e+17
19645.0	7.129691524344489e+17
19646.0	7.128772502006442e+17
19647.0	7.127740478128127e+17
19648.0	7.126704452883798e+17
19649.0	7.1256641648285e+17
19650.0	7.124622839382015e+17
19651.0	7.123577235745449e+17
19652.0	7.12252848218658e+17
19653.0	7.121475773399039e+17
19654.0	7.12042163015953e+17
19655.0	7.119361764491263e+17
19656.0	7.11829984780834e+17
19657.0	7.117238983895721e+17
19658.0	7.116172189237247e+17
19659.0	7.115101930083667e+17
19660.0	7.114030144203433e+17
19661.0	7.112954877050879e+17
19662.0	7.111876475355136e+17
19663.0	7.110774958850047e+17
19664.0	7.109696095780863e+17
19665.0	7.108626346934271e+17
19666.0	7.107531834916863e+17
