# Flux units: erg / (cm m2 s)
# Wavelength units: Angstrom
wave	flux
19000.0	7.553137546799785e+17
19001.0	7.551194301988861e+17
19002.0	7.550426754143572e+17
19003.0	7.54903687644228e+17
19004.0	7.54765285818368e+17
19005.0	7.546231714742271e+17
19006.0	7.544864350666751e+17
19007.0	7.543467356629676e+17
19008.0	7.54185371141188e+17
19009.0	7.539792320047782e+17
19010.0	7.537801346853545e+17
19011.0	7.537886289898152e+17
19012.0	7.536093942164138e+17
19013.0	7.535379845130921e+17
19014.0	7.533672000039593e+17
19015.0	7.532435099789996e+17
19016.0	7.531184210138451e+17
19017.0	7.529851952387412e+17
19018.0	7.528490548417876e+17
19019.0	7.527125333224105e+17
19020.0	7.525748529168383e+17
19021.0	7.524588314776914e+17
19022.0	7.523187369705471e+17
19023.0	7.521575322517501e+17
19024.0	7.520335163293696e+17
19025.0	7.518985954962089e+17
19026.0	7.517544720804521e+17
19027.0	7.516096230501033e+17
19028.0	7.51486637248785e+17
19029.0	7.513419867488255e+17
19030.0	7.512198646945108e+17
19031.0	7.510812272885757e+17
19032.0	7.509405285220351e+17
19033.0	7.507393034321917e+17
19034.0	7.506240480127658e+17
19035.0	7.503036050046973e+17
19036.0	7.48423194223138e+17
19037.0	7.50085248979217e+17
19038.0	7.500712264422739e+17
19039.0	7.499651544514557e+17
19040.0	7.498375307285844e+17
19041.0	7.496994973024255e+17
19042.0	7.495054095198889e+17
19043.0	7.494274754368854e+17
19044.0	7.492846381345448e+17
19045.0	7.491482021789693e+17
19046.0	7.489827343695871e+17
19047.0	7.488398482735103e+17
19048.0	7.486581074034687e+17
19049.0	7.485262327534931e+17
19050.0	7.483957595602943e+17
19051.0	7.480140685290152e+17
19052.0	7.480241109510824e+17
19053.0	7.480215462739965e+17
19054.0	7.478948385871187e+17
19055.0	7.476102830227461e+17
19056.0	7.476126999205204e+17
19057.0	7.4748736335162e+17
19058.0	7.473377518288896e+17
19059.0	7.472077158219775e+17
19060.0	7.470708963672061e+17
19061.0	7.469376663977981e+17
19062.0	7.46796010630895e+17
19063.0	7.466549433248426e+17
19064.0	7.464673028866047e+17
19065.0	7.462781151696212e+17
19066.0	7.461997560638122e+17
19067.0	7.460969756229632e+17
19068.0	7.45966247555891e+17
19069.0	7.45829775389491e+17
19070.0	7.456783136194557e+17
19071.0	7.455494076978515e+17
19072.0	7.45412309881105e+17
19073.0	7.452733553857876e+17
19074.0	7.45138708161058e+17
19075.0	7.449990575510868e+17
19076.0	7.448542817812479e+17
19077.0	7.447109292785664e+17
19078.0	7.44561412407296e+17
19079.0	7.444404748244308e+17
19080.0	7.442936586655062e+17
19081.0	7.441333959873875e+17
19082.0	7.44011552994099e+17
19083.0	7.438122275045373e+17
19084.0	7.435950204387327e+17
19085.0	7.43592916156416e+17
19086.0	7.432156863266815e+17
19087.0	7.432954049462271e+17
19088.0	7.431217371327145e+17
19089.0	7.429180192281942e+17
19090.0	7.428804142170113e+17
19091.0	7.427508894957568e+17
19092.0	7.425828676348586e+17
19093.0	7.424855772583251e+17
19094.0	7.423482483354284e+17
19095.0	7.422124412458326e+17
19096.0	7.420691670368253e+17
19097.0	7.419324309088938e+17
19098.0	7.417896615542783e+17
19099.0	7.41649477988079e+17
19100.0	7.415088836597076e+17
19101.0	7.413661587647145e+17
19102.0	7.411969661337599e+17
19103.0	7.41091621015825e+17
19104.0	7.409572873852242e+17
19105.0	7.408058959396861e+17
19106.0	7.406703584040276e+17
19107.0	7.405201967284224e+17
19108.0	7.403697305463464e+17
19109.0	7.401692057654612e+17
19110.0	7.400738788824403e+17
19111.0	7.399650262078803e+17
19112.0	7.39834669895953e+17
19113.0	7.396981752201216e+17
19114.0	7.395552343184722e+17
19115.0	7.393947972971178e+17
19116.0	7.392629335523327e+17
19117.0	7.391175280776532e+17
19118.0	7.388870053549396e+17
19119.0	7.37176449904365e+17
19120.0	7.386547575149908e+17
19121.0	7.385598636239532e+17
19122.0	7.384399658090493e+17
19123.0	7.383005191820628e+17
19124.0	7.381391454328148e+17
19125.0	7.380020116848639e+17
19126.0	7.377867959347881e+17
19127.0	7.370944090385068e+17
19128.0	7.374673472563881e+17
19129.0	7.373906430831272e+17
19130.0	7.373075452526591e+17
19131.0	7.371813752755539e+17
19132.0	7.370425187871402e+17
19133.0	7.368743234218666e+17
19134.0	7.367519386643113e+17
19135.0	7.366242292378281e+17
19136.0	7.364807078445055e+17
19137.0	7.362971695753898e+17
19138.0	7.361923768472918e+17
19139.0	7.360679674991955e+17
19140.0	7.359309419642879e+17
19141.0	7.357924832357033e+17
19142.0	7.356349787318953e+17
19143.0	7.354911675121663e+17
19144.0	7.353425873687891e+17
19145.0	7.352283606723242e+17
19146.0	7.347290188546053e+17
19147.0	7.349231489996118e+17
19148.0	7.34806167064849e+17
19149.0	7.346650509650602e+17
19150.0	7.345301248191145e+17
19151.0	7.343875938407764e+17
19152.0	7.342455369586003e+17
19153.0	7.340842881996116e+17
19154.0	7.339269460153686e+17
19155.0	7.338141673324543e+17
19156.0	7.336763813702313e+17
19157.0	7.335205376709974e+17
19158.0	7.333558158884863e+17
19159.0	7.332376408140457e+17
19160.0	7.330980311684436e+17
19161.0	7.329383664582656e+17
19162.0	7.326981811776169e+17
19163.0	7.326299845907796e+17
19164.0	7.325429719367679e+17
19165.0	7.324015620958889e+17
19166.0	7.322306436486484e+17
19167.0	7.321221555989161e+17
19168.0	7.31993081066291e+17
19169.0	7.318576668431699e+17
19170.0	7.317220378716842e+17
19171.0	7.315777799585791e+17
19172.0	7.314375826909866e+17
19173.0	7.313013149270015e+17
19174.0	7.311418430149972e+17
19175.0	7.310177406899539e+17
19176.0	7.308784994440532e+17
19177.0	7.306515221665106e+17
19178.0	7.305951893083476e+17
19179.0	7.304520237318143e+17
19180.0	7.303092683582121e+17
19181.0	7.301322139238399e+17
19182.0	7.300192051134463e+17
19183.0	7.298956216238079e+17
19184.0	7.297534605830825e+17
19185.0	7.296065212514304e+17
19186.0	7.294705869346131e+17
19187.0	7.292758792339453e+17
19188.0	7.291792012257962e+17
19189.0	7.290362877269331e+17
19190.0	7.288923983533396e+17
19191.0	7.2872825468573e+17
19192.0	7.286013673428308e+17
19193.0	7.284467913020755e+17
19194.0	7.282831424225279e+17
19195.0	7.281297058343594e+17
19196.0	7.279417256574973e+17
19197.0	7.277215353230675e+17
19198.0	7.273614792108713e+17
19199.0	7.264857138484564e+17
19200.0	7.264484694076074e+17
19201.0	7.269612118867968e+17
19202.0	7.27020809171763e+17
19203.0	7.269528190844927e+17
19204.0	7.268453211701247e+17
19205.0	7.267231638836563e+17
19206.0	7.265949010886653e+17
19207.0	7.263874011802281e+17
19208.0	7.262571519628628e+17
19209.0	7.261830556680191e+17
19210.0	7.26048546296081e+17
19211.0	7.25917219422208e+17
19212.0	7.257691785265151e+17
19213.0	7.255692859670525e+17
19214.0	7.254389612522153e+17
19215.0	7.253349964797268e+17
19216.0	7.251907382870015e+17
19217.0	7.250024905135444e+17
19218.0	7.24644907922227e+17
19219.0	7.246088476732072e+17
19220.0	7.245891974987775e+17
19221.0	7.243836993918292e+17
19222.0	7.243039179975336e+17
19223.0	7.241820161441792e+17
19224.0	7.240211454317908e+17
19225.0	7.238718140885674e+17
19226.0	7.237540007029417e+17
19227.0	7.236155644837887e+17
19228.0	7.234897149515092e+17
19229.0	7.233464011762345e+17
19230.0	7.232004489041235e+17
19231.0	7.230512724705279e+17
19232.0	7.22912069952034e+17
19233.0	7.227310716136105e+17
19234.0	7.226191350071296e+17
19235.0	7.224586255641257e+17
19236.0	7.223369077009066e+17
19237.0	7.221862294268585e+17
19238.0	7.219993871646717e+17
19239.0	7.218992420050259e+17
19240.0	7.217522590526121e+17
19241.0	7.215961839676074e+17
19242.0	7.214547566504617e+17
19243.0	7.212123606919848e+17
19244.0	7.211739415663956e+17
19245.0	7.210239626226345e+17
19246.0	7.208757759049727e+17
19247.0	7.207257506840575e+17
19248.0	7.205867525679786e+17
19249.0	7.204399509493075e+17
19250.0	7.202815607483049e+17
19251.0	7.200864649347067e+17
19252.0	7.198111228581204e+17
19253.0	7.198396908219049e+17
19254.0	7.197042496154284e+17
19255.0	7.194343906126502e+17
19256.0	7.193970305488212e+17
19257.0	7.192595685266772e+17
19258.0	7.191125543966036e+17
19259.0	7.189137253728253e+17
19260.0	7.187615975473151e+17
19261.0	7.186508788269055e+17
19262.0	7.184674984034301e+17
19263.0	7.182808110508713e+17
19264.0	7.179846024516947e+17
19265.0	7.179470651086164e+17
19266.0	7.178176035815424e+17
19267.0	7.177496385202858e+17
19268.0	7.175968338739199e+17
19269.0	7.174433861009407e+17
19270.0	7.172704083902463e+17
19271.0	7.170199684557484e+17
19272.0	7.169590337470463e+17
19273.0	7.166386532341075e+17
19274.0	7.164082409613989e+17
19275.0	7.165319764246527e+17
19276.0	7.163755885843795e+17
19277.0	7.162254717878272e+17
19278.0	7.160748121085267e+17
19279.0	7.1590228290874e+17
19280.0	7.157382695441747e+17
19281.0	7.156001615992147e+17
19282.0	7.154490915771731e+17
19283.0	7.152897840818858e+17
19284.0	7.151073922558633e+17
19285.0	7.149359857314472e+17
19286.0	7.14782013530658e+17
19287.0	7.146114506205865e+17
19288.0	7.137034489561083e+17
19289.0	7.131069972567372e+17
19290.0	7.141321775688361e+17
19291.0	7.138680099569669e+17
19292.0	7.138756504409428e+17
19293.0	7.13721588621858e+17
19294.0	7.135582213199187e+17
19295.0	7.134093154189311e+17
19296.0	7.132389023853225e+17
19297.0	7.130637711791442e+17
19298.0	7.129019181607594e+17
19299.0	7.12753222394402e+17
19300.0	7.125952614105087e+17
19301.0	7.124294215663615e+17
19302.0	7.122554228222632e+17
19303.0	7.120640500127059e+17
19304.0	7.11928046629683e+17
19305.0	7.117570012348415e+17
19306.0	7.115859117998079e+17
19307.0	7.114015582978047e+17
19308.0	7.112341594308607e+17
19309.0	7.110464580354045e+17
19310.0	7.1085265518592e+17
19311.0	7.107084495618047e+17
19312.0	7.105583689760768e+17
19313.0	7.10376814612753e+17
19314.0	7.084538155674284e+17
19315.0	7.084050869824186e+17
19316.0	7.098564354244608e+17
19317.0	7.097046490152959e+17
19318.0	7.095374133067773e+17
19319.0	7.093728811068074e+17
19320.0	7.091884962873343e+17
19321.0	7.089946944165204e+17
19322.0	7.087993848332288e+17
19323.0	7.086208677052415e+17
19324.0	7.084439234412543e+17
19325.0	7.082612585660415e+17
19326.0	7.080875250417663e+17
19327.0	7.079090653757439e+17
19328.0	7.077210120781823e+17
19329.0	7.075412354007039e+17
19330.0	7.073455878963199e+17
19331.0	7.071393652932607e+17
19332.0	7.069755243145897e+17
19333.0	7.067588153922899e+17
19334.0	7.06575287329314e+17
19335.0	7.063701539870036e+17
19336.0	7.061855177889108e+17
19337.0	7.059882526812842e+17
19338.0	7.056737537010342e+17
19339.0	7.055856015944361e+17
19340.0	7.053385025628842e+17
19341.0	7.051220181756586e+17
19342.0	7.048379551623849e+17
19343.0	7.047273656265386e+17
19344.0	7.04450681512482e+17
19345.0	7.035958587293692e+17
19346.0	7.035676913216168e+17
19347.0	7.038171601349288e+17
19348.0	7.036679209265833e+17
19349.0	7.034345348923391e+17
19350.0	7.032231116319401e+17
19351.0	7.0299659810461e+17
19352.0	7.027531637762729e+17
19353.0	7.025594764099583e+17
19354.0	7.023061472990548e+17
19355.0	7.020127218302977e+17
19356.0	7.018357062631423e+17
19357.0	7.015949966245887e+17
19358.0	7.01349848224017e+17
19359.0	7.010946827070121e+17
19360.0	7.008411489839786e+17
19361.0	7.006102250760874e+17
19362.0	7.003795126310227e+17
19363.0	7.001302670245887e+17
19364.0	6.998449887816361e+17
19365.0	6.995695320607402e+17
19366.0	6.993102252976809e+17
19367.0	6.990415284666365e+17
19368.0	6.987614991854249e+17
19369.0	6.984661927810387e+17
19370.0	6.981847015751679e+17
19371.0	6.978802217385981e+17
19372.0	6.976239004811261e+17
19373.0	6.973219202400255e+17
19374.0	6.970386319147007e+17
19375.0	6.967322457669631e+17
19376.0	6.963988477422249e+17
19377.0	6.960888700818772e+17
19378.0	6.957775525511167e+17
19379.0	6.954604872160596e+17
19380.0	6.951366002649769e+17
19381.0	6.948017200431103e+17
19382.0	6.944171819881812e+17
19383.0	6.940689709400063e+17
19384.0	6.937508708002474e+17
19385.0	6.934057415868415e+17
19386.0	6.930324970449577e+17
19387.0	6.926330987107668e+17
19388.0	6.922182010950996e+17
19389.0	6.918042694975487e+17
19390.0	6.913408524528297e+17
19391.0	6.894813006441119e+17
19392.0	6.902847018194259e+17
19393.0	6.901167627960319e+17
19394.0	6.896938672018772e+17
19395.0	6.892276700326569e+17
19396.0	6.887555832217597e+17
19397.0	6.882789019003562e+17
19398.0	6.877732340935338e+17
19399.0	6.870758415051433e+17
19400.0	6.866939710275583e+17
19401.0	6.862553883869183e+17
19402.0	6.856883826589693e+17
19403.0	6.851159765549055e+17
19404.0	6.845525217946281e+17
19405.0	6.839526581687636e+17
19406.0	6.833490722379094e+17
19407.0	6.827215849259007e+17
19408.0	6.818735657233066e+17
19409.0	6.813758646474067e+17
19410.0	6.807297985260201e+17
19411.0	6.799975386185727e+17
19412.0	6.792331254562815e+17
19413.0	6.784621707176617e+17
19414.0	6.776482470122835e+17
19415.0	6.768155794516652e+17
19416.0	6.758607048321704e+17
19417.0	6.75024062189841e+17
19418.0	6.740936907642198e+17
19419.0	6.731297017823232e+17
19420.0	6.721178713107114e+17
19421.0	6.71074726445056e+17
19422.0	6.699671077169833e+17
19423.0	6.688457362855252e+17
19424.0	6.67663098445824e+17
19425.0	6.663969996887379e+17
19426.0	6.650553325759146e+17
19427.0	6.636469236006911e+17
19428.0	6.621744270584489e+17
19429.0	6.606295263434067e+17
19430.0	6.588982534777514e+17
19431.0	6.570377164969302e+17
19432.0	6.554265547964413e+17
19433.0	6.535034246092116e+17
19434.0	6.514409086124031e+17
19435.0	6.491536517409448e+17
19436.0	6.467060815101951e+17
19437.0	6.441954964056745e+17
19438.0	6.394798690096471e+17
19439.0	6.381651043024895e+17
19440.0	6.353752903297706e+17
19441.0	6.318851320272211e+17
19442.0	6.280231189654188e+17
19443.0	6.237329856047786e+17
19444.0	6.189144326449832e+17
19445.0	6.134484672621228e+17
19446.0	6.071533664818516e+17
19447.0	5.997813120892923e+17
19448.0	5.909273106186244e+17
19449.0	5.799300981675348e+17
19450.0	5.6500971893336646e+17
19451.0	5.555740362844843e+17
19452.0	5.7320252025514656e+17
19453.0	5.855136050752174e+17
19454.0	5.95063715886967e+17
19455.0	6.02865450090496e+17
19456.0	6.094081387484504e+17
19457.0	6.150023488907944e+17
19458.0	6.167500648262355e+17
19459.0	6.239365360167602e+17
19460.0	6.28035766399795e+17
19461.0	6.315042964941482e+17
19462.0	6.34628781253154e+17
19463.0	6.374531441273513e+17
19464.0	6.400625055105023e+17
19465.0	6.424373119767894e+17
19466.0	6.446270649117353e+17
19467.0	6.46700495675938e+17
19468.0	6.485741433520127e+17
19469.0	6.502628486458024e+17
19470.0	6.519389585844905e+17
19471.0	6.534813968935594e+17
19472.0	6.549122449757523e+17
19473.0	6.562198825817427e+17
19474.0	6.57457405895202e+17
19475.0	6.583906450363731e+17
19476.0	6.597186707346771e+17
19477.0	6.608255928587604e+17
19478.0	6.618020856201215e+17
19479.0	6.627016454788436e+17
19480.0	6.635450190703274e+17
19481.0	6.643666842725033e+17
19482.0	6.651421021700095e+17
19483.0	6.65881919234594e+17
19484.0	6.66567367074338e+17
19485.0	6.672211365942612e+17
19486.0	6.678512001176916e+17
19487.0	6.684646770562387e+17
19488.0	6.690137161334783e+17
19489.0	6.693941680974506e+17
19490.0	6.696420276262227e+17
19491.0	6.705100203840851e+17
19492.0	6.710123941942612e+17
19493.0	6.714529903804413e+17
19494.0	6.718384294417747e+17
19495.0	6.72188718977297e+17
19496.0	6.723953624787625e+17
19497.0	6.727962578299561e+17
19498.0	6.725080894319272e+17
19499.0	6.711657003395753e+17
19500.0	6.737050280307369e+17
19501.0	6.740967688940201e+17
19502.0	6.743724488916991e+17
19503.0	6.746270344762708e+17
19504.0	6.748608081341097e+17
19505.0	6.750713921142783e+17
19506.0	6.752962617540608e+17
19507.0	6.7550251057152e+17
19508.0	6.756980718829565e+17
19509.0	6.758487688216575e+17
19510.0	6.758797802471424e+17
19511.0	6.730540481424028e+17
19512.0	6.756141771347283e+17
19513.0	6.755646487658491e+17
19514.0	6.758985099815589e+17
19515.0	6.765851845154132e+17
19516.0	6.76872041005056e+17
19517.0	6.769858842722303e+17
19518.0	6.771061006445225e+17
19519.0	6.771941725001044e+17
19520.0	6.772773480650067e+17
19521.0	6.773675576175273e+17
19522.0	6.774155494031359e+17
19523.0	6.774976344489983e+17
19524.0	6.775506751280468e+17
19525.0	6.775979587054249e+17
19526.0	6.776574497346899e+17
19527.0	6.777174451989162e+17
19528.0	6.777566371250175e+17
19529.0	6.777861148333395e+17
19530.0	6.778198289285119e+17
19531.0	6.778495957641898e+17
19532.0	6.778788985700351e+17
19533.0	6.778998577168383e+17
19534.0	6.779110827229184e+17
19535.0	6.779134851503444e+17
19536.0	6.779084779203241e+17
19537.0	6.779191657758719e+17
19538.0	6.778471870453078e+17
19539.0	6.777788428189696e+17
19540.0	6.779178756778666e+17
19541.0	6.779265330009428e+17
19542.0	6.779085941025449e+17
19543.0	6.778818274525183e+17
19544.0	6.778484987439785e+17
19545.0	6.775957751507626e+17
19546.0	6.775059176401577e+17
19547.0	6.777798592386387e+17
19548.0	6.77790717382929e+17
19549.0	6.77714909881958e+17
19550.0	6.777561561781588e+17
19551.0	6.7772214687389e+17
19552.0	6.776813776098644e+17
19553.0	6.776316042936319e+17
19554.0	6.775906891377321e+17
19555.0	6.77549077307938e+17
19556.0	6.775107332603903e+17
19557.0	6.774608793436159e+17
19558.0	6.774194433949695e+17
19559.0	6.773789738838697e+17
19560.0	6.773079183895209e+17
19561.0	6.77252871295249e+17
19562.0	6.772037374006612e+17
19563.0	6.771592519133865e+17
19564.0	6.770963781779453e+17
19565.0	6.770333492532564e+17
19566.0	6.769584686934697e+17
19567.0	6.769041037328383e+17
19568.0	6.768193207009277e+17
19569.0	6.767615108186111e+17
19570.0	6.767167613698047e+17
19571.0	6.766455724965887e+17
19572.0	6.76550636732416e+17
19573.0	6.764956762505215e+17
19574.0	6.763661019665747e+17
19575.0	6.763535113650175e+17
19576.0	6.762756236290729e+17
19577.0	6.761843610266281e+17
19578.0	6.761037521660586e+17
19579.0	6.760195752110761e+17
19580.0	6.75948646244898e+17
19581.0	6.758803433324544e+17
19582.0	6.758138259352234e+17
19583.0	6.757340990668797e+17
19584.0	6.756459098406911e+17
19585.0	6.754922894721023e+17
19586.0	6.753906677077334e+17
19587.0	6.753635542586708e+17
19588.0	6.751353824433494e+17
19589.0	6.75170366923298e+17
19590.0	6.750742204033706e+17
19591.0	6.750295906320384e+17
19592.0	6.749468853185194e+17
19593.0	6.748438809717417e+17
19594.0	6.74619597276228e+17
19595.0	6.746534841767252e+17
19596.0	6.745217412978004e+17
19597.0	6.744732138296659e+17
19598.0	6.74238066537267e+17
19599.0	6.742876508301994e+17
19600.0	6.741993104692563e+17
19601.0	6.740703824576511e+17
19602.0	6.739489867169791e+17
19603.0	6.737612872089597e+17
19604.0	6.737586064894633e+17
19605.0	6.735644436987908e+17
19606.0	6.736140716823892e+17
19607.0	6.735224483698003e+17
19608.0	6.734126729483604e+17
19609.0	6.732962180978003e+17
19610.0	6.732172559209812e+17
19611.0	6.731126032826367e+17
19612.0	6.73021318730001e+17
19613.0	6.729185243081385e+17
19614.0	6.728106370225491e+17
19615.0	6.727284782268415e+17
19616.0	6.726076629079382e+17
19617.0	6.724991199827284e+17
19618.0	6.721396091999572e+17
19619.0	6.71962573779763e+17
19620.0	6.719564366741503e+17
19621.0	6.720791253090303e+17
19622.0	6.720079215460351e+17
19623.0	6.71907382820864e+17
19624.0	6.718041406570496e+17
19625.0	6.717102375305215e+17
19626.0	6.715895377646931e+17
19627.0	6.714725294058154e+17
19628.0	6.71315967222306e+17
19629.0	6.710898824227497e+17
19630.0	6.70623921812275e+17
19631.0	6.69971505095202e+17
19632.0	6.70739529343522e+17
19633.0	6.707601099543892e+17
19634.0	6.707223654825983e+17
19635.0	6.706010795627859e+17
19636.0	6.705143213632169e+17
19637.0	6.701775293076824e+17
19638.0	6.70307753918464e+17
19639.0	6.702000985778857e+17
19640.0	6.700073430461097e+17
19641.0	6.696795061092356e+17
19642.0	6.698705507145044e+17
19643.0	6.697629890467155e+17
19644.0	6.696151120084991e+17
19645.0	6.694641521568425e+17
19646.0	6.694371756518058e+17
19647.0	6.693421483119956e+17
19648.0	6.692306608455677e+17
19649.0	6.691198619440467e+17
19650.0	6.69012195418658e+17
19651.0	6.688979211867476e+17
19652.0	6.687851801127594e+17
19653.0	6.686786115862527e+17
19654.0	6.685608920831316e+17
19655.0	6.684456925178538e+17
19656.0	6.683400663116457e+17
19657.0	6.682254619880106e+17
19658.0	6.681167962395988e+17
19659.0	6.68003480965393e+17
19660.0	6.678938371751935e+17
19661.0	6.677776330042025e+17
19662.0	6.676648216057172e+17
19663.0	6.675345176526845e+17
19664.0	6.674315142146729e+17
19665.0	6.673296600159572e+17
