# Flux units: erg / (cm m2 s)
# Wavelength units: Angstrom
wave	flux
19000.0	5.431697935958015e+17
19001.0	5.430552986735956e+17
19002.0	5.4297073430473376e+17
19003.0	5.428706373795839e+17
19004.0	5.4277132052507296e+17
19005.0	5.4267035880434323e+17
19006.0	5.4257152967748256e+17
19007.0	5.424725601812479e+17
19008.0	5.4236420264427514e+17
19009.0	5.422595174301696e+17
19010.0	5.420985156457811e+17
19011.0	5.4206924576522234e+17
19012.0	5.419449094679209e+17
19013.0	5.418751736414207e+17
19014.0	5.4176883908717216e+17
19015.0	5.416699452282198e+17
19016.0	5.4156879392494925e+17
19017.0	5.414783766145706e+17
19018.0	5.41376932688691e+17
19019.0	5.4127854333460474e+17
19020.0	5.4117813365418656e+17
19021.0	5.410812847281492e+17
19022.0	5.409813847255721e+17
19023.0	5.4087711782338534e+17
19024.0	5.40778442138146e+17
19025.0	5.406826937275733e+17
19026.0	5.405796470882304e+17
19027.0	5.4046920232577696e+17
19028.0	5.403868861038591e+17
19029.0	5.402853196343978e+17
19030.0	5.401898172896596e+17
19031.0	5.4009148029446816e+17
19032.0	5.399910836163924e+17
19033.0	5.3987934239457274e+17
19034.0	5.397904676793002e+17
19035.0	5.3967958300426234e+17
19036.0	5.382843686802766e+17
19037.0	5.394877945391785e+17
19038.0	5.3939396558192634e+17
19039.0	5.3929875250435405e+17
19040.0	5.392008101232638e+17
19041.0	5.39100909211921e+17
19042.0	5.389398733837652e+17
19043.0	5.3890499033606816e+17
19044.0	5.3880455535001594e+17
19045.0	5.3870632174441805e+17
19046.0	5.385992591289002e+17
19047.0	5.3850685364852045e+17
19048.0	5.383702892773374e+17
19049.0	5.381990771589118e+17
19050.0	5.3820451479442765e+17
19051.0	5.379200272476839e+17
19052.0	5.379819431439018e+17
19053.0	5.3791744942844576e+17
19054.0	5.378195289975465e+17
19055.0	5.3766983673446406e+17
19056.0	5.376133147830953e+17
19057.0	5.3752320505501005e+17
19058.0	5.373708560498685e+17
19059.0	5.373060815257599e+17
19060.0	5.372255041224704e+17
19061.0	5.3713050509421216e+17
19062.0	5.3703133790644896e+17
19063.0	5.3693319224142496e+17
19064.0	5.3681730313256954e+17
19065.0	5.367124735645013e+17
19066.0	5.3661128507173536e+17
19067.0	5.365385237539498e+17
19068.0	5.364419717147306e+17
19069.0	5.363439114037929e+17
19070.0	5.3624130348864845e+17
19071.0	5.361460280557568e+17
19072.0	5.360290666031785e+17
19073.0	5.359504236827989e+17
19074.0	5.3585299510394874e+17
19075.0	5.357548448950954e+17
19076.0	5.3565381082262176e+17
19077.0	5.355560034981204e+17
19078.0	5.354539553128447e+17
19079.0	5.3536210019505485e+17
19080.0	5.3526253217163936e+17
19081.0	5.351596942688255e+17
19082.0	5.350623692892842e+17
19083.0	5.349574154300074e+17
19084.0	5.3484275112782496e+17
19085.0	5.347721286953641e+17
19086.0	5.3459853889590605e+17
19087.0	5.3450595809361914e+17
19088.0	5.3444012849233914e+17
19089.0	5.343433378671274e+17
19090.0	5.342797690656085e+17
19091.0	5.3417935099658234e+17
19092.0	5.340361368360278e+17
19093.0	5.3399150811327136e+17
19094.0	5.338940977796437e+17
19095.0	5.337964208979968e+17
19096.0	5.3369629726911136e+17
19097.0	5.336006477043028e+17
19098.0	5.3348067732794016e+17
19099.0	5.333787223261183e+17
19100.0	5.333035223700821e+17
19101.0	5.3320914179194874e+17
19102.0	5.3309388679195296e+17
19103.0	5.3301435495874554e+17
19104.0	5.3291776768737274e+17
19105.0	5.3277176165826554e+17
19106.0	5.327169735622655e+17
19107.0	5.3260990668253856e+17
19108.0	5.32508376703522e+17
19109.0	5.323564015506772e+17
19110.0	5.3232668029310285e+17
19111.0	5.322209773311315e+17
19112.0	5.321216300679167e+17
19113.0	5.320400024808106e+17
19114.0	5.319333271393621e+17
19115.0	5.318350089486336e+17
19116.0	5.3174547013522765e+17
19117.0	5.3164742862875296e+17
19118.0	5.3153413292796576e+17
19119.0	5.3008979813116365e+17
19120.0	5.3134473619483296e+17
19121.0	5.312541204938752e+17
19122.0	5.311651835630932e+17
19123.0	5.310681736456873e+17
19124.0	5.3096509051589965e+17
19125.0	5.3087316227741005e+17
19126.0	5.3077349449946445e+17
19127.0	5.304122841847123e+17
19128.0	5.305751650172926e+17
19129.0	5.3047390536116896e+17
19130.0	5.3038653612141216e+17
19131.0	5.302912390179498e+17
19132.0	5.3019415870614176e+17
19133.0	5.3008973605546656e+17
19134.0	5.2999837174114976e+17
19135.0	5.2990315055458976e+17
19136.0	5.298069940382377e+17
19137.0	5.296866004566015e+17
19138.0	5.29611079426594e+17
19139.0	5.295165740679167e+17
19140.0	5.294200193023999e+17
19141.0	5.2932324433592314e+17
19142.0	5.292227286095189e+17
19143.0	5.2912090971286176e+17
19144.0	5.2902748403793914e+17
19145.0	5.289357124567039e+17
19146.0	5.287494905320789e+17
19147.0	5.287288429521578e+17
19148.0	5.2862836965812896e+17
19149.0	5.2852813928420685e+17
19150.0	5.284519217201151e+17
19151.0	5.2835552738672634e+17
19152.0	5.282581071964841e+17
19153.0	5.281242227758419e+17
19154.0	5.280446459936766e+17
19155.0	5.279692590415871e+17
19156.0	5.278727397179391e+17
19157.0	5.277607144019286e+17
19158.0	5.2760823782004045e+17
19159.0	5.275791652115796e+17
19160.0	5.274847906452821e+17
19161.0	5.273890295818922e+17
19162.0	5.271789645070335e+17
19163.0	5.271894225147221e+17
19164.0	5.271010928492543e+17
19165.0	5.269625265367721e+17
19166.0	5.2688677649776634e+17
19167.0	5.268021377499136e+17
19168.0	5.267158594486272e+17
19169.0	5.2661799214557856e+17
19170.0	5.2652428223665485e+17
19171.0	5.2642134045491194e+17
19172.0	5.263309406208e+17
19173.0	5.2623579451228154e+17
19174.0	5.261310696620032e+17
19175.0	5.2604345694289914e+17
19176.0	5.259473969654441e+17
19177.0	5.25829392179746e+17
19178.0	5.257515868618752e+17
19179.0	5.256496554180607e+17
19180.0	5.255619653140479e+17
19181.0	5.254450771918846e+17
19182.0	5.2536918538540365e+17
19183.0	5.252758821841578e+17
19184.0	5.2517946645981843e+17
19185.0	5.2508244472845645e+17
19186.0	5.249878240264192e+17
19187.0	5.248835868338857e+17
19188.0	5.247957542633471e+17
19189.0	5.247006758229332e+17
19190.0	5.246042124932437e+17
19191.0	5.245034206418259e+17
19192.0	5.244128488412501e+17
19193.0	5.2431121610178554e+17
19194.0	5.2421121865154554e+17
19195.0	5.2412416587202554e+17
19196.0	5.2402470431402656e+17
19197.0	5.2392722875897165e+17
19198.0	5.2381807521300474e+17
19199.0	5.230045891832489e+17
19200.0	5.231088567844865e+17
19201.0	5.23533314826786e+17
19202.0	5.2345068200482125e+17
19203.0	5.2335567458795514e+17
19204.0	5.232593969261225e+17
19205.0	5.2316716816575136e+17
19206.0	5.2307129287748256e+17
19207.0	5.229617598868138e+17
19208.0	5.228455239789225e+17
19209.0	5.2278547468779514e+17
19210.0	5.226904713254228e+17
19211.0	5.2259700685318816e+17
19212.0	5.225009419823785e+17
19213.0	5.2238866130315936e+17
19214.0	5.222888419011243e+17
19215.0	5.2221211752529914e+17
19216.0	5.221198337496404e+17
19217.0	5.220224900355412e+17
19218.0	5.21811889767492e+17
19219.0	5.218121851863039e+17
19220.0	5.2173457427442336e+17
19221.0	5.215974004708693e+17
19222.0	5.2154607756902394e+17
19223.0	5.2145006638530554e+17
19224.0	5.2135147542500685e+17
19225.0	5.2124175697619616e+17
19226.0	5.211641321532073e+17
19227.0	5.2106964035611296e+17
19228.0	5.2097789582813856e+17
19229.0	5.208826202554366e+17
19230.0	5.207863834181632e+17
19231.0	5.2069069708328954e+17
19232.0	5.2059639598721696e+17
19233.0	5.20492680356386e+17
19234.0	5.204040078065662e+17
19235.0	5.203075760739669e+17
19236.0	5.2021714051836576e+17
19237.0	5.2011952557260794e+17
19238.0	5.2001289308296525e+17
19239.0	5.199326126363988e+17
19240.0	5.198370642941267e+17
19241.0	5.197397066689193e+17
19242.0	5.196456729597269e+17
19243.0	5.19530736726835e+17
19244.0	5.194582619499178e+17
19245.0	5.193625737975123e+17
19246.0	5.1926609564794874e+17
19247.0	5.191723649772202e+17
19248.0	5.1907894503451296e+17
19249.0	5.1898220110588576e+17
19250.0	5.188788465347242e+17
19251.0	5.187722977214462e+17
19252.0	5.186600287163732e+17
19253.0	5.1860086400395936e+17
19254.0	5.185103292530687e+17
19255.0	5.183891110712659e+17
19256.0	5.183174504786603e+17
19257.0	5.182259469833556e+17
19258.0	5.181314967797759e+17
19259.0	5.1802665679585274e+17
19260.0	5.17909918130722e+17
19261.0	5.17845590020369e+17
19262.0	5.1774404375347194e+17
19263.0	5.1764720734044154e+17
19264.0	5.174794964172798e+17
19265.0	5.174370143393108e+17
19266.0	5.173257405726719e+17
19267.0	5.172800860629673e+17
19268.0	5.171846316031998e+17
19269.0	5.170905029629268e+17
19270.0	5.1699537419086496e+17
19271.0	5.1684983785390074e+17
19272.0	5.1680210786276685e+17
19273.0	5.1666313183668896e+17
19274.0	5.165553703802196e+17
19275.0	5.1652407730722125e+17
19276.0	5.1642677385844045e+17
19277.0	5.163332252904106e+17
19278.0	5.1623823332256403e+17
19279.0	5.161420168276649e+17
19280.0	5.160381558642004e+17
19281.0	5.1595463727513594e+17
19282.0	5.1586246856321696e+17
19283.0	5.1575897774708064e+17
19284.0	5.1566826208187725e+17
19285.0	5.155550175515988e+17
19286.0	5.1547543566636365e+17
19287.0	5.1538464911742285e+17
19288.0	5.1494119772869926e+17
19289.0	5.14310805162119e+17
19290.0	5.1510112465278285e+17
19291.0	5.149740613588309e+17
19292.0	5.149156176472746e+17
19293.0	5.1482055961914016e+17
19294.0	5.147253786978985e+17
19295.0	5.146330218015402e+17
19296.0	5.145150674873002e+17
19297.0	5.144363099925161e+17
19298.0	5.1434548946971296e+17
19299.0	5.1422949431487136e+17
19300.0	5.141592736967339e+17
19301.0	5.140659783947605e+17
19302.0	5.13970464166161e+17
19303.0	5.1386671169535994e+17
19304.0	5.137789328119125e+17
19305.0	5.136863439006378e+17
19306.0	5.1359297212252154e+17
19307.0	5.134918034128896e+17
19308.0	5.134005918411434e+17
19309.0	5.1328240229635405e+17
19310.0	5.1317780425386656e+17
19311.0	5.131128491649706e+17
19312.0	5.130246739897002e+17
19313.0	5.1292919778945696e+17
19314.0	5.100960121967942e+17
19315.0	5.102571245010988e+17
19316.0	5.126121661486421e+17
19317.0	5.1255233992458234e+17
19318.0	5.1245856122907296e+17
19319.0	5.1236658797172045e+17
19320.0	5.1226267590765216e+17
19321.0	5.121573392482302e+17
19322.0	5.1207171420979194e+17
19323.0	5.119777080431956e+17
19324.0	5.1189111719635616e+17
19325.0	5.117749521022975e+17
19326.0	5.117032545998164e+17
19327.0	5.11607447818513e+17
19328.0	5.114727852845738e+17
19329.0	5.114209033519104e+17
19330.0	5.1132049416082765e+17
19331.0	5.11224181756177e+17
19332.0	5.1113608997765114e+17
19333.0	5.110390234371413e+17
19334.0	5.1094492765224954e+17
19335.0	5.107651866263553e+17
19336.0	5.107542535438335e+17
19337.0	5.1066005003523405e+17
19338.0	5.1053494380352845e+17
19339.0	5.104692542920021e+17
19340.0	5.1034184419901434e+17
19341.0	5.102363801725609e+17
19342.0	5.1011311992395085e+17
19343.0	5.100817653344938e+17
19344.0	5.0995329960509434e+17
19345.0	5.0956068206236954e+17
19346.0	5.096628139939156e+17
19347.0	5.0964928156139514e+17
19348.0	5.0960358783494816e+17
19349.0	5.0950314515933856e+17
19350.0	5.0939236499237536e+17
19351.0	5.0930929910852243e+17
19352.0	5.091659325549225e+17
19353.0	5.091229324105044e+17
19354.0	5.090267350695935e+17
19355.0	5.0891574721467725e+17
19356.0	5.088325800383828e+17
19357.0	5.0873586001728845e+17
19358.0	5.086378924703742e+17
19359.0	5.085253618805417e+17
19360.0	5.084043646686547e+17
19361.0	5.08335078122018e+17
19362.0	5.082407501823998e+17
19363.0	5.08142592004369e+17
19364.0	5.0804406759369376e+17
19365.0	5.079454628620971e+17
19366.0	5.078465641097898e+17
19367.0	5.0774752442886816e+17
19368.0	5.0764617962837325e+17
19369.0	5.075380094369791e+17
19370.0	5.074392119771135e+17
19371.0	5.073369064013824e+17
19372.0	5.072371633356798e+17
19373.0	5.0713085178019834e+17
19374.0	5.0703125250921805e+17
19375.0	5.0692987485334176e+17
19376.0	5.0682834235774285e+17
19377.0	5.0672423239243085e+17
19378.0	5.066217653359958e+17
19379.0	5.065128268879189e+17
19380.0	5.064016531554302e+17
19381.0	5.0629636885490336e+17
19382.0	5.061812289885524e+17
19383.0	5.060707670294527e+17
19384.0	5.0597638225701523e+17
19385.0	5.058635917601451e+17
19386.0	5.0575630321145165e+17
19387.0	5.056475099561983e+17
19388.0	5.055377293617834e+17
19389.0	5.054264075004587e+17
19390.0	5.053110431689385e+17
19391.0	5.039824227183257e+17
19392.0	5.050506232375978e+17
19393.0	5.049632755985066e+17
19394.0	5.0484672980145485e+17
19395.0	5.0471676621619194e+17
19396.0	5.046078783793834e+17
19397.0	5.04492826173986e+17
19398.0	5.043548673365332e+17
19399.0	5.041156684862804e+17
19400.0	5.0409414129090554e+17
19401.0	5.039794519627093e+17
19402.0	5.038508983626409e+17
19403.0	5.037158672891902e+17
19404.0	5.0358340564637e+17
19405.0	5.0344255078181536e+17
19406.0	5.0328461055972685e+17
19407.0	5.0312485567201274e+17
19408.0	5.028680513006253e+17
19409.0	5.028299782750207e+17
19410.0	5.0265558596539725e+17
19411.0	5.0249466701851296e+17
19412.0	5.0231022543612576e+17
19413.0	5.021023987215019e+17
19414.0	5.0191872658418336e+17
19415.0	5.0169495130821965e+17
19416.0	5.014384345961813e+17
19417.0	5.012127179167059e+17
19418.0	5.0093975470953805e+17
19419.0	5.00633003307827e+17
19420.0	5.0033522981382803e+17
19421.0	5.0007795658915834e+17
19422.0	4.9979753933482656e+17
19423.0	4.9953447307728205e+17
19424.0	4.992541607504553e+17
19425.0	4.9892625146183674e+17
19426.0	4.985970140468564e+17
19427.0	4.982145507743059e+17
19428.0	4.9782238642612896e+17
19429.0	4.973429511946239e+17
19430.0	4.967832220248745e+17
19431.0	4.9594680216999264e+17
19432.0	4.9537632425738195e+17
19433.0	4.9444292454427283e+17
19434.0	4.930871690439332e+17
19435.0	4.9194016447310496e+17
19436.0	4.910699951510868e+17
19437.0	4.9026623039952205e+17
19438.0	4.868598050149718e+17
19439.0	4.879754550662485e+17
19440.0	4.864777617320617e+17
19441.0	4.840737990508541e+17
19442.0	4.799561806293678e+17
19443.0	4.752796032521562e+17
19444.0	4.724870258622461e+17
19445.0	4.6928371132661786e+17
19446.0	4.6444185082920986e+17
19447.0	4.5454883700080646e+17
19448.0	4.445206768254978e+17
19449.0	4.317884587180033e+17
19450.0	3.967526553780272e+17
19451.0	3.748216834446701e+17
19452.0	4.18920113285802e+17
19453.0	4.3911393186938925e+17
19454.0	4.487389114269681e+17
19455.0	4.598456219161968e+17
19456.0	4.664592263981746e+17
19457.0	4.70022804594142e+17
19458.0	4.644434407500605e+17
19459.0	4.758585765178044e+17
19460.0	4.808345868653912e+17
19461.0	4.8370368576662176e+17
19462.0	4.8546735802286054e+17
19463.0	4.866155179846314e+17
19464.0	4.875244656743766e+17
19465.0	4.8828622118584326e+17
19466.0	4.889556412618068e+17
19467.0	4.896321525077331e+17
19468.0	4.9084276013356384e+17
19469.0	4.916944318059859e+17
19470.0	4.9243549905278266e+17
19471.0	4.929498935285075e+17
19472.0	4.933433456678228e+17
19473.0	4.936526023972181e+17
19474.0	4.938709383599444e+17
19475.0	4.939837015239336e+17
19476.0	4.9427404012475725e+17
19477.0	4.944356079304702e+17
19478.0	4.945573811585024e+17
19479.0	4.9461994996804256e+17
19480.0	4.9473183917888845e+17
19481.0	4.9481047329122976e+17
19482.0	4.9491098307570336e+17
19483.0	4.95043143078161e+17
19484.0	4.951433531796138e+17
19485.0	4.952058140557311e+17
19486.0	4.952522531099989e+17
19487.0	4.9531555655188474e+17
19488.0	4.9535967888233805e+17
19489.0	4.95334758355217e+17
19490.0	4.9514329306125626e+17
19491.0	4.95353305707315e+17
19492.0	4.953415086680746e+17
19493.0	4.9533663593540256e+17
19494.0	4.953040563994623e+17
19495.0	4.9526762523415885e+17
19496.0	4.951645699265876e+17
19497.0	4.95197208182784e+17
19498.0	4.9502946482367155e+17
19499.0	4.931317781932699e+17
19500.0	4.9505513864779085e+17
19501.0	4.950086444384255e+17
19502.0	4.9496263026715296e+17
19503.0	4.9491102054481914e+17
19504.0	4.9485263807010125e+17
19505.0	4.9479177095959885e+17
19506.0	4.947317866102783e+17
19507.0	4.946643135408809e+17
19508.0	4.94603218330146e+17
19509.0	4.9453525270964896e+17
19510.0	4.944250158448638e+17
19511.0	4.8991199863766637e+17
19512.0	4.940387057663993e+17
19513.0	4.9367626148741024e+17
19514.0	4.9379787624065645e+17
19515.0	4.940470195759788e+17
19516.0	4.9404882543356576e+17
19517.0	4.939708474501801e+17
19518.0	4.939058778210302e+17
19519.0	4.938318327666004e+17
19520.0	4.9373198435396256e+17
19521.0	4.9369118517056845e+17
19522.0	4.9360507701821434e+17
19523.0	4.935300091128489e+17
19524.0	4.9344868973718176e+17
19525.0	4.9339106062936736e+17
19526.0	4.9331507277332474e+17
19527.0	4.932346181233321e+17
19528.0	4.9315262248605005e+17
19529.0	4.93070996996096e+17
19530.0	4.929966042338645e+17
19531.0	4.929175622953642e+17
19532.0	4.928442564171093e+17
19533.0	4.927631139012606e+17
19534.0	4.926812900207274e+17
19535.0	4.925971545194496e+17
19536.0	4.9251197966964045e+17
19537.0	4.924350606781098e+17
19538.0	4.923081781586602e+17
19539.0	4.921853038559235e+17
19540.0	4.921866732262741e+17
19541.0	4.921014177060181e+17
19542.0	4.9202232166099616e+17
19543.0	4.9191124341882874e+17
19544.0	4.918608706666495e+17
19545.0	4.917071724238163e+17
19546.0	4.9155634958609056e+17
19547.0	4.916136569208832e+17
19548.0	4.915302372474879e+17
19549.0	4.9143199742033894e+17
19550.0	4.9136161315444045e+17
19551.0	4.912774979256319e+17
19552.0	4.911927239813802e+17
19553.0	4.9110461563535354e+17
19554.0	4.910169114804224e+17
19555.0	4.9093275759411194e+17
19556.0	4.908512462591317e+17
19557.0	4.907674425273003e+17
19558.0	4.906825419849727e+17
19559.0	4.905977748215124e+17
19560.0	4.9049806251403936e+17
19561.0	4.9042332770631674e+17
19562.0	4.9032997487247354e+17
19563.0	4.902565849683285e+17
19564.0	4.9017103388945056e+17
19565.0	4.900850013743785e+17
19566.0	4.8999523823561376e+17
19567.0	4.899138733517481e+17
19568.0	4.898250642074281e+17
19569.0	4.8973930348325536e+17
19570.0	4.896606040795817e+17
19571.0	4.8957415597888845e+17
19572.0	4.894840690398549e+17
19573.0	4.893968826717525e+17
19574.0	4.893026823088809e+17
19575.0	4.892311037149183e+17
19576.0	4.8914244004304205e+17
19577.0	4.890501975812778e+17
19578.0	4.8896601181825696e+17
19579.0	4.8888253992577696e+17
19580.0	4.887966271580842e+17
19581.0	4.8871157988502176e+17
19582.0	4.886280461265578e+17
19583.0	4.885418064827732e+17
19584.0	4.8845477215819085e+17
19585.0	4.8835266371474765e+17
19586.0	4.882622219375957e+17
19587.0	4.881914539627861e+17
19588.0	4.88039276015343e+17
19589.0	4.8802001269555194e+17
19590.0	4.8791764860928e+17
19591.0	4.8784979064258554e+17
19592.0	4.877641430248106e+17
19593.0	4.87672608002321e+17
19594.0	4.875524661488297e+17
19595.0	4.875013765201919e+17
19596.0	4.874073914649257e+17
19597.0	4.873304277341524e+17
19598.0	4.8716422571185466e+17
19599.0	4.871584017110357e+17
19600.0	4.8707351633810765e+17
19601.0	4.8697718296193696e+17
19602.0	4.868920896214357e+17
19603.0	4.867418704838654e+17
19604.0	4.8671985598027085e+17
19605.0	4.865972112457728e+17
19606.0	4.8655371554433696e+17
19607.0	4.864686384218111e+17
19608.0	4.863797249791316e+17
19609.0	4.8628804161809056e+17
19610.0	4.8619419847010976e+17
19611.0	4.86099682136337e+17
19612.0	4.860365637331625e+17
19613.0	4.859486509116074e+17
19614.0	4.8585811804815354e+17
19615.0	4.8577687766521165e+17
19616.0	4.856652523459924e+17
19617.0	4.8557961933837645e+17
19618.0	4.854252366550356e+17
19619.0	4.853124232293031e+17
19620.0	4.85232635753267e+17
19621.0	4.852269515625812e+17
19622.0	4.8517222756952736e+17
19623.0	4.850843687845887e+17
19624.0	4.8499373483840845e+17
19625.0	4.849131265370794e+17
19626.0	4.84825548980224e+17
19627.0	4.84739258655266e+17
19628.0	4.8463380273780045e+17
19629.0	4.8447572585130656e+17
19630.0	4.8440303639592954e+17
19631.0	4.8359747151899296e+17
19632.0	4.8429865408047763e+17
19633.0	4.842131445951145e+17
19634.0	4.841355292093098e+17
19635.0	4.840409580000596e+17
19636.0	4.83928672777011e+17
19637.0	4.8379857504392525e+17
19638.0	4.8378677122389325e+17
19639.0	4.837038603195734e+17
19640.0	4.836040798546602e+17
19641.0	4.833245941552474e+17
19642.0	4.8344295832289274e+17
19643.0	4.833565567789739e+17
19644.0	4.8326452969472e+17
19645.0	4.83146113098274e+17
19646.0	4.830652539775657e+17
19647.0	4.8301562899988474e+17
19648.0	4.829298482828629e+17
19649.0	4.8284330392289274e+17
19650.0	4.8275805399504205e+17
19651.0	4.826713899575978e+17
19652.0	4.825851355638442e+17
19653.0	4.8249946900179616e+17
19654.0	4.8241309884525216e+17
19655.0	4.8232650729936205e+17
