# Flux units: erg / (cm m2 s)
# Wavelength units: Angstrom
wave	flux
19000.0	6.581918146144938e+17
19001.0	6.580643420263764e+17
19002.0	6.579460591583231e+17
19003.0	6.578230614731433e+17
19004.0	6.577000740640084e+17
19005.0	6.57577288470801e+17
19006.0	6.574543579643904e+17
19007.0	6.573305567204691e+17
19008.0	6.572055916270932e+17
19009.0	6.570822688134484e+17
19010.0	6.569407139894612e+17
19011.0	6.56838145081344e+17
19012.0	6.567115843349161e+17
19013.0	6.565937332005545e+17
19014.0	6.564675161074346e+17
19015.0	6.563455864318634e+17
19016.0	6.562220375452329e+17
19017.0	6.561005528853161e+17
19018.0	6.559780097927849e+17
19019.0	6.558552232209065e+17
19020.0	6.557308974093652e+17
19021.0	6.55609455181824e+17
19022.0	6.554871657747795e+17
19023.0	6.553622164799487e+17
19024.0	6.552399397956265e+17
19025.0	6.551179785229652e+17
19026.0	6.549938550865919e+17
19027.0	6.548703299676842e+17
19028.0	6.547495647008084e+17
19029.0	6.546258709708797e+17
19030.0	6.545037268265642e+17
19031.0	6.54380822045218e+17
19032.0	6.542579174735872e+17
19033.0	6.541308466997929e+17
19034.0	6.540121133634899e+17
19035.0	6.538875456804179e+17
19036.0	6.53617709117167e+17
19037.0	6.536434562717012e+17
19038.0	6.53519479845683e+17
19039.0	6.533977752644265e+17
19040.0	6.532749304616276e+17
19041.0	6.531520686718973e+17
19042.0	6.53025479823633e+17
19043.0	6.52906444497442e+17
19044.0	6.52783517696e+17
19045.0	6.526608167578282e+17
19046.0	6.525356814456147e+17
19047.0	6.524147393888255e+17
19048.0	6.522828338408106e+17
19049.0	6.521667546600788e+17
19050.0	6.52044973253154e+17
19051.0	6.518992448869716e+17
19052.0	6.517983091709267e+17
19053.0	6.516787141148671e+17
19054.0	6.515559903177385e+17
19055.0	6.514214718581417e+17
19056.0	6.513095864920746e+17
19057.0	6.511874999495337e+17
19058.0	6.510647227449343e+17
19059.0	6.509425676954281e+17
19060.0	6.50818818810402e+17
19061.0	6.506973168140287e+17
19062.0	6.505744692150271e+17
19063.0	6.504519556923391e+17
19064.0	6.503240919853737e+17
19065.0	6.501986527958356e+17
19066.0	6.500814713520127e+17
19067.0	6.499616715440127e+17
19068.0	6.498391534774953e+17
19069.0	6.497166622545236e+17
19070.0	6.495930024984575e+17
19071.0	6.494716469531988e+17
19072.0	6.493491472018089e+17
19073.0	6.492264146665471e+17
19074.0	6.491041980306771e+17
19075.0	6.489817393834665e+17
19076.0	6.488582968224425e+17
19077.0	6.487362955640831e+17
19078.0	6.48613092008482e+17
19079.0	6.484920482398208e+17
19080.0	6.483693671546879e+17
19081.0	6.482454453944319e+17
19082.0	6.481227519361023e+17
19083.0	6.479974563315711e+17
19084.0	6.478693132140543e+17
19085.0	6.477579252924415e+17
19086.0	6.476182425960447e+17
19087.0	6.475088054452224e+17
19088.0	6.473878395508052e+17
19089.0	6.472580921819135e+17
19090.0	6.471451857824425e+17
19091.0	6.470230622601215e+17
19092.0	6.468989953769471e+17
19093.0	6.467799025188863e+17
19094.0	6.46657054220834e+17
19095.0	6.465347270650538e+17
19096.0	6.464125506945023e+17
19097.0	6.462911411126272e+17
19098.0	6.461691296481279e+17
19099.0	6.460469848047615e+17
19100.0	6.459246524760063e+17
19101.0	6.458027606889812e+17
19102.0	6.456762687990441e+17
19103.0	6.455587189555199e+17
19104.0	6.454366795988991e+17
19105.0	6.453146503086077e+17
19106.0	6.451918206752084e+17
19107.0	6.450699613241343e+17
19108.0	6.449486531046057e+17
19109.0	6.448137088532479e+17
19110.0	6.447045339862356e+17
19111.0	6.445828248611497e+17
19112.0	6.444609133608959e+17
19113.0	6.443390111580159e+17
19114.0	6.442171209089023e+17
19115.0	6.440933945333076e+17
19116.0	6.439723279755946e+17
19117.0	6.438506075258879e+17
19118.0	6.437255491092479e+17
19119.0	6.4343459275735e+17
19120.0	6.434848723959807e+17
19121.0	6.433633646673919e+17
19122.0	6.432425414492159e+17
19123.0	6.431206832865279e+17
19124.0	6.42998273712674e+17
19125.0	6.428771993255936e+17
19126.0	6.427553152281257e+17
19127.0	6.425540893693267e+17
19128.0	6.425069831411028e+17
19129.0	6.423866263295316e+17
19130.0	6.422685261234173e+17
19131.0	6.421471240912895e+17
19132.0	6.420253974200319e+17
19133.0	6.41892729557265e+17
19134.0	6.417802461533523e+17
19135.0	6.416607813304319e+17
19136.0	6.415392530497535e+17
19137.0	6.414102042421929e+17
19138.0	6.41295227953698e+17
19139.0	6.411745721581565e+17
19140.0	6.410531097280511e+17
19141.0	6.409316007411711e+17
19142.0	6.408089600611668e+17
19143.0	6.40686157341218e+17
19144.0	6.405660217791828e+17
19145.0	6.404457086582783e+17
19146.0	6.402974906231466e+17
19147.0	6.401986143802708e+17
19148.0	6.40081356460305e+17
19149.0	6.399599767278932e+17
19150.0	6.398381851148287e+17
19151.0	6.397172638198442e+17
19152.0	6.395955518286506e+17
19153.0	6.394735779031721e+17
19154.0	6.393472797900799e+17
19155.0	6.392318689017855e+17
19156.0	6.391104131825664e+17
19157.0	6.389890188399956e+17
19158.0	6.388587674555731e+17
19159.0	6.3874574857885e+17
19160.0	6.386249995299498e+17
19161.0	6.385034375550292e+17
19162.0	6.383623200571392e+17
19163.0	6.382612856351402e+17
19164.0	6.381403838436691e+17
19165.0	6.380186958299133e+17
19166.0	6.378924618197674e+17
19167.0	6.377748403235497e+17
19168.0	6.376531134425769e+17
19169.0	6.375325778837504e+17
19170.0	6.374131104044372e+17
19171.0	6.372907484359338e+17
19172.0	6.371708365701119e+17
19173.0	6.370496635469823e+17
19174.0	6.369259217223679e+17
19175.0	6.368074417220265e+17
19176.0	6.366863141371904e+17
19177.0	6.365582445598036e+17
19178.0	6.364436207326548e+17
19179.0	6.363212514241193e+17
19180.0	6.362010688159743e+17
19181.0	6.360755992177321e+17
19182.0	6.3595822986909e+17
19183.0	6.358384592814079e+17
19184.0	6.35715303121442e+17
19185.0	6.355960407435946e+17
19186.0	6.354752059211776e+17
19187.0	6.353513707732991e+17
19188.0	6.352330021317289e+17
19189.0	6.351119260669267e+17
19190.0	6.349907445153791e+17
19191.0	6.348684407078911e+17
19192.0	6.347489642807295e+17
19193.0	6.346275881134762e+17
19194.0	6.34506181747234e+17
19195.0	6.343857941774336e+17
19196.0	6.342642357676714e+17
19197.0	6.341432117122388e+17
19198.0	6.340223709478911e+17
19199.0	6.337806943125503e+17
19200.0	6.337000968465066e+17
19201.0	6.336593196832084e+17
19202.0	6.335385038749695e+17
19203.0	6.334175140031146e+17
19204.0	6.33295275696674e+17
19205.0	6.331754117857279e+17
19206.0	6.330537286653268e+17
19207.0	6.329288880728746e+17
19208.0	6.328025860450985e+17
19209.0	6.326912191649108e+17
19210.0	6.325701284200445e+17
19211.0	6.324490053790377e+17
19212.0	6.323279796458835e+17
19213.0	6.322028609011711e+17
19214.0	6.32080198340881e+17
19215.0	6.319642143708499e+17
19216.0	6.318431955582976e+17
19217.0	6.317223989739519e+17
19218.0	6.315635492869459e+17
19219.0	6.314729256168106e+17
19220.0	6.313578276235945e+17
19221.0	6.312228208771071e+17
19222.0	6.311164257850708e+17
19223.0	6.309952287145983e+17
19224.0	6.308716023032489e+17
19225.0	6.307461303981396e+17
19226.0	6.30630875468049e+17
19227.0	6.30509449388578e+17
19228.0	6.303892006502397e+17
19229.0	6.302678727873876e+17
19230.0	6.301463700220586e+17
19231.0	6.300245776400383e+17
19232.0	6.299030627811327e+17
19233.0	6.297791777909418e+17
19234.0	6.296599293941076e+17
19235.0	6.295385964281855e+17
19236.0	6.294181664260095e+17
19237.0	6.292959490211839e+17
19238.0	6.291709517714771e+17
19239.0	6.290537385208489e+17
19240.0	6.289275018543103e+17
19241.0	6.288081114103805e+17
19242.0	6.286881444593663e+17
19243.0	6.285593984106495e+17
19244.0	6.284455868104703e+17
19245.0	6.283239270383615e+17
19246.0	6.282014279860223e+17
19247.0	6.280803069722623e+17
19248.0	6.279585521991679e+17
19249.0	6.278365552050175e+17
19250.0	6.277138003001344e+17
19251.0	6.275872942893737e+17
19252.0	6.274574655509844e+17
19253.0	6.27347629941282e+17
19254.0	6.272259277367978e+17
19255.0	6.270958362951679e+17
19256.0	6.269806805603667e+17
19257.0	6.268600767741951e+17
19258.0	6.267377258506921e+17
19259.0	6.266120359815849e+17
19260.0	6.264901792869034e+17
19261.0	6.263705092926121e+17
19262.0	6.262457055401299e+17
19263.0	6.26122761122611e+17
19264.0	6.259782986672808e+17
19265.0	6.258711340602708e+17
19266.0	6.257488812834815e+17
19267.0	6.256343267322537e+17
19268.0	6.255113735066964e+17
19269.0	6.253883512848383e+17
19270.0	6.252651900218024e+17
19271.0	6.251268302787924e+17
19272.0	6.250171295858687e+17
19273.0	6.247615212202664e+17
19274.0	6.246962802196477e+17
19275.0	6.246484229313875e+17
19276.0	6.245238981700265e+17
19277.0	6.244003710937769e+17
19278.0	6.242772712772948e+17
19279.0	6.241525088387072e+17
19280.0	6.240264838447104e+17
19281.0	6.239071811316394e+17
19282.0	6.237837724046675e+17
19283.0	6.236575503482879e+17
19284.0	6.235327145093802e+17
19285.0	6.234007439496532e+17
19286.0	6.232838136048297e+17
19287.0	6.231605723004927e+17
19288.0	6.229951543334228e+17
19289.0	6.228126932314793e+17
19290.0	6.227851228129962e+17
19291.0	6.22647619686673e+17
19292.0	6.225340651274239e+17
19293.0	6.224079182888959e+17
19294.0	6.222823848673279e+17
19295.0	6.221562901779796e+17
19296.0	6.22030029394193e+17
19297.0	6.219034859143167e+17
19298.0	6.217761069290836e+17
19299.0	6.216501459681279e+17
19300.0	6.215230519159465e+17
19301.0	6.213955604534612e+17
19302.0	6.21267772313873e+17
19303.0	6.211370257219583e+17
19304.0	6.210108393870676e+17
19305.0	6.208838927646719e+17
19306.0	6.207559873243818e+17
19307.0	6.206254491194708e+17
19308.0	6.204976819514025e+17
19309.0	6.203658534387711e+17
19310.0	6.202343003521023e+17
19311.0	6.201092901000532e+17
19312.0	6.199805850856106e+17
19313.0	6.198501989941245e+17
19314.0	6.196125949580628e+17
19315.0	6.19488887247121e+17
19316.0	6.194588210779476e+17
19317.0	6.193277852188671e+17
19318.0	6.191951626545834e+17
19319.0	6.190639639866025e+17
19320.0	6.189312762707967e+17
19321.0	6.18778142581282e+17
19322.0	6.185956414936404e+17
19323.0	6.184646535894356e+17
19324.0	6.18332505121314e+17
19325.0	6.181942867263487e+17
19326.0	6.180632119301459e+17
19327.0	6.179271972924072e+17
19328.0	6.177921566419625e+17
19329.0	6.176559457807018e+17
19330.0	6.175173584267944e+17
19331.0	6.17379892489967e+17
19332.0	6.172440057785002e+17
19333.0	6.171058306547712e+17
19334.0	6.169666113590612e+17
19335.0	6.16827550048802e+17
19336.0	6.166873696982356e+17
19337.0	6.165464842851668e+17
19338.0	6.163957399508308e+17
19339.0	6.162635203892563e+17
19340.0	6.16117514150434e+17
19341.0	6.159764316050771e+17
19342.0	6.158155959850324e+17
19343.0	6.156883094842026e+17
19344.0	6.155427353285972e+17
19345.0	6.15306229081702e+17
19346.0	6.152120774426623e+17
19347.0	6.150973581251924e+17
19348.0	6.149515516750505e+17
19349.0	6.148003087777791e+17
19350.0	6.146492229571924e+17
19351.0	6.144971061766825e+17
19352.0	6.143417978104489e+17
19353.0	6.141910709523796e+17
19354.0	6.140358320717823e+17
19355.0	6.13875488723217e+17
19356.0	6.137215895732223e+17
19357.0	6.135626918614356e+17
19358.0	6.134013390837076e+17
19359.0	6.132338255025492e+17
19360.0	6.130763419702611e+17
19361.0	6.129122192741716e+17
19362.0	6.127484307942057e+17
19363.0	6.125810918359039e+17
19364.0	6.124120917235028e+17
19365.0	6.122416387741012e+17
19366.0	6.120693394920788e+17
19367.0	6.118609944313855e+17
19368.0	6.116226108839252e+17
19369.0	6.114408795908778e+17
19370.0	6.112490516294313e+17
19371.0	6.110794432031402e+17
19372.0	6.108973711927978e+17
19373.0	6.107097066373119e+17
19374.0	6.105214325795497e+17
19375.0	6.103296602625364e+17
19376.0	6.101355748567722e+17
19377.0	6.099385265946624e+17
19378.0	6.09739198308898e+17
19379.0	6.09536928907264e+17
19380.0	6.093316236683946e+17
19381.0	6.091231517300052e+17
19382.0	6.08844248199987e+17
19383.0	6.085567098563242e+17
19384.0	6.083424460035412e+17
19385.0	6.081190361912659e+17
19386.0	6.078919839754921e+17
19387.0	6.076605986242559e+17
19388.0	6.074248831434751e+17
19389.0	6.07184630194722e+17
19390.0	6.068737659284137e+17
19391.0	6.063831538554195e+17
19392.0	6.062549971763199e+17
19393.0	6.05994617999633e+17
19394.0	6.0572675618461e+17
19395.0	6.054321833639932e+17
19396.0	6.049501333334697e+17
19397.0	6.04661035897105e+17
19398.0	6.043632807881386e+17
19399.0	6.039583379335848e+17
19400.0	6.03469903962658e+17
19401.0	6.031475524064596e+17
19402.0	6.0271998023325e+17
19403.0	6.021378094399487e+17
19404.0	6.017782964202153e+17
19405.0	6.010391567357265e+17
19406.0	6.005972559112873e+17
19407.0	5.997593848272211e+17
19408.0	5.991231028985853e+17
19409.0	5.983552025919487e+17
19410.0	5.97360474744423e+17
19411.0	5.965964571049981e+17
19412.0	5.959555520746836e+17
19413.0	5.954075504585386e+17
19414.0	5.948351245713408e+17
19415.0	5.942399337496575e+17
19416.0	5.936128712507391e+17
19417.0	5.929691313602559e+17
19418.0	5.922610988012884e+17
19419.0	5.915179675374932e+17
19420.0	5.907810379715924e+17
19421.0	5.900107876663295e+17
19422.0	5.89208922165521e+17
19423.0	5.882660441642323e+17
19424.0	5.873673233760255e+17
19425.0	5.863900227917139e+17
19426.0	5.853003180059305e+17
19427.0	5.841464326793897e+17
19428.0	5.828931237533015e+17
19429.0	5.814582285172735e+17
19430.0	5.797936040509441e+17
19431.0	5.778370314196308e+17
19432.0	5.753626514074291e+17
19433.0	5.721279931875329e+17
19434.0	5.687956218751655e+17
19435.0	5.6653862942365e+17
19436.0	5.641759128988331e+17
19437.0	5.616426858927443e+17
19438.0	5.587337742385149e+17
19439.0	5.5594033848429235e+17
19440.0	5.5266491162951686e+17
19441.0	5.4899211955950906e+17
19442.0	5.44409913043627e+17
19443.0	5.3782691292992774e+17
19444.0	5.300111663955965e+17
19445.0	5.232702060669614e+17
19446.0	5.153142780635817e+17
19447.0	5.039659697220256e+17
19448.0	4.894332338656605e+17
19449.0	4.691571313562964e+17
19450.0	4.314184713327944e+17
19451.0	4.206759728818839e+17
19452.0	4.515627333757621e+17
19453.0	4.808314507143861e+17
19454.0	4.965042335602e+17
19455.0	5.0976923222452915e+17
19456.0	5.187377463033859e+17
19457.0	5.2574696355048083e+17
19458.0	5.3232836864027366e+17
19459.0	5.400314161834671e+17
19460.0	5.452122813715798e+17
19461.0	5.489863251984384e+17
19462.0	5.5224048399592115e+17
19463.0	5.551583198707711e+17
19464.0	5.577466662529706e+17
19465.0	5.601926034314582e+17
19466.0	5.624070755669332e+17
19467.0	5.644552904551081e+17
19468.0	5.6690745247006803e+17
19469.0	5.702498516642473e+17
19470.0	5.72821725406822e+17
19471.0	5.747584942822745e+17
19472.0	5.7632899975522995e+17
19473.0	5.776071356055551e+17
19474.0	5.787073522259284e+17
19475.0	5.797208709049001e+17
19476.0	5.805720506553684e+17
19477.0	5.814283826888704e+17
19478.0	5.821107803608403e+17
19479.0	5.828203421630461e+17
19480.0	5.834571558595242e+17
19481.0	5.840195047216468e+17
19482.0	5.84547364171503e+17
19483.0	5.850439106254164e+17
19484.0	5.855751009118888e+17
19485.0	5.860119958345044e+17
19486.0	5.864206203092991e+17
19487.0	5.868044978312531e+17
19488.0	5.871616088429908e+17
19489.0	5.874910011675988e+17
19490.0	5.877456760209405e+17
19491.0	5.883557370484055e+17
19492.0	5.889957959477925e+17
19493.0	5.8953538455907e+17
19494.0	5.901697504597331e+17
19495.0	5.905620351844352e+17
19496.0	5.909488775899818e+17
19497.0	5.913210806861825e+17
19498.0	5.916507837388116e+17
19499.0	5.916074826530811e+17
19500.0	5.922200849394346e+17
19501.0	5.923228714620244e+17
19502.0	5.924302606041088e+17
19503.0	5.92760272916753e+17
19504.0	5.92833479110383e+17
19505.0	5.928995421246804e+17
19506.0	5.929783823171585e+17
19507.0	5.932205348661929e+17
19508.0	5.93264353878562e+17
19509.0	5.933016552920404e+17
19510.0	5.933246998467924e+17
19511.0	5.931385506234365e+17
19512.0	5.934463537468756e+17
19513.0	5.934910282574505e+17
19514.0	5.935306720499027e+17
19515.0	5.935585229275135e+17
19516.0	5.935813437860521e+17
19517.0	5.93577045533218e+17
19518.0	5.935738122141695e+17
19519.0	5.935639470713513e+17
19520.0	5.935498019209215e+17
19521.0	5.936553095681366e+17
19522.0	5.936376137296554e+17
19523.0	5.936154854905171e+17
19524.0	5.935888683674282e+17
19525.0	5.935584824524799e+17
19526.0	5.935275038823763e+17
19527.0	5.934930736797012e+17
19528.0	5.934556684571988e+17
19529.0	5.934164847099903e+17
19530.0	5.933749987792212e+17
19531.0	5.933310392576682e+17
19532.0	5.932849392429737e+17
19533.0	5.932367904505855e+17
19534.0	5.931865270998356e+17
19535.0	5.931340718058154e+17
19536.0	5.930789243278676e+17
19537.0	5.930399832211455e+17
19538.0	5.930532930060288e+17
19539.0	5.9297310951779e+17
19540.0	5.929360480884052e+17
19541.0	5.928749796513108e+17
19542.0	5.928111001916755e+17
19543.0	5.927461281158484e+17
19544.0	5.926798382596095e+17
19545.0	5.925920356783444e+17
19546.0	5.925029190216361e+17
19547.0	5.924735567265791e+17
19548.0	5.924023640784895e+17
19549.0	5.923255921672191e+17
19550.0	5.922567504265215e+17
19551.0	5.921824462340096e+17
19552.0	5.921069743472639e+17
19553.0	5.920295640629247e+17
19554.0	5.919515574184617e+17
19555.0	5.91874408718882e+17
19556.0	5.917960132624383e+17
19557.0	5.917158805252777e+17
19558.0	5.916352235001171e+17
19559.0	5.915533993399636e+17
19560.0	5.914702186719913e+17
19561.0	5.91387179352064e+17
19562.0	5.913048365662207e+17
19563.0	5.912204152930303e+17
19564.0	5.911354158350335e+17
19565.0	5.910497437504852e+17
19566.0	5.909625247367168e+17
19567.0	5.908764815960746e+17
19568.0	5.90787842810402e+17
19569.0	5.907007057952767e+17
19570.0	5.906125778758314e+17
19571.0	5.905233533556051e+17
19572.0	5.904326002212863e+17
19573.0	5.903429858405033e+17
19574.0	5.90249162056226e+17
19575.0	5.901625120697002e+17
19576.0	5.900711665598463e+17
19577.0	5.899781157857961e+17
19578.0	5.898851663041876e+17
19579.0	5.897933683687423e+17
19580.0	5.897004715256489e+17
19581.0	5.896073871272618e+17
19582.0	5.895144371563178e+17
19583.0	5.894203568204457e+17
19584.0	5.89325730456098e+17
19585.0	5.892261271306239e+17
19586.0	5.891296471635284e+17
19587.0	5.890397664444415e+17
19588.0	5.889236283337388e+17
19589.0	5.888482503994025e+17
19590.0	5.887490717472084e+17
19591.0	5.886563760209919e+17
19592.0	5.885595136032767e+17
19593.0	5.884615970870612e+17
19594.0	5.883545160166058e+17
19595.0	5.882661469246804e+17
19596.0	5.881547064344575e+17
19597.0	5.880711559686825e+17
19598.0	5.879588415952211e+17
19599.0	5.878756335244627e+17
19600.0	5.877770411660627e+17
19601.0	5.876751086736724e+17
19602.0	5.87577133507106e+17
19603.0	5.874602684536147e+17
19604.0	5.87378386342161e+17
19605.0	5.872674749633876e+17
19606.0	5.87181298024448e+17
19607.0	5.870816778518527e+17
19608.0	5.869812032296276e+17
19609.0	5.868789690968745e+17
19610.0	5.867811563896831e+17
19611.0	5.866803987218431e+17
19612.0	5.865800833433599e+17
19613.0	5.864792761128276e+17
19614.0	5.863765353081513e+17
19615.0	5.86277419430707e+17
19616.0	5.86175177748207e+17
19617.0	5.86074833359121e+17
19618.0	5.859484798812157e+17
19619.0	5.858406325114195e+17
19620.0	5.857936343564287e+17
19621.0	5.857257624087209e+17
19622.0	5.856239239386452e+17
19623.0	5.855219734806527e+17
19624.0	5.854199248759465e+17
19625.0	5.853177737205076e+17
19626.0	5.852155539881983e+17
19627.0	5.851132260428458e+17
19628.0	5.850080061248852e+17
19629.0	5.849042942689279e+17
19630.0	5.848005308230314e+17
19631.0	5.8457181913088e+17
19632.0	5.846002756659882e+17
19633.0	5.844959382295892e+17
19634.0	5.843946819988138e+17
19635.0	5.842899344992938e+17
19636.0	5.841887773239977e+17
19637.0	5.840682984581802e+17
19638.0	5.839821756956671e+17
19639.0	5.838786419578198e+17
19640.0	5.837720783246676e+17
19641.0	5.836384379426134e+17
19642.0	5.835693883741524e+17
19643.0	5.834652602335231e+17
19644.0	5.833596542298793e+17
19645.0	5.83246498898466e+17
19646.0	5.831554543299241e+17
19647.0	5.830518411100159e+17
19648.0	5.82948180075042e+17
19649.0	5.828443443473065e+17
19650.0	5.827407242067968e+17
19651.0	5.826369379718484e+17
19652.0	5.825331060189865e+17
19653.0	5.824291480272895e+17
19654.0	5.823253347390804e+17
19655.0	5.82221185487121e+17
19656.0	5.821170978215252e+17
19657.0	5.820134136479744e+17
19658.0	5.819093795995647e+17
19659.0	5.818052351011497e+17
19660.0	5.817012168512852e+17
19661.0	5.815970893398015e+17
19662.0	5.814929378508799e+17
19663.0	5.813867938578431e+17
19664.0	5.812840701799082e+17
19665.0	5.811803272861012e+17
19666.0	5.810753747550205e+17
