# Flux units: erg / (cm m2 s)
# Wavelength units: Angstrom
wave	flux
19000.0	6.539241834151935e+17
19001.0	6.537953180385279e+17
19002.0	6.536809882320895e+17
19003.0	6.53558773972992e+17
19004.0	6.534366526177279e+17
19005.0	6.533159682310143e+17
19006.0	6.53194260853555e+17
19007.0	6.530624022118399e+17
19008.0	6.529463492455082e+17
19009.0	6.528220794279252e+17
19010.0	6.526737398977875e+17
19011.0	6.525811913217363e+17
19012.0	6.524237163877715e+17
19013.0	6.5234117080733e+17
19014.0	6.522153288247978e+17
19015.0	6.520950451339263e+17
19016.0	6.519722405265407e+17
19017.0	6.518539292770303e+17
19018.0	6.517298770739199e+17
19019.0	6.516100870526292e+17
19020.0	6.514868772754772e+17
19021.0	6.51366637904418e+17
19022.0	6.512458729870676e+17
19023.0	6.511210628033194e+17
19024.0	6.509999649980413e+17
19025.0	6.508767890549417e+17
19026.0	6.507524475846655e+17
19027.0	6.506014083208531e+17
19028.0	6.505140695597055e+17
19029.0	6.503919882600447e+17
19030.0	6.502713300877311e+17
19031.0	6.501495060387156e+17
19032.0	6.500273854524073e+17
19033.0	6.498991323742207e+17
19034.0	6.497827105887572e+17
19035.0	6.496567355768831e+17
19036.0	6.471666018986665e+17
19037.0	6.49416002380322e+17
19038.0	6.492946701134506e+17
19039.0	6.491748494737407e+17
19040.0	6.490606577997139e+17
19041.0	6.489391150486867e+17
19042.0	6.488090362598739e+17
19043.0	6.486956821184511e+17
19044.0	6.485734911377407e+17
19045.0	6.484507760787455e+17
19046.0	6.483264640385023e+17
19047.0	6.482070584251731e+17
19048.0	6.480712895736489e+17
19049.0	6.479565048949418e+17
19050.0	6.478395986673664e+17
19051.0	6.473712630322511e+17
19052.0	6.475316961389226e+17
19053.0	6.47474995929634e+17
19054.0	6.473558104473599e+17
19055.0	6.472150950434132e+17
19056.0	6.471106951817897e+17
19057.0	6.469898184163327e+17
19058.0	6.468640045356372e+17
19059.0	6.467465064218623e+17
19060.0	6.466238316980906e+17
19061.0	6.465038600634367e+17
19062.0	6.463817921855487e+17
19063.0	6.462602358030335e+17
19064.0	6.461302309038762e+17
19065.0	6.460042797995348e+17
19066.0	6.458905072762879e+17
19067.0	6.457735434469376e+17
19068.0	6.45652044456482e+17
19069.0	6.455304374626985e+17
19070.0	6.454070491480063e+17
19071.0	6.452861509915988e+17
19072.0	6.451645779716778e+17
19073.0	6.450436364042239e+17
19074.0	6.449224428290047e+17
19075.0	6.448008579252223e+17
19076.0	6.446777702023167e+17
19077.0	6.445566520546644e+17
19078.0	6.444341890034346e+17
19079.0	6.44314463015185e+17
19080.0	6.441917946527743e+17
19081.0	6.440685556553044e+17
19082.0	6.439467785125887e+17
19083.0	6.438205918281727e+17
19084.0	6.436901238079488e+17
19085.0	6.435853360431103e+17
19086.0	6.434337979367423e+17
19087.0	6.432732529819647e+17
19088.0	6.432109933625344e+17
19089.0	6.430508565135359e+17
19090.0	6.42975005671424e+17
19091.0	6.428541273680553e+17
19092.0	6.427145424688468e+17
19093.0	6.426138836467711e+17
19094.0	6.424924088434687e+17
19095.0	6.423709841620991e+17
19096.0	6.42248630861824e+17
19097.0	6.421284560830463e+17
19098.0	6.420066575493802e+17
19099.0	6.418851947697491e+17
19100.0	6.417607626326016e+17
19101.0	6.416419933650943e+17
19102.0	6.415147973214207e+17
19103.0	6.414009710411775e+17
19104.0	6.412796845621247e+17
19105.0	6.411566301839359e+17
19106.0	6.410247063906985e+17
19107.0	6.409140995183956e+17
19108.0	6.407934995070975e+17
19109.0	6.404795334830758e+17
19110.0	6.405452638191615e+17
19111.0	6.404297435993427e+17
19112.0	6.403093023424511e+17
19113.0	6.401889075724287e+17
19114.0	6.400676106076159e+17
19115.0	6.399383418088105e+17
19116.0	6.398238491235668e+17
19117.0	6.397025536966655e+17
19118.0	6.395659636703231e+17
19119.0	6.391391410891429e+17
19120.0	6.393206228211028e+17
19121.0	6.39205390680064e+17
19122.0	6.390990775167657e+17
19123.0	6.389779874010452e+17
19124.0	6.388454406138538e+17
19125.0	6.387341381861375e+17
19126.0	6.386141409662291e+17
19127.0	6.383658529893033e+17
19128.0	6.383096555372541e+17
19129.0	6.382461977449812e+17
19130.0	6.381294924245674e+17
19131.0	6.380079087091711e+17
19132.0	6.378888705168723e+17
19133.0	6.377487222527316e+17
19134.0	6.376188515713023e+17
19135.0	6.375252674914985e+17
19136.0	6.374055617058131e+17
19137.0	6.372728093977257e+17
19138.0	6.371605324234751e+17
19139.0	6.370427584643072e+17
19140.0	6.369221194459817e+17
19141.0	6.368012688250195e+17
19142.0	6.36678647578624e+17
19143.0	6.365557404205055e+17
19144.0	6.364360091893759e+17
19145.0	6.363174656453289e+17
19146.0	6.361532090810368e+17
19147.0	6.360686872843604e+17
19148.0	6.35953805857041e+17
19149.0	6.358332687603027e+17
19150.0	6.357133528399871e+17
19151.0	6.355931870789631e+17
19152.0	6.354697934514858e+17
19153.0	6.353492402066771e+17
19154.0	6.352214571701588e+17
19155.0	6.351094541538644e+17
19156.0	6.349889773851988e+17
19157.0	6.348640378770772e+17
19158.0	6.34616217495142e+17
19159.0	6.34624447418641e+17
19160.0	6.345034142056447e+17
19161.0	6.3437955137536e+17
19162.0	6.339650169864195e+17
19163.0	6.341341614527828e+17
19164.0	6.340234909668692e+17
19165.0	6.338959413433684e+17
19166.0	6.337665720210771e+17
19167.0	6.336332536217597e+17
19168.0	6.335385351924393e+17
19169.0	6.334138588768937e+17
19170.0	6.332995765359956e+17
19171.0	6.331609691193344e+17
19172.0	6.330567478651562e+17
19173.0	6.32937024323584e+17
19174.0	6.328135108089172e+17
19175.0	6.326971433396904e+17
19176.0	6.325765047407956e+17
19177.0	6.324447059378175e+17
19178.0	6.32327091921442e+17
19179.0	6.321893237151059e+17
19180.0	6.320895378675028e+17
19181.0	6.319648765815465e+17
19182.0	6.318502867981652e+17
19183.0	6.317315612213247e+17
19184.0	6.316090568562004e+17
19185.0	6.31490525335825e+17
19186.0	6.313702156402688e+17
19187.0	6.312440184700927e+17
19188.0	6.311280268804095e+17
19189.0	6.310056249262079e+17
19190.0	6.308837157328211e+17
19191.0	6.307615073457494e+17
19192.0	6.306461650343252e+17
19193.0	6.305236579429034e+17
19194.0	6.304031066554367e+17
19195.0	6.302835827627348e+17
19196.0	6.301618035228671e+17
19197.0	6.300395022319615e+17
19198.0	6.299116160155647e+17
19199.0	6.280478806682277e+17
19200.0	6.284534439302491e+17
19201.0	6.295510096805887e+17
19202.0	6.294371692096169e+17
19203.0	6.293134698872831e+17
19204.0	6.291954379085139e+17
19205.0	6.290767920933545e+17
19206.0	6.289560447221759e+17
19207.0	6.288288926487892e+17
19208.0	6.287007793807359e+17
19209.0	6.285943118670505e+17
19210.0	6.284745484096852e+17
19211.0	6.283537458834089e+17
19212.0	6.282328853359273e+17
19213.0	6.280868071647914e+17
19214.0	6.276661893573289e+17
19215.0	6.275671594631167e+17
19216.0	6.274533194814804e+17
19217.0	6.273326171291647e+17
19218.0	6.27151335395601e+17
19219.0	6.270794757133651e+17
19220.0	6.269670947902804e+17
19221.0	6.268250072896852e+17
19222.0	6.26726977806882e+17
19223.0	6.266056939143167e+17
19224.0	6.264818800175786e+17
19225.0	6.263537914959187e+17
19226.0	6.262415273142953e+17
19227.0	6.261201380747946e+17
19228.0	6.260008594090665e+17
19229.0	6.258795678968489e+17
19230.0	6.257557899313151e+17
19231.0	6.256343781823827e+17
19232.0	6.255144800878591e+17
19233.0	6.253887096881151e+17
19234.0	6.252710634455039e+17
19235.0	6.251497039156563e+17
19236.0	6.250297611517951e+17
19237.0	6.249070457432745e+17
19238.0	6.247773861052415e+17
19239.0	6.246650387365887e+17
19240.0	6.245399845142527e+17
19241.0	6.244189570334719e+17
19242.0	6.242985326936064e+17
19243.0	6.241661828988927e+17
19244.0	6.240562898272255e+17
19245.0	6.23934358823458e+17
19246.0	6.23811237056785e+17
19247.0	6.236902601872724e+17
19248.0	6.235682536860329e+17
19249.0	6.234449874255872e+17
19250.0	6.233223835156479e+17
19251.0	6.2319218407069e+17
19252.0	6.230595846449834e+17
19253.0	6.229550689506644e+17
19254.0	6.228338235058857e+17
19255.0	6.226989788692479e+17
19256.0	6.225844667503956e+17
19257.0	6.224662951013034e+17
19258.0	6.223436758122495e+17
19259.0	6.222158334263295e+17
19260.0	6.220543599225513e+17
19261.0	6.219738603935059e+17
19262.0	6.218475243918676e+17
19263.0	6.217239121013418e+17
19264.0	6.215663200763901e+17
19265.0	6.214676371909289e+17
19266.0	6.213441335328765e+17
19267.0	6.212349121090899e+17
19268.0	6.211112323601748e+17
19269.0	6.209874446079316e+17
19270.0	6.208633638835539e+17
19271.0	6.20715230433553e+17
19272.0	6.206127582740479e+17
19273.0	6.203812571600211e+17
19274.0	6.202934100492285e+17
19275.0	6.202422485581823e+17
19276.0	6.201162489397247e+17
19277.0	6.199918409198249e+17
19278.0	6.19707995521024e+17
19279.0	6.193893363504467e+17
19280.0	6.192608401424383e+17
19281.0	6.191399250690047e+17
19282.0	6.190149450858495e+17
19283.0	6.1886235162269e+17
19284.0	6.187403995075926e+17
19285.0	6.186224087029075e+17
19286.0	6.185070772267689e+17
19287.0	6.183825219867988e+17
19288.0	6.175724618645494e+17
19289.0	6.166340311536959e+17
19290.0	6.180008579388756e+17
19291.0	6.178551685797206e+17
19292.0	6.17745961905903e+17
19293.0	6.176173898508969e+17
19294.0	6.174888830173184e+17
19295.0	6.173611855446015e+17
19296.0	6.172316004253695e+17
19297.0	6.171011684761599e+17
19298.0	6.169728192086015e+17
19299.0	6.168436728135679e+17
19300.0	6.167143420788733e+17
19301.0	6.165841192157183e+17
19302.0	6.164528783949823e+17
19303.0	6.163180445237247e+17
19304.0	6.16189586833408e+17
19305.0	6.16059562570547e+17
19306.0	6.156862470750209e+17
19307.0	6.153778336104448e+17
19308.0	6.152459112852137e+17
19309.0	6.150519254242644e+17
19310.0	6.148991567790077e+17
19311.0	6.148369866380628e+17
19312.0	6.147114095258282e+17
19313.0	6.14576241718067e+17
19314.0	6.123933928871268e+17
19315.0	6.123755336805053e+17
19316.0	6.141609118094676e+17
19317.0	6.140303673830057e+17
19318.0	6.138922453172223e+17
19319.0	6.137553233117183e+17
19320.0	6.13616068014899e+17
19321.0	6.13476539039744e+17
19322.0	6.132851560240471e+17
19323.0	6.129282582227626e+17
19324.0	6.128108853788671e+17
19325.0	6.126117775736831e+17
19326.0	6.125259175843156e+17
19327.0	6.123820285602473e+17
19328.0	6.122371721898665e+17
19329.0	6.120932749170004e+17
19330.0	6.119443484639232e+17
19331.0	6.11796938461457e+17
19332.0	6.116520140734463e+17
19333.0	6.115027127194963e+17
19334.0	6.113539709556051e+17
19335.0	6.112011991646208e+17
19336.0	6.110514271398569e+17
19337.0	6.108999636921002e+17
19338.0	6.107322027868159e+17
19339.0	6.105926791943508e+17
19340.0	6.104315838769833e+17
19341.0	6.102781995078996e+17
19342.0	6.100941677789183e+17
19343.0	6.09965179998481e+17
19344.0	6.098045788400297e+17
19345.0	6.09509104383863e+17
19346.0	6.094186263958867e+17
19347.0	6.093130386374655e+17
19348.0	6.091546391390889e+17
19349.0	6.089863810689706e+17
19350.0	6.088180537928361e+17
19351.0	6.086493651774122e+17
19352.0	6.084737119901012e+17
19353.0	6.083078708876628e+17
19354.0	6.081338806719828e+17
19355.0	6.079511402992979e+17
19356.0	6.077801085359444e+17
19357.0	6.076006470604116e+17
19358.0	6.074174314730835e+17
19359.0	6.072290465458857e+17
19360.0	6.070459248410623e+17
19361.0	6.068596873975124e+17
19362.0	6.066725334985386e+17
19363.0	6.064802197667839e+17
19364.0	6.062856793489405e+17
19365.0	6.060891704044201e+17
19366.0	6.058900326798676e+17
19367.0	6.056883430009514e+17
19368.0	6.054839788240895e+17
19369.0	6.052713740981588e+17
19370.0	6.050540604271274e+17
19371.0	6.048496090786474e+17
19372.0	6.04636876706065e+17
19373.0	6.044159919347028e+17
19374.0	6.041943533071018e+17
19375.0	6.039676611723263e+17
19376.0	6.037377890560682e+17
19377.0	6.035037308846079e+17
19378.0	6.03266252677666e+17
19379.0	6.030246015576746e+17
19380.0	6.027787888492543e+17
19381.0	6.025286954341716e+17
19382.0	6.02269455290641e+17
19383.0	6.020088491322025e+17
19384.0	6.017540655065769e+17
19385.0	6.014868707257002e+17
19386.0	6.012148589963946e+17
19387.0	6.009373929941673e+17
19388.0	6.006501149769727e+17
19389.0	6.003350893319507e+17
19390.0	6.000403500673705e+17
19391.0	5.977443233955812e+17
19392.0	5.993891289366524e+17
19393.0	5.991234155839487e+17
19394.0	5.988040946221055e+17
19395.0	5.98475982119458e+17
19396.0	5.981455174511273e+17
19397.0	5.978154141220864e+17
19398.0	5.97471257567778e+17
19399.0	5.970753590307497e+17
19400.0	5.967628407406591e+17
19401.0	5.96404250677521e+17
19402.0	5.960330019951956e+17
19403.0	5.956523319973204e+17
19404.0	5.952560874302122e+17
19405.0	5.948026948419583e+17
19406.0	5.943981714877098e+17
19407.0	5.939835240622761e+17
19408.0	5.935041669147306e+17
19409.0	5.931184050317993e+17
19410.0	5.926772244392617e+17
19411.0	5.921446136818345e+17
19412.0	5.916546568989354e+17
19413.0	5.911854746435583e+17
19414.0	5.907062675821907e+17
19415.0	5.900613183340544e+17
19416.0	5.895289307135999e+17
19417.0	5.889082487996415e+17
19418.0	5.882479583952895e+17
19419.0	5.875518944925014e+17
19420.0	5.867873753541289e+17
19421.0	5.858193199245997e+17
19422.0	5.848241718777169e+17
19423.0	5.836315107000319e+17
19424.0	5.822003478353235e+17
19425.0	5.802944529519968e+17
19426.0	5.780261741876556e+17
19427.0	5.760943070554794e+17
19428.0	5.748738780474025e+17
19429.0	5.7357457410402963e+17
19430.0	5.7213728273203206e+17
19431.0	5.703666497486851e+17
19432.0	5.6915716430888934e+17
19433.0	5.6751621689835514e+17
19434.0	5.65774050796066e+17
19435.0	5.639653049412264e+17
19436.0	5.619525384929279e+17
19437.0	5.600216347923795e+17
19438.0	5.546718031162033e+17
19439.0	5.543722013250907e+17
19440.0	5.5000528123330624e+17
19441.0	5.434456226310836e+17
19442.0	5.3884135589369184e+17
19443.0	5.343209529365845e+17
19444.0	5.2924184247227686e+17
19445.0	5.231583236369072e+17
19446.0	5.1430544106673555e+17
19447.0	5.0189621065154554e+17
19448.0	4.889889787783859e+17
19449.0	4.6764222445868397e+17
19450.0	4.258551224598511e+17
19451.0	4.120281946434191e+17
19452.0	4.489701403306675e+17
19453.0	4.7997178427911e+17
19454.0	4.9565502058878234e+17
19455.0	5.076132284071944e+17
19456.0	5.184765567871669e+17
19457.0	5.2538353605672934e+17
19458.0	5.2673049260633254e+17
19459.0	5.350127719241059e+17
19460.0	5.3928185756822163e+17
19461.0	5.4499143427905e+17
19462.0	5.504282180714493e+17
19463.0	5.538110936973306e+17
19464.0	5.562943533307221e+17
19465.0	5.5833992853367456e+17
19466.0	5.6008438158021926e+17
19467.0	5.616933885269332e+17
19468.0	5.6326542331303245e+17
19469.0	5.647035031442772e+17
19470.0	5.66108102013747e+17
19471.0	5.6739202824055456e+17
19472.0	5.686237331455998e+17
19473.0	5.697392194792106e+17
19474.0	5.7077966740739405e+17
19475.0	5.719178412206759e+17
19476.0	5.7408939493075584e+17
19477.0	5.7588642812177e+17
19478.0	5.772722923634687e+17
19479.0	5.783897170247674e+17
19480.0	5.792839975829501e+17
19481.0	5.799906130963118e+17
19482.0	5.805477053770412e+17
19483.0	5.811799551814314e+17
19484.0	5.815508194557952e+17
19485.0	5.82052770550033e+17
19486.0	5.823474638869843e+17
19487.0	5.827118032224255e+17
19488.0	5.830481887100927e+17
19489.0	5.832911070691327e+17
19490.0	5.834490584760317e+17
19491.0	5.838478456302249e+17
19492.0	5.841074152363348e+17
19493.0	5.843237445042176e+17
19494.0	5.845327352081066e+17
19495.0	5.847296763057494e+17
19496.0	5.848887089343145e+17
19497.0	5.850977249438377e+17
19498.0	5.850390078335658e+17
19499.0	5.823389785303713e+17
19500.0	5.856316572565503e+17
19501.0	5.85775104270882e+17
19502.0	5.859087464005631e+17
19503.0	5.860381068449107e+17
19504.0	5.861573439171242e+17
19505.0	5.862711774674943e+17
19506.0	5.863781418663936e+17
19507.0	5.864787883851775e+17
19508.0	5.865758171769513e+17
19509.0	5.866647207630163e+17
19510.0	5.86732690997248e+17
19511.0	5.829215993724913e+17
19512.0	5.863649971972774e+17
19513.0	5.860752933344584e+17
19514.0	5.863591089537014e+17
19515.0	5.870442798994774e+17
19516.0	5.871489591716521e+17
19517.0	5.871895396220927e+17
19518.0	5.872323439624191e+17
19519.0	5.872644408737791e+17
19520.0	5.872921824198655e+17
19521.0	5.873207791845375e+17
19522.0	5.873399821762559e+17
19523.0	5.873591909700948e+17
19524.0	5.873717557067775e+17
19525.0	5.873805336160937e+17
19526.0	5.873869423028906e+17
19527.0	5.87388510413346e+17
19528.0	5.873863088930815e+17
19529.0	5.873814988652544e+17
19530.0	5.873734456617642e+17
19531.0	5.873618092643667e+17
19532.0	5.873471254254931e+17
19533.0	5.873294782409386e+17
19534.0	5.87308727271424e+17
19535.0	5.872849317265408e+17
19536.0	5.872570017163945e+17
19537.0	5.872314572166484e+17
19538.0	5.871913522604714e+17
19539.0	5.871304260102828e+17
19540.0	5.871306990594729e+17
19541.0	5.870951122075648e+17
19542.0	5.87055396622609e+17
19543.0	5.87012969210402e+17
19544.0	5.869703805971113e+17
19545.0	5.868906947630419e+17
19546.0	5.868163851878399e+17
19547.0	5.86828801516066e+17
19548.0	5.86777716780783e+17
19549.0	5.867186798548307e+17
19550.0	5.8667120998045e+17
19551.0	5.866156560045396e+17
19552.0	5.865583418889556e+17
19553.0	5.864979264350889e+17
19554.0	5.864369751588863e+17
19555.0	5.863771286623571e+17
19556.0	5.863154420547583e+17
19557.0	5.862511077228543e+17
19558.0	5.861860033167359e+17
19559.0	5.861194719384916e+17
19560.0	5.860497979779754e+17
19561.0	5.859813877612543e+17
19562.0	5.859134294108842e+17
19563.0	5.85843162096162e+17
19564.0	5.857715284869119e+17
19565.0	5.856989190728362e+17
19566.0	5.856231827352233e+17
19567.0	5.855508202957481e+17
19568.0	5.8547378337437e+17
19569.0	5.853988138254335e+17
19570.0	5.853224802888361e+17
19571.0	5.852443425024682e+17
19572.0	5.851641228733097e+17
19573.0	5.850852418562729e+17
19574.0	5.850006008015529e+17
19575.0	5.849262127229609e+17
19576.0	5.848449466149546e+17
19577.0	5.847619158234452e+17
19578.0	5.846772932236627e+17
19579.0	5.84595020063266e+17
19580.0	5.845112068942505e+17
19581.0	5.844277209508522e+17
19582.0	5.843439435033257e+17
19583.0	5.842584538010964e+17
19584.0	5.841710644286804e+17
19585.0	5.841270775043414e+17
19586.0	5.842048235427156e+17
19587.0	5.841165725204479e+17
19588.0	5.840052192717482e+17
19589.0	5.839476706945706e+17
19590.0	5.838527636613802e+17
19591.0	5.837697818733226e+17
19592.0	5.83679536599313e+17
19593.0	5.835874731644244e+17
19594.0	5.834804381614079e+17
19595.0	5.834030917003945e+17
19596.0	5.83182877528337e+17
19597.0	5.832167354182314e+17
19598.0	5.831041749090303e+17
19599.0	5.830368829636607e+17
19600.0	5.829444201611263e+17
19601.0	5.828461477582164e+17
19602.0	5.827534557369683e+17
19603.0	5.826075809895763e+17
19604.0	5.825618177075881e+17
19605.0	5.824537193086975e+17
19606.0	5.823797319259476e+17
19607.0	5.823051441984854e+17
19608.0	5.825540311919274e+17
19609.0	5.824546191966205e+17
19610.0	5.82361343398161e+17
19611.0	5.822639693452628e+17
19612.0	5.821682130354175e+17
19613.0	5.820703416778752e+17
19614.0	5.819708179043668e+17
19615.0	5.818755102452394e+17
19616.0	5.817599629022548e+17
19617.0	5.816794962984959e+17
19618.0	5.815413615798953e+17
19619.0	5.814343046266877e+17
19620.0	5.81337812635921e+17
19621.0	5.812865264342356e+17
19622.0	5.81188887580945e+17
19623.0	5.810900785168383e+17
19624.0	5.809903867614548e+17
19625.0	5.808918507465385e+17
19626.0	5.807926230209876e+17
19627.0	5.806927783133183e+17
19628.0	5.805507790329174e+17
19629.0	5.804837170053119e+17
19630.0	5.802639173003946e+17
19631.0	5.784039961133057e+17
19632.0	5.801911437492223e+17
19633.0	5.800893200990208e+17
19634.0	5.799942078245546e+17
19635.0	5.798911985844223e+17
19636.0	5.797928248890708e+17
19637.0	5.7966611412637e+17
19638.0	5.795921277921962e+17
19639.0	5.794910974246911e+17
19640.0	5.79383218737425e+17
19641.0	5.792322609130156e+17
19642.0	5.791897487059625e+17
19643.0	5.790879602879145e+17
19644.0	5.78988385903138e+17
19645.0	5.788763955396608e+17
19646.0	5.787937534203222e+17
19647.0	5.786935940000425e+17
19648.0	5.785922761129983e+17
19649.0	5.784906115667284e+17
19650.0	5.783892712401578e+17
19651.0	5.782876702375935e+17
19652.0	5.781860040835071e+17
19653.0	5.780832745335466e+17
19654.0	5.779824850589012e+17
19655.0	5.77880302166562e+17
19656.0	5.777782455926783e+17
19657.0	5.779593278171817e+17
19658.0	5.778734374890153e+17
19659.0	5.777709362490025e+17
19660.0	5.776686185097898e+17
19661.0	5.775661334877524e+17
19662.0	5.774636008603648e+17
19663.0	5.773570045815466e+17
19664.0	5.77251391447586e+17
19665.0	5.771557971776851e+17
