# Flux units: erg / (cm m2 s)
# Wavelength units: Angstrom
wave	flux
19000.0	5.941361808594259e+17
19001.0	5.940187107775827e+17
19002.0	5.939212446597119e+17
19003.0	5.938134712494761e+17
19004.0	5.937058976279209e+17
19005.0	5.935966385952083e+17
19006.0	5.934893760512e+17
19007.0	5.933820353533268e+17
19008.0	5.932712185561087e+17
19009.0	5.931514131557033e+17
19010.0	5.930392720769023e+17
19011.0	5.929443623174143e+17
19012.0	5.928235575541759e+17
19013.0	5.927371537732948e+17
19014.0	5.92626642461218e+17
19015.0	5.925204057740627e+17
19016.0	5.924157767636308e+17
19017.0	5.923097240666111e+17
19018.0	5.922018512513706e+17
19019.0	5.920949185194666e+17
19020.0	5.919870539530239e+17
19021.0	5.918812661962067e+17
19022.0	5.917734408465066e+17
19023.0	5.916617558283604e+17
19024.0	5.915533664845823e+17
19025.0	5.914476750569471e+17
19026.0	5.913359326467411e+17
19027.0	5.912247428360874e+17
19028.0	5.911253188870143e+17
19029.0	5.910185876215124e+17
19030.0	5.909134759865001e+17
19031.0	5.908050797221203e+17
19032.0	5.906937979863039e+17
19033.0	5.905707745061545e+17
19034.0	5.904448050167808e+17
19035.0	5.90184750129698e+17
19036.0	5.893211567073961e+17
19037.0	5.900061921072468e+17
19038.0	5.90020297621504e+17
19039.0	5.899375612701354e+17
19040.0	5.898388172177408e+17
19041.0	5.897346785214463e+17
19042.0	5.895374545879036e+17
19043.0	5.895252801312084e+17
19044.0	5.894178661728255e+17
19045.0	5.893095437281961e+17
19046.0	5.892013076862292e+17
19047.0	5.890916772478976e+17
19048.0	5.889659004168874e+17
19049.0	5.88689961281126e+17
19050.0	5.887419094837929e+17
19051.0	5.885383796938067e+17
19052.0	5.884734692043433e+17
19053.0	5.884364890745514e+17
19054.0	5.883451851582121e+17
19055.0	5.881970496809644e+17
19056.0	5.88129124885026e+17
19057.0	5.880335160049663e+17
19058.0	5.878365993041919e+17
19059.0	5.87787921400354e+17
19060.0	5.877154664065705e+17
19061.0	5.876096546723156e+17
19062.0	5.875031039016959e+17
19063.0	5.873960988879529e+17
19064.0	5.872848110004906e+17
19065.0	5.871714516860927e+17
19066.0	5.870405146727764e+17
19067.0	5.869709378803027e+17
19068.0	5.868660221192873e+17
19069.0	5.867598340161535e+17
19070.0	5.866516481660244e+17
19071.0	5.865458360123391e+17
19072.0	5.864078959094441e+17
19073.0	5.863350337885524e+17
19074.0	5.862289028677631e+17
19075.0	5.861225945279145e+17
19076.0	5.860158350906708e+17
19077.0	5.859087142442324e+17
19078.0	5.858011198608724e+17
19079.0	5.856975290105855e+17
19080.0	5.855904155041791e+17
19081.0	5.854807237591039e+17
19082.0	5.853777095557119e+17
19083.0	5.852640507680084e+17
19084.0	5.851461599275689e+17
19085.0	5.850564434154835e+17
19086.0	5.848688507224063e+17
19087.0	5.847620724107945e+17
19088.0	5.846808238489599e+17
19089.0	5.846137049186304e+17
19090.0	5.845232786604031e+17
19091.0	5.844140878550356e+17
19092.0	5.842409799112022e+17
19093.0	5.842124032791892e+17
19094.0	5.841077349122047e+17
19095.0	5.840025825924436e+17
19096.0	5.838968416021161e+17
19097.0	5.837914839012692e+17
19098.0	5.836483407642623e+17
19099.0	5.835346164755114e+17
19100.0	5.834706535492265e+17
19101.0	5.833658985698644e+17
19102.0	5.832574865768448e+17
19103.0	5.831565881202003e+17
19104.0	5.830511477216595e+17
19105.0	5.828620034856279e+17
19106.0	5.828357871981907e+17
19107.0	5.827075733367465e+17
19108.0	5.825850939277312e+17
19109.0	5.824975138542932e+17
19110.0	5.824010335376724e+17
19111.0	5.822811724928339e+17
19112.0	5.821753289517737e+17
19113.0	5.821001619210237e+17
19114.0	5.819778121160019e+17
19115.0	5.818822368602794e+17
19116.0	5.817809509897556e+17
19117.0	5.816718570029055e+17
19118.0	5.815269135308115e+17
19119.0	5.809877016379387e+17
19120.0	5.813311936047785e+17
19121.0	5.812464070776147e+17
19122.0	5.811510292338003e+17
19123.0	5.810479187711315e+17
19124.0	5.809320401480361e+17
19125.0	5.808338168184831e+17
19126.0	5.8071377786525e+17
19127.0	5.80555962913041e+17
19128.0	5.804994023740756e+17
19129.0	5.804070285606912e+17
19130.0	5.803120120561663e+17
19131.0	5.802095754783401e+17
19132.0	5.801050732057939e+17
19133.0	5.799970698078889e+17
19134.0	5.798941877949779e+17
19135.0	5.797904270753791e+17
19136.0	5.796848093975892e+17
19137.0	5.795759702846122e+17
19138.0	5.794740767293439e+17
19139.0	5.79371451547648e+17
19140.0	5.792672456026793e+17
19141.0	5.791625619264852e+17
19142.0	5.790549918001833e+17
19143.0	5.789506351398912e+17
19144.0	5.788442457101652e+17
19145.0	5.787429337650516e+17
19146.0	5.785837600680618e+17
19147.0	5.785302914301951e+17
19148.0	5.783994663348906e+17
19149.0	5.7828951733917e+17
19150.0	5.782194658213885e+17
19151.0	5.781141014795606e+17
19152.0	5.78007234388514e+17
19153.0	5.778403489043795e+17
19154.0	5.777895943307263e+17
19155.0	5.776908111314944e+17
19156.0	5.775856446210048e+17
19157.0	5.774575484097876e+17
19158.0	5.77324531720738e+17
19159.0	5.772652750132563e+17
19160.0	5.771590419611647e+17
19161.0	5.770465115810473e+17
19162.0	5.76919644021282e+17
19163.0	5.768300765467988e+17
19164.0	5.767411144501929e+17
19165.0	5.76575561216819e+17
19166.0	5.765344605328724e+17
19167.0	5.7643361499436365e+17
19168.0	5.7633286403741e+17
19169.0	5.7623049820351136e+17
19170.0	5.7612718900073805e+17
19171.0	5.760229797003263e+17
19172.0	5.759182685514411e+17
19173.0	5.7581531250906445e+17
19174.0	5.757097790668799e+17
19175.0	5.756071656991402e+17
19176.0	5.755032672665599e+17
19177.0	5.753859353171285e+17
19178.0	5.7529338534297594e+17
19179.0	5.751889956874922e+17
19180.0	5.750851311588692e+17
19181.0	5.7497603206894925e+17
19182.0	5.7487470789044896e+17
19183.0	5.74774634872832e+17
19184.0	5.7467068911452154e+17
19185.0	5.7456572351119354e+17
19186.0	5.7446174314987514e+17
19187.0	5.743510699376639e+17
19188.0	5.742514853467475e+17
19189.0	5.7414573408037536e+17
19190.0	5.7403977631443616e+17
19191.0	5.739302129849684e+17
19192.0	5.738244108976126e+17
19193.0	5.7370520556229965e+17
19194.0	5.7358587558625274e+17
19195.0	5.7348109900622496e+17
19196.0	5.7334941624565754e+17
19197.0	5.731966153741651e+17
19198.0	5.729945217837737e+17
19199.0	5.7269579520409594e+17
19200.0	5.7261353364794016e+17
19201.0	5.726932240258389e+17
19202.0	5.7268399376083616e+17
19203.0	5.7262421290516474e+17
19204.0	5.725490519561556e+17
19205.0	5.7246070935825043e+17
19206.0	5.7236711933651616e+17
19207.0	5.722574324148905e+17
19208.0	5.72161208230434e+17
19209.0	5.720691612232362e+17
19210.0	5.719686425608192e+17
19211.0	5.7186788643089043e+17
19212.0	5.717644534961492e+17
19213.0	5.716519768031232e+17
19214.0	5.7155251363730765e+17
19215.0	5.714544185136468e+17
19216.0	5.7135174153229645e+17
19217.0	5.7124259609531725e+17
19218.0	5.711213498815828e+17
19219.0	5.71022840570402e+17
19220.0	5.7093597436750496e+17
19221.0	5.708301994732202e+17
19222.0	5.7073279515142816e+17
19223.0	5.706324601995263e+17
19224.0	5.705273224899241e+17
19225.0	5.7042569583220026e+17
19226.0	5.703247793400489e+17
19227.0	5.702228258062335e+17
19228.0	5.701224904349013e+17
19229.0	5.70019616461073e+17
19230.0	5.699162727251967e+17
19231.0	5.698125225612628e+17
19232.0	5.697101661645481e+17
19233.0	5.696024741937151e+17
19234.0	5.6950430056666445e+17
19235.0	5.693989197272406e+17
19236.0	5.6929894891083085e+17
19237.0	5.691953324053845e+17
19238.0	5.690866024841215e+17
19239.0	5.6899038710770336e+17
19240.0	5.6888792473490765e+17
19241.0	5.687833919837524e+17
19242.0	5.6868093904814074e+17
19243.0	5.6856547286493856e+17
19244.0	5.684768545614505e+17
19245.0	5.6837340925351245e+17
19246.0	5.682707084345343e+17
19247.0	5.6816750835357005e+17
19248.0	5.68065225916416e+17
19249.0	5.6795956685482656e+17
19250.0	5.6784471835279366e+17
19251.0	5.6773631803391974e+17
19252.0	5.676278434758656e+17
19253.0	5.6755013301917005e+17
19254.0	5.6744917346549754e+17
19255.0	5.673289809308329e+17
19256.0	5.6724251703159456e+17
19257.0	5.671407765684224e+17
19258.0	5.6703738711463245e+17
19259.0	5.669239960633343e+17
19260.0	5.6680148498732365e+17
19261.0	5.667242172394154e+17
19262.0	5.666176099155968e+17
19263.0	5.6651033164294816e+17
19264.0	5.6639348071028045e+17
19265.0	5.663009321342292e+17
19266.0	5.6619785375798605e+17
19267.0	5.6611236335670605e+17
19268.0	5.6601019053069645e+17
19269.0	5.659073768849407e+17
19270.0	5.658008368097961e+17
19271.0	5.656891020891476e+17
19272.0	5.655965427477161e+17
19273.0	5.6548103762739194e+17
19274.0	5.653608875950079e+17
19275.0	5.652925746861396e+17
19276.0	5.6518861711387296e+17
19277.0	5.650864705721685e+17
19278.0	5.6498146791915514e+17
19279.0	5.6487797081156256e+17
19280.0	5.6477479023411194e+17
19281.0	5.646730727697066e+17
19282.0	5.6457052021937485e+17
19283.0	5.644654267596798e+17
19284.0	5.6435769200694605e+17
19285.0	5.642502953151145e+17
19286.0	5.6413663505940474e+17
19287.0	5.6399580724811085e+17
19288.0	5.634802919844521e+17
19289.0	5.632112918353235e+17
19290.0	5.63676490900002e+17
19291.0	5.636051441112406e+17
19292.0	5.6353810759898445e+17
19293.0	5.6344103903122765e+17
19294.0	5.6333937098970445e+17
19295.0	5.63240327324194e+17
19296.0	5.630967161727659e+17
19297.0	5.6302732260147194e+17
19298.0	5.629316887653034e+17
19299.0	5.6278499934426445e+17
19300.0	5.6272824964218874e+17
19301.0	5.6262656489335456e+17
19302.0	5.6252243325747194e+17
19303.0	5.624148910232917e+17
19304.0	5.6231674151348896e+17
19305.0	5.622123151578452e+17
19306.0	5.621084439183358e+17
19307.0	5.620005849442985e+17
19308.0	5.618947201520979e+17
19309.0	5.617820941418494e+17
19310.0	5.6167219715549856e+17
19311.0	5.6157017043107834e+17
19312.0	5.614579603559764e+17
19313.0	5.612903456221866e+17
19314.0	5.586160088776708e+17
19315.0	5.586732455384422e+17
19316.0	5.609305388613632e+17
19317.0	5.609470996512767e+17
19318.0	5.6086196912128e+17
19319.0	5.607676164352681e+17
19320.0	5.606509362806783e+17
19321.0	5.605278174500179e+17
19322.0	5.604604502867967e+17
19323.0	5.603571809998164e+17
19324.0	5.602541214280362e+17
19325.0	5.601512361994921e+17
19326.0	5.6005128929061536e+17
19327.0	5.5994953149098656e+17
19328.0	5.597746116777301e+17
19329.0	5.597457957606741e+17
19330.0	5.596420356003156e+17
19331.0	5.5953583023063034e+17
19332.0	5.594363873372841e+17
19333.0	5.59331468780066e+17
19334.0	5.5922817915071136e+17
19335.0	5.589767844528129e+17
19336.0	5.5902009917003085e+17
19337.0	5.5891766461945165e+17
19338.0	5.587960496564905e+17
19339.0	5.587075357212671e+17
19340.0	5.5859242395675296e+17
19341.0	5.584340324974592e+17
19342.0	5.5836158861858125e+17
19343.0	5.582815039761066e+17
19344.0	5.5811163305629005e+17
19345.0	5.579597785595903e+17
19346.0	5.578936935951017e+17
19347.0	5.577824384232105e+17
19348.0	5.577596755159721e+17
19349.0	5.5765472787824634e+17
19350.0	5.5752397198895776e+17
19351.0	5.5744476808041805e+17
19352.0	5.5726304720322534e+17
19353.0	5.5723795324163405e+17
19354.0	5.571323703765673e+17
19355.0	5.5701740960699725e+17
19356.0	5.56919243809314e+17
19357.0	5.5681229471962445e+17
19358.0	5.5670406510892365e+17
19359.0	5.565787077083135e+17
19360.0	5.5642862362733216e+17
19361.0	5.563802477832873e+17
19362.0	5.5627350477373434e+17
19363.0	5.5616532039161165e+17
19364.0	5.560565925675007e+17
19365.0	5.559474500665343e+17
19366.0	5.558377696460799e+17
19367.0	5.557262612780372e+17
19368.0	5.5561584119207245e+17
19369.0	5.5550256751138125e+17
19370.0	5.5539172058507936e+17
19371.0	5.552778067836926e+17
19372.0	5.551705040442708e+17
19373.0	5.550566765756415e+17
19374.0	5.54944582333235e+17
19375.0	5.5483115870617594e+17
19376.0	5.5471696933901645e+17
19377.0	5.546012245841236e+17
19378.0	5.5448560964293965e+17
19379.0	5.543677347408554e+17
19380.0	5.542488902554963e+17
19381.0	5.541304561827839e+17
19382.0	5.540040576161109e+17
19383.0	5.5388620536326816e+17
19384.0	5.537683176685566e+17
19385.0	5.5364690123598496e+17
19386.0	5.535227540318889e+17
19387.0	5.5339593778244256e+17
19388.0	5.5326296072956576e+17
19389.0	5.531174863284906e+17
19390.0	5.5291310670260896e+17
19391.0	5.520668888137725e+17
19392.0	5.5248364639354874e+17
19393.0	5.525802575724543e+17
19394.0	5.524769150249641e+17
19395.0	5.523270675726336e+17
19396.0	5.522051881588052e+17
19397.0	5.520720960421887e+17
19398.0	5.519046720094207e+17
19399.0	5.517339890024447e+17
19400.0	5.5160644476163405e+17
19401.0	5.514843224976041e+17
19402.0	5.5132986256916474e+17
19403.0	5.5117252681618765e+17
19404.0	5.5101403525283834e+17
19405.0	5.508481430497962e+17
19406.0	5.5067901494121805e+17
19407.0	5.504716562410153e+17
19408.0	5.502949449007103e+17
19409.0	5.5013468599746554e+17
19410.0	5.4996222663284045e+17
19411.0	5.4977266289650336e+17
19412.0	5.4957317907196576e+17
19413.0	5.4934150710995616e+17
19414.0	5.4914986621446816e+17
19415.0	5.4892171145598285e+17
19416.0	5.48677013873186e+17
19417.0	5.484446005679444e+17
19418.0	5.4819395602131616e+17
19419.0	5.4793059161866234e+17
19420.0	5.476540189332821e+17
19421.0	5.4735913608369485e+17
19422.0	5.470535679650473e+17
19423.0	5.467349347991551e+17
19424.0	5.46392365928721e+17
19425.0	5.4602824169117005e+17
19426.0	5.456452728651775e+17
19427.0	5.4522322319223456e+17
19428.0	5.4476413529838925e+17
19429.0	5.442660795940862e+17
19430.0	5.4369691694530554e+17
19431.0	5.4311032088166394e+17
19432.0	5.426040943935487e+17
19433.0	5.419859728225621e+17
19434.0	5.412778993691306e+17
19435.0	5.4045329535795194e+17
19436.0	5.395516575012181e+17
19437.0	5.3851821895406925e+17
19438.0	5.36126752222959e+17
19439.0	5.3598756522338976e+17
19440.0	5.351904006285994e+17
19441.0	5.3379390228834976e+17
19442.0	5.3214326680453114e+17
19443.0	5.303029420348757e+17
19444.0	5.280916392553129e+17
19445.0	5.25458662752256e+17
19446.0	5.2232121724436474e+17
19447.0	5.1834443991613414e+17
19448.0	5.131291608132269e+17
19449.0	5.055825562654036e+17
19450.0	4.916142980202488e+17
19451.0	4.796871123227996e+17
19452.0	4.999805729592661e+17
19453.0	5.094937598448985e+17
19454.0	5.154437560183463e+17
19455.0	5.1974762041180154e+17
19456.0	5.23010565926639e+17
19457.0	5.2551619168610976e+17
19458.0	5.20412156011049e+17
19459.0	5.2845885280747686e+17
19460.0	5.312141104687785e+17
19461.0	5.326639179934378e+17
19462.0	5.338649907079851e+17
19463.0	5.348823940814163e+17
19464.0	5.3576653700683085e+17
19465.0	5.3655833729652045e+17
19466.0	5.3725232641693e+17
19467.0	5.3787398777077754e+17
19468.0	5.384147516959402e+17
19469.0	5.388195075544404e+17
19470.0	5.392938205620906e+17
19471.0	5.3966519507353594e+17
19472.0	5.3998974241778336e+17
19473.0	5.402844272962218e+17
19474.0	5.404954211297961e+17
19475.0	5.407490325173589e+17
19476.0	5.409812895847764e+17
19477.0	5.4116556821845325e+17
19478.0	5.413239817677481e+17
19479.0	5.414089060777983e+17
19480.0	5.415683463927124e+17
19481.0	5.416689713108308e+17
19482.0	5.4176094953144314e+17
19483.0	5.4183446610356896e+17
19484.0	5.4189492811421e+17
19485.0	5.4194347795196576e+17
19486.0	5.419297818017792e+17
19487.0	5.4201254884147194e+17
19488.0	5.420337467140778e+17
19489.0	5.4201796256945485e+17
19490.0	5.4199589360981325e+17
19491.0	5.420403242915155e+17
19492.0	5.42040619360802e+17
19493.0	5.420247037946538e+17
19494.0	5.420004072401578e+17
19495.0	5.4196685448587936e+17
19496.0	5.4190715639780685e+17
19497.0	5.4183085033390074e+17
19498.0	5.4131300170902163e+17
19499.0	5.405622704362836e+17
19500.0	5.416530851048106e+17
19501.0	5.4173005911162874e+17
19502.0	5.4171095328795296e+17
19503.0	5.416706515490132e+17
19504.0	5.416204472680446e+17
19505.0	5.415635233625428e+17
19506.0	5.4150605300913485e+17
19507.0	5.414438397367637e+17
19508.0	5.413726254181034e+17
19509.0	5.4127285823515296e+17
19510.0	5.410165430594217e+17
19511.0	5.372638438359025e+17
19512.0	5.4044921080490656e+17
19513.0	5.405130056095059e+17
19514.0	5.4054477117085e+17
19515.0	5.4083551836678816e+17
19516.0	5.408104481030143e+17
19517.0	5.4075961551530656e+17
19518.0	5.406792959918079e+17
19519.0	5.406055611061588e+17
19520.0	5.404923476836351e+17
19521.0	5.4047404709642234e+17
19522.0	5.403845473599487e+17
19523.0	5.403024319053824e+17
19524.0	5.401981016692054e+17
19525.0	5.4015834148481696e+17
19526.0	5.4007914715327136e+17
19527.0	5.3999657521861965e+17
19528.0	5.3990896907059194e+17
19529.0	5.3982274040190285e+17
19530.0	5.3974729172363936e+17
19531.0	5.3966344562933754e+17
19532.0	5.3957862750508365e+17
19533.0	5.3949330096128e+17
19534.0	5.3940730563570336e+17
19535.0	5.393191403170474e+17
19536.0	5.39230682096162e+17
19537.0	5.391443839418367e+17
19538.0	5.3899413872967686e+17
19539.0	5.389513208976724e+17
19540.0	5.38880267850001e+17
19541.0	5.3878372517806074e+17
19542.0	5.3870291974444365e+17
19543.0	5.385663772535466e+17
19544.0	5.385256583910741e+17
19545.0	5.3840888987648e+17
19546.0	5.383158986615466e+17
19547.0	5.3826168805130234e+17
19548.0	5.381783390519296e+17
19549.0	5.380813992493056e+17
19550.0	5.3800108224238925e+17
19551.0	5.379112513656149e+17
19552.0	5.3782081671877965e+17
19553.0	5.3772913454612474e+17
19554.0	5.3763832297117005e+17
19555.0	5.375410792213162e+17
19556.0	5.3745356003519136e+17
19557.0	5.3736635947636045e+17
19558.0	5.372758900867071e+17
19559.0	5.3718493115187194e+17
19560.0	5.370711059202047e+17
19561.0	5.369996712607743e+17
19562.0	5.368900066388649e+17
19563.0	5.368196915090772e+17
19564.0	5.367278283522047e+17
19565.0	5.366357830926334e+17
19566.0	5.365422633953962e+17
19567.0	5.3645138841654605e+17
19568.0	5.363573033970345e+17
19569.0	5.3626573740660045e+17
19570.0	5.3617413953945594e+17
19571.0	5.3608188295686816e+17
19572.0	5.359868850470911e+17
19573.0	5.358895630734677e+17
19574.0	5.357939216875519e+17
19575.0	5.3571245383352314e+17
19576.0	5.356152976048126e+17
19577.0	5.355137652490239e+17
19578.0	5.354325508008617e+17
19579.0	5.3533833673659725e+17
19580.0	5.352458837207722e+17
19581.0	5.351548140563115e+17
19582.0	5.350623663532715e+17
19583.0	5.349692988020053e+17
19584.0	5.348751914128725e+17
19585.0	5.3477210318001485e+17
19586.0	5.346759892358485e+17
19587.0	5.3459012134720845e+17
19588.0	5.3448345033987405e+17
19589.0	5.3440207511005856e+17
19590.0	5.3430688111656954e+17
19591.0	5.342222498485589e+17
19592.0	5.3413055907758074e+17
19593.0	5.3403021629631136e+17
19594.0	5.339170097943891e+17
19595.0	5.338490056562004e+17
19596.0	5.337507173848404e+17
19597.0	5.336609611666773e+17
19598.0	5.3353962456569165e+17
19599.0	5.3347314624539296e+17
19600.0	5.3338241100677114e+17
19601.0	5.3328389316717216e+17
19602.0	5.3318557798236154e+17
19603.0	5.3308237496538445e+17
19604.0	5.3299802338754554e+17
19605.0	5.328947108992341e+17
19606.0	5.3282094141057683e+17
19607.0	5.3272957255243085e+17
19608.0	5.326353357690196e+17
19609.0	5.325401460397398e+17
19610.0	5.3242345190413645e+17
19611.0	5.323174456240811e+17
19612.0	5.3226274092482554e+17
19613.0	5.321680604539561e+17
19614.0	5.320712973713407e+17
19615.0	5.3197825065178445e+17
19616.0	5.31852587696128e+17
19617.0	5.317458307754666e+17
19618.0	5.316558649120083e+17
19619.0	5.3154690717013325e+17
19620.0	5.314629683817129e+17
19621.0	5.313547651252223e+17
19622.0	5.3132142642025805e+17
19623.0	5.3122514470393165e+17
19624.0	5.311235028768085e+17
19625.0	5.310372146490026e+17
19626.0	5.3093777930540365e+17
19627.0	5.308331216338943e+17
19628.0	5.3071602575387296e+17
19629.0	5.3044176902335123e+17
19630.0	5.3034329095973536e+17
19631.0	5.301348806776149e+17
19632.0	5.302596832417108e+17
19633.0	5.302372370044244e+17
19634.0	5.301773580719445e+17
19635.0	5.30087227232529e+17
19636.0	5.299479982899198e+17
19637.0	5.298308884987903e+17
19638.0	5.2982347380817914e+17
19639.0	5.2973416575139834e+17
19640.0	5.296188445513044e+17
19641.0	5.2948515181035514e+17
19642.0	5.29449899594001e+17
19643.0	5.293584435642366e+17
19644.0	5.292647814703785e+17
19645.0	5.29169290240546e+17
19646.0	5.29020299125282e+17
19647.0	5.2899340748499616e+17
19648.0	5.2890151168245754e+17
19649.0	5.2880857569252685e+17
19650.0	5.2871606290786976e+17
19651.0	5.286224608624639e+17
19652.0	5.285293183030613e+17
19653.0	5.2843632603955194e+17
19654.0	5.283430758263466e+17
19655.0	5.282498937705812e+17
19656.0	5.281573992311466e+17
19657.0	5.2806394063093754e+17
19658.0	5.279710985934164e+17
