# Flux units: erg / (cm m2 s)
# Wavelength units: Angstrom
wave	flux
19000.0	5.1023511545009485e+17
19001.0	5.101266801786879e+17
19002.0	5.100464017593685e+17
19003.0	5.099503200414377e+17
19004.0	5.0985532625605965e+17
19005.0	5.097607814709247e+17
19006.0	5.0966702878010016e+17
19007.0	5.095656006527658e+17
19008.0	5.0946951872511994e+17
19009.0	5.093692907279701e+17
19010.0	5.092177166903977e+17
19011.0	5.091866466145621e+17
19012.0	5.0900673474068454e+17
19013.0	5.090048739377151e+17
19014.0	5.0890394528208205e+17
19015.0	5.0881025452714656e+17
19016.0	5.0871314548435616e+17
19017.0	5.086274796213589e+17
19018.0	5.0852820114472954e+17
19019.0	5.0843750812876794e+17
19020.0	5.083418508744021e+17
19021.0	5.0824988125211296e+17
19022.0	5.081549056420522e+17
19023.0	5.0805560703276365e+17
19024.0	5.079615078924287e+17
19025.0	5.078652281334442e+17
19026.0	5.0776639683952634e+17
19027.0	5.076138037957972e+17
19028.0	5.07589465018641e+17
19029.0	5.074919167623168e+17
19030.0	5.074014168241493e+17
19031.0	5.0730829397797536e+17
19032.0	5.0721286118877856e+17
19033.0	5.071063835388587e+17
19034.0	5.07022663483392e+17
19035.0	5.069213026047317e+17
19036.0	5.017181304302245e+17
19037.0	5.0673760970560845e+17
19038.0	5.0664498353493325e+17
19039.0	5.065538876560725e+17
19040.0	5.0646029050402125e+17
19041.0	5.0636495131770874e+17
19042.0	5.062041073789609e+17
19043.0	5.06178722402577e+17
19044.0	5.060823442172585e+17
19045.0	5.0598766136961696e+17
19046.0	5.0588741715449165e+17
19047.0	5.0579970384199674e+17
19048.0	5.056659345549994e+17
19049.0	5.054940284190719e+17
19050.0	5.0551106596154016e+17
19051.0	5.047442791028042e+17
19052.0	5.0520618459026765e+17
19053.0	5.052365373003093e+17
19054.0	5.051447837545813e+17
19055.0	5.0500072639911264e+17
19056.0	5.0494689802977274e+17
19057.0	5.0486217294916256e+17
19058.0	5.04707454022451e+17
19059.0	5.0465251248482976e+17
19060.0	5.04577823744546e+17
19061.0	5.044882287973717e+17
19062.0	5.043936942882815e+17
19063.0	5.0430024757193376e+17
19064.0	5.0418832900095994e+17
19065.0	5.0409010378397005e+17
19066.0	5.0399076141410976e+17
19067.0	5.0392384877363194e+17
19068.0	5.038319101891925e+17
19069.0	5.037384599775913e+17
19070.0	5.036406384623615e+17
19071.0	5.0354774525433165e+17
19072.0	5.034347743324842e+17
19073.0	5.0336333659723085e+17
19074.0	5.032705194459134e+17
19075.0	5.0317696430680723e+17
19076.0	5.030804921690793e+17
19077.0	5.0298736974233594e+17
19078.0	5.0288993703908685e+17
19079.0	5.028023520023893e+17
19080.0	5.0270721267466234e+17
19081.0	5.0260986504587936e+17
19082.0	5.025163332550655e+17
19083.0	5.0241661696300365e+17
19084.0	5.0230716359420595e+17
19085.0	5.0223965857819296e+17
19086.0	5.0206818606339405e+17
19087.0	5.018825881812992e+17
19088.0	5.01919002988817e+17
19089.0	5.0178034461136205e+17
19090.0	5.0177099096391674e+17
19091.0	5.016715021429417e+17
19092.0	5.015111039888041e+17
19093.0	5.014955940817578e+17
19094.0	5.0140250248314874e+17
19095.0	5.0130929407317325e+17
19096.0	5.0121359131060896e+17
19097.0	5.011225596745045e+17
19098.0	5.0100501297670816e+17
19099.0	5.0090733826211834e+17
19100.0	5.0083397100721485e+17
19101.0	5.007469315096575e+17
19102.0	5.006388936485546e+17
19103.0	5.0056330362224634e+17
19104.0	5.004711693735253e+17
19105.0	5.003251269937834e+17
19106.0	5.002608116760575e+17
19107.0	5.0017519579518285e+17
19108.0	5.0007905200155296e+17
19109.0	4.9967284085937446e+17
19110.0	4.99904390697233e+17
19111.0	4.998031625682942e+17
19112.0	4.99709179540275e+17
19113.0	4.996335012238677e+17
19114.0	4.9953072833276576e+17
19115.0	4.994291002769407e+17
19116.0	4.993528181904724e+17
19117.0	4.992593373604522e+17
19118.0	4.991203154766506e+17
19119.0	4.977279432829594e+17
19120.0	4.98820172550417e+17
19121.0	4.9873951978946554e+17
19122.0	4.986762564730879e+17
19123.0	4.985835837456382e+17
19124.0	4.984703009073834e+17
19125.0	4.9839553142674765e+17
19126.0	4.983046000345087e+17
19127.0	4.9795059210868045e+17
19128.0	4.980685211172862e+17
19129.0	4.9801763652020896e+17
19130.0	4.97932675579904e+17
19131.0	4.9784058893653325e+17
19132.0	4.9774960036194976e+17
19133.0	4.9763975426648736e+17
19134.0	4.9754191639347194e+17
19135.0	4.9747067439240525e+17
19136.0	4.973803587239935e+17
19137.0	4.972642803122175e+17
19138.0	4.9719191116185594e+17
19139.0	4.9710290761154554e+17
19140.0	4.9701072953234765e+17
19141.0	4.9691828427598496e+17
19142.0	4.9682133112149325e+17
19143.0	4.967250772273834e+17
19144.0	4.9663605578137594e+17
19145.0	4.9654810968500896e+17
19146.0	4.963715160648363e+17
19147.0	4.963489339321002e+17
19148.0	4.962507071072938e+17
19149.0	4.9615555184121165e+17
19150.0	4.9608646480363514e+17
19151.0	4.959945494276778e+17
19152.0	4.958979304893098e+17
19153.0	4.9577093052934816e+17
19154.0	4.9569462090028365e+17
19155.0	4.9562518349851296e+17
19156.0	4.9553391327641594e+17
19157.0	4.9542327676436474e+17
19158.0	4.951039787313831e+17
19159.0	4.9525415271028045e+17
19160.0	4.951598706982911e+17
19161.0	4.95068739866897e+17
19162.0	4.944682802304346e+17
19163.0	4.948770159241898e+17
19164.0	4.9479660426581325e+17
19165.0	4.9465137509171194e+17
19166.0	4.9458095209840634e+17
19167.0	4.944728882326187e+17
19168.0	4.9442777646585165e+17
19169.0	4.9432667577384954e+17
19170.0	4.942456739769002e+17
19171.0	4.9412060849984845e+17
19172.0	4.9405922031697914e+17
19173.0	4.939682053881855e+17
19174.0	4.938697659121662e+17
19175.0	4.9378649115197434e+17
19176.0	4.9369459681744205e+17
19177.0	4.93581789892881e+17
19178.0	4.9349877105513805e+17
19179.0	4.9337262596423674e+17
19180.0	4.933238903188138e+17
19181.0	4.9321518472451405e+17
19182.0	4.9313974198818125e+17
19183.0	4.93052430000674e+17
19184.0	4.9295964311825056e+17
19185.0	4.9286765818675194e+17
19186.0	4.9277732350416205e+17
19187.0	4.9267629313665696e+17
19188.0	4.9259250855881376e+17
19189.0	4.9250030265739936e+17
19190.0	4.9240665552322554e+17
19191.0	4.9230949810612896e+17
19192.0	4.922272971576661e+17
19193.0	4.9212855506261325e+17
19194.0	4.9203407011621536e+17
19195.0	4.919519967444991e+17
19196.0	4.918574654510421e+17
19197.0	4.917656105429674e+17
19198.0	4.9166799748464634e+17
19199.0	4.8868411173765037e+17
19200.0	4.8949338962220474e+17
19201.0	4.9139443665906336e+17
19202.0	4.913097890332671e+17
19203.0	4.912105062924287e+17
19204.0	4.9112353278525434e+17
19205.0	4.910362540026538e+17
19206.0	4.9094392122354336e+17
19207.0	4.9083881594989216e+17
19208.0	4.9072896810680314e+17
19209.0	4.906709663350783e+17
19210.0	4.905794109702143e+17
19211.0	4.9048986257981434e+17
19212.0	4.903979949490175e+17
19213.0	4.902704340008959e+17
19214.0	4.9016447826220365e+17
19215.0	4.901126249207124e+17
19216.0	4.90032882393634e+17
19217.0	4.899406112707924e+17
19218.0	4.8973092836693306e+17
19219.0	4.8973972088640826e+17
19220.0	4.896626113336661e+17
19221.0	4.895297636750677e+17
19222.0	4.894838377239891e+17
19223.0	4.893911961741994e+17
19224.0	4.892967294031189e+17
19225.0	4.891901184442366e+17
19226.0	4.8911707044577274e+17
19227.0	4.890261904337578e+17
19228.0	4.8893804762453325e+17
19229.0	4.8884671826274976e+17
19230.0	4.8875267322893645e+17
19231.0	4.886613362475008e+17
19232.0	4.885713924740436e+17
19233.0	4.884718626187945e+17
19234.0	4.883872823115775e+17
19235.0	4.882950402692436e+17
19236.0	4.8820813659723085e+17
19237.0	4.8811437104387405e+17
19238.0	4.880082136989695e+17
19239.0	4.879348553919146e+17
19240.0	4.8784140762699085e+17
19241.0	4.87749080650001e+17
19242.0	4.8765907228426234e+17
19243.0	4.875490803668308e+17
19244.0	4.874791157410475e+17
19245.0	4.873872798471508e+17
19246.0	4.872942815019007e+17
19247.0	4.8720443342847994e+17
19248.0	4.871135234970964e+17
19249.0	4.870195057961642e+17
19250.0	4.869212023554047e+17
19251.0	4.868155793648298e+17
19252.0	4.8671480310224205e+17
19253.0	4.8665469362285216e+17
19254.0	4.86566785135411e+17
19255.0	4.8645298478994765e+17
19256.0	4.8637852778495994e+17
19257.0	4.862935046291455e+17
19258.0	4.8620260839915514e+17
19259.0	4.861024913413459e+17
19260.0	4.8590829185051283e+17
19261.0	4.859271699234815e+17
19262.0	4.858295736423764e+17
19263.0	4.857367088857087e+17
19264.0	4.8557323952237203e+17
19265.0	4.855335238675113e+17
19266.0	4.854277369495552e+17
19267.0	4.8538175661233485e+17
19268.0	4.8528942082730656e+17
19269.0	4.8519870019884365e+17
19270.0	4.851076368957439e+17
19271.0	4.8496533136124595e+17
19272.0	4.849202571334996e+17
19273.0	4.8473573865553894e+17
19274.0	4.846607739300521e+17
19275.0	4.8465116463977805e+17
19276.0	4.845569807745023e+17
19277.0	4.8446639366471674e+17
19278.0	4.843741449114964e+17
19279.0	4.8427930428811936e+17
19280.0	4.841803013073578e+17
19281.0	4.84099777241634e+17
19282.0	4.84010548527104e+17
19283.0	4.8387373130929485e+17
19284.0	4.8380866982488736e+17
19285.0	4.837114355122174e+17
19286.0	4.836390833487871e+17
19287.0	4.8355139051847674e+17
19288.0	4.819751272447983e+17
19289.0	4.798049610104778e+17
19290.0	4.8291029667457696e+17
19291.0	4.8278604845765965e+17
19292.0	4.8272791547412474e+17
19293.0	4.826350729472682e+17
19294.0	4.825423623312724e+17
19295.0	4.8245218535451296e+17
19296.0	4.823356153004032e+17
19297.0	4.822564146074966e+17
19298.0	4.821717094498303e+17
19299.0	4.820556504017578e+17
19300.0	4.8198866638820685e+17
19301.0	4.818980707500032e+17
19302.0	4.818041695808171e+17
19303.0	4.817021755020629e+17
19304.0	4.8161645658111994e+17
19305.0	4.815258950565887e+17
19306.0	4.814324073758718e+17
19307.0	4.8133227542828365e+17
19308.0	4.812432695012011e+17
19309.0	4.8104213200240634e+17
19310.0	4.809173369181523e+17
19311.0	4.809531840266239e+17
19312.0	4.808757887019689e+17
19313.0	4.807829484819798e+17
19314.0	4.719846582736282e+17
19315.0	4.724828017087913e+17
19316.0	4.8046034421896525e+17
19317.0	4.8040846578155514e+17
19318.0	4.8031493727627936e+17
19319.0	4.802235300402517e+17
19320.0	4.80117776257297e+17
19321.0	4.8001384741601274e+17
19322.0	4.7992506819106125e+17
19323.0	4.797990907325098e+17
19324.0	4.7974791470120954e+17
19325.0	4.795485937554773e+17
19326.0	4.795614665637887e+17
19327.0	4.7946397528009376e+17
19328.0	4.793265002556074e+17
19329.0	4.7927742766776314e+17
19330.0	4.791011865089364e+17
19331.0	4.7900048525448525e+17
19332.0	4.7890928172182176e+17
19333.0	4.7881114416578554e+17
19334.0	4.7871568152712525e+17
19335.0	4.78530690351104e+17
19336.0	4.784197791820457e+17
19337.0	4.781569972284074e+17
19338.0	4.780311102270121e+17
19339.0	4.7796029590514336e+17
19340.0	4.778355057142442e+17
19341.0	4.777236511763114e+17
19342.0	4.7759374938712736e+17
19343.0	4.7756589662208e+17
19344.0	4.774331775888043e+17
19345.0	4.7705653356352806e+17
19346.0	4.7713347758107283e+17
19347.0	4.771131717670228e+17
19348.0	4.770647792156672e+17
19349.0	4.7695766396163405e+17
19350.0	4.768404532974932e+17
19351.0	4.7675312662992205e+17
19352.0	4.765995931533311e+17
19353.0	4.7655274515442336e+17
19354.0	4.7644987530499405e+17
19355.0	4.763323075657728e+17
19356.0	4.759327893443924e+17
19357.0	4.75814978195729e+17
19358.0	4.757050700944724e+17
19359.0	4.7557870613080736e+17
19360.0	4.754497939177471e+17
19361.0	4.7537395761588896e+17
19362.0	4.752695181879977e+17
19363.0	4.7515789433678496e+17
19364.0	4.7504528957767674e+17
19365.0	4.7493230208832845e+17
19366.0	4.748180502260393e+17
19367.0	4.745531157555881e+17
19368.0	4.744003101305514e+17
19369.0	4.742722441882282e+17
19370.0	4.7414966649268915e+17
19371.0	4.7403335599609165e+17
19372.0	4.7391748674027514e+17
19373.0	4.737902973375829e+17
19374.0	4.73667499930419e+17
19375.0	4.7354022111914656e+17
19376.0	4.7341265695539194e+17
19377.0	4.73280806981905e+17
19378.0	4.731491096810836e+17
19379.0	4.7301542987257165e+17
19380.0	4.728791935658666e+17
19381.0	4.7274063613132794e+17
19382.0	4.72591573922611e+17
19383.0	4.724426694197247e+17
19384.0	4.7231098400276474e+17
19385.0	4.7216430877245434e+17
19386.0	4.7201421357656736e+17
19387.0	4.718599337235796e+17
19388.0	4.717037011424596e+17
19389.0	4.715433042466134e+17
19390.0	4.713782650950996e+17
19391.0	4.6659312997279763e+17
19392.0	4.70956456524731e+17
19393.0	4.7086662970245114e+17
19394.0	4.7068441914026656e+17
19395.0	4.7048240398335994e+17
19396.0	4.7030267882591565e+17
19397.0	4.7012212948773536e+17
19398.0	4.6990438715883514e+17
19399.0	4.695945410598228e+17
19400.0	4.694876624344405e+17
19401.0	4.6928971267659085e+17
19402.0	4.6906640352761165e+17
19403.0	4.688335614246911e+17
19404.0	4.685970902002346e+17
19405.0	4.683483466519892e+17
19406.0	4.680940917183828e+17
19407.0	4.6781566654873594e+17
19408.0	4.6744280536623795e+17
19409.0	4.672734862071125e+17
19410.0	4.6698349251788794e+17
19411.0	4.666815526120106e+17
19412.0	4.6636639400755194e+17
19413.0	4.6602586972050765e+17
19414.0	4.6569842683849376e+17
19415.0	4.653510168324778e+17
19416.0	4.649501789432491e+17
19417.0	4.645578028526249e+17
19418.0	4.64226407747857e+17
19419.0	4.6382418713640954e+17
19420.0	4.6341272185951565e+17
19421.0	4.629849313727829e+17
19422.0	4.625239066891604e+17
19423.0	4.6207069305787725e+17
19424.0	4.6160600646724256e+17
19425.0	4.611340391241045e+17
19426.0	4.606495928877055e+17
19427.0	4.601502420522325e+17
19428.0	4.59646958707234e+17
19429.0	4.591284401821013e+17
19430.0	4.58513360599996e+17
19431.0	4.5727978559460794e+17
19432.0	4.574997416072532e+17
19433.0	4.569380133623126e+17
19434.0	4.5639422625273165e+17
19435.0	4.5565663985882445e+17
19436.0	4.5474368360284115e+17
19437.0	4.5434976897160506e+17
19438.0	4.4487014966012883e+17
19439.0	4.5170692767525594e+17
19440.0	4.4960042356572064e+17
19441.0	4.4527490530891174e+17
19442.0	4.424590318458198e+17
19443.0	4.3990554488340474e+17
19444.0	4.3698281551407763e+17
19445.0	4.3392992836321286e+17
19446.0	4.3013089207692e+17
19447.0	4.2047377079882976e+17
19448.0	4.1013633460032877e+17
19449.0	3.9652067660267725e+17
19450.0	3.50010895569173e+17
19451.0	3.2846083103129434e+17
19452.0	3.787473222806191e+17
19453.0	4.0508624137966944e+17
19454.0	4.143745036102308e+17
19455.0	4.260778883765569e+17
19456.0	4.315351818960895e+17
19457.0	4.3458919067374906e+17
19458.0	4.148933763443654e+17
19459.0	4.3886997667840806e+17
19460.0	4.422323171317074e+17
19461.0	4.460977602254163e+17
19462.0	4.4930945456100736e+17
19463.0	4.5086697775431674e+17
19464.0	4.518197995416234e+17
19465.0	4.524808428934484e+17
19466.0	4.529758674441555e+17
19467.0	4.535046498506068e+17
19468.0	4.539072321508692e+17
19469.0	4.542030994036051e+17
19470.0	4.546915973376681e+17
19471.0	4.550625492729856e+17
19472.0	4.55428696772881e+17
19473.0	4.5577984222603936e+17
19474.0	4.560988444207787e+17
19475.0	4.563350517536084e+17
19476.0	4.5676968231130445e+17
19477.0	4.5708526300255565e+17
19478.0	4.573846601815381e+17
19479.0	4.576416809790121e+17
19480.0	4.579513308545023e+17
19481.0	4.582199937815892e+17
19482.0	4.5847325410590714e+17
19483.0	4.58710439760145e+17
19484.0	4.5892860634289485e+17
19485.0	4.591299328649898e+17
19486.0	4.592944195567615e+17
19487.0	4.5951516556656634e+17
19488.0	4.5968715880420685e+17
19489.0	4.598281416649387e+17
19490.0	4.597779752725159e+17
19491.0	4.601191723958271e+17
19492.0	4.6024730999084365e+17
19493.0	4.603597497739946e+17
19494.0	4.6046211798466554e+17
19495.0	4.605554290152789e+17
19496.0	4.6057504913053e+17
19497.0	4.6071238224773114e+17
19498.0	4.602123518651052e+17
19499.0	4.536939680104421e+17
19500.0	4.6089621684442445e+17
19501.0	4.609438516947626e+17
19502.0	4.6098128355109536e+17
19503.0	4.6101886870923936e+17
19504.0	4.610464187853483e+17
19505.0	4.6106751214987936e+17
19506.0	4.610865302426964e+17
19507.0	4.610952286699519e+17
19508.0	4.6110646604922874e+17
19509.0	4.6110902387561805e+17
19510.0	4.610715537812138e+17
19511.0	4.46245072011258e+17
19512.0	4.599094607609841e+17
19513.0	4.5903397194301114e+17
19514.0	4.5953736385057914e+17
19515.0	4.6093641826959366e+17
19516.0	4.610220752546474e+17
19517.0	4.609945955030357e+17
19518.0	4.609693427870378e+17
19519.0	4.609358241464319e+17
19520.0	4.6088164681099936e+17
19521.0	4.6088460036997114e+17
19522.0	4.6083981247337805e+17
19523.0	4.6080063830316365e+17
19524.0	4.60747001823232e+17
19525.0	4.6072730145696416e+17
19526.0	4.606863447075498e+17
19527.0	4.6064017038376954e+17
19528.0	4.605907754636629e+17
19529.0	4.6054062235320314e+17
19530.0	4.6049723227832314e+17
19531.0	4.604463981527038e+17
19532.0	4.603942833662634e+17
19533.0	4.603409589425493e+17
19534.0	4.6028594484346874e+17
19535.0	4.602284721132885e+17
19536.0	4.601686816107178e+17
19537.0	4.601161443180543e+17
19538.0	4.601176610482858e+17
19539.0	4.600885216105815e+17
19540.0	4.601046657662975e+17
19541.0	4.600386329509888e+17
19542.0	4.5997891396130125e+17
19543.0	4.59885734072593e+17
19544.0	4.598517864245929e+17
19545.0	4.597169488483668e+17
19546.0	4.595928780505086e+17
19547.0	4.5965826326527994e+17
19548.0	4.5959112518096205e+17
19549.0	4.5951134525467296e+17
19550.0	4.594559496836436e+17
19551.0	4.5938791080263674e+17
19552.0	4.594993740819113e+17
19553.0	4.595385365080746e+17
19554.0	4.594651283587071e+17
19555.0	4.5939373976671565e+17
19556.0	4.5932504538589856e+17
19557.0	4.5925493039431674e+17
19558.0	4.5918274803029325e+17
19559.0	4.591102868149587e+17
19560.0	4.5902219377814176e+17
19561.0	4.589604724277247e+17
19562.0	4.588776825290751e+17
19563.0	4.588167676734123e+17
19564.0	4.587455906141525e+17
19565.0	4.5867163322067616e+17
19566.0	4.585926232986964e+17
19567.0	4.585218384068607e+17
19568.0	4.584437360623615e+17
19569.0	4.583683082158079e+17
19570.0	4.582954277797887e+17
19571.0	4.582188145530196e+17
19572.0	4.581396056113152e+17
19573.0	4.580605294193321e+17
19574.0	4.579784179493547e+17
19575.0	4.5791481237777056e+17
19576.0	4.5783544209517216e+17
19577.0	4.5775140676785485e+17
19578.0	4.576775243825151e+17
19579.0	4.5760340418013856e+17
19580.0	4.575260753352019e+17
19581.0	4.574498498019328e+17
19582.0	4.575250677934762e+17
19583.0	4.5754104284883616e+17
19584.0	4.57460157653538e+17
19585.0	4.5736940389007354e+17
19586.0	4.572860562888021e+17
19587.0	4.5720783084148045e+17
19588.0	4.570790870996309e+17
19589.0	4.5708956377197216e+17
19590.0	4.5704192752353274e+17
19591.0	4.569812773983572e+17
19592.0	4.5690331856895994e+17
19593.0	4.5681877146664954e+17
19594.0	4.5670901890416634e+17
19595.0	4.566602536889002e+17
19596.0	4.564841202537813e+17
19597.0	4.565025572257792e+17
19598.0	4.5635126413666976e+17
19599.0	4.5634754616579405e+17
19600.0	4.5626913183498234e+17
19601.0	4.5618002307754656e+17
19602.0	4.561023987438932e+17
19603.0	4.559205956583422e+17
19604.0	4.559382340348587e+17
19605.0	4.55828750536977e+17
19606.0	4.557891051367082e+17
19607.0	4.557103563800575e+17
19608.0	4.556277619359743e+17
19609.0	4.555428390240255e+17
19610.0	4.554530224078847e+17
19611.0	4.5536539081441274e+17
19612.0	4.553097814736896e+17
19613.0	4.552281648616789e+17
19614.0	4.551440947915433e+17
19615.0	4.5506761766993914e+17
19616.0	4.549292458333525e+17
19617.0	4.5488311883530234e+17
19618.0	4.547386085649065e+17
19619.0	4.5463657547912506e+17
19620.0	4.5455518347209376e+17
19621.0	4.545540928831487e+17
19622.0	4.5450610256554656e+17
19623.0	4.544238224845482e+17
19624.0	4.543388230265514e+17
19625.0	4.542641855266815e+17
19626.0	4.541827102627157e+17
19627.0	4.541021468404393e+17
19628.0	4.539439599932758e+17
19629.0	4.5384705577233056e+17
19630.0	4.5367032471879686e+17
19631.0	4.504601717899265e+17
19632.0	4.536948885203625e+17
19633.0	4.5360430252905805e+17
19634.0	4.5353802106142714e+17
19635.0	4.534466945657513e+17
19636.0	4.5333979336103245e+17
19637.0	4.532180321566719e+17
19638.0	4.5320888410002765e+17
19639.0	4.53132457939217e+17
19640.0	4.530347029736107e+17
19641.0	4.527851102186158e+17
19642.0	4.5288858873146016e+17
19643.0	4.528064889356287e+17
19644.0	4.5272194490914125e+17
19645.0	4.5260867178769056e+17
19646.0	4.525297939163818e+17
19647.0	4.5248661565385376e+17
19648.0	4.524071914744489e+17
19649.0	4.523258572090026e+17
19650.0	4.522458552642218e+17
19651.0	4.521644727642794e+17
19652.0	4.520833001193472e+17
19653.0	4.520014647743828e+17
19654.0	4.5192168379951776e+17
