# Flux units: erg / (cm m2 s)
# Wavelength units: Angstrom
wave	flux
19000.0	5.00239384514833e+17
19001.0	5.001309038051328e+17
19002.0	5.000559299919871e+17
19003.0	4.9996325327994874e+17
19004.0	4.9987079579019936e+17
19005.0	4.9977759702712314e+17
19006.0	4.996868619982164e+17
19007.0	4.9959529635730765e+17
19008.0	4.9949287606736205e+17
19009.0	4.9939650648036685e+17
19010.0	4.9922924232048614e+17
19011.0	4.9922147565786445e+17
19012.0	4.990990147037865e+17
19013.0	4.990433366463828e+17
19014.0	4.989436966906538e+17
19015.0	4.9885149050961914e+17
19016.0	4.98756931883281e+17
19017.0	4.986765116265813e+17
19018.0	4.985817973915647e+17
19019.0	4.984916923471189e+17
19020.0	4.983986735895892e+17
19021.0	4.983096589243734e+17
19022.0	4.9821719248677536e+17
19023.0	4.981199306315093e+17
19024.0	4.9802865530634214e+17
19025.0	4.979410735551828e+17
19026.0	4.978448543339861e+17
19027.0	4.9773986629113165e+17
19028.0	4.9766822904681805e+17
19029.0	4.9757348300499616e+17
19030.0	4.974861814333439e+17
19031.0	4.973954391343103e+17
19032.0	4.9730234921342285e+17
19033.0	4.9719661745056416e+17
19034.0	4.971179323075242e+17
19035.0	4.970199802096298e+17
19036.0	4.9529880582990445e+17
19037.0	4.9684199519901e+17
19038.0	4.967510986893993e+17
19039.0	4.966632036237311e+17
19040.0	4.9657260176397645e+17
19041.0	4.9647999278994765e+17
19042.0	4.963112687326548e+17
19043.0	4.9629936431923194e+17
19044.0	4.962062031650815e+17
19045.0	4.961156416405503e+17
19046.0	4.9601412081909754e+17
19047.0	4.959316568877738e+17
19048.0	4.9579309057529165e+17
19049.0	4.95610831778611e+17
19050.0	4.9565028298260474e+17
19051.0	4.9533920949043155e+17
19052.0	4.9544422975952205e+17
19053.0	4.953875401758036e+17
19054.0	4.9529621256164685e+17
19055.0	4.95145479831552e+17
19056.0	4.9510298677848736e+17
19057.0	4.950225975596372e+17
19058.0	4.94863257838114e+17
19059.0	4.948147525298857e+17
19060.0	4.947467611144192e+17
19061.0	4.9466005170858656e+17
19062.0	4.9456823622696954e+17
19063.0	4.94477733143074e+17
19064.0	4.9436595242489165e+17
19065.0	4.9426919884936525e+17
19066.0	4.941719893529942e+17
19067.0	4.9411277116320416e+17
19068.0	4.940239133649578e+17
19069.0	4.9393341328698016e+17
19070.0	4.9383762272365216e+17
19071.0	4.9375039273478816e+17
19072.0	4.936352429419177e+17
19073.0	4.935692234784766e+17
19074.0	4.934799708564138e+17
19075.0	4.9338932069225805e+17
19076.0	4.932951422096724e+17
19077.0	4.932049936842751e+17
19078.0	4.931094552685225e+17
19079.0	4.930263712093523e+17
19080.0	4.929338030598826e+17
19081.0	4.928380732440575e+17
19082.0	4.927478808182783e+17
19083.0	4.9265080057637536e+17
19084.0	4.925413825795412e+17
19085.0	4.924811735553364e+17
19086.0	4.923034768332117e+17
19087.0	4.9221089113757005e+17
19088.0	4.921664794001407e+17
19089.0	4.920762401379669e+17
19090.0	4.9202716545297056e+17
19091.0	4.919311514031445e+17
19092.0	4.917851487993856e+17
19093.0	4.9176085629938336e+17
19094.0	4.9167031889210016e+17
19095.0	4.915804652961791e+17
19096.0	4.914872652748115e+17
19097.0	4.9139959816956576e+17
19098.0	4.912810685366271e+17
19099.0	4.911858072245589e+17
19100.0	4.9112348000692896e+17
19101.0	4.910376546904746e+17
19102.0	4.909257875696297e+17
19103.0	4.9085796217869645e+17
19104.0	4.907689920430079e+17
19105.0	4.9061823666367155e+17
19106.0	4.9058140780844365e+17
19107.0	4.9048017261909325e+17
19108.0	4.9038609102493e+17
19109.0	4.902261640309417e+17
19110.0	4.902256796587349e+17
19111.0	4.9012117319188474e+17
19112.0	4.900286234973524e+17
19113.0	4.8995801826153805e+17
19114.0	4.8985701417833805e+17
19115.0	4.897656982383274e+17
19116.0	4.896859623522303e+17
19117.0	4.895956178130261e+17
19118.0	4.8948985641041914e+17
19119.0	4.875624587984867e+17
19120.0	4.8931486144921594e+17
19121.0	4.8923109987013965e+17
19122.0	4.891506055140691e+17
19123.0	4.89060938424866e+17
19124.0	4.889648601322837e+17
19125.0	4.8888044508064416e+17
19126.0	4.8879027124961274e+17
19127.0	4.8838353309313696e+17
19128.0	4.886040017196373e+17
19129.0	4.885103217999871e+17
19130.0	4.8843073481168205e+17
19131.0	4.8834314229514234e+17
19132.0	4.882535157508777e+17
19133.0	4.8815436736757754e+17
19134.0	4.880714005392042e+17
19135.0	4.8798464604460365e+17
19136.0	4.8789620935447885e+17
19137.0	4.877784051963219e+17
19138.0	4.8771484932724045e+17
19139.0	4.876279666267476e+17
19140.0	4.875387669927251e+17
19141.0	4.874493266056532e+17
19142.0	4.873557126763861e+17
19143.0	4.8725971708149754e+17
19144.0	4.8717533236865696e+17
19145.0	4.8709145139172685e+17
19146.0	4.8690037449031686e+17
19147.0	4.8689582038493856e+17
19148.0	4.8680095802108576e+17
19149.0	4.8670794408700576e+17
19150.0	4.866441386568361e+17
19151.0	4.8655572517519354e+17
19152.0	4.8646540803877536e+17
19153.0	4.8633005959632205e+17
19154.0	4.8626182078682445e+17
19155.0	4.861994450550783e+17
19156.0	4.861103142775466e+17
19157.0	4.860035440749226e+17
19158.0	4.858404830270805e+17
19159.0	4.858394598965247e+17
19160.0	4.857517947486207e+17
19161.0	4.8566427423429965e+17
19162.0	4.854316704377515e+17
19163.0	4.85482637243187e+17
19164.0	4.853979061507412e+17
19165.0	4.852551491693225e+17
19166.0	4.851931872755711e+17
19167.0	4.8511831482477216e+17
19168.0	4.850417264842068e+17
19169.0	4.8495014553408845e+17
19170.0	4.8486522381052576e+17
19171.0	4.847666060066815e+17
19172.0	4.8468683397966496e+17
19173.0	4.845985591896746e+17
19174.0	4.844994465278634e+17
19175.0	4.844209023833429e+17
19176.0	4.843322896023551e+17
19177.0	4.842184562617001e+17
19178.0	4.8415139556229114e+17
19179.0	4.8405331525850445e+17
19180.0	4.8397633733700256e+17
19181.0	4.838617776827051e+17
19182.0	4.837972899091796e+17
19183.0	4.8371235133849594e+17
19184.0	4.83623012663296e+17
19185.0	4.8353293061761696e+17
19186.0	4.834463218750804e+17
19187.0	4.833483226611711e+17
19188.0	4.832689108549632e+17
19189.0	4.8318119243939834e+17
19190.0	4.8309208368196256e+17
19191.0	4.8299818992271354e+17
19192.0	4.829156811822421e+17
19193.0	4.828202464357034e+17
19194.0	4.827270364179114e+17
19195.0	4.826498819861161e+17
19196.0	4.825583062089727e+17
19197.0	4.8247054172596896e+17
19198.0	4.8237829437085005e+17
19199.0	4.814270947306152e+17
19200.0	4.8161741714664134e+17
19201.0	4.8211398037777056e+17
19202.0	4.82030820331793e+17
19203.0	4.8194084461172045e+17
19204.0	4.818505853566976e+17
19205.0	4.8176608523059194e+17
19206.0	4.816764310738261e+17
19207.0	4.815727691999914e+17
19208.0	4.814583756401321e+17
19209.0	4.814131505572521e+17
19210.0	4.813253660813993e+17
19211.0	4.8123949707427834e+17
19212.0	4.811508357791743e+17
19213.0	4.810434699853823e+17
19214.0	4.809488866126507e+17
19215.0	4.8088389370511354e+17
19216.0	4.807991607252307e+17
19217.0	4.807099054467755e+17
19218.0	4.804831491391485e+17
19219.0	4.8051266648364365e+17
19220.0	4.804429491819861e+17
19221.0	4.803037693127338e+17
19222.0	4.802702284423168e+17
19223.0	4.801798094542166e+17
19224.0	4.800887267175082e+17
19225.0	4.799826480857087e+17
19226.0	4.7991628364076365e+17
19227.0	4.798290869267115e+17
19228.0	4.7974488788172794e+17
19229.0	4.796569675803306e+17
19230.0	4.795678249888425e+17
19231.0	4.7947950133521043e+17
19232.0	4.793924450604372e+17
19233.0	4.792948534629717e+17
19234.0	4.792142452315477e+17
19235.0	4.791253687686485e+17
19236.0	4.7904277928782496e+17
19237.0	4.7895205096980474e+17
19238.0	4.7885058642193056e+17
19239.0	4.787802791215104e+17
19240.0	4.7869153093440845e+17
19241.0	4.786015304679424e+17
19242.0	4.785149361957546e+17
19243.0	4.784051595859285e+17
19244.0	4.783425083583145e+17
19245.0	4.7825405363268256e+17
19246.0	4.781644725267114e+17
19247.0	4.780785327057578e+17
19248.0	4.77992250909218e+17
19249.0	4.779027782959102e+17
19250.0	4.7780505751388154e+17
19251.0	4.777025583011155e+17
19252.0	4.7759989194533536e+17
19253.0	4.775503980396543e+17
19254.0	4.774678735006378e+17
19255.0	4.7735188638487885e+17
19256.0	4.772881378574336e+17
19257.0	4.772055552972116e+17
19258.0	4.7711843429034656e+17
19259.0	4.770202085840213e+17
19260.0	4.769046834708479e+17
19261.0	4.768544309553834e+17
19262.0	4.767595135762432e+17
19263.0	4.766702287978495e+17
19264.0	4.7649414331760614e+17
19265.0	4.7646986214222496e+17
19266.0	4.763575576952832e+17
19267.0	4.7633322101527885e+17
19268.0	4.762449838342143e+17
19269.0	4.7615827463809696e+17
19270.0	4.7607118397003085e+17
19271.0	4.759221126736556e+17
19272.0	4.758913473140051e+17
19273.0	4.75740137272115e+17
19274.0	4.756478508400638e+17
19275.0	4.756360517036713e+17
19276.0	4.7554561481987405e+17
19277.0	4.754595955867647e+17
19278.0	4.7537188597923834e+17
19279.0	4.7528317540106234e+17
19280.0	4.751842749011283e+17
19281.0	4.751105350522196e+17
19282.0	4.7502638556992845e+17
19283.0	4.7492701370013005e+17
19284.0	4.748466330096981e+17
19285.0	4.7473770190165325e+17
19286.0	4.746720386045268e+17
19287.0	4.745902982605482e+17
19288.0	4.74064174553497e+17
19289.0	4.7331711798039686e+17
19290.0	4.7432236765893965e+17
19291.0	4.741950051013973e+17
19292.0	4.7414816409299616e+17
19293.0	4.7406011397789e+17
19294.0	4.739723371216896e+17
19295.0	4.738875083019605e+17
19296.0	4.737719449507157e+17
19297.0	4.7370349160256845e+17
19298.0	4.736216729649151e+17
19299.0	4.735076325654528e+17
19300.0	4.734499063595007e+17
19301.0	4.733647828899157e+17
19302.0	4.732762277806079e+17
19303.0	4.7317891056052896e+17
19304.0	4.730994224179882e+17
19305.0	4.7301487482634234e+17
19306.0	4.729292557997396e+17
19307.0	4.728347231780863e+17
19308.0	4.7275181115528525e+17
19309.0	4.726353734314666e+17
19310.0	4.725369756188671e+17
19311.0	4.7248696805075616e+17
19312.0	4.7240687138461e+17
19313.0	4.7232082041460045e+17
19314.0	4.6848757258868096e+17
19315.0	4.6871866280073043e+17
19316.0	4.720195510381226e+17
19317.0	4.7197193177661434e+17
19318.0	4.718853828728149e+17
19319.0	4.718009940355755e+17
19320.0	4.717018799057577e+17
19321.0	4.716025761933994e+17
19322.0	4.7152749906056525e+17
19323.0	4.7143924482266445e+17
19324.0	4.7136444758971725e+17
19325.0	4.712483599504725e+17
19326.0	4.711917536236885e+17
19327.0	4.711019311355221e+17
19328.0	4.7096492622260896e+17
19329.0	4.709316053434368e+17
19330.0	4.708376839017812e+17
19331.0	4.707495945000276e+17
19332.0	4.7066971544835405e+17
19333.0	4.705803188917589e+17
19334.0	4.70493311340817e+17
19335.0	4.703007137245867e+17
19336.0	4.703184027822762e+17
19337.0	4.702327704737109e+17
19338.0	4.701112524690772e+17
19339.0	4.7005781514868045e+17
19340.0	4.6992742577165645e+17
19341.0	4.6983378171330554e+17
19342.0	4.6971084211923616e+17
19343.0	4.6969119222442656e+17
19344.0	4.695611430054571e+17
19345.0	4.691194261711523e+17
19346.0	4.692722433305257e+17
19347.0	4.692767771634346e+17
19348.0	4.692503719226026e+17
19349.0	4.6915694575834445e+17
19350.0	4.690512355961514e+17
19351.0	4.6897952362332154e+17
19352.0	4.688327238221822e+17
19353.0	4.688101924405246e+17
19354.0	4.6872274455756794e+17
19355.0	4.6861819251261446e+17
19356.0	4.685453561167872e+17
19357.0	4.684572044296191e+17
19358.0	4.683676516351998e+17
19359.0	4.682589932268202e+17
19360.0	4.681426005218645e+17
19361.0	4.6809493980665165e+17
19362.0	4.6801124274995194e+17
19363.0	4.679089613613737e+17
19364.0	4.6781923065855974e+17
19365.0	4.677289528786944e+17
19366.0	4.676398497136638e+17
19367.0	4.675499962575529e+17
19368.0	4.674600713584639e+17
19369.0	4.673614648792405e+17
19370.0	4.672712118457685e+17
19371.0	4.671796041919146e+17
19372.0	4.6709729447116794e+17
19373.0	4.670014544849578e+17
19374.0	4.6690467937867085e+17
19375.0	4.6681320440463354e+17
19376.0	4.6672183736401914e+17
19377.0	4.6662765874162336e+17
19378.0	4.66535591322146e+17
19379.0	4.664430967827114e+17
19380.0	4.6634983552450554e+17
19381.0	4.662551561721172e+17
19382.0	4.661503080093013e+17
19383.0	4.660486712852479e+17
19384.0	4.6596965549124256e+17
19385.0	4.658759272671914e+17
19386.0	4.6577707556099405e+17
19387.0	4.6566971424112634e+17
19388.0	4.655722274313557e+17
19389.0	4.654737198678014e+17
19390.0	4.6537350291565216e+17
19391.0	4.6375006714374586e+17
19392.0	4.651537387924137e+17
19393.0	4.6507353195588256e+17
19394.0	4.6497013781845325e+17
19395.0	4.648509048007338e+17
19396.0	4.647585700642814e+17
19397.0	4.6466028549789e+17
19398.0	4.645346008017579e+17
19399.0	4.6426803698401254e+17
19400.0	4.642918292433578e+17
19401.0	4.6419175916175354e+17
19402.0	4.64077236347426e+17
19403.0	4.6396015249107616e+17
19404.0	4.638469465483945e+17
19405.0	4.6371525672741536e+17
19406.0	4.635755399173461e+17
19407.0	4.634353637610836e+17
19408.0	4.631790022382935e+17
19409.0	4.631896035513685e+17
19410.0	4.6302553440255994e+17
19411.0	4.6289025306897056e+17
19412.0	4.6274168376087885e+17
19413.0	4.625316559454207e+17
19414.0	4.6239555085052576e+17
19415.0	4.6218387117834234e+17
19416.0	4.619834488083795e+17
19417.0	4.6174534648900256e+17
19418.0	4.615313740005375e+17
19419.0	4.612459391003306e+17
19420.0	4.609303131805012e+17
19421.0	4.6066689571990176e+17
19422.0	4.6045062712961696e+17
19423.0	4.6023672643365536e+17
19424.0	4.599954593021952e+17
19425.0	4.596973059440639e+17
19426.0	4.594396311846911e+17
19427.0	4.591316082797225e+17
19428.0	4.587712986218496e+17
19429.0	4.5839002583258445e+17
19430.0	4.5792591253340166e+17
19431.0	4.571322041150125e+17
19432.0	4.566674662839636e+17
19433.0	4.557559967689387e+17
19434.0	4.543843449263451e+17
19435.0	4.5232027200389075e+17
19436.0	4.5074221643420986e+17
19437.0	4.4992328396090016e+17
19438.0	4.459301802344452e+17
19439.0	4.477121332248578e+17
19440.0	4.465310040763051e+17
19441.0	4.448954371888465e+17
19442.0	4.4207869047166266e+17
19443.0	4.359658610010779e+17
19444.0	4.317246293803006e+17
19445.0	4.278387805782017e+17
19446.0	4.236068285754027e+17
19447.0	4.192755707630933e+17
19448.0	4.1152585361872186e+17
19449.0	3.952385163875668e+17
19450.0	3.588365835654515e+17
19451.0	3.3791818435570586e+17
19452.0	3.8283807632479424e+17
19453.0	4.0341963769118925e+17
19454.0	4.163002750904996e+17
19455.0	4.209369744932863e+17
19456.0	4.250480472839511e+17
19457.0	4.289966713252521e+17
19458.0	4.2158897520532525e+17
19459.0	4.3795057244897594e+17
19460.0	4.423454550567597e+17
19461.0	4.4422834152625485e+17
19462.0	4.454559478972415e+17
19463.0	4.4646062694072294e+17
19464.0	4.473430218899455e+17
19465.0	4.4817611761909766e+17
19466.0	4.49007640064819e+17
19467.0	4.5090696981381235e+17
19468.0	4.5235487438274515e+17
19469.0	4.5324776844383584e+17
19470.0	4.539448382106282e+17
19471.0	4.543858197135358e+17
19472.0	4.5467971781044896e+17
19473.0	4.5497412922026656e+17
19474.0	4.550961218103979e+17
19475.0	4.5516328988398906e+17
19476.0	4.5541703017649485e+17
19477.0	4.555288429811029e+17
19478.0	4.5564882377332045e+17
19479.0	4.5566834944682656e+17
19480.0	4.557477437767679e+17
19481.0	4.5580243917864954e+17
19482.0	4.559153773150207e+17
19483.0	4.560676200644607e+17
19484.0	4.561781547248297e+17
19485.0	4.5621217507409914e+17
19486.0	4.562224848131413e+17
19487.0	4.562964853380438e+17
19488.0	4.5631241635321165e+17
19489.0	4.5628605326513485e+17
19490.0	4.560354980571815e+17
19491.0	4.5628222924827296e+17
19492.0	4.562606787046058e+17
19493.0	4.5625910325411834e+17
19494.0	4.562176531147434e+17
19495.0	4.5617367737521485e+17
19496.0	4.5604139147373203e+17
19497.0	4.560989705295189e+17
19498.0	4.5591567636889606e+17
19499.0	4.5353454006872576e+17
19500.0	4.559498549133311e+17
19501.0	4.5589641311901005e+17
19502.0	4.558411848308053e+17
19503.0	4.557951649972223e+17
19504.0	4.557550333373099e+17
19505.0	4.556931949658111e+17
19506.0	4.556325880419668e+17
19507.0	4.555640012450474e+17
19508.0	4.55504036958481e+17
19509.0	4.554374599322281e+17
19510.0	4.5532580504316576e+17
19511.0	4.4920984319644576e+17
19512.0	4.548733721815714e+17
19513.0	4.544365051510772e+17
19514.0	4.546002292484771e+17
19515.0	4.549308550479874e+17
19516.0	4.5494967125497165e+17
19517.0	4.548756861091839e+17
19518.0	4.5481764449157126e+17
19519.0	4.547434401234943e+17
19520.0	4.5464141221068794e+17
19521.0	4.54611147231505e+17
19522.0	4.5452707247773e+17
19523.0	4.544533391299925e+17
19524.0	4.54362023399697e+17
19525.0	4.5431260666920954e+17
19526.0	4.542409202816341e+17
19527.0	4.541630794519893e+17
19528.0	4.540859680118099e+17
19529.0	4.5400822959308794e+17
19530.0	4.5393948886521165e+17
19531.0	4.5387137245948576e+17
19532.0	4.537950697510228e+17
19533.0	4.5371855921479674e+17
19534.0	4.536413226445481e+17
19535.0	4.5356194488210765e+17
19536.0	4.53481008726016e+17
19537.0	4.53409697239313e+17
19538.0	4.5327993574959795e+17
19539.0	4.531511327981569e+17
19540.0	4.5317423705183565e+17
19541.0	4.530925550086826e+17
19542.0	4.530183410636117e+17
19543.0	4.529062640877568e+17
19544.0	4.5287620980244474e+17
19545.0	4.527142527653203e+17
19546.0	4.5255466655853235e+17
19547.0	4.5264446590812154e+17
19548.0	4.525659530810708e+17
19549.0	4.524718282156713e+17
19550.0	4.524084801743529e+17
19551.0	4.523301428090196e+17
19552.0	4.522508896174079e+17
19553.0	4.521679857734996e+17
19554.0	4.520848513826815e+17
19555.0	4.520073811897001e+17
19556.0	4.519320345029291e+17
19557.0	4.518546357529258e+17
19558.0	4.517756576377514e+17
19559.0	4.51696831426287e+17
19560.0	4.5160029951972685e+17
19561.0	4.5153384349914445e+17
19562.0	4.514444690325504e+17
19563.0	4.5137964927986336e+17
19564.0	4.513001419134293e+17
19565.0	4.5122014353380685e+17
19566.0	4.511356722784937e+17
19567.0	4.5106126273904634e+17
19568.0	4.509782537579178e+17
19569.0	4.508982269269332e+17
19570.0	4.508219965702143e+17
19571.0	4.507414063742976e+17
19572.0	4.5066301804817056e+17
19573.0	4.5058498938361165e+17
19574.0	4.5049707355613856e+17
19575.0	4.504326593926484e+17
19576.0	4.5035033743851514e+17
19577.0	4.502630464225278e+17
19578.0	4.501854446682112e+17
19579.0	4.5010921633873914e+17
19580.0	4.5002949527251616e+17
19581.0	4.499506984211797e+17
19582.0	4.498740213710846e+17
19583.0	4.4979409534320634e+17
19584.0	4.4971300637463885e+17
19585.0	4.4961568188443296e+17
19586.0	4.4953112017196384e+17
19587.0	4.49468437696785e+17
19588.0	4.4930959576924154e+17
19589.0	4.493105483655849e+17
19590.0	4.49209676472866e+17
19591.0	4.491527443185664e+17
19592.0	4.4907341639843834e+17
19593.0	4.489875980025855e+17
19594.0	4.488700134162431e+17
19595.0	4.488285311205376e+17
19596.0	4.4873708319976096e+17
19597.0	4.4867177229407565e+17
19598.0	4.484896869318655e+17
19599.0	4.48512919671057e+17
19600.0	4.4843420293092685e+17
19601.0	4.483431610187776e+17
19602.0	4.4826608837591034e+17
19603.0	4.481068191186942e+17
19604.0	4.4810647609453216e+17
19605.0	4.479839627116543e+17
19606.0	4.479532586587476e+17
19607.0	4.4787584236257274e+17
19608.0	4.477989963519317e+17
19609.0	4.477125837630123e+17
19610.0	4.4762299175185056e+17
19611.0	4.4753350215161165e+17
19612.0	4.474821855412223e+17
19613.0	4.474005757799082e+17
19614.0	4.4731610906842445e+17
19615.0	4.472417648902144e+17
19616.0	4.471303737529685e+17
19617.0	4.4705221876995405e+17
19618.0	4.468934427628884e+17
19619.0	4.4678385363845094e+17
19620.0	4.4670748843485843e+17
19621.0	4.4672509724153165e+17
19622.0	4.4668312840656205e+17
19623.0	4.4660145552097274e+17
19624.0	4.4651673253751456e+17
19625.0	4.464435389267968e+17
19626.0	4.463620830265343e+17
19627.0	4.462835042091008e+17
19628.0	4.461802724611414e+17
19629.0	4.4601561198537376e+17
19630.0	4.4599089152655354e+17
19631.0	4.449762682077182e+17
19632.0	4.4588089010203296e+17
19633.0	4.4579526429463885e+17
19634.0	4.4572510917754874e+17
19635.0	4.4563450878580045e+17
19636.0	4.4552278818597536e+17
19637.0	4.453949251081557e+17
19638.0	4.4540007522413216e+17
19639.0	4.453251562864638e+17
19640.0	4.452282350086826e+17
19641.0	4.449004683264007e+17
19642.0	4.4508378995971405e+17
19643.0	4.4500336760586234e+17
19644.0	4.4491794018904723e+17
19645.0	4.447984128709972e+17
19646.0	4.447238052205908e+17
19647.0	4.4468890714330445e+17
19648.0	4.446101710394708e+17
19649.0	4.44529987760947e+17
19650.0	4.4445145445171194e+17
19651.0	4.443713099005951e+17
19652.0	4.442915105406975e+17
19653.0	4.4421238394716166e+17
19654.0	4.441325193658366e+17
19655.0	4.44051943849984e+17
