# Flux units: erg / (cm m2 s)
# Wavelength units: Angstrom
wave	flux
19000.0	6.836471363971754e+17
19001.0	6.835086846590973e+17
19002.0	6.833883207871146e+17
19003.0	6.832583018370387e+17
19004.0	6.83128577327104e+17
19005.0	6.829988261134335e+17
19006.0	6.828693611610111e+17
19007.0	6.827283831237289e+17
19008.0	6.826015115094697e+17
19009.0	6.824781553511081e+17
19010.0	6.823070391424339e+17
19011.0	6.822196485117268e+17
19012.0	6.820754022028627e+17
19013.0	6.819625229265577e+17
19014.0	6.818272521486333e+17
19015.0	6.8170050188957e+17
19016.0	6.815705502580736e+17
19017.0	6.813764072505343e+17
19018.0	6.813141180612607e+17
19019.0	6.811854608618836e+17
19020.0	6.81047411986705e+17
19021.0	6.8092191309824e+17
19022.0	6.807981192642559e+17
19023.0	6.806649158587731e+17
19024.0	6.805378852104874e+17
19025.0	6.804083871929684e+17
19026.0	6.802784184347306e+17
19027.0	6.801480405221375e+17
19028.0	6.800232132815529e+17
19029.0	6.798925270876159e+17
19030.0	6.79766195839522e+17
19031.0	6.796377603091114e+17
19032.0	6.795085379971753e+17
19033.0	6.793708610169513e+17
19034.0	6.792481737102676e+17
19035.0	6.791182003382953e+17
19036.0	6.783311074557944e+17
19037.0	6.788626650933929e+17
19038.0	6.787328496369663e+17
19039.0	6.78605817520674e+17
19040.0	6.784775053028009e+17
19041.0	6.783481253549396e+17
19042.0	6.782115129589759e+17
19043.0	6.780911111285417e+17
19044.0	6.779613548817066e+17
19045.0	6.778336821553833e+17
19046.0	6.77698677645858e+17
19047.0	6.775765139980287e+17
19048.0	6.77428294914321e+17
19049.0	6.773123370188799e+17
19050.0	6.771861604706985e+17
19051.0	6.769930954691923e+17
19052.0	6.76928945267234e+17
19053.0	6.76801687986722e+17
19054.0	6.766760421578067e+17
19055.0	6.76524412965137e+17
19056.0	6.764174214430719e+17
19057.0	6.762905929602388e+17
19058.0	6.761578015752191e+17
19059.0	6.760343924987219e+17
19060.0	6.759043310463657e+17
19061.0	6.757782335608148e+17
19062.0	6.756494943627945e+17
19063.0	6.755215061549056e+17
19064.0	6.753812159834794e+17
19065.0	6.752475996487679e+17
19066.0	6.751309041849684e+17
19067.0	6.750077490036735e+17
19068.0	6.748806837523795e+17
19069.0	6.747529071471273e+17
19070.0	6.746217588107946e+17
19071.0	6.744960427971924e+17
19072.0	6.743687792951295e+17
19073.0	6.742401346087593e+17
19074.0	6.741131068964863e+17
19075.0	6.739851732145491e+17
19076.0	6.738550772290899e+17
19077.0	6.737286328046931e+17
19078.0	6.735868802192724e+17
19079.0	6.734731045502975e+17
19080.0	6.733443987668991e+17
19081.0	6.732129234845695e+17
19082.0	6.730800332537855e+17
19083.0	6.729510625301844e+17
19084.0	6.728107780909737e+17
19085.0	6.727057637638143e+17
19086.0	6.725410428201641e+17
19087.0	6.724381717124435e+17
19088.0	6.723169752711165e+17
19089.0	6.721716385131178e+17
19090.0	6.720657791735124e+17
19091.0	6.719375645431123e+17
19092.0	6.718049602240511e+17
19093.0	6.716861090278057e+17
19094.0	6.715554905019732e+17
19095.0	6.714275731079165e+17
19096.0	6.712992505440938e+17
19097.0	6.711765485573459e+17
19098.0	6.71049086804514e+17
19099.0	6.709199618004308e+17
19100.0	6.707934068561236e+17
19101.0	6.706674135990271e+17
19102.0	6.705325217065641e+17
19103.0	6.704126009627988e+17
19104.0	6.702861578665983e+17
19105.0	6.701585024068265e+17
19106.0	6.700288166242985e+17
19107.0	6.699028860021417e+17
19108.0	6.697776145148585e+17
19109.0	6.69576554890308e+17
19110.0	6.695232452864681e+17
19111.0	6.693962832849578e+17
19112.0	6.692695405756415e+17
19113.0	6.691424386241876e+17
19114.0	6.690151896623785e+17
19115.0	6.688832913145855e+17
19116.0	6.68759599751714e+17
19117.0	6.686330696936105e+17
19118.0	6.684958180857172e+17
19119.0	6.681814148055035e+17
19120.0	6.682494829767338e+17
19121.0	6.681255630340096e+17
19122.0	6.68000873086976e+17
19123.0	6.678681948782592e+17
19124.0	6.677440785722025e+17
19125.0	6.676189652101802e+17
19126.0	6.674875444538025e+17
19127.0	6.672162758153554e+17
19128.0	6.671680933287251e+17
19129.0	6.671053387814228e+17
19130.0	6.669865163860649e+17
19131.0	6.668586427525801e+17
19132.0	6.667339957971625e+17
19133.0	6.66522127031774e+17
19134.0	6.664459783241727e+17
19135.0	6.663550509864275e+17
19136.0	6.662293497926995e+17
19137.0	6.660882571111082e+17
19138.0	6.659564655083519e+17
19139.0	6.658501558403071e+17
19140.0	6.657241012065619e+17
19141.0	6.655979096287914e+17
19142.0	6.654689293281961e+17
19143.0	6.6533943424669e+17
19144.0	6.65213969052467e+17
19145.0	6.650923836593491e+17
19146.0	6.64910764633839e+17
19147.0	6.648328233506131e+17
19148.0	6.647141239881727e+17
19149.0	6.645878458679295e+17
19150.0	6.644599848173567e+17
19151.0	6.643362373304319e+17
19152.0	6.64202739135283e+17
19153.0	6.640827241594879e+17
19154.0	6.639472248619005e+17
19155.0	6.63832909386001e+17
19156.0	6.637068752344403e+17
19157.0	6.63580247588864e+17
19158.0	6.634030195802111e+17
19159.0	6.63327872332595e+17
19160.0	6.631936021058899e+17
19161.0	6.630699352195072e+17
19162.0	6.628375840598698e+17
19163.0	6.628260878221311e+17
19164.0	6.627011965485056e+17
19165.0	6.625735609417728e+17
19166.0	6.624396619808768e+17
19167.0	6.623134111935146e+17
19168.0	6.621766673061204e+17
19169.0	6.620612795564031e+17
19170.0	6.61947525767714e+17
19171.0	6.618175207287465e+17
19172.0	6.616957433064106e+17
19173.0	6.615709868097535e+17
19174.0	6.61440423928354e+17
19175.0	6.613201744909652e+17
19176.0	6.611943307608061e+17
19177.0	6.610556763679401e+17
19178.0	6.609433020858367e+17
19179.0	6.608126402887679e+17
19180.0	6.606587152039935e+17
19181.0	6.60559084266018e+17
19182.0	6.604078966636544e+17
19183.0	6.603138807802537e+17
19184.0	6.601718712937129e+17
19185.0	6.600651563859965e+17
19186.0	6.599420931298644e+17
19187.0	6.598085838198099e+17
19188.0	6.596908342575103e+17
19189.0	6.595636066167465e+17
19190.0	6.594367541564756e+17
19191.0	6.593108665259348e+17
19192.0	6.591857007351124e+17
19193.0	6.590151584470355e+17
19194.0	6.589173994269353e+17
19195.0	6.588104345387008e+17
19196.0	6.586884095126185e+17
19197.0	6.585642645454847e+17
19198.0	6.584397490115923e+17
19199.0	6.576245246525437e+17
19200.0	6.577526637155671e+17
19201.0	6.580654773545641e+17
19202.0	6.579411241402367e+17
19203.0	6.578151027813034e+17
19204.0	6.576888868066643e+17
19205.0	6.575654365560831e+17
19206.0	6.574403295554217e+17
19207.0	6.573092561573204e+17
19208.0	6.571710184685567e+17
19209.0	6.570657723361961e+17
19210.0	6.569413100000595e+17
19211.0	6.568156540349097e+17
19212.0	6.566939474264063e+17
19213.0	6.565557842564436e+17
19214.0	6.564275099970217e+17
19215.0	6.56318112342562e+17
19216.0	6.561812520632319e+17
19217.0	6.560699293630463e+17
19218.0	6.558725521975977e+17
19219.0	6.558066480076116e+17
19220.0	6.556950435201024e+17
19221.0	6.555422722883583e+17
19222.0	6.554488508776447e+17
19223.0	6.553220616814591e+17
19224.0	6.551725853551273e+17
19225.0	6.55055721210402e+17
19226.0	6.54948541014562e+17
19227.0	6.548240252010495e+17
19228.0	6.547024776964777e+17
19229.0	6.545781708991145e+17
19230.0	6.544489958430035e+17
19231.0	6.54323067387904e+17
19232.0	6.541848043236009e+17
19233.0	6.54074012901922e+17
19234.0	6.539542374907903e+17
19235.0	6.538288805096106e+17
19236.0	6.537083267055615e+17
19237.0	6.535824515880276e+17
19238.0	6.534508880155988e+17
19239.0	6.533358839747924e+17
19240.0	6.531689057965395e+17
19241.0	6.530736002345641e+17
19242.0	6.529566579359743e+17
19243.0	6.528204059006291e+17
19244.0	6.527139627838121e+17
19245.0	6.52590085972514e+17
19246.0	6.524653310836733e+17
19247.0	6.523385276967593e+17
19248.0	6.522186750405289e+17
19249.0	6.520944772950698e+17
19250.0	6.519687140256425e+17
19251.0	6.518379189895165e+17
19252.0	6.516833925813588e+17
19253.0	6.51596338962978e+17
19254.0	6.514679241943721e+17
19255.0	6.513302142189567e+17
19256.0	6.512226903698089e+17
19257.0	6.511017470547284e+17
19258.0	6.509768629813245e+17
19259.0	6.50846363783441e+17
19260.0	6.507232606115156e+17
19261.0	6.506048925990911e+17
19262.0	6.504759675234986e+17
19263.0	6.50353371652642e+17
19264.0	6.501845633597437e+17
19265.0	6.500929794037076e+17
19266.0	6.499745297421652e+17
19267.0	6.498621182006611e+17
19268.0	6.497369923955369e+17
19269.0	6.496133135553876e+17
19270.0	6.494889548185599e+17
19271.0	6.493355966638762e+17
19272.0	6.492382885314559e+17
19273.0	6.480436466636102e+17
19274.0	6.484847685358926e+17
19275.0	6.488696182276095e+17
19276.0	6.487437086468777e+17
19277.0	6.486193123011242e+17
19278.0	6.484960328985257e+17
19279.0	6.483592952326825e+17
19280.0	6.482395532361727e+17
19281.0	6.481231319400448e+17
19282.0	6.480003927638015e+17
19283.0	6.47864802030387e+17
19284.0	6.477235373124265e+17
19285.0	6.476050166273364e+17
19286.0	6.475003662958591e+17
19287.0	6.473795708998996e+17
19288.0	6.471060946594472e+17
19289.0	6.466690020453024e+17
19290.0	6.470066837127167e+17
19291.0	6.468568933029204e+17
19292.0	6.467575876332202e+17
19293.0	6.466326392471551e+17
19294.0	6.465077625836884e+17
19295.0	6.463844473197908e+17
19296.0	6.462590601396223e+17
19297.0	6.461321925798569e+17
19298.0	6.460076272036522e+17
19299.0	6.458858474045439e+17
19300.0	6.457611961849172e+17
19301.0	6.456352246682963e+17
19302.0	6.455098639821482e+17
19303.0	6.45375841009664e+17
19304.0	6.452536785502207e+17
19305.0	6.451347513671679e+17
19306.0	6.450099586596863e+17
19307.0	6.448798217797631e+17
19308.0	6.447576107362986e+17
19309.0	6.446157814650196e+17
19310.0	6.444761157555539e+17
19311.0	6.443804828980563e+17
19312.0	6.442537226425684e+17
19313.0	6.440862393303041e+17
19314.0	6.438488772356774e+17
19315.0	6.437348941583703e+17
19316.0	6.437566409954644e+17
19317.0	6.43630252495121e+17
19318.0	6.435038008705023e+17
19319.0	6.433793044905983e+17
19320.0	6.432415906704041e+17
19321.0	6.431268027061588e+17
19322.0	6.429833696728404e+17
19323.0	6.428615944175615e+17
19324.0	6.427465667488425e+17
19325.0	6.426087002559828e+17
19326.0	6.424918605780308e+17
19327.0	6.423621500491091e+17
19328.0	6.422368833852756e+17
19329.0	6.421093636811434e+17
19330.0	6.419778159771647e+17
19331.0	6.418499939336191e+17
19332.0	6.417255515204265e+17
19333.0	6.415959373206868e+17
19334.0	6.414545208388266e+17
19335.0	6.413406504484863e+17
19336.0	6.41211605066274e+17
19337.0	6.410814226781524e+17
19338.0	6.409342973291177e+17
19339.0	6.408238421508095e+17
19340.0	6.406897808703487e+17
19341.0	6.405640510155434e+17
19342.0	6.403901485307219e+17
19343.0	6.403034849127082e+17
19344.0	6.401712458476201e+17
19345.0	6.398513362152101e+17
19346.0	6.398618407097686e+17
19347.0	6.397710421371561e+17
19348.0	6.396453918343167e+17
19349.0	6.395095349024084e+17
19350.0	6.393771654643711e+17
19351.0	6.392426581895849e+17
19352.0	6.391059465983316e+17
19353.0	6.389790381441023e+17
19354.0	6.388429498264233e+17
19355.0	6.386993639806292e+17
19356.0	6.385728569911978e+17
19357.0	6.384353466646527e+17
19358.0	6.382896392000852e+17
19359.0	6.38102213160687e+17
19360.0	6.380195602060627e+17
19361.0	6.378767053575508e+17
19362.0	6.377452257411071e+17
19363.0	6.376042976160425e+17
19364.0	6.37461694775296e+17
19365.0	6.373203042282153e+17
19366.0	6.37178703965935e+17
19367.0	6.370350916960255e+17
19368.0	6.368906036554409e+17
19369.0	6.367241657734484e+17
19370.0	6.364629967394131e+17
19371.0	6.364452077174783e+17
19372.0	6.363015656680106e+17
19373.0	6.361483708115625e+17
19374.0	6.359988584841215e+17
19375.0	6.3584610039453e+17
19376.0	6.356910131380223e+17
19377.0	6.355352729681919e+17
19378.0	6.353780907966463e+17
19379.0	6.352179683480916e+17
19380.0	6.350576287744e+17
19381.0	6.348936395270825e+17
19382.0	6.347203736677033e+17
19383.0	6.34551199212066e+17
19384.0	6.343917389742079e+17
19385.0	6.342188489943722e+17
19386.0	6.340436217386324e+17
19387.0	6.338624958234623e+17
19388.0	6.336811133566976e+17
19389.0	6.334970690448041e+17
19390.0	6.333074553263444e+17
19391.0	6.325239298392054e+17
19392.0	6.329203156145491e+17
19393.0	6.327207962782378e+17
19394.0	6.325154241402198e+17
19395.0	6.323046275088383e+17
19396.0	6.320888216201897e+17
19397.0	6.318714884456445e+17
19398.0	6.316427341813076e+17
19399.0	6.313484860697257e+17
19400.0	6.311671953184084e+17
19401.0	6.309232120255828e+17
19402.0	6.306682780341588e+17
19403.0	6.304014653543763e+17
19404.0	6.301285254955007e+17
19405.0	6.298416771148458e+17
19406.0	6.295457077308074e+17
19407.0	6.292388077109247e+17
19408.0	6.288518577214807e+17
19409.0	6.285635193842346e+17
19410.0	6.28224679809297e+17
19411.0	6.27854699204881e+17
19412.0	6.274649416881491e+17
19413.0	6.270559921547946e+17
19414.0	6.266200375951359e+17
19415.0	6.261595945915732e+17
19416.0	6.256545197195263e+17
19417.0	6.251434748848809e+17
19418.0	6.246059905559209e+17
19419.0	6.240164567318527e+17
19420.0	6.233957544056147e+17
19421.0	6.227232165636777e+17
19422.0	6.219995890231978e+17
19423.0	6.212157205818025e+17
19424.0	6.203778438354259e+17
19425.0	6.194749693580628e+17
19426.0	6.184752922318164e+17
19427.0	6.173914781362857e+17
19428.0	6.162607618654208e+17
19429.0	6.149932460627283e+17
19430.0	6.135792625778689e+17
19431.0	6.119229655526061e+17
19432.0	6.103793998845267e+17
19433.0	6.08574663434786e+17
19434.0	6.065494691239252e+17
19435.0	6.042916446623059e+17
19436.0	6.016878094144852e+17
19437.0	5.988755645835946e+17
19438.0	5.951534089109501e+17
19439.0	5.926666291380224e+17
19440.0	5.88920252338449e+17
19441.0	5.845316088976721e+17
19442.0	5.795307549884417e+17
19443.0	5.7446857357393914e+17
19444.0	5.686027725307901e+17
19445.0	5.613951634462037e+17
19446.0	5.5357250176286726e+17
19447.0	5.444558480124582e+17
19448.0	5.334247415305562e+17
19449.0	5.177607528120322e+17
19450.0	4.815499760937619e+17
19451.0	4.684437920940028e+17
19452.0	5.021652793775449e+17
19453.0	5.267416228211375e+17
19454.0	5.386897020245329e+17
19455.0	5.486731246348971e+17
19456.0	5.566070643490819e+17
19457.0	5.641088418534738e+17
19458.0	5.700853125436761e+17
19459.0	5.7548968058770797e+17
19460.0	5.802446816630099e+17
19461.0	5.84788153152307e+17
19462.0	5.88593028469009e+17
19463.0	5.91837327995699e+17
19464.0	5.94672470860322e+17
19465.0	5.973429036165802e+17
19466.0	5.998009403834367e+17
19467.0	6.019851021014356e+17
19468.0	6.038717184256682e+17
19469.0	6.053723664373075e+17
19470.0	6.070347872862207e+17
19471.0	6.084030026656426e+17
19472.0	6.096248363461289e+17
19473.0	6.107037713476265e+17
19474.0	6.116845147564714e+17
19475.0	6.124766670181716e+17
19476.0	6.133289110732799e+17
19477.0	6.140338601896618e+17
19478.0	6.146627051279699e+17
19479.0	6.152306584190975e+17
19480.0	6.157407624014505e+17
19481.0	6.161977894939305e+17
19482.0	6.166032148332543e+17
19483.0	6.169687303214422e+17
19484.0	6.172958210916351e+17
19485.0	6.175817710523731e+17
19486.0	6.178442163432106e+17
19487.0	6.180832750338047e+17
19488.0	6.182915159359487e+17
19489.0	6.184719089663999e+17
19490.0	6.185112286090578e+17
19491.0	6.187688754064042e+17
19492.0	6.188949148008447e+17
19493.0	6.189998203557206e+17
19494.0	6.190932463102634e+17
19495.0	6.191504773087231e+17
19496.0	6.191914969027924e+17
19497.0	6.192833468476074e+17
19498.0	6.193006245838848e+17
19499.0	6.183603111198708e+17
19500.0	6.193814349807615e+17
19501.0	6.193934917173247e+17
19502.0	6.194007726795433e+17
19503.0	6.19399865241873e+17
19504.0	6.193852491410089e+17
19505.0	6.19378191036143e+17
19506.0	6.193590611651242e+17
19507.0	6.193323221975037e+17
19508.0	6.193041180895913e+17
19509.0	6.192687430500351e+17
19510.0	6.192142702957908e+17
19511.0	6.185891210985468e+17
19512.0	6.190256821545636e+17
19513.0	6.188001666618703e+17
19514.0	6.188582901383164e+17
19515.0	6.189293481492481e+17
19516.0	6.189206984458239e+17
19517.0	6.1885269423773e+17
19518.0	6.187937025403561e+17
19519.0	6.18725855408947e+17
19520.0	6.186534636093439e+17
19521.0	6.185866790349482e+17
19522.0	6.185085841003859e+17
19523.0	6.184380484201129e+17
19524.0	6.183603522240511e+17
19525.0	6.182732314269012e+17
19526.0	6.181990697708201e+17
19527.0	6.181164087072084e+17
19528.0	6.18033900106547e+17
19529.0	6.179483149139967e+17
19530.0	6.178630872858623e+17
19531.0	6.177765931876351e+17
19532.0	6.176877076370772e+17
19533.0	6.175987300914516e+17
19534.0	6.175081528382804e+17
19535.0	6.174143466001748e+17
19536.0	6.173205830041599e+17
19537.0	6.172308478274218e+17
19538.0	6.171340029558784e+17
19539.0	6.169908966588417e+17
19540.0	6.169437356949503e+17
19541.0	6.168502006185983e+17
19542.0	6.16752740442658e+17
19543.0	6.166549614996137e+17
19544.0	6.165572808430932e+17
19545.0	6.16428697183846e+17
19546.0	6.16274662068497e+17
19547.0	6.162539006132223e+17
19548.0	6.161595565954388e+17
19549.0	6.160484825475753e+17
19550.0	6.159575471707475e+17
19551.0	6.158564953423872e+17
19552.0	6.157542324087466e+17
19553.0	6.156502598068906e+17
19554.0	6.155452742107136e+17
19555.0	6.154446781633876e+17
19556.0	6.153422823402153e+17
19557.0	6.152380808691711e+17
19558.0	6.15134052413167e+17
19559.0	6.150249663954944e+17
19560.0	6.149224839599444e+17
19561.0	6.148171837909673e+17
19562.0	6.147137341489151e+17
19563.0	6.146064491653801e+17
19564.0	6.145032232195412e+17
19565.0	6.143966985934166e+17
19566.0	6.142886399006036e+17
19567.0	6.141830281647444e+17
19568.0	6.140751463317501e+17
19569.0	6.139690833586857e+17
19570.0	6.138646723122516e+17
19571.0	6.137572305316521e+17
19572.0	6.136464758101331e+17
19573.0	6.135414729474047e+17
19574.0	6.134243783955796e+17
19575.0	6.13325857759778e+17
19576.0	6.132187293635924e+17
19577.0	6.13090949472802e+17
19578.0	6.129987116247721e+17
19579.0	6.128918528524287e+17
19580.0	6.127838805622783e+17
19581.0	6.126762738756266e+17
19582.0	6.125691797329236e+17
19583.0	6.124603747336191e+17
19584.0	6.123511607197695e+17
19585.0	6.122313940467711e+17
19586.0	6.121122442859862e+17
19587.0	6.120080816821588e+17
19588.0	6.1186752132765e+17
19589.0	6.117865738469376e+17
19590.0	6.11687846781474e+17
19591.0	6.115857980369577e+17
19592.0	6.114766619672576e+17
19593.0	6.113644911088979e+17
19594.0	6.112326168783529e+17
19595.0	6.111453741667667e+17
19596.0	6.108623704948736e+17
19597.0	6.109259750877865e+17
19598.0	6.107952197577386e+17
19599.0	6.107075379724287e+17
19600.0	6.105979468207444e+17
19601.0	6.104819206979584e+17
19602.0	6.103743030362111e+17
19603.0	6.102228037271551e+17
19604.0	6.101520867830441e+17
19605.0	6.100185261626708e+17
19606.0	6.099325606166528e+17
19607.0	6.098258838771028e+17
19608.0	6.097146256293887e+17
19609.0	6.096000052275882e+17
19610.0	6.094951901997737e+17
19611.0	6.093839033608874e+17
19612.0	6.092745716968105e+17
19613.0	6.091620350252372e+17
19614.0	6.090494088052736e+17
19615.0	6.089427022162602e+17
19616.0	6.088273438266708e+17
19617.0	6.087210453434367e+17
19618.0	6.085672784538281e+17
19619.0	6.084398980704934e+17
19620.0	6.083329034027007e+17
19621.0	6.082780686800212e+17
19622.0	6.081680771121151e+17
19623.0	6.080576114480467e+17
19624.0	6.079458965105322e+17
19625.0	6.078358305636351e+17
19626.0	6.077241579885908e+17
19627.0	6.076145976650409e+17
19628.0	6.074873918346582e+17
19629.0	6.073847565866324e+17
19630.0	6.072733393048916e+17
19631.0	6.064556737910095e+17
19632.0	6.070596070801407e+17
19633.0	6.069449573182121e+17
19634.0	6.068386403800404e+17
19635.0	6.067240568881151e+17
19636.0	6.066162039958185e+17
19637.0	6.064670439899136e+17
19638.0	6.06394336289314e+17
19639.0	6.062824525310634e+17
19640.0	6.061677687253674e+17
19641.0	6.06014974844382e+17
19642.0	6.059509588601513e+17
19643.0	6.058375039156224e+17
19644.0	6.057250167368362e+17
19645.0	6.055966484550995e+17
19646.0	6.055090535617876e+17
19647.0	6.0539836315293e+17
19648.0	6.052870947689811e+17
19649.0	6.051760005185535e+17
19650.0	6.050658822826666e+17
19651.0	6.049544583599443e+17
19652.0	6.048435218852522e+17
19653.0	6.047331628264105e+17
19654.0	6.046216396384938e+17
19655.0	6.045103442012842e+17
19656.0	6.044001390733993e+17
19657.0	6.042894700554921e+17
19658.0	6.041791878223188e+17
19659.0	6.040686916796415e+17
19660.0	6.039583465319082e+17
19661.0	6.038471969166675e+17
19662.0	6.037369589334015e+17
19663.0	6.036220250073769e+17
19664.0	6.035115697591635e+17
19665.0	6.034049174863872e+17
