# Flux units: erg / (cm m2 s)
# Wavelength units: Angstrom
wave	flux
19000.0	3.6501282357248e+17
19001.0	3.6494535777320954e+17
19002.0	3.6487904331038714e+17
19003.0	3.6481215695421434e+17
19004.0	3.6474527835750394e+17
19005.0	3.6467843121807354e+17
19006.0	3.6461160421130234e+17
19007.0	3.645447757365248e+17
19008.0	3.6447759473049594e+17
19009.0	3.6441104538664954e+17
19010.0	3.643409902338048e+17
19011.0	3.642773926313984e+17
19012.0	3.642099094257663e+17
19013.0	3.6414405549752314e+17
19014.0	3.640769535541247e+17
19015.0	3.6401027062169594e+17
19016.0	3.639434524928682e+17
19017.0	3.638770993026389e+17
19018.0	3.6381032101969914e+17
19019.0	3.6374377293414394e+17
19020.0	3.636769113243647e+17
19021.0	3.636104051818495e+17
19022.0	3.635438110288554e+17
19023.0	3.6347706000889165e+17
19024.0	3.6341034883481594e+17
19025.0	3.6334393203097594e+17
19026.0	3.6327716570180256e+17
19027.0	3.6321032618202445e+17
19028.0	3.6314421381474976e+17
19029.0	3.630776532860927e+17
19030.0	3.6301111918155085e+17
19031.0	3.629445899004586e+17
19032.0	3.628780339855359e+17
19033.0	3.6281105150989645e+17
19034.0	3.6274508293734394e+17
19035.0	3.626784119586816e+17
19036.0	3.625765711118335e+17
19037.0	3.6254569054863354e+17
19038.0	3.624791248470015e+17
19039.0	3.6241283471114234e+17
19040.0	3.623464211229354e+17
19041.0	3.622800212361215e+17
19042.0	3.6221311174137165e+17
19043.0	3.62147266760977e+17
19044.0	3.620808935079936e+17
19045.0	3.6201456114947405e+17
19046.0	3.619479154764458e+17
19047.0	3.6188190859591674e+17
19048.0	3.6181424391673165e+17
19049.0	3.617488705858218e+17
19050.0	3.616827865300991e+17
19051.0	3.6161131635889485e+17
19052.0	3.615503107664554e+17
19053.0	3.6148428039782394e+17
19054.0	3.6141805562320205e+17
19055.0	3.613503609547434e+17
19056.0	3.6128550932534605e+17
19057.0	3.612194675621887e+17
19058.0	3.611532341193386e+17
19059.0	3.610871116857344e+17
19060.0	3.610208426612053e+17
19061.0	3.6095485801048736e+17
19062.0	3.6088870726533114e+17
19063.0	3.60822623838754e+17
19064.0	3.6075586317189114e+17
19065.0	3.606894980278954e+17
19066.0	3.6062405625992525e+17
19067.0	3.6055835255767034e+17
19068.0	3.60492308697361e+17
19069.0	3.604262960846165e+17
19070.0	3.603601403062954e+17
19071.0	3.6029429029273594e+17
19072.0	3.602282886550869e+17
19073.0	3.601623098763946e+17
19074.0	3.600963877208063e+17
19075.0	3.6003044606170445e+17
19076.0	3.599643808104447e+17
19077.0	3.598985271618218e+17
19078.0	3.598325141296468e+17
19079.0	3.5976681636932256e+17
19080.0	3.5970093364019194e+17
19081.0	3.5963480869000525e+17
19082.0	3.5956893316109645e+17
19083.0	3.595030171571542e+17
19084.0	3.594363841369429e+17
19085.0	3.5937178423569056e+17
19086.0	3.593039807949482e+17
19087.0	3.5923933923027616e+17
19088.0	3.591740922178218e+17
19089.0	3.5910732449054714e+17
19090.0	3.5904284999898445e+17
19091.0	3.5897714063441914e+17
19092.0	3.589110261000874e+17
19093.0	3.588458336834901e+17
19094.0	3.5878011222534816e+17
19095.0	3.5871442285363194e+17
19096.0	3.586487190115669e+17
19097.0	3.585831963634346e+17
19098.0	3.5850897892311034e+17
19099.0	3.584331036841301e+17
19100.0	3.583674608691882e+17
19101.0	3.5830196527431674e+17
19102.0	3.5823567884342605e+17
19103.0	3.581708484651689e+17
19104.0	3.581053121855487e+17
19105.0	3.5803974004462925e+17
19106.0	3.579741244926634e+17
19107.0	3.579086794391551e+17
19108.0	3.57843275280111e+17
19109.0	3.5777547337727994e+17
19110.0	3.5771236888521376e+17
19111.0	3.5764691872863565e+17
19112.0	3.57581485838609e+17
19113.0	3.5751608887978656e+17
19114.0	3.574506898238123e+17
19115.0	3.5738502505867936e+17
19116.0	3.5731981048217594e+17
19117.0	3.5725449838810445e+17
19118.0	3.5718867528799565e+17
19119.0	3.5707809588838394e+17
19120.0	3.57058294649105e+17
19121.0	3.569930946128553e+17
19122.0	3.5692797608591354e+17
19123.0	3.5686269586855245e+17
19124.0	3.567972897521664e+17
19125.0	3.5673217870506656e+17
19126.0	3.5666691771159885e+17
19127.0	3.565909246825812e+17
19128.0	3.5653596042581325e+17
19129.0	3.564708444853589e+17
19130.0	3.5640613560210765e+17
19131.0	3.563409530421247e+17
19132.0	3.562757899856554e+17
19133.0	3.5620971935170554e+17
19134.0	3.561453235033429e+17
19135.0	3.5608042769394336e+17
19136.0	3.560153375484586e+17
19137.0	3.5594929760283296e+17
19138.0	3.5588513418881696e+17
19139.0	3.558201921022634e+17
19140.0	3.5575514473867936e+17
19141.0	3.55690117927185e+17
19142.0	3.5562494920840525e+17
19143.0	3.5555971547791354e+17
19144.0	3.554950844689066e+17
19145.0	3.554301231584597e+17
19146.0	3.553616920401237e+17
19147.0	3.552996117271893e+17
19148.0	3.5523523671053645e+17
19149.0	3.5517031398768634e+17
19150.0	3.551053818276522e+17
19151.0	3.5504054026458445e+17
19152.0	3.5497563823363405e+17
19153.0	3.549106105832789e+17
19154.0	3.54845174337809e+17
19155.0	3.547810887281322e+17
19156.0	3.5471624227170976e+17
19157.0	3.5465140923706016e+17
19158.0	3.545850356345514e+17
19159.0	3.5452171443677856e+17
19160.0	3.5445702512694605e+17
19161.0	3.5439230911337805e+17
19162.0	3.5432386373440845e+17
19163.0	3.542628187155114e+17
19164.0	3.541981020727978e+17
19165.0	3.5413326819928736e+17
19166.0	3.5406784069195085e+17
19167.0	3.540036689592319e+17
19168.0	3.5393915308386976e+17
19169.0	3.5387450781422925e+17
19170.0	3.5381003555962874e+17
19171.0	3.537451763804842e+17
19172.0	3.5368079675009696e+17
19173.0	3.5361618202897056e+17
19174.0	3.535512456047274e+17
19175.0	3.534870023591253e+17
19176.0	3.5342246320537594e+17
19177.0	3.5335702751914656e+17
19178.0	3.532933379216725e+17
19179.0	3.5322848503398394e+17
19180.0	3.531642405300906e+17
19181.0	3.5309891990760096e+17
19182.0	3.5303525960034976e+17
19183.0	3.529708661287595e+17
19184.0	3.5290623994320205e+17
19185.0	3.5284192434585594e+17
19186.0	3.5277751060179616e+17
19187.0	3.527128166782293e+17
19188.0	3.5264867032104954e+17
19189.0	3.525843119418026e+17
19190.0	3.5251991742163616e+17
19191.0	3.52455508431121e+17
19192.0	3.5239119611931296e+17
19193.0	3.523268214521855e+17
19194.0	3.522624297981268e+17
19195.0	3.521981981567658e+17
19196.0	3.5213382509745485e+17
19197.0	3.5206953906995194e+17
19198.0	3.520053121821354e+17
19199.0	3.519194191276714e+17
19200.0	3.51863737225489e+17
19201.0	3.518125421800106e+17
19202.0	3.517483148727637e+17
19203.0	3.5168409773670394e+17
19204.0	3.51619720483089e+17
19205.0	3.515556954461525e+17
19206.0	3.5149143849915725e+17
19207.0	3.5142687316596045e+17
19208.0	3.513615885445802e+17
19209.0	3.512990408813226e+17
19210.0	3.5123513562671776e+17
19211.0	3.5117103247086925e+17
19212.0	3.5110692407214074e+17
19213.0	3.510422082333354e+17
19214.0	3.5097798847583565e+17
19215.0	3.5091459478650874e+17
19216.0	3.5085057729931936e+17
19217.0	3.507865495360853e+17
19218.0	3.5071765711421434e+17
19219.0	3.506576862915242e+17
19220.0	3.5059433395104416e+17
19221.0	3.5052851287818234e+17
19222.0	3.504664717120853e+17
19223.0	3.504024627533141e+17
19224.0	3.5033831608156154e+17
19225.0	3.502737000671914e+17
19226.0	3.502106067948885e+17
19227.0	3.501466832601087e+17
19228.0	3.5008275846703776e+17
19229.0	3.5001884283153056e+17
19230.0	3.4995490895080096e+17
19231.0	3.4989105224526496e+17
19232.0	3.4982711350613325e+17
19233.0	3.4976290066923514e+17
19234.0	3.4969928237492896e+17
19235.0	3.49635466563857e+17
19236.0	3.495717496335018e+17
19237.0	3.495078308522666e+17
19238.0	3.4944354727144096e+17
19239.0	3.4938031586672634e+17
19240.0	3.4931614766421325e+17
19241.0	3.492525294398122e+17
19242.0	3.491888621071018e+17
19243.0	3.49124310929681e+17
19244.0	3.490614347475626e+17
19245.0	3.489977006555136e+17
19246.0	3.4893387313534285e+17
19247.0	3.488702391823018e+17
19248.0	3.488065275297791e+17
19249.0	3.4874281336067405e+17
19250.0	3.486790846163626e+17
19251.0	3.4861502871633914e+17
19252.0	3.485500007863637e+17
19253.0	3.484879352933034e+17
19254.0	3.4842438187089914e+17
19255.0	3.4835964628391245e+17
19256.0	3.482970729654954e+17
19257.0	3.4823351566335994e+17
19258.0	3.481698803471701e+17
19259.0	3.4810584412542285e+17
19260.0	3.480419964376405e+17
19261.0	3.479790631081301e+17
19262.0	3.47915193749777e+17
19263.0	3.478515631172266e+17
19264.0	3.4778499353586336e+17
19265.0	3.477234364274005e+17
19266.0	3.476594417642154e+17
19267.0	3.4759763191398394e+17
19268.0	3.475340850277034e+17
19269.0	3.4747054327944525e+17
19270.0	3.474070048866303e+17
19271.0	3.4734139293477536e+17
19272.0	3.4727975463157754e+17
19273.0	3.4720494485067085e+17
19274.0	3.471463469984426e+17
19275.0	3.4708943410298874e+17
19276.0	3.4702581829031245e+17
19277.0	3.469624451181226e+17
19278.0	3.4689895733657594e+17
19279.0	3.4683546672387405e+17
19280.0	3.46771509809425e+17
19281.0	3.467085122371583e+17
19282.0	3.466450509845845e+17
19283.0	3.465812616325802e+17
19284.0	3.465178685024938e+17
19285.0	3.46453698482449e+17
19286.0	3.463910174403242e+17
19287.0	3.4632774786744314e+17
19288.0	3.462571569272149e+17
19289.0	3.461748725121023e+17
19290.0	3.4613739878263456e+17
19291.0	3.4607253090030925e+17
19292.0	3.460105048337066e+17
19293.0	3.4594701285785594e+17
19294.0	3.458836133664085e+17
19295.0	3.458201660598954e+17
19296.0	3.4575669470603936e+17
19297.0	3.456932590037674e+17
19298.0	3.456297134107306e+17
19299.0	3.4556634086768634e+17
19300.0	3.4550287395280205e+17
19301.0	3.454394047310506e+17
19302.0	3.4537595176222714e+17
19303.0	3.453120080598356e+17
19304.0	3.45248814928145e+17
19305.0	3.4518546094489594e+17
19306.0	3.4512209783903565e+17
19307.0	3.450582740937386e+17
19308.0	3.449949478977536e+17
19309.0	3.4484079698466125e+17
19310.0	3.4475368702279674e+17
19311.0	3.4469109863983776e+17
19312.0	3.4462784975885645e+17
19313.0	3.445642534496938e+17
19314.0	3.4444482623569894e+17
19315.0	3.4438824343197024e+17
19316.0	3.4437360838683296e+17
19317.0	3.4431009596375034e+17
19318.0	3.442464331748692e+17
19319.0	3.441829364804266e+17
19320.0	3.44119288860945e+17
19321.0	3.4405565676038816e+17
19322.0	3.439915240346965e+17
19323.0	3.4392797969995085e+17
19324.0	3.4386463784523085e+17
19325.0	3.438001853388117e+17
19326.0	3.437371646629205e+17
19327.0	3.4367329076073805e+17
19328.0	3.436095481752234e+17
19329.0	3.4354576574382074e+17
19330.0	3.4348165332555085e+17
19331.0	3.4341775341868365e+17
19332.0	3.4335409017541965e+17
19333.0	3.432901377348949e+17
19334.0	3.4322611776607565e+17
19335.0	3.4316201443546445e+17
19336.0	3.430980154381653e+17
19337.0	3.4303387823854925e+17
19338.0	3.429685345124352e+17
19339.0	3.429055554300586e+17
19340.0	3.428401796874239e+17
19341.0	3.42776826892561e+17
19342.0	3.4271043165443405e+17
19343.0	3.42648200626176e+17
19344.0	3.42583688630545e+17
19345.0	3.425046299497812e+17
19346.0	3.4245141992570874e+17
19347.0	3.423894244775253e+17
19348.0	3.4232513726163616e+17
19349.0	3.422601722112682e+17
19350.0	3.4219523512292685e+17
19351.0	3.4213021519708154e+17
19352.0	3.4206485832881485e+17
19353.0	3.4200014035790496e+17
19354.0	3.419348675854336e+17
19355.0	3.4186899132252154e+17
19356.0	3.4180398757969914e+17
19357.0	3.4173839558574074e+17
19358.0	3.4167261743458976e+17
19359.0	3.416061668316501e+17
19360.0	3.4154060667944954e+17
19361.0	3.414744732357973e+17
19362.0	3.4140849197547514e+17
19363.0	3.4134206244891296e+17
19364.0	3.4127543166566394e+17
19365.0	3.4120874390978554e+17
19366.0	3.411418133037055e+17
19367.0	3.410747050338986e+17
19368.0	3.4100739963180365e+17
19369.0	3.4093957696716794e+17
19370.0	3.408708602516821e+17
19371.0	3.4080383188336634e+17
19372.0	3.4073566444694176e+17
19373.0	3.406670741897215e+17
19374.0	3.4059842059851085e+17
19375.0	3.405293513517738e+17
19376.0	3.4046001859788794e+17
19377.0	3.403903163607722e+17
19378.0	3.403203216758101e+17
19379.0	3.402499412546901e+17
19380.0	3.4017917429350394e+17
19381.0	3.40108004364561e+17
19382.0	3.400359223143082e+17
19383.0	3.399637114639701e+17
19384.0	3.398917575147519e+17
19385.0	3.3981871884861434e+17
19386.0	3.397451449543338e+17
19387.0	3.3967096152282445e+17
19388.0	3.3959616561807354e+17
19389.0	3.39520715297041e+17
19390.0	3.394445657855317e+17
19391.0	3.39334515532322e+17
19392.0	3.3928996510324045e+17
19393.0	3.392114724787541e+17
19394.0	3.3913199328406176e+17
19395.0	3.39051623289105e+17
19396.0	3.389702143650474e+17
19397.0	3.3888778573578234e+17
19398.0	3.3880395750222496e+17
19399.0	3.3871437615158605e+17
19400.0	3.38632664154112e+17
19401.0	3.3854526516974925e+17
19402.0	3.384116087794345e+17
19403.0	3.3822363996214605e+17
19404.0	3.381303403260586e+17
19405.0	3.3803498002841594e+17
19406.0	3.3793770492613965e+17
19407.0	3.3783810254438394e+17
19408.0	3.377310787611306e+17
19409.0	3.3763136351764474e+17
19410.0	3.375240540673365e+17
19411.0	3.3741363684747936e+17
19412.0	3.3729998155502925e+17
19413.0	3.3716643890025786e+17
19414.0	3.3688795452101965e+17
19415.0	3.367611183486293e+17
19416.0	3.3662874800182605e+17
19417.0	3.364928354604373e+17
19418.0	3.3635154057844045e+17
19419.0	3.360109007383211e+17
19420.0	3.3584015799746554e+17
19421.0	3.356756653637632e+17
19422.0	3.353076725448703e+17
19423.0	3.350790832914432e+17
19424.0	3.346958591022422e+17
19425.0	3.343762850141523e+17
19426.0	3.3385808892613965e+17
19427.0	3.333280962532692e+17
19428.0	3.326804682779306e+17
19429.0	3.318096157736957e+17
19430.0	3.308936685245779e+17
19431.0	3.303396089004032e+17
19432.0	3.2985680001542816e+17
19433.0	3.293203071150762e+17
19434.0	3.287305648340991e+17
19435.0	3.2808120314320205e+17
19436.0	3.2736546487883085e+17
19437.0	3.2658701428981754e+17
19438.0	3.2568165653981856e+17
19439.0	3.248375956417195e+17
19440.0	3.237609420969301e+17
19441.0	3.227262247763968e+17
19442.0	3.2148000044919475e+17
19443.0	3.199741252512426e+17
19444.0	3.174048811625129e+17
19445.0	3.118916357324813e+17
19446.0	3.0772725934981114e+17
19447.0	3.036393439756287e+17
19448.0	2.9865238663441184e+17
19449.0	2.848541880527521e+17
19450.0	2.4540482756061802e+17
19451.0	2.3074722189148083e+17
19452.0	2.694155304173591e+17
19453.0	2.931024807854076e+17
19454.0	3.011794422814038e+17
19455.0	3.0535650031697914e+17
19456.0	3.090875435100843e+17
19457.0	3.1435417351181645e+17
19458.0	3.1800143974673024e+17
19459.0	3.199257804799996e+17
19460.0	3.2111208183453024e+17
19461.0	3.2211773234872314e+17
19462.0	3.230628209928874e+17
19463.0	3.239350714236926e+17
19464.0	3.2468201723221325e+17
19465.0	3.253763257838251e+17
19466.0	3.2600023643805005e+17
19467.0	3.2655905083009696e+17
19468.0	3.270549416443904e+17
19469.0	3.2749174163592525e+17
19470.0	3.2788354604291405e+17
19471.0	3.282274424804694e+17
19472.0	3.288711121513129e+17
19473.0	3.296520249365845e+17
19474.0	3.302700307447804e+17
19475.0	3.307526295650299e+17
19476.0	3.311054603943935e+17
19477.0	3.3139669157806074e+17
19478.0	3.316797914393255e+17
19479.0	3.3181601533788154e+17
19480.0	3.319964851590484e+17
19481.0	3.321538454836565e+17
19482.0	3.321926771190442e+17
19483.0	3.3228175620177914e+17
19484.0	3.3244811753772365e+17
19485.0	3.3246467724410874e+17
19486.0	3.324765847333546e+17
19487.0	3.324839452125866e+17
19488.0	3.324867165989546e+17
19489.0	3.3262822759246496e+17
19490.0	3.326360971902975e+17
19491.0	3.32635633160465e+17
19492.0	3.326226797516117e+17
19493.0	3.326066176294912e+17
19494.0	3.32587883036672e+17
19495.0	3.32566626828288e+17
19496.0	3.325403840817834e+17
19497.0	3.3251723638210554e+17
19498.0	3.324889712121173e+17
19499.0	3.324040928296958e+17
19500.0	3.324289735808341e+17
19501.0	3.3240224132410016e+17
19502.0	3.3249710260442445e+17
19503.0	3.324607994702506e+17
19504.0	3.324232337457152e+17
19505.0	3.323844361890474e+17
19506.0	3.323445219688448e+17
19507.0	3.3230347151168845e+17
19508.0	3.322616699595434e+17
19509.0	3.322188507294378e+17
19510.0	3.3217389250914976e+17
19511.0	3.320345483629908e+17
19512.0	3.320798305583103e+17
19513.0	3.3202241196960416e+17
19514.0	3.3198318848136525e+17
19515.0	3.319423184142336e+17
19516.0	3.318978530945706e+17
19517.0	3.318490296134314e+17
19518.0	3.318006839683754e+17
19519.0	3.317513151228586e+17
19520.0	3.3170136277975034e+17
19521.0	3.316512713255594e+17
19522.0	3.316004341241173e+17
19523.0	3.315495808794624e+17
19524.0	3.314981611590997e+17
19525.0	3.314463276706474e+17
19526.0	3.313943678287871e+17
19527.0	3.3134194846597114e+17
19528.0	3.3128934602178554e+17
19529.0	3.312364199520938e+17
19530.0	3.311832272644778e+17
19531.0	3.311297902586538e+17
19532.0	3.3107612473316685e+17
19533.0	3.310222346726058e+17
19534.0	3.3096813741342714e+17
19535.0	3.3091384508415994e+17
19536.0	3.3085912388730874e+17
19537.0	3.3080470593863674e+17
19538.0	3.3074969072107514e+17
19539.0	3.3069095033241594e+17
19540.0	3.3063959202365434e+17
19541.0	3.305844702358186e+17
19542.0	3.305290506873514e+17
19543.0	3.304734670367403e+17
19544.0	3.304178254697813e+17
19545.0	3.3035998454961485e+17
19546.0	3.3029966185977165e+17
19547.0	3.3025011000279034e+17
19548.0	3.3019399891845114e+17
19549.0	3.3013724484730874e+17
19550.0	3.300814877622271e+17
19551.0	3.3002511537274874e+17
19552.0	3.2996863854510074e+17
19553.0	3.299119823760042e+17
19554.0	3.2985518996193274e+17
19555.0	3.297986901005653e+17
19556.0	3.2974201484738554e+17
19557.0	3.296851593439914e+17
19558.0	3.2962828161078605e+17
19559.0	3.295713147136683e+17
19560.0	3.2951418969128954e+17
19561.0	3.2945718892516685e+17
19562.0	3.2940017739366394e+17
19563.0	3.293430191663786e+17
19564.0	3.2928581448717645e+17
19565.0	3.292285677251242e+17
19566.0	3.2917115193262074e+17
19567.0	3.2911394973504845e+17
19568.0	3.290565896219306e+17
19569.0	3.289991269231274e+17
19570.0	3.28941755240721e+17
19571.0	3.288842824406357e+17
19572.0	3.2882661533941754e+17
19573.0	3.28769184796945e+17
19574.0	3.2871116079540896e+17
19575.0	3.286541308788735e+17
19576.0	3.2859652812526925e+17
19577.0	3.2853861282611194e+17
19578.0	3.2848098983499085e+17
19579.0	3.284234356304554e+17
19580.0	3.2836578139176954e+17
19581.0	3.2830805658391885e+17
19582.0	3.2825044995058336e+17
19583.0	3.2819270539455136e+17
19584.0	3.281349434321578e+17
19585.0	3.280765168822954e+17
19586.0	3.2801859256538445e+17
19587.0	3.2796142441157965e+17
19588.0	3.279008877073749e+17
19589.0	3.2784590918997325e+17
19590.0	3.2778749434920954e+17
19591.0	3.2773033842879136e+17
19592.0	3.276724640240981e+17
19593.0	3.276145091237205e+17
19594.0	3.275552838735189e+17
19595.0	3.2749875304420685e+17
19596.0	3.2743903692062714e+17
19597.0	3.2738300696111776e+17
19598.0	3.273223644555946e+17
19599.0	3.272673089727146e+17
19600.0	3.272094041942698e+17
19601.0	3.2715110350847994e+17
19602.0	3.2709334511124474e+17
19603.0	3.270327882743807e+17
19604.0	3.269775386301781e+17
19605.0	3.269180655315626e+17
19606.0	3.2686188988989434e+17
19607.0	3.268039908087125e+17
19608.0	3.2674601766311245e+17
19609.0	3.26687816032802e+17
19610.0	3.2663020642850125e+17
19611.0	3.2657222580305914e+17
19612.0	3.265143779273386e+17
19613.0	3.2645644375381325e+17
19614.0	3.263983145801045e+17
19615.0	3.263406200411478e+17
19616.0	3.2628240352105805e+17
19617.0	3.262246956302336e+17
19618.0	3.261636255853226e+17
19619.0	3.261042569947818e+17
19620.0	3.2604690960438605e+17
19621.0	3.2599313439784954e+17
19622.0	3.2593527054882125e+17
19623.0	3.2587737643089914e+17
19624.0	3.258194876607147e+17
19625.0	3.257615984710997e+17
19626.0	3.2570372081582074e+17
19627.0	3.2564584410426016e+17
19628.0	3.2558744897672525e+17
19629.0	3.2552952644239354e+17
19630.0	3.2547209118132896e+17
19631.0	3.2538929457179296e+17
19632.0	3.2535653600897696e+17
19633.0	3.252986324888234e+17
19634.0	3.252408579085653e+17
19635.0	3.251828300622506e+17
19636.0	3.251251681689599e+17
19637.0	3.25065492730129e+17
19638.0	3.25009509257489e+17
19639.0	3.249517287353002e+17
19640.0	3.248936499631445e+17
19641.0	3.2482862259240954e+17
19642.0	3.2477839618648736e+17
19643.0	3.24720526954769e+17
19644.0	3.246624857565866e+17
19645.0	3.246033691388586e+17
19646.0	3.245472982149802e+17
19647.0	3.244895936096938e+17
19648.0	3.244318551354026e+17
19649.0	3.2437410907641165e+17
19650.0	3.2431640342254925e+17
19651.0	3.2425869074322765e+17
19652.0	3.2420098603308365e+17
19653.0	3.2414327796749645e+17
