# Flux units: erg / (cm m2 s)
# Wavelength units: Angstrom
wave	flux
19000.0	7.541152945274879e+17
19001.0	7.539726540778153e+17
19002.0	7.538426211467261e+17
19003.0	7.537060174189908e+17
19004.0	7.535694166272684e+17
19005.0	7.53432865747763e+17
19006.0	7.532960770512212e+17
19007.0	7.531570662124202e+17
19008.0	7.530240595197952e+17
19009.0	7.528839535482195e+17
19010.0	7.527337709010943e+17
19011.0	7.526148765035177e+17
19012.0	7.524632417883475e+17
19013.0	7.523435297811114e+17
19014.0	7.522027816615935e+17
19015.0	7.520671057139028e+17
19016.0	7.519302012545706e+17
19017.0	7.517946393919487e+17
19018.0	7.516563722032467e+17
19019.0	7.51536317800994e+17
19020.0	7.514027136996691e+17
19021.0	7.512663686206804e+17
19022.0	7.51129267728111e+17
19023.0	7.509885684023293e+17
19024.0	7.508516263340713e+17
19025.0	7.507129792812372e+17
19026.0	7.505728217197226e+17
19027.0	7.50424195019571e+17
19028.0	7.502994796270932e+17
19029.0	7.501619626595667e+17
19030.0	7.500248655418708e+17
19031.0	7.4988636878493e+17
19032.0	7.497474369388543e+17
19033.0	7.496017933675178e+17
19034.0	7.494631558217728e+17
19035.0	7.492821485355008e+17
19036.0	7.482034461081597e+17
19037.0	7.490183367404202e+17
19038.0	7.489098115011926e+17
19039.0	7.487775532122111e+17
19040.0	7.48640600658193e+17
19041.0	7.485027647837523e+17
19042.0	7.483565759528957e+17
19043.0	7.482261978305875e+17
19044.0	7.480874926167378e+17
19045.0	7.479480370419028e+17
19046.0	7.47807559454993e+17
19047.0	7.476684030738432e+17
19048.0	7.475226733794644e+17
19049.0	7.473836164033193e+17
19050.0	7.47244863234594e+17
19051.0	7.469694541889535e+17
19052.0	7.469174425823913e+17
19053.0	7.468460229525501e+17
19054.0	7.467112873678164e+17
19055.0	7.465565081829375e+17
19056.0	7.464332276618582e+17
19057.0	7.462955191544489e+17
19058.0	7.461542766662995e+17
19059.0	7.460172249868969e+17
19060.0	7.458783391383551e+17
19061.0	7.457402036507987e+17
19062.0	7.456009022865407e+17
19063.0	7.454616449624744e+17
19064.0	7.453173200803156e+17
19065.0	7.451723052351488e+17
19066.0	7.450396329683625e+17
19067.0	7.449055012235945e+17
19068.0	7.4476635057466e+17
19069.0	7.446271424637609e+17
19070.0	7.444865920357715e+17
19071.0	7.44347988463889e+17
19072.0	7.442084843749375e+17
19073.0	7.440699265209684e+17
19074.0	7.439308046729212e+17
19075.0	7.437914248751786e+17
19076.0	7.436512085934079e+17
19077.0	7.435116357178708e+17
19078.0	7.433720158661288e+17
19079.0	7.432337221135016e+17
19080.0	7.430933616874836e+17
19081.0	7.429518973206527e+17
19082.0	7.4281333583162e+17
19083.0	7.426676598243325e+17
19084.0	7.425198208144723e+17
19085.0	7.42394951770658e+17
19086.0	7.422255304103251e+17
19087.0	7.420996983543126e+17
19088.0	7.419625320306003e+17
19089.0	7.418157882933249e+17
19090.0	7.416919605553833e+17
19091.0	7.415548729447766e+17
19092.0	7.414105742071123e+17
19093.0	7.412788592203092e+17
19094.0	7.411402534114642e+17
19095.0	7.410009868599296e+17
19096.0	7.408609301015209e+17
19097.0	7.40721811608917e+17
19098.0	7.405815732371455e+17
19099.0	7.404417664592553e+17
19100.0	7.403008828637181e+17
19101.0	7.401620312686591e+17
19102.0	7.40018756780032e+17
19103.0	7.398836613240146e+17
19104.0	7.397436792242173e+17
19105.0	7.396009980897961e+17
19106.0	7.394606791873878e+17
19107.0	7.393201268020563e+17
19108.0	7.391652194112851e+17
19109.0	7.389746017162578e+17
19110.0	7.388717175362899e+17
19111.0	7.387484070958419e+17
19112.0	7.386111461206697e+17
19113.0	7.384728527874732e+17
19114.0	7.38332951777553e+17
19115.0	7.381888522693288e+17
19116.0	7.380516530902356e+17
19117.0	7.379111920009215e+17
19118.0	7.377631354464936e+17
19119.0	7.374401155978577e+17
19120.0	7.374819469295612e+17
19121.0	7.373461329892692e+17
19122.0	7.372138109468671e+17
19123.0	7.370742147230377e+17
19124.0	7.36926629049139e+17
19125.0	7.36793000620851e+17
19126.0	7.366482778390528e+17
19127.0	7.364281262320297e+17
19128.0	7.363564465553408e+17
19129.0	7.362275939013972e+17
19130.0	7.360930206362281e+17
19131.0	7.359541103209129e+17
19132.0	7.358138339207849e+17
19133.0	7.356689202981545e+17
19134.0	7.355278819327999e+17
19135.0	7.353934030394708e+17
19136.0	7.352531677435219e+17
19137.0	7.3510626014877e+17
19138.0	7.349718356415827e+17
19139.0	7.348330658354516e+17
19140.0	7.346930967379965e+17
19141.0	7.345528772405929e+17
19142.0	7.344109670192467e+17
19143.0	7.342698518981289e+17
19144.0	7.341290618355711e+17
19145.0	7.339914272877226e+17
19146.0	7.338128115935914e+17
19147.0	7.337070450879145e+17
19148.0	7.335691446211923e+17
19149.0	7.334286930389674e+17
19150.0	7.332890912227327e+17
19151.0	7.331486818631679e+17
19152.0	7.330065637441535e+17
19153.0	7.328640329056255e+17
19154.0	7.327202942473556e+17
19155.0	7.325839568579242e+17
19156.0	7.324416442630143e+17
19157.0	7.32292529066257e+17
19158.0	7.321331435569152e+17
19159.0	7.320124882507092e+17
19160.0	7.318753188511743e+17
19161.0	7.317209869189119e+17
19162.0	7.315025186258944e+17
19163.0	7.314209469628415e+17
19164.0	7.313057217424041e+17
19165.0	7.311659892036948e+17
19166.0	7.310214348931072e+17
19167.0	7.308800079953919e+17
19168.0	7.307452701736957e+17
19169.0	7.306061565744467e+17
19170.0	7.304660430531242e+17
19171.0	7.303230497226752e+17
19172.0	7.301833584279551e+17
19173.0	7.300437248748202e+17
19174.0	7.298927130137939e+17
19175.0	7.297541100011519e+17
19176.0	7.296130141738326e+17
19177.0	7.294616628538025e+17
19178.0	7.293268998662825e+17
19179.0	7.291841226822996e+17
19180.0	7.290459453915135e+17
19181.0	7.289008763000147e+17
19182.0	7.287639065493501e+17
19183.0	7.286239131249321e+17
19184.0	7.284821843771392e+17
19185.0	7.283405863518207e+17
19186.0	7.281989782601727e+17
19187.0	7.280522519991636e+17
19188.0	7.279149037824681e+17
19189.0	7.277724083159039e+17
19190.0	7.276292175735464e+17
19191.0	7.274847011515049e+17
19192.0	7.273442620123817e+17
19193.0	7.272002006723241e+17
19194.0	7.270542061775529e+17
19195.0	7.269072973245097e+17
19196.0	7.267537453929811e+17
19197.0	7.265862040595113e+17
19198.0	7.263602645925888e+17
19199.0	7.257042753071785e+17
19200.0	7.256402122069332e+17
19201.0	7.259450607927296e+17
19202.0	7.258782017694378e+17
19203.0	7.257571390565033e+17
19204.0	7.256265351408298e+17
19205.0	7.254895205111126e+17
19206.0	7.25350423129839e+17
19207.0	7.252027098092884e+17
19208.0	7.250589026440532e+17
19209.0	7.249259102120617e+17
19210.0	7.247846021529599e+17
19211.0	7.246417838647978e+17
19212.0	7.244981219622911e+17
19213.0	7.2434676938397e+17
19214.0	7.242018508679849e+17
19215.0	7.240659176696489e+17
19216.0	7.239252826565289e+17
19217.0	7.237798165042516e+17
19218.0	7.236019809506642e+17
19219.0	7.234812701398356e+17
19220.0	7.233495793401855e+17
19221.0	7.231948665651197e+17
19222.0	7.230613648048127e+17
19223.0	7.229190496933203e+17
19224.0	7.227727940332202e+17
19225.0	7.226261889875968e+17
19226.0	7.22486170816785e+17
19227.0	7.223418056693076e+17
19228.0	7.221992080015357e+17
19229.0	7.220543798028969e+17
19230.0	7.219089638424575e+17
19231.0	7.217635906639187e+17
19232.0	7.216188449532586e+17
19233.0	7.214696859959296e+17
19234.0	7.213277836039508e+17
19235.0	7.2118170578234e+17
19236.0	7.210267442850474e+17
19237.0	7.208786937424553e+17
19238.0	7.20727466713634e+17
19239.0	7.205874384764927e+17
19240.0	7.204409703049897e+17
19241.0	7.202934367802708e+17
19242.0	7.201474843683497e+17
19243.0	7.199908557750272e+17
19244.0	7.198551869576531e+17
19245.0	7.197081370361855e+17
19246.0	7.195604139289258e+17
19247.0	7.194136118908244e+17
19248.0	7.192663677730815e+17
19249.0	7.191186819951272e+17
19250.0	7.189696645256531e+17
19251.0	7.188167360075091e+17
19252.0	7.186549776405844e+17
19253.0	7.185250523632982e+17
19254.0	7.183778493497341e+17
19255.0	7.182161898285738e+17
19256.0	7.180787619201024e+17
19257.0	7.179309703058772e+17
19258.0	7.177814342806185e+17
19259.0	7.176261245162836e+17
19260.0	7.17462197973811e+17
19261.0	7.173303100418729e+17
19262.0	7.171771239934634e+17
19263.0	7.17024327176465e+17
19264.0	7.168529168771753e+17
19265.0	7.167175397037395e+17
19266.0	7.165678937877161e+17
19267.0	7.164257489649661e+17
19268.0	7.162734697250816e+17
19269.0	7.161021381388969e+17
19270.0	7.1594776999581e+17
19271.0	7.157808018838867e+17
19272.0	7.156406696280063e+17
19273.0	7.154611918645929e+17
19274.0	7.153024459866111e+17
19275.0	7.151822031202985e+17
19276.0	7.150272897176916e+17
19277.0	7.148730200009386e+17
19278.0	7.147182437520723e+17
19279.0	7.145620502478847e+17
19280.0	7.144035140851027e+17
19281.0	7.142493887922173e+17
19282.0	7.140930161912489e+17
19283.0	7.13932185464559e+17
19284.0	7.137713847970474e+17
19285.0	7.136075457757183e+17
19286.0	7.13450419458321e+17
19287.0	7.132863104636244e+17
19288.0	7.128019835551741e+17
19289.0	7.12336901791197e+17
19290.0	7.127761567088637e+17
19291.0	7.126101005784404e+17
19292.0	7.124682254494377e+17
19293.0	7.123074763718655e+17
19294.0	7.121453016503636e+17
19295.0	7.119837493635753e+17
19296.0	7.118197385155923e+17
19297.0	7.116556416843773e+17
19298.0	7.114911858207402e+17
19299.0	7.113270578118655e+17
19300.0	7.111626718532948e+17
19301.0	7.109965516898301e+17
19302.0	7.108290756476927e+17
19303.0	7.106584324866047e+17
19304.0	7.104636548808704e+17
19305.0	7.102849797674323e+17
19306.0	7.101158936717993e+17
19307.0	7.099428178143913e+17
19308.0	7.097710967171753e+17
19309.0	7.095821047343785e+17
19310.0	7.094011979715923e+17
19311.0	7.092504980269736e+17
19312.0	7.090849720565759e+17
19313.0	7.089084311448233e+17
19314.0	7.079592455394642e+17
19315.0	7.078251774083081e+17
19316.0	7.08326124036642e+17
19317.0	7.081583188814505e+17
19318.0	7.079825491623935e+17
19319.0	7.078063052073642e+17
19320.0	7.076268218515455e+17
19321.0	7.074450660218195e+17
19322.0	7.072578466917033e+17
19323.0	7.07057593422097e+17
19324.0	7.06862619103505e+17
19325.0	7.066157657183572e+17
19326.0	7.064374009834153e+17
19327.0	7.062525854089212e+17
19328.0	7.060637860844883e+17
19329.0	7.058762945440425e+17
19330.0	7.05683831914496e+17
19331.0	7.054899479751336e+17
19332.0	7.052835817870676e+17
19333.0	7.050193790828543e+17
19334.0	7.048236565004288e+17
19335.0	7.046225509482493e+17
19336.0	7.044265817407488e+17
19337.0	7.042258145290922e+17
19338.0	7.040112392492372e+17
19339.0	7.038142890639359e+17
19340.0	7.035585183787689e+17
19341.0	7.033486042289492e+17
19342.0	7.030932150157311e+17
19343.0	7.02893392990481e+17
19344.0	7.026765658587135e+17
19345.0	7.023747556267347e+17
19346.0	7.021912525198676e+17
19347.0	7.020228167510698e+17
19348.0	7.018084550311936e+17
19349.0	7.015843073010346e+17
19350.0	7.013592712172884e+17
19351.0	7.011318552854527e+17
19352.0	7.008980186431487e+17
19353.0	7.006723504777898e+17
19354.0	7.004197773202772e+17
19355.0	7.001463127539711e+17
19356.0	6.999135718735871e+17
19357.0	6.996726665707519e+17
19358.0	6.994288815986003e+17
19359.0	6.991806556274687e+17
19360.0	6.989312487500457e+17
19361.0	6.986837809692672e+17
19362.0	6.984307752392019e+17
19363.0	6.981662947322538e+17
19364.0	6.978305536294911e+17
19365.0	6.975618092630015e+17
19366.0	6.972892453535743e+17
19367.0	6.970127617272489e+17
19368.0	6.967320074605908e+17
19369.0	6.964442856161279e+17
19370.0	6.961544470462463e+17
19371.0	6.958194797226665e+17
19372.0	6.954630123967828e+17
19373.0	6.951577292111872e+17
19374.0	6.948331699830783e+17
19375.0	6.945126416908287e+17
19376.0	6.941918063755263e+17
19377.0	6.938562059217576e+17
19378.0	6.934029499979091e+17
19379.0	6.930613041539753e+17
19380.0	6.927103793212074e+17
19381.0	6.923522046339753e+17
19382.0	6.919819072197972e+17
19383.0	6.915623920948563e+17
19384.0	6.91081316540962e+17
19385.0	6.906991396694698e+17
19386.0	6.903095197259091e+17
19387.0	6.899084627542015e+17
19388.0	6.894402370797568e+17
19389.0	6.888602973765631e+17
19390.0	6.884305070456832e+17
19391.0	6.872544796388001e+17
19392.0	6.875184006955007e+17
19393.0	6.870892090316115e+17
19394.0	6.864928982608553e+17
19395.0	6.860199755950762e+17
19396.0	6.855109001259686e+17
19397.0	6.849469163241472e+17
19398.0	6.843578744220333e+17
19399.0	6.836608872830291e+17
19400.0	6.831463132910934e+17
19401.0	6.826018626426195e+17
19402.0	6.820333310268755e+17
19403.0	6.813202500638034e+17
19404.0	6.805991643414527e+17
19405.0	6.799764254010025e+17
19406.0	6.793301511722323e+17
19407.0	6.786575038589609e+17
19408.0	6.779315274383359e+17
19409.0	6.770659746469204e+17
19410.0	6.762893752838825e+17
19411.0	6.755091040174079e+17
19412.0	6.747018642849792e+17
19413.0	6.73866766684433e+17
19414.0	6.728581914121555e+17
19415.0	6.719138695916202e+17
19416.0	6.709823139042643e+17
19417.0	6.700287005818879e+17
19418.0	6.689862988070911e+17
19419.0	6.67789552726835e+17
19420.0	6.665639232012287e+17
19421.0	6.654037221616298e+17
19422.0	6.641835346056532e+17
19423.0	6.628938839228413e+17
19424.0	6.614781471490047e+17
19425.0	6.599995009182378e+17
19426.0	6.5842832225949e+17
19427.0	6.56712887435264e+17
19428.0	6.550645121220605e+17
19429.0	6.532919472422911e+17
19430.0	6.513097674063872e+17
19431.0	6.49218011308578e+17
19432.0	6.471897148205737e+17
19433.0	6.449024830450346e+17
19434.0	6.42450264756497e+17
19435.0	6.398677508336297e+17
19436.0	6.370303458410496e+17
19437.0	6.340206707168596e+17
19438.0	6.297392232704682e+17
19439.0	6.269737075998721e+17
19440.0	6.231660722214227e+17
19441.0	6.18839954388855e+17
19442.0	6.140905901785089e+17
19443.0	6.087535041533268e+17
19444.0	6.027687903275686e+17
19445.0	5.959495869355352e+17
19446.0	5.880693001988778e+17
19447.0	5.787744202653691e+17
19448.0	5.674894080256687e+17
19449.0	5.5316941733451085e+17
19450.0	5.3321649629429645e+17
19451.0	5.210117451896153e+17
19452.0	5.442932722455892e+17
19453.0	5.606323759961434e+17
19454.0	5.729936464325284e+17
19455.0	5.829456158173865e+17
19456.0	5.912339453487789e+17
19457.0	5.983054459830268e+17
19458.0	6.032221320249362e+17
19459.0	6.097969206001668e+17
19460.0	6.146404942610428e+17
19461.0	6.189276913292627e+17
19462.0	6.228116194896554e+17
19463.0	6.263129940601512e+17
19464.0	6.29561468527138e+17
19465.0	6.324878986706944e+17
19466.0	6.351636932853759e+17
19467.0	6.375920183716522e+17
19468.0	6.398480951366996e+17
19469.0	6.419567686800723e+17
19470.0	6.43928580825634e+17
19471.0	6.457513894827348e+17
19472.0	6.474704383290025e+17
19473.0	6.490946660554068e+17
19474.0	6.505310757847039e+17
19475.0	6.519132728765097e+17
19476.0	6.533688519731882e+17
19477.0	6.54599751012625e+17
19478.0	6.558264307220477e+17
19479.0	6.569039510547114e+17
19480.0	6.579009952765268e+17
19481.0	6.588340569287337e+17
19482.0	6.597330639082839e+17
19483.0	6.607678614798336e+17
19484.0	6.616003715443369e+17
19485.0	6.623342907184468e+17
19486.0	6.630120072675328e+17
19487.0	6.63659102671121e+17
19488.0	6.644439383889239e+17
19489.0	6.650530778578943e+17
19490.0	6.655750050938879e+17
19491.0	6.6616099878557e+17
19492.0	6.666777577302698e+17
19493.0	6.672786983135913e+17
19494.0	6.677941491946835e+17
19495.0	6.682174203887615e+17
19496.0	6.68598704153122e+17
19497.0	6.689771610963967e+17
19498.0	6.691489525181097e+17
19499.0	6.687182362247164e+17
19500.0	6.702110222931284e+17
19501.0	6.70533909811473e+17
19502.0	6.708228138205183e+17
19503.0	6.711465292245672e+17
19504.0	6.715674895668563e+17
19505.0	6.718372207132671e+17
19506.0	6.721332273567059e+17
19507.0	6.723520248326825e+17
19508.0	6.726120945396393e+17
19509.0	6.729423466266623e+17
19510.0	6.730888384959827e+17
19511.0	6.718410021579424e+17
19512.0	6.73170052105284e+17
19513.0	6.732944811666085e+17
19514.0	6.73635469972821e+17
19515.0	6.740713378501971e+17
19516.0	6.742345493337428e+17
19517.0	6.74361794241058e+17
19518.0	6.745209974379859e+17
19519.0	6.747469953455444e+17
19520.0	6.748529452122111e+17
19521.0	6.749564347001514e+17
19522.0	6.750482017375571e+17
19523.0	6.751359466471423e+17
19524.0	6.752662534662825e+17
19525.0	6.754026319598931e+17
19526.0	6.754662329177427e+17
19527.0	6.755235264812372e+17
19528.0	6.75583102165538e+17
19529.0	6.75640842002978e+17
19530.0	6.756881311727616e+17
19531.0	6.75812440346897e+17
19532.0	6.75843882946833e+17
19533.0	6.758704665853951e+17
19534.0	6.758924222289236e+17
19535.0	6.759094815817727e+17
19536.0	6.759216235326121e+17
19537.0	6.759334091773268e+17
19538.0	6.759536478126079e+17
19539.0	6.759877196819114e+17
19540.0	6.760066025084243e+17
19541.0	6.759999618766166e+17
19542.0	6.759881693113001e+17
19543.0	6.759735535599615e+17
19544.0	6.759579425701887e+17
19545.0	6.759123913102676e+17
19546.0	6.758790437972649e+17
19547.0	6.758960455483391e+17
19548.0	6.759123958540969e+17
19549.0	6.758845692335444e+17
19550.0	6.758610628859219e+17
19551.0	6.758291797442559e+17
19552.0	6.757949404523178e+17
19553.0	6.757574941955412e+17
19554.0	6.757188065645908e+17
19555.0	6.756793043998036e+17
19556.0	6.756380143430314e+17
19557.0	6.755936934821887e+17
19558.0	6.75547765154338e+17
19559.0	6.75500179796787e+17
19560.0	6.754483883212799e+17
19561.0	6.754266486145023e+17
19562.0	6.753954397771091e+17
19563.0	6.753706405352788e+17
19564.0	6.753132542776662e+17
19565.0	6.752542261597523e+17
19566.0	6.751923342409728e+17
19567.0	6.751319560465066e+17
19568.0	6.750670772939434e+17
19569.0	6.750179495510013e+17
19570.0	6.75014873378543e+17
19571.0	6.74947665109538e+17
19572.0	6.748772610605055e+17
19573.0	6.748088639859369e+17
19574.0	6.747325087088639e+17
19575.0	6.746665657215658e+17
19576.0	6.745931904275795e+17
19577.0	6.745216428015615e+17
19578.0	6.745025974457684e+17
19579.0	6.744259930270378e+17
19580.0	6.743511118381055e+17
19581.0	6.742852826562559e+17
19582.0	6.742056682651647e+17
19583.0	6.741242929654442e+17
19584.0	6.740418762899455e+17
19585.0	6.739515223135571e+17
19586.0	6.738650858171049e+17
19587.0	6.738176295043071e+17
19588.0	6.73729453629986e+17
19589.0	6.736629585324714e+17
19590.0	6.735736901817684e+17
19591.0	6.734912608534527e+17
19592.0	6.734033587273727e+17
19593.0	6.733134382323027e+17
19594.0	6.732103084059305e+17
19595.0	6.731337910190079e+17
19596.0	6.730174719939924e+17
19597.0	6.729522215561897e+17
19598.0	6.728439874715647e+17
19599.0	6.728029455777791e+17
19600.0	6.727108535517183e+17
19601.0	6.726131754816851e+17
19602.0	6.725167039731028e+17
19603.0	6.724013520147796e+17
19604.0	6.723248772699476e+17
19605.0	6.722197459916116e+17
19606.0	6.7214068168349e+17
19607.0	6.720444110820692e+17
19608.0	6.719466947739647e+17
19609.0	6.71846520394001e+17
19610.0	6.717502513304916e+17
19611.0	6.71651126714914e+17
19612.0	6.71553168744994e+17
19613.0	6.714527611617279e+17
19614.0	6.713689950388223e+17
19615.0	6.712759163027456e+17
19616.0	6.711673529652564e+17
19617.0	6.710712242711209e+17
19618.0	6.709391145304063e+17
19619.0	6.708284133561684e+17
19620.0	6.707330420834303e+17
19621.0	6.706597469006504e+17
19622.0	6.70560544760354e+17
19623.0	6.704860343478953e+17
19624.0	6.703808189038591e+17
19625.0	6.702759442470227e+17
19626.0	6.701691888642729e+17
19627.0	6.700584444887039e+17
19628.0	6.699346584141823e+17
19629.0	6.698111384682495e+17
19630.0	6.695177083158527e+17
19631.0	6.689923856509612e+17
19632.0	6.694720084377599e+17
19633.0	6.694085080733012e+17
19634.0	6.69315665826065e+17
19635.0	6.692245669412861e+17
19636.0	6.691201320572243e+17
19637.0	6.689882123184809e+17
19638.0	6.689064606498815e+17
19639.0	6.687979470148948e+17
19640.0	6.686825036207444e+17
19641.0	6.685438691508224e+17
19642.0	6.684716252703402e+17
19643.0	6.683624010503508e+17
19644.0	6.682485822499497e+17
19645.0	6.681311922094077e+17
19646.0	6.680321409242452e+17
19647.0	6.679240588132351e+17
19648.0	6.678138300574378e+17
19649.0	6.67703216054818e+17
19650.0	6.675925894692863e+17
19651.0	6.67481675993361e+17
19652.0	6.673705632180906e+17
19653.0	6.672591989243903e+17
19654.0	6.671478107231572e+17
19655.0	6.670359477267114e+17
19656.0	6.669241084280832e+17
19657.0	6.668125604238676e+17
19658.0	6.667005503471615e+17
19659.0	6.665883210481663e+17
19660.0	6.664760577753087e+17
19661.0	6.663635453607935e+17
19662.0	6.662506662942035e+17
19663.0	6.661352513514153e+17
19664.0	6.660230988081834e+17
19665.0	6.659120681014612e+17
