# Flux units: erg / (cm m2 s)
# Wavelength units: Angstrom
wave	flux
19000.0	4.9368134617224525e+17
19001.0	4.935772376050345e+17
19002.0	4.935046102952617e+17
19003.0	4.9341570174593696e+17
19004.0	4.93326977676083e+17
19005.0	4.932364954238975e+17
19006.0	4.9314921615196154e+17
19007.0	4.930616956376404e+17
19008.0	4.929634255415978e+17
19009.0	4.9286645190492154e+17
19010.0	4.927158324210344e+17
19011.0	4.927019894003028e+17
19012.0	4.9259994666762234e+17
19013.0	4.925300076270934e+17
19014.0	4.9243462104514554e+17
19015.0	4.923447929645738e+17
19016.0	4.922554401685503e+17
19017.0	4.921763402088447e+17
19018.0	4.920864673890304e+17
19019.0	4.919993574970709e+17
19020.0	4.919099893918378e+17
19021.0	4.91824022238003e+17
19022.0	4.9173507656908806e+17
19023.0	4.916415266029566e+17
19024.0	4.91552717878067e+17
19025.0	4.914700766674943e+17
19026.0	4.9137834451271674e+17
19027.0	4.912886325444607e+17
19028.0	4.912061600847189e+17
19029.0	4.911158398025727e+17
19030.0	4.9103155994733216e+17
19031.0	4.909435979825151e+17
19032.0	4.9085419142949536e+17
19033.0	4.9075304166413645e+17
19034.0	4.9067649617537683e+17
19035.0	4.9057925277504845e+17
19036.0	4.89942656902758e+17
19037.0	4.904084040930644e+17
19038.0	4.9032358960387405e+17
19039.0	4.902389011535189e+17
19040.0	4.901518420126378e+17
19041.0	4.900631259818666e+17
19042.0	4.8988187626482336e+17
19043.0	4.8988920343429114e+17
19044.0	4.8979972543829325e+17
19045.0	4.897126516173482e+17
19046.0	4.8961530797315405e+17
19047.0	4.8953361845015885e+17
19048.0	4.894041379788115e+17
19049.0	4.891849616173735e+17
19050.0	4.8926475475572045e+17
19051.0	4.891016765112318e+17
19052.0	4.8908147541497165e+17
19053.0	4.8901124801604256e+17
19054.0	4.889237579104255e+17
19055.0	4.887740507575637e+17
19056.0	4.8873682609984845e+17
19057.0	4.886607644939605e+17
19058.0	4.8848678881853414e+17
19059.0	4.884523399512062e+17
19060.0	4.883958665838591e+17
19061.0	4.88311743525683e+17
19062.0	4.882234525876223e+17
19063.0	4.8813615444131834e+17
19064.0	4.8803109278842874e+17
19065.0	4.879364509750613e+17
19066.0	4.878346603899562e+17
19067.0	4.877853332078591e+17
19068.0	4.876997518600875e+17
19069.0	4.876124149863764e+17
19070.0	4.875205820983977e+17
19071.0	4.874369097181866e+17
19072.0	4.873178269264553e+17
19073.0	4.87262350545169e+17
19074.0	4.8717629209531725e+17
19075.0	4.870890447699968e+17
19076.0	4.86998945108241e+17
19077.0	4.869113450419541e+17
19078.0	4.868199866695679e+17
19079.0	4.867399464168106e+17
19080.0	4.8665106492074656e+17
19081.0	4.865583567514282e+17
19082.0	4.8647288823043405e+17
19083.0	4.8637894609687885e+17
19084.0	4.862749051278677e+17
19085.0	4.8621525939869005e+17
19086.0	4.860375315688106e+17
19087.0	4.859621837635583e+17
19088.0	4.859029282444628e+17
19089.0	4.8583897356697594e+17
19090.0	4.8577816210090656e+17
19091.0	4.856864747552768e+17
19092.0	4.855344506688854e+17
19093.0	4.855220524460714e+17
19094.0	4.8543502797810336e+17
19095.0	4.853485543620607e+17
19096.0	4.8525928482297165e+17
19097.0	4.851744042035881e+17
19098.0	4.8505257169605965e+17
19099.0	4.8495869107896314e+17
19100.0	4.849096624614058e+17
19101.0	4.848259753312255e+17
19102.0	4.84719496143394e+17
19103.0	4.846532925500074e+17
19104.0	4.8456772490362874e+17
19105.0	4.844046716851543e+17
19106.0	4.843916833936724e+17
19107.0	4.8428610933664416e+17
19108.0	4.8419189555199994e+17
19109.0	4.8410817899178656e+17
19110.0	4.840445469960874e+17
19111.0	4.8393997251160723e+17
19112.0	4.8384912493554336e+17
19113.0	4.837871659078996e+17
19114.0	4.836865926496255e+17
19115.0	4.836040212043092e+17
19116.0	4.8352501785340576e+17
19117.0	4.834373257920511e+17
19118.0	4.8333116865686176e+17
19119.0	4.8135838049675654e+17
19120.0	4.831701979802282e+17
19121.0	4.8309175156299085e+17
19122.0	4.830098276483072e+17
19123.0	4.8292376521386656e+17
19124.0	4.8283492300445005e+17
19125.0	4.8274996136509446e+17
19126.0	4.8265924618922656e+17
19127.0	4.822948463859027e+17
19128.0	4.8248446359961594e+17
19129.0	4.8239368383146656e+17
19130.0	4.8231800537524896e+17
19131.0	4.822334575738879e+17
19132.0	4.821472205165909e+17
19133.0	4.820547008812372e+17
19134.0	4.8197478079528954e+17
19135.0	4.8188882091158176e+17
19136.0	4.8180278727802874e+17
19137.0	4.816929632725674e+17
19138.0	4.816286262842708e+17
19139.0	4.8154533006322336e+17
19140.0	4.8145965574171296e+17
19141.0	4.813736880286378e+17
19142.0	4.812834544287743e+17
19143.0	4.8119216288563194e+17
19144.0	4.8110983792558086e+17
19145.0	4.8102926394763936e+17
19146.0	4.808471214030849e+17
19147.0	4.808434599155028e+17
19148.0	4.8074357710957216e+17
19149.0	4.806525033906175e+17
19150.0	4.805992306267476e+17
19151.0	4.805137714730325e+17
19152.0	4.8042794993145165e+17
19153.0	4.8028094859400506e+17
19154.0	4.8023317323448314e+17
19155.0	4.8017084888296096e+17
19156.0	4.800851345757524e+17
19157.0	4.799786080621909e+17
19158.0	4.7985595871395834e+17
19159.0	4.798245184907946e+17
19160.0	4.797410719039487e+17
19161.0	4.7965551404427936e+17
19162.0	4.795290841601366e+17
19163.0	4.794807593467902e+17
19164.0	4.793997862808234e+17
19165.0	4.792486544627028e+17
19166.0	4.7920638692338336e+17
19167.0	4.79139668828706e+17
19168.0	4.7905744313384954e+17
19169.0	4.7897129625408845e+17
19170.0	4.788873095806975e+17
19171.0	4.787988326951594e+17
19172.0	4.7871520533381114e+17
19173.0	4.7863026550483616e+17
19174.0	4.785354113897813e+17
19175.0	4.7845865751401805e+17
19176.0	4.783737244658346e+17
19177.0	4.7826510387609594e+17
19178.0	4.782013552088404e+17
19179.0	4.781145540875605e+17
19180.0	4.780314456315219e+17
19181.0	4.779214826547882e+17
19182.0	4.778591076220927e+17
19183.0	4.777772630496598e+17
19184.0	4.776917943189504e+17
19185.0	4.776047813853183e+17
19186.0	4.775214300790782e+17
19187.0	4.7742798322292045e+17
19188.0	4.7735081676745376e+17
19189.0	4.772663388012542e+17
19190.0	4.7718118107818656e+17
19191.0	4.7709144401401165e+17
19192.0	4.770108247375871e+17
19193.0	4.7691754817017165e+17
19194.0	4.7682622398136314e+17
19195.0	4.767546379774633e+17
19196.0	4.766663687099734e+17
19197.0	4.7658121657931085e+17
19198.0	4.7648804997256525e+17
19199.0	4.761313959302483e+17
19200.0	4.761151362913621e+17
19201.0	4.7623424194205005e+17
19202.0	4.761578014507007e+17
19203.0	4.7607393508392954e+17
19204.0	4.7598673424547834e+17
19205.0	4.759045625173332e+17
19206.0	4.758188776401578e+17
19207.0	4.757182088216575e+17
19208.0	4.756110526032553e+17
19209.0	4.7556536083415034e+17
19210.0	4.75481066578466e+17
19211.0	4.7539846905855994e+17
19212.0	4.7531310861079885e+17
19213.0	4.75214048727313e+17
19214.0	4.7512660000549536e+17
19215.0	4.7505812365858125e+17
19216.0	4.7497447190036474e+17
19217.0	4.7488675439356576e+17
19218.0	4.74684741263906e+17
19219.0	4.746971763965951e+17
19220.0	4.746318072599892e+17
19221.0	4.74504864272657e+17
19222.0	4.74463466631987e+17
19223.0	4.7437911973778765e+17
19224.0	4.7429122781784736e+17
19225.0	4.741924187537407e+17
19226.0	4.7412576902621856e+17
19227.0	4.7404227609231354e+17
19228.0	4.739611833488724e+17
19229.0	4.738765891305471e+17
19230.0	4.737910827909119e+17
19231.0	4.737060602642432e+17
19232.0	4.736224038223871e+17
19233.0	4.7352921100124154e+17
19234.0	4.734511541649408e+17
19235.0	4.733657035396437e+17
19236.0	4.7328602868066976e+17
19237.0	4.731990857220095e+17
19238.0	4.7310250851696634e+17
19239.0	4.730337179467775e+17
19240.0	4.7294927171747834e+17
19241.0	4.7286231310008314e+17
19242.0	4.7277887448241485e+17
19243.0	4.7267449999633056e+17
19244.0	4.7261295711354874e+17
19245.0	4.7252763532328954e+17
19246.0	4.724420952195071e+17
19247.0	4.7235905932492794e+17
19248.0	4.7227653275866445e+17
19249.0	4.7219055931337376e+17
19250.0	4.7209358777384954e+17
19251.0	4.719983550529534e+17
19252.0	4.7189870950481914e+17
19253.0	4.7185168548495354e+17
19254.0	4.717723871346687e+17
19255.0	4.7166058838097914e+17
19256.0	4.7160131007283194e+17
19257.0	4.715201897867946e+17
19258.0	4.7143651621819725e+17
19259.0	4.713420610513577e+17
19260.0	4.712516700252842e+17
19261.0	4.711828201056938e+17
19262.0	4.710913996576086e+17
19263.0	4.7100333220604576e+17
19264.0	4.7084273663999974e+17
19265.0	4.708137656735061e+17
19266.0	4.707032178010794e+17
19267.0	4.706817403781119e+17
19268.0	4.7059723479941114e+17
19269.0	4.70513874055987e+17
19270.0	4.704287668043776e+17
19271.0	4.7029167639756806e+17
19272.0	4.7025724039277216e+17
19273.0	4.701397343098197e+17
19274.0	4.7003368832368614e+17
19275.0	4.7001254085263354e+17
19276.0	4.6992590561607674e+17
19277.0	4.6984334542547616e+17
19278.0	4.69758955889186e+17
19279.0	4.696739613245439e+17
19280.0	4.695805644505087e+17
19281.0	4.695078962462719e+17
19282.0	4.6942694030704634e+17
19283.0	4.6934044879530656e+17
19284.0	4.692549794354517e+17
19285.0	4.691545296994302e+17
19286.0	4.690866906071038e+17
19287.0	4.690079201099776e+17
19288.0	4.687699053117438e+17
19289.0	4.684632229063331e+17
19290.0	4.687574585748138e+17
19291.0	4.6863941869677235e+17
19292.0	4.6859299921592314e+17
19293.0	4.6850895508056736e+17
19294.0	4.684245426853205e+17
19295.0	4.683433323615572e+17
19296.0	4.682231967296171e+17
19297.0	4.681671280427008e+17
19298.0	4.6808866100346874e+17
19299.0	4.6796918331801594e+17
19300.0	4.6792391335608314e+17
19301.0	4.6784245424018765e+17
19302.0	4.6775775998771194e+17
19303.0	4.67664882438417e+17
19304.0	4.675889827326634e+17
19305.0	4.675073508114432e+17
19306.0	4.67425493656098e+17
19307.0	4.673355510011221e+17
19308.0	4.6725592738256205e+17
19309.0	4.6716480067556685e+17
19310.0	4.670767946006527e+17
19311.0	4.670033779927723e+17
19312.0	4.669247159883092e+17
19313.0	4.6684053889351674e+17
19314.0	4.650549776831813e+17
19315.0	4.6514068129491923e+17
19316.0	4.66542915555601e+17
19317.0	4.6650826067804154e+17
19318.0	4.664267923346772e+17
19319.0	4.6634638095592096e+17
19320.0	4.6624894161169056e+17
19321.0	4.6614835947547296e+17
19322.0	4.6608747069439994e+17
19323.0	4.660099617041066e+17
19324.0	4.6593001141917e+17
19325.0	4.658402120695807e+17
19326.0	4.6576494605325645e+17
19327.0	4.656801990224553e+17
19328.0	4.655318378916523e+17
19329.0	4.655173446139904e+17
19330.0	4.654287801374035e+17
19331.0	4.653437372683605e+17
19332.0	4.652683576563028e+17
19333.0	4.6518358259357005e+17
19334.0	4.651008497374549e+17
19335.0	4.648813155319809e+17
19336.0	4.6493508028770976e+17
19337.0	4.6485279859889485e+17
19338.0	4.6473841510536525e+17
19339.0	4.6468677651223885e+17
19340.0	4.6455644620499616e+17
19341.0	4.644584485289983e+17
19342.0	4.643677646706004e+17
19343.0	4.643533538110123e+17
19344.0	4.6421758845474125e+17
19345.0	4.638309181554682e+17
19346.0	4.6395426075224736e+17
19347.0	4.6394805199394125e+17
19348.0	4.6393982892113914e+17
19349.0	4.6385275726725114e+17
19350.0	4.6374726807497376e+17
19351.0	4.6368497958475085e+17
19352.0	4.6353044297045325e+17
19353.0	4.6352603559581005e+17
19354.0	4.634435552367958e+17
19355.0	4.633450076176384e+17
19356.0	4.632760675205119e+17
19357.0	4.631930288996351e+17
19358.0	4.6310967074269856e+17
19359.0	4.6300620376418976e+17
19360.0	4.628839194602153e+17
19361.0	4.6285507033825274e+17
19362.0	4.6277769913084576e+17
19363.0	4.6269452573300045e+17
19364.0	4.6261111374916256e+17
19365.0	4.6252706479035725e+17
19366.0	4.624444259565568e+17
19367.0	4.6236110694645766e+17
19368.0	4.6227783700971514e+17
19369.0	4.621877018361855e+17
19370.0	4.621066586554368e+17
19371.0	4.6201897805851296e+17
19372.0	4.6194338125141325e+17
19373.0	4.618573804732415e+17
19374.0	4.6177532038348794e+17
19375.0	4.6169171259555834e+17
19376.0	4.6160842588159994e+17
19377.0	4.615227967187626e+17
19378.0	4.6143918124127565e+17
19379.0	4.6135549131489274e+17
19380.0	4.612702755706198e+17
19381.0	4.6118388479208096e+17
19382.0	4.610893973990058e+17
19383.0	4.610004068510378e+17
19384.0	4.609276040096426e+17
19385.0	4.6084535482668365e+17
19386.0	4.6076110705786874e+17
19387.0	4.60675702919441e+17
19388.0	4.605899892413781e+17
19389.0	4.605034991277397e+17
19390.0	4.60414661881583e+17
19391.0	4.59808271289548e+17
19392.0	4.602226579690835e+17
19393.0	4.601537465330345e+17
19394.0	4.600664902598656e+17
19395.0	4.5995979143031475e+17
19396.0	4.5988772119401805e+17
19397.0	4.5980517239794336e+17
19398.0	4.596928449522347e+17
19399.0	4.594779225238185e+17
19400.0	4.595056565201578e+17
19401.0	4.594444421911893e+17
19402.0	4.5935579984035834e+17
19403.0	4.5926205861396474e+17
19404.0	4.5917288065051296e+17
19405.0	4.590774758233429e+17
19406.0	4.589850414721706e+17
19407.0	4.5886698866169165e+17
19408.0	4.586622806917121e+17
19409.0	4.5869194350865056e+17
19410.0	4.5860066154250234e+17
19411.0	4.5850193363817805e+17
19412.0	4.584003430514687e+17
19413.0	4.582740023661909e+17
19414.0	4.581881870461611e+17
19415.0	4.580836736587091e+17
19416.0	4.579502933235029e+17
19417.0	4.578593037702485e+17
19418.0	4.5774869123563514e+17
19419.0	4.5762730325442554e+17
19420.0	4.575046890684415e+17
19421.0	4.5737933746995194e+17
19422.0	4.5723570744415565e+17
19423.0	4.5710341734836896e+17
19424.0	4.569532023351978e+17
19425.0	4.567972754489343e+17
19426.0	4.566272141776211e+17
19427.0	4.564358394107219e+17
19428.0	4.5622806917939194e+17
19429.0	4.560220448271018e+17
19430.0	4.558007344736939e+17
19431.0	4.55490812178159e+17
19432.0	4.553399053844478e+17
19433.0	4.55057994748177e+17
19434.0	4.547436613031253e+17
19435.0	4.543672458674176e+17
19436.0	4.5391233557026125e+17
19437.0	4.5344331794131616e+17
19438.0	4.516883378208766e+17
19439.0	4.5191505295441926e+17
19440.0	4.511870520131583e+17
19441.0	4.503466504355839e+17
19442.0	4.492742431692117e+17
19443.0	4.4778560135277216e+17
19444.0	4.456345205997568e+17
19445.0	4.4271115754100096e+17
19446.0	4.398366491060906e+17
19447.0	4.354694352732153e+17
19448.0	4.278856798874287e+17
19449.0	4.1689814782006624e+17
19450.0	3.873732340744236e+17
19451.0	3.6704512624995155e+17
19452.0	4.062063423564456e+17
19453.0	4.229015811041962e+17
19454.0	4.318136079745023e+17
19455.0	4.373853775418707e+17
19456.0	4.406039791970988e+17
19457.0	4.4326391920284986e+17
19458.0	4.39748235973984e+17
19459.0	4.472011811542368e+17
19460.0	4.4841940039325005e+17
19461.0	4.4920123606521165e+17
19462.0	4.498164364432726e+17
19463.0	4.5049073141896525e+17
19464.0	4.5106597385120403e+17
19465.0	4.514688144506879e+17
19466.0	4.5176553272770554e+17
19467.0	4.5199530047569914e+17
19468.0	4.5217066726195194e+17
19469.0	4.522108379288916e+17
19470.0	4.523990464157013e+17
19471.0	4.524788080268628e+17
19472.0	4.525267775826602e+17
19473.0	4.525659251190442e+17
19474.0	4.5256904253549203e+17
19475.0	4.524991405446484e+17
19476.0	4.526592189530111e+17
19477.0	4.5267277878831776e+17
19478.0	4.5266930010248525e+17
19479.0	4.526023154597887e+17
19480.0	4.5262259142437536e+17
19481.0	4.5258383395826336e+17
19482.0	4.5255514708596045e+17
19483.0	4.52521000697856e+17
19484.0	4.5247480554236576e+17
19485.0	4.5241890889181856e+17
19486.0	4.5231914611288755e+17
19487.0	4.523240653324286e+17
19488.0	4.5227014769431885e+17
19489.0	4.521859752831657e+17
19490.0	4.519010938912764e+17
19491.0	4.5208442216557216e+17
19492.0	4.520294978245973e+17
19493.0	4.519658152875349e+17
19494.0	4.519004908202666e+17
19495.0	4.518338600370175e+17
19496.0	4.5168645031417146e+17
19497.0	4.5169115115028474e+17
19498.0	4.51561886126353e+17
19499.0	4.507089007280121e+17
19500.0	4.514850266939391e+17
19501.0	4.5141891292856314e+17
19502.0	4.5134781870680723e+17
19503.0	4.512770392675668e+17
19504.0	4.5120477840015354e+17
19505.0	4.5113273116262374e+17
19506.0	4.510617081741311e+17
19507.0	4.5098386398904314e+17
19508.0	4.5091447761797114e+17
19509.0	4.508381539379881e+17
19510.0	4.5071755518498125e+17
19511.0	4.480586651533285e+17
19512.0	4.5047693083060864e+17
19513.0	4.5024613470917926e+17
19514.0	4.502804527142227e+17
19515.0	4.503166118090071e+17
19516.0	4.503082810824021e+17
19517.0	4.502289100308478e+17
19518.0	4.501535630644565e+17
19519.0	4.500763257252521e+17
19520.0	4.4996312649345696e+17
19521.0	4.4993924957907616e+17
19522.0	4.4985108132440736e+17
19523.0	4.497740060950528e+17
19524.0	4.496734891802625e+17
19525.0	4.4963169923235834e+17
19526.0	4.4955768941008205e+17
19527.0	4.494777110932138e+17
19528.0	4.493985548599295e+17
19529.0	4.493191077516629e+17
19530.0	4.4924900380508154e+17
19531.0	4.491721573051049e+17
19532.0	4.490944857855317e+17
19533.0	4.49017446137856e+17
19534.0	4.4893965340289696e+17
19535.0	4.4885960776744954e+17
19536.0	4.4877856186040314e+17
19537.0	4.487058603114495e+17
19538.0	4.485640134240938e+17
19539.0	4.484588720794284e+17
19540.0	4.4846930142603936e+17
19541.0	4.4838594096223565e+17
19542.0	4.483133038657534e+17
19543.0	4.4819191301843616e+17
19544.0	4.4815840772969805e+17
19545.0	4.4800116110568083e+17
19546.0	4.4785695079792634e+17
19547.0	4.479283971315029e+17
19548.0	4.478519278392661e+17
19549.0	4.47759771640354e+17
19550.0	4.4769624869655885e+17
19551.0	4.4761891125329914e+17
19552.0	4.475405652896425e+17
19553.0	4.474591530101418e+17
19554.0	4.473777677839017e+17
19555.0	4.472998942386859e+17
19556.0	4.472258027672917e+17
19557.0	4.4715041434719565e+17
19558.0	4.470728241272148e+17
19559.0	4.4699544264376294e+17
19560.0	4.4689725195987616e+17
19561.0	4.4683561379648845e+17
19562.0	4.467441473508692e+17
19563.0	4.4668443269529594e+17
19564.0	4.4660691636497056e+17
19565.0	4.465288605772459e+17
19566.0	4.464467082128042e+17
19567.0	4.46373184999697e+17
19568.0	4.462924345114623e+17
19569.0	4.462140684850517e+17
19570.0	4.4613889558227616e+17
19571.0	4.4606075667742714e+17
19572.0	4.459785738343764e+17
19573.0	4.4589811002682016e+17
19574.0	4.4581241578236576e+17
19575.0	4.457497372917759e+17
19576.0	4.4566879281698125e+17
19577.0	4.455831806410752e+17
19578.0	4.4550932055545165e+17
19579.0	4.4543436219132576e+17
19580.0	4.453567642118825e+17
19581.0	4.4528010296033274e+17
19582.0	4.452050831496532e+17
19583.0	4.45127255532066e+17
19584.0	4.4504919107611296e+17
19585.0	4.449539293446144e+17
19586.0	4.448721880918698e+17
19587.0	4.4481289566289914e+17
19588.0	4.446624261952853e+17
19589.0	4.4465540968393376e+17
19590.0	4.445586286357162e+17
19591.0	4.4450321118440096e+17
19592.0	4.4442598509991245e+17
19593.0	4.4434208475927885e+17
19594.0	4.442280504415571e+17
19595.0	4.4418932093747194e+17
19596.0	4.4411209848804685e+17
19597.0	4.440358048672425e+17
19598.0	4.4385704481914874e+17
19599.0	4.438809081719466e+17
19600.0	4.438049353454934e+17
19601.0	4.4371724111708154e+17
19602.0	4.4363960538890234e+17
19603.0	4.435040423378943e+17
19604.0	4.4348734726034765e+17
19605.0	4.433711310656853e+17
19606.0	4.433381309109589e+17
19607.0	4.432618969890815e+17
19608.0	4.4318220905786016e+17
19609.0	4.4309877246743885e+17
19610.0	4.430059462284629e+17
19611.0	4.429163658215424e+17
19612.0	4.428747263093418e+17
19613.0	4.4279569730327885e+17
19614.0	4.4271398100664314e+17
19615.0	4.4264160878045856e+17
19616.0	4.4253695886841165e+17
19617.0	4.424478561927166e+17
19618.0	4.423068861246121e+17
19619.0	4.4219993605625146e+17
19620.0	4.42131104871219e+17
19621.0	4.421271813794475e+17
19622.0	4.4209956545276576e+17
19623.0	4.4202054434597536e+17
19624.0	4.4193774815586976e+17
19625.0	4.4186820282067616e+17
19626.0	4.417893205453482e+17
19627.0	4.4171290871507616e+17
19628.0	4.416275514829481e+17
19629.0	4.4142534974941856e+17
19630.0	4.414401149577898e+17
19631.0	4.41107741671424e+17
19632.0	4.413203822586538e+17
19633.0	4.412420459418965e+17
19634.0	4.4117209564665165e+17
19635.0	4.410850692912467e+17
19636.0	4.40962136547874e+17
19637.0	4.4084272764900685e+17
19638.0	4.4085780812922874e+17
19639.0	4.407854631660202e+17
19640.0	4.406905768247296e+17
19641.0	4.403655134412808e+17
19642.0	4.405505097203711e+17
19643.0	4.404731980720811e+17
19644.0	4.4039037419956896e+17
19645.0	4.402799274797737e+17
19646.0	4.4018878126926483e+17
19647.0	4.401701514291881e+17
19648.0	4.400936771037865e+17
19649.0	4.4001609072858445e+17
19650.0	4.399401472622592e+17
19651.0	4.39862654210321e+17
19652.0	4.3978559149397325e+17
19653.0	4.3970949144029856e+17
19654.0	4.3963177427271674e+17
