# Flux units: erg / (cm m2 s)
# Wavelength units: Angstrom
wave	flux
19000.0	6.396388215969107e+17
19001.0	6.395130978937513e+17
19002.0	6.394053058188627e+17
19003.0	6.392879893184511e+17
19004.0	6.391709450283689e+17
19005.0	6.390539650509482e+17
19006.0	6.389371780115114e+17
19007.0	6.388196471122602e+17
19008.0	6.387000668061695e+17
19009.0	6.385715752818004e+17
19010.0	6.38447091974144e+17
19011.0	6.383435574673408e+17
19012.0	6.382054073696255e+17
19013.0	6.381183680817833e+17
19014.0	6.379985362572627e+17
19015.0	6.378832055500799e+17
19016.0	6.377683143360511e+17
19017.0	6.376530287176361e+17
19018.0	6.375357950547284e+17
19019.0	6.374197919307091e+17
19020.0	6.373021609973075e+17
19021.0	6.371869713585491e+17
19022.0	6.370697506979839e+17
19023.0	6.369492665892863e+17
19024.0	6.368323541401599e+17
19025.0	6.367139541112148e+17
19026.0	6.365913032250708e+17
19027.0	6.364629858342228e+17
19028.0	6.36363977400866e+17
19029.0	6.362485851772243e+17
19030.0	6.361344973821268e+17
19031.0	6.360162051467946e+17
19032.0	6.358955437588479e+17
19033.0	6.357632928798035e+17
19034.0	6.356267061389994e+17
19035.0	6.353262380143956e+17
19036.0	6.337594749091839e+17
19037.0	6.351397003285843e+17
19038.0	6.351642946786644e+17
19039.0	6.350732409525588e+17
19040.0	6.349647767404544e+17
19041.0	6.348512706953215e+17
19042.0	6.346858513301501e+17
19043.0	6.346226403027625e+17
19044.0	6.345057760881321e+17
19045.0	6.343879213886121e+17
19046.0	6.342708835297962e+17
19047.0	6.341515643191296e+17
19048.0	6.340207701218644e+17
19049.0	6.338165487610537e+17
19050.0	6.337692898601642e+17
19051.0	6.334612039707305e+17
19052.0	6.334339663003647e+17
19053.0	6.334366273066324e+17
19054.0	6.333376884288169e+17
19055.0	6.331934952478035e+17
19056.0	6.331064106614781e+17
19057.0	6.329974179670697e+17
19058.0	6.328346124222463e+17
19059.0	6.327490862295721e+17
19060.0	6.326505100891476e+17
19061.0	6.325353744870057e+17
19062.0	6.324192806961151e+17
19063.0	6.323028584912212e+17
19064.0	6.321811224526847e+17
19065.0	6.320587184013311e+17
19066.0	6.319343312830463e+17
19067.0	6.318392801056084e+17
19068.0	6.317246659253588e+17
19069.0	6.316088836314451e+17
19070.0	6.314911293156009e+17
19071.0	6.313752620870314e+17
19072.0	6.312442567764649e+17
19073.0	6.311456700803753e+17
19074.0	6.310300091416575e+17
19075.0	6.309141330351444e+17
19076.0	6.307976543469565e+17
19077.0	6.306811076411391e+17
19078.0	6.305647779905535e+17
19079.0	6.304508389534378e+17
19080.0	6.303339892790612e+17
19081.0	6.302150737002495e+17
19082.0	6.301014992180564e+17
19083.0	6.299781386556756e+17
19084.0	6.298510072042836e+17
19085.0	6.29750472184081e+17
19086.0	6.295733508505599e+17
19087.0	6.294645893322067e+17
19088.0	6.293615057130836e+17
19089.0	6.292636377109844e+17
19090.0	6.291662738642259e+17
19091.0	6.29051791175407e+17
19092.0	6.289004735496192e+17
19093.0	6.288295305325225e+17
19094.0	6.287161166222676e+17
19095.0	6.286017164214272e+17
19096.0	6.284863737604778e+17
19097.0	6.283716241042089e+17
19098.0	6.282369325596672e+17
19099.0	6.281174128612692e+17
19100.0	6.28021187907857e+17
19101.0	6.279076707478185e+17
19102.0	6.277894196865705e+17
19103.0	6.27679171776785e+17
19104.0	6.275636472927572e+17
19105.0	6.274033712627713e+17
19106.0	6.273270320638633e+17
19107.0	6.271980913295359e+17
19108.0	6.270660136752467e+17
19109.0	6.269282930742612e+17
19110.0	6.268389632070995e+17
19111.0	6.267336935167316e+17
19112.0	6.266238451843071e+17
19113.0	6.265263397098835e+17
19114.0	6.264024317209257e+17
19115.0	6.262895309837652e+17
19116.0	6.261795283708585e+17
19117.0	6.260627314049023e+17
19118.0	6.259242881253375e+17
19119.0	6.254539309755045e+17
19120.0	6.256954933859668e+17
19121.0	6.255928619128148e+17
19122.0	6.254920318233258e+17
19123.0	6.253792081215487e+17
19124.0	6.252490044123817e+17
19125.0	6.251469622389417e+17
19126.0	6.250201805925034e+17
19127.0	6.248364753201834e+17
19128.0	6.247821690099027e+17
19129.0	6.246819912744959e+17
19130.0	6.245757480162643e+17
19131.0	6.244630834184191e+17
19132.0	6.243486232390313e+17
19133.0	6.242302268451498e+17
19134.0	6.241160262232746e+17
19135.0	6.240048056543913e+17
19136.0	6.238896549527551e+17
19137.0	6.237698139007657e+17
19138.0	6.236594909828435e+17
19139.0	6.235471887029588e+17
19140.0	6.234331940913151e+17
19141.0	6.233187980847785e+17
19142.0	6.232014676732585e+17
19143.0	6.230871951190698e+17
19144.0	6.229714929363625e+17
19145.0	6.22860562403601e+17
19146.0	6.226953276577108e+17
19147.0	6.226278755598333e+17
19148.0	6.225016367262378e+17
19149.0	6.223843906202282e+17
19150.0	6.222881904831145e+17
19151.0	6.221731618357247e+17
19152.0	6.220556958083753e+17
19153.0	6.219096921560403e+17
19154.0	6.218202454775124e+17
19155.0	6.217093396212394e+17
19156.0	6.215925969715199e+17
19157.0	6.214585116437161e+17
19158.0	6.21319880319522e+17
19159.0	6.212379163492351e+17
19160.0	6.211240308594003e+17
19161.0	6.209934297399295e+17
19162.0	6.208177534839466e+17
19163.0	6.207455348391935e+17
19164.0	6.206672514405715e+17
19165.0	6.205275284089513e+17
19166.0	6.204439706031443e+17
19167.0	6.203320790854314e+17
19168.0	6.202241019019263e+17
19169.0	6.201135415164927e+17
19170.0	6.200007741581993e+17
19171.0	6.198859486549331e+17
19172.0	6.197720214317738e+17
19173.0	6.196605166288895e+17
19174.0	6.195457163613524e+17
19175.0	6.194336948901203e+17
19176.0	6.193196953152169e+17
19177.0	6.191928389402623e+17
19178.0	6.190882366335658e+17
19179.0	6.189732630014634e+17
19180.0	6.188617280694953e+17
19181.0	6.187435885068287e+17
19182.0	6.186334760031572e+17
19183.0	6.18523347980561e+17
19184.0	6.184094696210431e+17
19185.0	6.182947013001215e+17
19186.0	6.181809012342783e+17
19187.0	6.18059921498658e+17
19188.0	6.179505678843901e+17
19189.0	6.178351795055273e+17
19190.0	6.177183185065302e+17
19191.0	6.175989361715882e+17
19192.0	6.174836002914301e+17
19193.0	6.173577042023764e+17
19194.0	6.172292511956992e+17
19195.0	6.171050499549866e+17
19196.0	6.169552818449065e+17
19197.0	6.167688639064746e+17
19198.0	6.164749543451305e+17
19199.0	6.158708685930495e+17
19200.0	6.158124892640596e+17
19201.0	6.161552665914026e+17
19202.0	6.162100773366442e+17
19203.0	6.161604065012394e+17
19204.0	6.160842087901866e+17
19205.0	6.159898535176874e+17
19206.0	6.158880812477097e+17
19207.0	6.157703706225321e+17
19208.0	6.156629546369023e+17
19209.0	6.155623516689747e+17
19210.0	6.154516964223658e+17
19211.0	6.153407919641939e+17
19212.0	6.152271159798441e+17
19213.0	6.151026656673791e+17
19214.0	6.149901605229907e+17
19215.0	6.148860072165375e+17
19216.0	6.147758745103018e+17
19217.0	6.146581408164521e+17
19218.0	6.145194551061161e+17
19219.0	6.144191709751978e+17
19220.0	6.143221198138026e+17
19221.0	6.142032219209728e+17
19222.0	6.140977852274003e+17
19223.0	6.139878776154793e+17
19224.0	6.138724737176916e+17
19225.0	6.137593481658368e+17
19226.0	6.136496397833556e+17
19227.0	6.135374597674324e+17
19228.0	6.134269704754516e+17
19229.0	6.133139736887295e+17
19230.0	6.132009556508671e+17
19231.0	6.130868177338367e+17
19232.0	6.129741499203583e+17
19233.0	6.128563314316627e+17
19234.0	6.127480988150442e+17
19235.0	6.126332922560512e+17
19236.0	6.12522643091183e+17
19237.0	6.124087685065386e+17
19238.0	6.122895703015423e+17
19239.0	6.121835135500287e+17
19240.0	6.120708916641791e+17
19241.0	6.119562751770623e+17
19242.0	6.118436641964031e+17
19243.0	6.117187200745471e+17
19244.0	6.116191024185344e+17
19245.0	6.115054519495338e+17
19246.0	6.113923492566356e+17
19247.0	6.11279356035072e+17
19248.0	6.111662865470804e+17
19249.0	6.110511196973737e+17
19250.0	6.109317450519892e+17
19251.0	6.108129498497021e+17
19252.0	6.106892882061994e+17
19253.0	6.105997032554495e+17
19254.0	6.104868441817087e+17
19255.0	6.103571900661759e+17
19256.0	6.102592880902144e+17
19257.0	6.101472785727488e+17
19258.0	6.100335326134271e+17
19259.0	6.09909988060911e+17
19260.0	6.097632212549631e+17
19261.0	6.096893491456681e+17
19262.0	6.095735211338409e+17
19263.0	6.094559636007594e+17
19264.0	6.093247817099945e+17
19265.0	6.092253258143059e+17
19266.0	6.091123513273002e+17
19267.0	6.090143591038975e+17
19268.0	6.089010754966867e+17
19269.0	6.087876734702932e+17
19270.0	6.086707339679059e+17
19271.0	6.08545700647185e+17
19272.0	6.08444331659537e+17
19273.0	6.083160186727081e+17
19274.0	6.081876786326185e+17
19275.0	6.081078464872447e+17
19276.0	6.079931697419604e+17
19277.0	6.078800072802304e+17
19278.0	6.077649389267625e+17
19279.0	6.076493097948499e+17
19280.0	6.075345272132948e+17
19281.0	6.074219938272596e+17
19282.0	6.073079890793812e+17
19283.0	6.071903120785408e+17
19284.0	6.070716097101823e+17
19285.0	6.069538214903807e+17
19286.0	6.068301606158335e+17
19287.0	6.066754853098836e+17
19288.0	6.058900867164838e+17
19289.0	6.054192824538447e+17
19290.0	6.063206579568637e+17
19291.0	6.062428664801962e+17
19292.0	6.061635990978559e+17
19293.0	6.06054971937041e+17
19294.0	6.059404117235028e+17
19295.0	6.058285093705044e+17
19296.0	6.056927986799956e+17
19297.0	6.055947444507988e+17
19298.0	6.054851141522772e+17
19299.0	6.053481686586708e+17
19300.0	6.05257782665762e+17
19301.0	6.051437114381652e+17
19302.0	6.050268716903082e+17
19303.0	6.049067570298879e+17
19304.0	6.047963095411369e+17
19305.0	6.046798227439615e+17
19306.0	6.045631151166803e+17
19307.0	6.044425048992425e+17
19308.0	6.043216927959721e+17
19309.0	6.041852531354282e+17
19310.0	6.04058378375441e+17
19311.0	6.039589456183296e+17
19312.0	6.038441560462676e+17
19313.0	6.036826698896726e+17
19314.0	6.006716622351018e+17
19315.0	6.007613135257624e+17
19316.0	6.033052813055316e+17
19317.0	6.032649268581716e+17
19318.0	6.031616505107796e+17
19319.0	6.030521370236244e+17
19320.0	6.029284682498047e+17
19321.0	6.028003627412137e+17
19322.0	6.026981604851712e+17
19323.0	6.025791467596457e+17
19324.0	6.024621001626963e+17
19325.0	6.02342228492288e+17
19326.0	6.022320300752895e+17
19327.0	6.021183285755903e+17
19328.0	6.019650749988864e+17
19329.0	6.018868230575444e+17
19330.0	6.017680688196266e+17
19331.0	6.016469006898515e+17
19332.0	6.015269665243135e+17
19333.0	6.014066366261929e+17
19334.0	6.012889296360788e+17
19335.0	6.010929458883242e+17
19336.0	6.010488313872381e+17
19337.0	6.009304449897812e+17
19338.0	6.007937763202388e+17
19339.0	6.00688271958562e+17
19340.0	6.005591226275156e+17
19341.0	6.004096804148563e+17
19342.0	6.002957662639444e+17
19343.0	6.001933651978922e+17
19344.0	6.00036059643904e+17
19345.0	5.998380175414612e+17
19346.0	5.99748432171281e+17
19347.0	5.996567461538473e+17
19348.0	5.995792679217834e+17
19349.0	5.994534851488425e+17
19350.0	5.993158991850154e+17
19351.0	5.99204284141841e+17
19352.0	5.990375869120511e+17
19353.0	5.989559001153535e+17
19354.0	5.988293848072191e+17
19355.0	5.986938308438697e+17
19356.0	5.985735567998975e+17
19357.0	5.984447672702292e+17
19358.0	5.983140537434112e+17
19359.0	5.981738806629715e+17
19360.0	5.980211456420521e+17
19361.0	5.979211505685844e+17
19362.0	5.977911007903741e+17
19363.0	5.976585765825193e+17
19364.0	5.975223237083135e+17
19365.0	5.973866418885972e+17
19366.0	5.972513685940906e+17
19367.0	5.971151770266282e+17
19368.0	5.969779405182292e+17
19369.0	5.968363366907903e+17
19370.0	5.966975926097236e+17
19371.0	5.965551309772116e+17
19372.0	5.964177184478548e+17
19373.0	5.96272362955298e+17
19374.0	5.961290072369833e+17
19375.0	5.95983100752691e+17
19376.0	5.958293593085267e+17
19377.0	5.956787598873939e+17
19378.0	5.95527689445922e+17
19379.0	5.953732878882131e+17
19380.0	5.952171031221588e+17
19381.0	5.950591273882963e+17
19382.0	5.948931302577492e+17
19383.0	5.947331086123005e+17
19384.0	5.945726025247402e+17
19385.0	5.943984645297492e+17
19386.0	5.942296335876095e+17
19387.0	5.940568585317033e+17
19388.0	5.938785665679359e+17
19389.0	5.936871507667625e+17
19390.0	5.934265306273108e+17
19391.0	5.919280410045089e+17
19392.0	5.928135313500841e+17
19393.0	5.929275147070121e+17
19394.0	5.927652449845247e+17
19395.0	5.925666060326227e+17
19396.0	5.923748186860202e+17
19397.0	5.921719531339776e+17
19398.0	5.919316722231978e+17
19399.0	5.916887109424468e+17
19400.0	5.914897258206548e+17
19401.0	5.91285741368115e+17
19402.0	5.910537895062186e+17
19403.0	5.907974126742186e+17
19404.0	5.905464687940948e+17
19405.0	5.902915847847935e+17
19406.0	5.900223096291327e+17
19407.0	5.897379719588521e+17
19408.0	5.894339562919252e+17
19409.0	5.891621210729129e+17
19410.0	5.88883177836817e+17
19411.0	5.885813265705641e+17
19412.0	5.882623319255722e+17
19413.0	5.879083114168319e+17
19414.0	5.875583816127827e+17
19415.0	5.871988867683667e+17
19416.0	5.868010295612756e+17
19417.0	5.864153031202132e+17
19418.0	5.860082497617919e+17
19419.0	5.8556844881565e+17
19420.0	5.851017678334634e+17
19421.0	5.8462475649024e+17
19422.0	5.841216992881321e+17
19423.0	5.836001003263316e+17
19424.0	5.830510550275412e+17
19425.0	5.824485359878144e+17
19426.0	5.818111968848554e+17
19427.0	5.811335000489983e+17
19428.0	5.804131701402281e+17
19429.0	5.796294636688724e+17
19430.0	5.787025186400938e+17
19431.0	5.777198900314111e+17
19432.0	5.769345488999763e+17
19433.0	5.759441597104128e+17
19434.0	5.748579918413822e+17
19435.0	5.735912528936958e+17
19436.0	5.7221922622013434e+17
19437.0	5.707368220327936e+17
19438.0	5.668600255873027e+17
19439.0	5.6691700073321805e+17
19440.0	5.656353133559807e+17
19441.0	5.635383621233321e+17
19442.0	5.6110975014666246e+17
19443.0	5.5831563848034976e+17
19444.0	5.5512447533274426e+17
19445.0	5.5134078369792006e+17
19446.0	5.4677888292618234e+17
19447.0	5.4112700438937555e+17
19448.0	5.3376050066882586e+17
19449.0	5.2331192240482976e+17
19450.0	5.051391227024715e+17
19451.0	4.908601028116489e+17
19452.0	5.158711904086698e+17
19453.0	5.288392394102104e+17
19454.0	5.372367223477586e+17
19455.0	5.4341602084126726e+17
19456.0	5.482194232060588e+17
19457.0	5.520539572852051e+17
19458.0	5.4777835474125696e+17
19459.0	5.57278669587526e+17
19460.0	5.605401928138751e+17
19461.0	5.626917132697599e+17
19462.0	5.644944624582655e+17
19463.0	5.661173753402708e+17
19464.0	5.675774298991273e+17
19465.0	5.6886787288596474e+17
19466.0	5.700176311571796e+17
19467.0	5.710605182129492e+17
19468.0	5.7197038396593485e+17
19469.0	5.7276316802962746e+17
19470.0	5.735770501414911e+17
19471.0	5.742867564374698e+17
19472.0	5.7492358404505574e+17
19473.0	5.754993096611156e+17
19474.0	5.7599437398780576e+17
19475.0	5.764542281809919e+17
19476.0	5.7693178443421e+17
19477.0	5.773425111640746e+17
19478.0	5.777040276630184e+17
19479.0	5.779981969216852e+17
19480.0	5.783176857255935e+17
19481.0	5.785908148873898e+17
19482.0	5.78845691346944e+17
19483.0	5.790926053397844e+17
19484.0	5.793015329893034e+17
19485.0	5.794869054974634e+17
19486.0	5.796312197540522e+17
19487.0	5.798130352127999e+17
19488.0	5.799499779102036e+17
19489.0	5.800619330415274e+17
19490.0	5.801385473168724e+17
19491.0	5.802893117838676e+17
19492.0	5.803759073842516e+17
19493.0	5.804451030543017e+17
19494.0	5.805270783492095e+17
19495.0	5.805734295328084e+17
19496.0	5.8058655924224e+17
19497.0	5.805876400444756e+17
19498.0	5.799333803502248e+17
19499.0	5.785307302242986e+17
19500.0	5.80621799924258e+17
19501.0	5.807614841585664e+17
19502.0	5.807957875534505e+17
19503.0	5.808085037744128e+17
19504.0	5.808125774222676e+17
19505.0	5.80818077622818e+17
19506.0	5.80808292311586e+17
19507.0	5.80788867441186e+17
19508.0	5.807592077000703e+17
19509.0	5.807042646944425e+17
19510.0	5.80517769650722e+17
19511.0	5.759721796184724e+17
19512.0	5.798346832041299e+17
19513.0	5.798112547307516e+17
19514.0	5.799143587621544e+17
19515.0	5.804480358514687e+17
19516.0	5.804609810814292e+17
19517.0	5.804322253526356e+17
19518.0	5.803921860373161e+17
19519.0	5.803411490471935e+17
19520.0	5.802683895469395e+17
19521.0	5.802449398224212e+17
19522.0	5.8017977480861e+17
19523.0	5.801196398837759e+17
19524.0	5.800452464224937e+17
19525.0	5.800024880797012e+17
19526.0	5.799381804515327e+17
19527.0	5.798763093644628e+17
19528.0	5.798046628227754e+17
19529.0	5.797326685732863e+17
19530.0	5.796662804305236e+17
19531.0	5.795934060063402e+17
19532.0	5.795191423587668e+17
19533.0	5.794433802960896e+17
19534.0	5.793664077572778e+17
19535.0	5.792871481344e+17
19536.0	5.792065094942719e+17
19537.0	5.79127775277875e+17
19538.0	5.790069693961556e+17
19539.0	5.789457195554131e+17
19540.0	5.788855363261779e+17
19541.0	5.787994355138559e+17
19542.0	5.787200700547071e+17
19543.0	5.786088949940224e+17
19544.0	5.785486816357034e+17
19545.0	5.784313227728212e+17
19546.0	5.783387065286655e+17
19547.0	5.782937553338368e+17
19548.0	5.782114323311273e+17
19549.0	5.781171069080916e+17
19550.0	5.780378398752767e+17
19551.0	5.779497341157376e+17
19552.0	5.778607941091327e+17
19553.0	5.777700206324393e+17
19554.0	5.776798743440041e+17
19555.0	5.775864015530665e+17
19556.0	5.77498342560017e+17
19557.0	5.774089982924116e+17
19558.0	5.773178674610175e+17
19559.0	5.772267829067775e+17
19560.0	5.771228834955263e+17
19561.0	5.770439020249087e+17
19562.0	5.769429992341503e+17
19563.0	5.768606807053652e+17
19564.0	5.767671063423657e+17
19565.0	5.766731760227667e+17
19566.0	5.765774395659603e+17
19567.0	5.764844665263444e+17
19568.0	5.763879958566228e+17
19569.0	5.7629964116514125e+17
19570.0	5.7620669643707725e+17
19571.0	5.761115279589375e+17
19572.0	5.7601603309404154e+17
19573.0	5.759206162431999e+17
19574.0	5.7582008982132045e+17
19575.0	5.7573355266157216e+17
19576.0	5.756345733087231e+17
19577.0	5.755325051305983e+17
19578.0	5.754422481824426e+17
19579.0	5.753446142924116e+17
19580.0	5.7524800206493e+17
19581.0	5.75152604647697e+17
19582.0	5.7505602548531194e+17
19583.0	5.7495857810199885e+17
19584.0	5.7485968752858445e+17
19585.0	5.747529403946324e+17
19586.0	5.746518115308884e+17
19587.0	5.745607007622485e+17
19588.0	5.74447434211874e+17
19589.0	5.743678152070484e+17
19590.0	5.742672144061779e+17
19591.0	5.741770249164116e+17
19592.0	5.7407984960361805e+17
19593.0	5.7397666804749645e+17
19594.0	5.738594039059796e+17
19595.0	5.7378221794699936e+17
19596.0	5.7366853147688954e+17
19597.0	5.735840128259411e+17
19598.0	5.734594580753066e+17
19599.0	5.7338554052771834e+17
19600.0	5.732880054834515e+17
19601.0	5.7318353781391354e+17
19602.0	5.7307860275909965e+17
19603.0	5.7296230931933856e+17
19604.0	5.728775603311956e+17
19605.0	5.7277007485992954e+17
19606.0	5.72690659348753e+17
19607.0	5.72592901656849e+17
19608.0	5.724923698522794e+17
19609.0	5.7239083435076256e+17
19610.0	5.72280068444433e+17
19611.0	5.7217359743549434e+17
19612.0	5.7209454459180365e+17
19613.0	5.719938283077632e+17
19614.0	5.718909423801684e+17
19615.0	5.7179271422716576e+17
19616.0	5.716694362925737e+17
19617.0	5.715696586238634e+17
19618.0	5.714530083187369e+17
19619.0	5.7133911499953485e+17
19620.0	5.7125080239090336e+17
19621.0	5.711595023892478e+17
19622.0	5.710912946175999e+17
19623.0	5.7098879771170125e+17
19624.0	5.7088239590877856e+17
19625.0	5.7078459152029e+17
19626.0	5.706770599116799e+17
19627.0	5.705611644414634e+17
19628.0	5.7042634587941536e+17
19629.0	5.7019241206906874e+17
19630.0	5.698617490101588e+17
19631.0	5.6944565846452896e+17
19632.0	5.698955846003369e+17
19633.0	5.6991564931181216e+17
19634.0	5.6985785564747085e+17
19635.0	5.69765971309363e+17
19636.0	5.6964686447028896e+17
19637.0	5.695232660908715e+17
19638.0	5.694821849104383e+17
19639.0	5.6938473857570125e+17
19640.0	5.692687090974719e+17
19641.0	5.691277905494016e+17
19642.0	5.690821057708031e+17
19643.0	5.689822612728489e+17
19644.0	5.688792562270206e+17
19645.0	5.687741831796052e+17
19646.0	5.6865110636189e+17
19647.0	5.6858578084604576e+17
19648.0	5.684863283757055e+17
19649.0	5.683855684009984e+17
19650.0	5.682856298807294e+17
19651.0	5.6818462495866874e+17
19652.0	5.6808402066254496e+17
19653.0	5.679832801214464e+17
19654.0	5.6788290196821325e+17
19655.0	5.677822192386047e+17
19656.0	5.6768221151232e+17
19657.0	5.675819263328255e+17
19658.0	5.674811311259646e+17
19659.0	5.673807243116543e+17
19660.0	5.67280125607936e+17
19661.0	5.671793727635455e+17
19662.0	5.670781399509674e+17
19663.0	5.669750408828245e+17
