# Flux units: erg / (cm m2 s)
# Wavelength units: Angstrom
wave	flux
19000.0	7.548652211230036e+17
19001.0	7.547250909642751e+17
19002.0	7.545963168836264e+17
19003.0	7.54461513490978e+17
19004.0	7.543266067786409e+17
19005.0	7.541917937390932e+17
19006.0	7.540566808068096e+17
19007.0	7.539139472435881e+17
19008.0	7.5378263602845e+17
19009.0	7.536461138100221e+17
19010.0	7.534891798713684e+17
19011.0	7.53376441873203e+17
19012.0	7.532142844881576e+17
19013.0	7.531074199136938e+17
19014.0	7.529671147126783e+17
19015.0	7.528324630140246e+17
19016.0	7.526956204905811e+17
19017.0	7.525613602603007e+17
19018.0	7.524234962840233e+17
19019.0	7.522882133426173e+17
19020.0	7.521503581743785e+17
19021.0	7.520153874290003e+17
19022.0	7.518788292793684e+17
19023.0	7.51739169022498e+17
19024.0	7.516028239435091e+17
19025.0	7.514645733922131e+17
19026.0	7.513251371111764e+17
19027.0	7.511658433172819e+17
19028.0	7.510550298056019e+17
19029.0	7.509165856172714e+17
19030.0	7.507798984228861e+17
19031.0	7.506420888327508e+17
19032.0	7.505041335604564e+17
19033.0	7.503607407924564e+17
19034.0	7.502263280293203e+17
19035.0	7.500803010985983e+17
19036.0	7.482642939947683e+17
19037.0	7.498079434091177e+17
19038.0	7.496729673509545e+17
19039.0	7.495367258712745e+17
19040.0	7.493984827299156e+17
19041.0	7.492600073639254e+17
19042.0	7.491159686731092e+17
19043.0	7.489828645328211e+17
19044.0	7.48843867255603e+17
19045.0	7.487042068589226e+17
19046.0	7.485635175994706e+17
19047.0	7.484264436902569e+17
19048.0	7.482768124542975e+17
19049.0	7.481436844064768e+17
19050.0	7.48006368485922e+17
19051.0	7.475976274094758e+17
19052.0	7.47683726823697e+17
19053.0	7.475894750806015e+17
19054.0	7.474524854768982e+17
19055.0	7.472983304044544e+17
19056.0	7.471723953083732e+17
19057.0	7.470334025050793e+17
19058.0	7.469254461532841e+17
19059.0	7.467904589103103e+17
19060.0	7.466493664384339e+17
19061.0	7.465107333666131e+17
19062.0	7.463704639569919e+17
19063.0	7.462304940206761e+17
19064.0	7.460840553491113e+17
19065.0	7.459398178482858e+17
19066.0	7.458064373033642e+17
19067.0	7.456697921918292e+17
19068.0	7.455295005523968e+17
19069.0	7.453891648727721e+17
19070.0	7.452473397957972e+17
19071.0	7.451073632884054e+17
19072.0	7.449674517927251e+17
19073.0	7.448268457203027e+17
19074.0	7.446865142349824e+17
19075.0	7.445458228783785e+17
19076.0	7.444039189484884e+17
19077.0	7.44263576278357e+17
19078.0	7.441220013217108e+17
19079.0	7.439825658795347e+17
19080.0	7.438412779530922e+17
19081.0	7.436981961228287e+17
19082.0	7.435570235397459e+17
19083.0	7.43411457143603e+17
19084.0	7.432628922395306e+17
19085.0	7.431354950090752e+17
19086.0	7.429684582503766e+17
19087.0	7.428071337142956e+17
19088.0	7.426995152835922e+17
19089.0	7.425346822122156e+17
19090.0	7.424243876757503e+17
19091.0	7.422849945960447e+17
19092.0	7.421318748176383e+17
19093.0	7.420044367626237e+17
19094.0	7.418626755788799e+17
19095.0	7.417210508498259e+17
19096.0	7.415795754379945e+17
19097.0	7.414387887308799e+17
19098.0	7.412969340141568e+17
19099.0	7.411551258542079e+17
19100.0	7.410109948887039e+17
19101.0	7.408707607112361e+17
19102.0	7.407247664960851e+17
19103.0	7.405880215601151e+17
19104.0	7.404459277680637e+17
19105.0	7.403026109169663e+17
19106.0	7.401531702422186e+17
19107.0	7.400177100215635e+17
19108.0	7.398750230151168e+17
19109.0	7.395863015282003e+17
19110.0	7.395814741639168e+17
19111.0	7.394499897240233e+17
19112.0	7.393084010659837e+17
19113.0	7.391662380679165e+17
19114.0	7.390238498357247e+17
19115.0	7.388756770990761e+17
19116.0	7.38737472545314e+17
19117.0	7.385944910987263e+17
19118.0	7.38441248706833e+17
19119.0	7.38133917792119e+17
19120.0	7.381531654531753e+17
19121.0	7.380147271368703e+17
19122.0	7.378830603845632e+17
19123.0	7.377402476888063e+17
19124.0	7.375873202891434e+17
19125.0	7.374534740366676e+17
19126.0	7.373106683314175e+17
19127.0	7.370729937611433e+17
19128.0	7.369798110063272e+17
19129.0	7.368772745341609e+17
19130.0	7.367388957769727e+17
19131.0	7.365945255963305e+17
19132.0	7.364525402969428e+17
19133.0	7.362964492735828e+17
19134.0	7.361451666003284e+17
19135.0	7.36021983666722e+17
19136.0	7.358793065867944e+17
19137.0	7.357268594349395e+17
19138.0	7.355904903086079e+17
19139.0	7.354485613527039e+17
19140.0	7.353051295776768e+17
19141.0	7.351614499192832e+17
19142.0	7.35016258633728e+17
19143.0	7.348709592749396e+17
19144.0	7.347284994599594e+17
19145.0	7.34585738633762e+17
19146.0	7.344070913425407e+17
19147.0	7.342931252521641e+17
19148.0	7.341526651415212e+17
19149.0	7.340086689529855e+17
19150.0	7.338649583965523e+17
19151.0	7.337210748949844e+17
19152.0	7.335746380409513e+17
19153.0	7.334304828882943e+17
19154.0	7.332804329209855e+17
19155.0	7.331426209540777e+17
19156.0	7.329968393901395e+17
19157.0	7.328438743815508e+17
19158.0	7.32615515779891e+17
19159.0	7.325575964961449e+17
19160.0	7.324152355269289e+17
19161.0	7.322658662951593e+17
19162.0	7.318989263514284e+17
19163.0	7.319671742485844e+17
19164.0	7.318372482722474e+17
19165.0	7.316886484156415e+17
19166.0	7.315371179988308e+17
19167.0	7.313807265234943e+17
19168.0	7.312546007263912e+17
19169.0	7.311077501741738e+17
19170.0	7.309657791354196e+17
19171.0	7.30809411567616e+17
19172.0	7.306728742496938e+17
19173.0	7.305289262956543e+17
19174.0	7.303810549896532e+17
19175.0	7.302382615876947e+17
19176.0	7.300921387472212e+17
19177.0	7.29936872743458e+17
19178.0	7.297923153570472e+17
19179.0	7.296369678439764e+17
19180.0	7.295041898807293e+17
19181.0	7.293544262445736e+17
19182.0	7.292130084345172e+17
19183.0	7.290672201596927e+17
19184.0	7.289189702478505e+17
19185.0	7.287735986072233e+17
19186.0	7.286268533320361e+17
19187.0	7.284760632098815e+17
19188.0	7.283319314055165e+17
19189.0	7.28183151473459e+17
19190.0	7.280344406076072e+17
19191.0	7.278854910858582e+17
19192.0	7.277417127215104e+17
19193.0	7.275921790730239e+17
19194.0	7.274437209838931e+17
19195.0	7.272957318179498e+17
19196.0	7.271441626737322e+17
19197.0	7.269888105469268e+17
19198.0	7.268105067692032e+17
19199.0	7.253138932585809e+17
19200.0	7.25531674384794e+17
19201.0	7.263697477741225e+17
19202.0	7.262475405754368e+17
19203.0	7.26101877989922e+17
19204.0	7.259577299675817e+17
19205.0	7.258112831870291e+17
19206.0	7.256620225877331e+17
19207.0	7.255082380121428e+17
19208.0	7.2535324505757e+17
19209.0	7.252141202735101e+17
19210.0	7.250651367778985e+17
19211.0	7.249150341021693e+17
19212.0	7.247644550933162e+17
19213.0	7.245996087399764e+17
19214.0	7.244423621858646e+17
19215.0	7.243069274106536e+17
19216.0	7.241620143472639e+17
19217.0	7.240111294338387e+17
19218.0	7.238147156301139e+17
19219.0	7.236990509864275e+17
19220.0	7.2355525165056e+17
19221.0	7.233876144073386e+17
19222.0	7.232530303767892e+17
19223.0	7.231013827990867e+17
19224.0	7.22946339652676e+17
19225.0	7.227887551774719e+17
19226.0	7.226428884691625e+17
19227.0	7.224897952546816e+17
19228.0	7.223382157645139e+17
19229.0	7.221849820408488e+17
19230.0	7.220296694803113e+17
19231.0	7.218759515941545e+17
19232.0	7.217235235962879e+17
19233.0	7.215659030500692e+17
19234.0	7.214144653273769e+17
19235.0	7.212599190661802e+17
19236.0	7.211064364804778e+17
19237.0	7.209505182624425e+17
19238.0	7.207889627600212e+17
19239.0	7.206406679691263e+17
19240.0	7.204826440706729e+17
19241.0	7.203268234401108e+17
19242.0	7.201716430001492e+17
19243.0	7.200060371981651e+17
19244.0	7.198593141527892e+17
19245.0	7.197021760913408e+17
19246.0	7.195438892100266e+17
19247.0	7.193869754040319e+17
19248.0	7.192290460172287e+17
19249.0	7.19069950194483e+17
19250.0	7.189108786987007e+17
19251.0	7.187464594653181e+17
19252.0	7.185768334229504e+17
19253.0	7.184329302081536e+17
19254.0	7.182739807666173e+17
19255.0	7.18102942921523e+17
19256.0	7.179503401609897e+17
19257.0	7.177923639377919e+17
19258.0	7.176310821836118e+17
19259.0	7.174649783779327e+17
19260.0	7.172783115774633e+17
19261.0	7.171447387936083e+17
19262.0	7.169790650438998e+17
19263.0	7.168151988994047e+17
19264.0	7.166262814354089e+17
19265.0	7.164804354189993e+17
19266.0	7.163175078199296e+17
19267.0	7.161615159219539e+17
19268.0	7.159961340958036e+17
19269.0	7.158302763559594e+17
19270.0	7.156636904849408e+17
19271.0	7.15479265260339e+17
19272.0	7.153276481612457e+17
19273.0	7.150872942695763e+17
19274.0	7.149418655864147e+17
19275.0	7.148263264922281e+17
19276.0	7.146567467270143e+17
19277.0	7.144878478371498e+17
19278.0	7.143190617740628e+17
19279.0	7.141466312802304e+17
19280.0	7.139737956166314e+17
19281.0	7.13805280785203e+17
19282.0	7.136333270439251e+17
19283.0	7.134443034640381e+17
19284.0	7.132706156576765e+17
19285.0	7.131047821049853e+17
19286.0	7.129384090249897e+17
19287.0	7.12764663337233e+17
19288.0	7.121391751703205e+17
19289.0	7.113275527397357e+17
19290.0	7.122360367491753e+17
19291.0	7.120452226209108e+17
19292.0	7.118824850238121e+17
19293.0	7.117034282287104e+17
19294.0	7.115243877913939e+17
19295.0	7.113441870697811e+17
19296.0	7.111632207478783e+17
19297.0	7.109805746072234e+17
19298.0	7.107978972889088e+17
19299.0	7.106156434554879e+17
19300.0	7.104314090717181e+17
19301.0	7.102461395337215e+17
19302.0	7.100495766923945e+17
19303.0	7.098484907136339e+17
19304.0	7.096631209317716e+17
19305.0	7.094754749011283e+17
19306.0	7.092859913459028e+17
19307.0	7.090921813661011e+17
19308.0	7.089013293492906e+17
19309.0	7.086663935197183e+17
19310.0	7.084525818828116e+17
19311.0	7.083140708652372e+17
19312.0	7.0812550837917e+17
19313.0	7.079281166035626e+17
19314.0	7.066886943888726e+17
19315.0	7.065605121245197e+17
19316.0	7.073247524115795e+17
19317.0	7.07130326847761e+17
19318.0	7.069279354617855e+17
19319.0	7.067263201618602e+17
19320.0	7.065224024686591e+17
19321.0	7.063174756259155e+17
19322.0	7.061031254403753e+17
19323.0	7.058849004169897e+17
19324.0	7.056931188026025e+17
19325.0	7.054507007541245e+17
19326.0	7.052760612601853e+17
19327.0	7.050679965188093e+17
19328.0	7.048573596904105e+17
19329.0	7.046459176954536e+17
19330.0	7.04430591774993e+17
19331.0	7.042158290097492e+17
19332.0	7.040028907667455e+17
19333.0	7.037859228461738e+17
19334.0	7.035691253541545e+17
19335.0	7.033496251225427e+17
19336.0	7.031304962965501e+17
19337.0	7.029104870861481e+17
19338.0	7.026764407286441e+17
19339.0	7.024611225676457e+17
19340.0	7.02228588536354e+17
19341.0	7.019992040079359e+17
19342.0	7.017463026461353e+17
19343.0	7.015343421652991e+17
19344.0	7.012982022908585e+17
19345.0	7.009392253031762e+17
19346.0	7.007319033031337e+17
19347.0	7.005301151978836e+17
19348.0	7.002917789761535e+17
19349.0	7.000455784344233e+17
19350.0	6.997988168346281e+17
19351.0	6.995508049128106e+17
19352.0	6.992975694746964e+17
19353.0	6.990503497170943e+17
19354.0	6.987964113136297e+17
19355.0	6.98535694635281e+17
19356.0	6.982818286534655e+17
19357.0	6.980213698549076e+17
19358.0	6.97757862007057e+17
19359.0	6.974890002699604e+17
19360.0	6.972229283741693e+17
19361.0	6.969535847814484e+17
19362.0	6.965995990854313e+17
19363.0	6.963224507318271e+17
19364.0	6.960430700997289e+17
19365.0	6.95760865792273e+17
19366.0	6.954757231651496e+17
19367.0	6.951875692374698e+17
19368.0	6.948962664360617e+17
19369.0	6.945981875268266e+17
19370.0	6.942953780019199e+17
19371.0	6.939191148893526e+17
19372.0	6.935640277691049e+17
19373.0	6.932534397676202e+17
19374.0	6.929408784859135e+17
19375.0	6.926228612535636e+17
19376.0	6.923006951555071e+17
19377.0	6.919497715810303e+17
19378.0	6.914500682842111e+17
19379.0	6.911106615694676e+17
19380.0	6.90766137524224e+17
19381.0	6.904158618299049e+17
19382.0	6.899555070465363e+17
19383.0	6.894294294768297e+17
19384.0	6.890623304990719e+17
19385.0	6.886826760820052e+17
19386.0	6.880502815741267e+17
19387.0	6.875523866514771e+17
19388.0	6.871426961244159e+17
19389.0	6.863633784329551e+17
19390.0	6.858592435743402e+17
19391.0	6.839808218715455e+17
19392.0	6.844109374707027e+17
19393.0	6.837266344662355e+17
19394.0	6.828448823640063e+17
19395.0	6.819605155326638e+17
19396.0	6.810764328654163e+17
19397.0	6.79882328427725e+17
19398.0	6.790315540567383e+17
19399.0	6.780231166372521e+17
19400.0	6.774465491544746e+17
19401.0	6.768180343078911e+17
19402.0	6.761604076361043e+17
19403.0	6.754855348251306e+17
19404.0	6.747958824752467e+17
19405.0	6.740875642142719e+17
19406.0	6.733393919563092e+17
19407.0	6.725963661093546e+17
19408.0	6.718063497969664e+17
19409.0	6.710623969389226e+17
19410.0	6.702682184089599e+17
19411.0	6.69452329951778e+17
19412.0	6.685974589341695e+17
19413.0	6.676844252932777e+17
19414.0	6.667953392407891e+17
19415.0	6.658823559315455e+17
19416.0	6.648616544370687e+17
19417.0	6.638320656318461e+17
19418.0	6.628442771903828e+17
19419.0	6.616501461887658e+17
19420.0	6.605787757543424e+17
19421.0	6.592300417286143e+17
19422.0	6.579892845368663e+17
19423.0	6.565207825099433e+17
19424.0	6.548524598558721e+17
19425.0	6.530720066087596e+17
19426.0	6.510469230974291e+17
19427.0	6.486976178596525e+17
19428.0	6.459303719687511e+17
19429.0	6.428884444643332e+17
19430.0	6.400725841433942e+17
19431.0	6.377732055935661e+17
19432.0	6.357372431761407e+17
19433.0	6.333961141747711e+17
19434.0	6.309469280185002e+17
19435.0	6.282152873645395e+17
19436.0	6.252273458653866e+17
19437.0	6.220604982165503e+17
19438.0	6.169859275969878e+17
19439.0	6.1419409099107e+17
19440.0	6.09576820163652e+17
19441.0	6.041417384897187e+17
19442.0	5.979439183691781e+17
19443.0	5.911220835407188e+17
19444.0	5.839795029453478e+17
19445.0	5.758311446085636e+17
19446.0	5.660861125361662e+17
19447.0	5.543216621289466e+17
19448.0	5.398543734931462e+17
19449.0	5.215408725775699e+17
19450.0	4.9727157763222054e+17
19451.0	4.863883281257819e+17
19452.0	5.1012498784692966e+17
19453.0	5.312249925206022e+17
19454.0	5.4712726601072576e+17
19455.0	5.598955347203411e+17
19456.0	5.703434058246829e+17
19457.0	5.789675486707708e+17
19458.0	5.85091414893092e+17
19459.0	5.929839366941366e+17
19460.0	5.993468174969504e+17
19461.0	6.049012093637971e+17
19462.0	6.097211173634045e+17
19463.0	6.137992113902931e+17
19464.0	6.174772739528018e+17
19465.0	6.207206518510934e+17
19466.0	6.235415343617362e+17
19467.0	6.260936780283904e+17
19468.0	6.284348698045098e+17
19469.0	6.305539281649663e+17
19470.0	6.326248619201875e+17
19471.0	6.34548810486033e+17
19472.0	6.366296913827162e+17
19473.0	6.395101489485135e+17
19474.0	6.421612315628881e+17
19475.0	6.443411071216297e+17
19476.0	6.46292102307294e+17
19477.0	6.479634420640429e+17
19478.0	6.49406119062187e+17
19479.0	6.50666825691955e+17
19480.0	6.51830099059234e+17
19481.0	6.528356698816512e+17
19482.0	6.537896168609108e+17
19483.0	6.546713261812393e+17
19484.0	6.555157094116009e+17
19485.0	6.562452067407188e+17
19486.0	6.570597093998591e+17
19487.0	6.577391057676969e+17
19488.0	6.583843015010985e+17
19489.0	6.590185108843178e+17
19490.0	6.596043158323197e+17
19491.0	6.602326397681663e+17
19492.0	6.60783136505856e+17
19493.0	6.613111510051498e+17
19494.0	6.618203641173332e+17
19495.0	6.62310467141632e+17
19496.0	6.627833595385172e+17
19497.0	6.632652064249172e+17
19498.0	6.63572713500399e+17
19499.0	6.621433866223602e+17
19500.0	6.645339728991572e+17
19501.0	6.649242721102506e+17
19502.0	6.652792410909354e+17
19503.0	6.658015409209345e+17
19504.0	6.664005279372628e+17
19505.0	6.673292152100178e+17
19506.0	6.678157133698387e+17
19507.0	6.68748362162722e+17
19508.0	6.690782141131437e+17
19509.0	6.698098959056895e+17
19510.0	6.700306636559702e+17
19511.0	6.685989187616754e+17
19512.0	6.70564822531003e+17
19513.0	6.707362692508319e+17
19514.0	6.711833786318842e+17
19515.0	6.717204340932608e+17
19516.0	6.72145470809702e+17
19517.0	6.72342912078097e+17
19518.0	6.724614853317972e+17
19519.0	6.725802978705408e+17
19520.0	6.729145124563625e+17
19521.0	6.730084164217514e+17
19522.0	6.730931082275497e+17
19523.0	6.731757621608447e+17
19524.0	6.732954443186173e+17
19525.0	6.734993571184639e+17
19526.0	6.7356340518912e+17
19527.0	6.736222764400639e+17
19528.0	6.736761264799741e+17
19529.0	6.737265915068415e+17
19530.0	6.737730734828202e+17
19531.0	6.738955101099348e+17
19532.0	6.739775825029801e+17
19533.0	6.740121466437631e+17
19534.0	6.740431265420628e+17
19535.0	6.740704264978431e+17
19536.0	6.740936109326335e+17
19537.0	6.741173729230847e+17
19538.0	6.741310035722239e+17
19539.0	6.741240375323306e+17
19540.0	6.741629901034836e+17
19541.0	6.742477370643796e+17
19542.0	6.742574751197865e+17
19543.0	6.742615229726719e+17
19544.0	6.742629716153684e+17
19545.0	6.742386262671357e+17
19546.0	6.742133548165802e+17
19547.0	6.742537338006185e+17
19548.0	6.742461597963604e+17
19549.0	6.742309142003711e+17
19550.0	6.742245417243988e+17
19551.0	6.742108771013972e+17
19552.0	6.741953164432724e+17
19553.0	6.741766905178793e+17
19554.0	6.741566125943465e+17
19555.0	6.741365470440106e+17
19556.0	6.741143310041087e+17
19557.0	6.740892759097343e+17
19558.0	6.740824144478207e+17
19559.0	6.740765243867133e+17
19560.0	6.740448671782227e+17
19561.0	6.740130296146601e+17
19562.0	6.739812620260692e+17
19563.0	6.739460862159529e+17
19564.0	6.739077153947647e+17
19565.0	6.738658266010964e+17
19566.0	6.738215939604479e+17
19567.0	6.737783169919658e+17
19568.0	6.737314052396371e+17
19569.0	6.736861160538111e+17
19570.0	6.73639021220113e+17
19571.0	6.735902174871551e+17
19572.0	6.73538982805504e+17
19573.0	6.734889346924543e+17
19574.0	6.734329280812372e+17
19575.0	6.73385501827618e+17
19576.0	6.733317220422995e+17
19577.0	6.73276487672354e+17
19578.0	6.732191811764224e+17
19579.0	6.731632166480553e+17
19580.0	6.731057186122409e+17
19581.0	6.730475130672467e+17
19582.0	6.729888075612159e+17
19583.0	6.729282307664554e+17
19584.0	6.728664732052137e+17
19585.0	6.727978980125353e+17
19586.0	6.727318533133651e+17
19587.0	6.726689335104852e+17
19588.0	6.725865859011924e+17
19589.0	6.725436956475391e+17
19590.0	6.724731413725183e+17
19591.0	6.724100380688383e+17
19592.0	6.723411730497535e+17
19593.0	6.722691349697876e+17
19594.0	6.721840580569769e+17
19595.0	6.721232163220138e+17
19596.0	6.719495507454634e+17
19597.0	6.719737361509033e+17
19598.0	6.71883933515776e+17
19599.0	6.718239038679721e+17
19600.0	6.717464429024598e+17
19601.0	6.716642931944105e+17
19602.0	6.715859041692329e+17
19603.0	6.714665254693545e+17
19604.0	6.714222662647808e+17
19605.0	6.713301055220393e+17
19606.0	6.712645662365011e+17
19607.0	6.711818713388372e+17
19608.0	6.710977117203114e+17
19609.0	6.710108817981439e+17
19610.0	6.709409436663808e+17
19611.0	6.708605510920873e+17
19612.0	6.707748609021268e+17
19613.0	6.706878532812799e+17
19614.0	6.705977791348735e+17
19615.0	6.705115465515007e+17
19616.0	6.704101463162879e+17
19617.0	6.703330972314281e+17
19618.0	6.702135579596115e+17
19619.0	6.701152780069546e+17
19620.0	6.700261521926825e+17
19621.0	6.699693497821865e+17
19622.0	6.698776787244372e+17
19623.0	6.697848783503359e+17
19624.0	6.696914966457002e+17
19625.0	6.695975035513513e+17
19626.0	6.695028933350739e+17
19627.0	6.694067501006847e+17
19628.0	6.692781806321663e+17
19629.0	6.692045564062377e+17
19630.0	6.689919593698644e+17
19631.0	6.675444875132928e+17
19632.0	6.689155948653225e+17
19633.0	6.688257466520916e+17
19634.0	6.687335232045055e+17
19635.0	6.686339737059327e+17
19636.0	6.685379964960767e+17
19637.0	6.684169617451689e+17
19638.0	6.683405269860351e+17
19639.0	6.682407251301716e+17
19640.0	6.681369237957289e+17
19641.0	6.68004807483938e+17
19642.0	6.679409706663935e+17
19643.0	6.678393800796842e+17
19644.0	6.677351406501887e+17
19645.0	6.676224662656339e+17
19646.0	6.67534608179746e+17
19647.0	6.674329114771455e+17
19648.0	6.673303132089002e+17
19649.0	6.672272262343338e+17
19650.0	6.671241289138175e+17
19651.0	6.670205729461588e+17
19652.0	6.669167184838655e+17
19653.0	6.668124690579455e+17
19654.0	6.667081397305343e+17
19655.0	6.666031723096746e+17
19656.0	6.664980630514346e+17
19657.0	6.663931914005161e+17
19658.0	6.66287678300706e+17
19659.0	6.661818158153727e+17
19660.0	6.660758690245289e+17
19661.0	6.659695882971817e+17
19662.0	6.658630248038399e+17
19663.0	6.657838769591636e+17
19664.0	6.656764667057491e+17
19665.0	6.655746013222228e+17
