# Flux units: erg / (cm m2 s)
# Wavelength units: Angstrom
wave	flux
19000.0	5.989357986338131e+17
19001.0	5.98817871512644e+17
19002.0	5.987121915494399e+17
19003.0	5.986002805282131e+17
19004.0	5.984883126741674e+17
19005.0	5.983762112315391e+17
19006.0	5.98264925790754e+17
19007.0	5.981522050591401e+17
19008.0	5.980371020327594e+17
19009.0	5.97927988891921e+17
19010.0	5.977841246142463e+17
19011.0	5.977041187547818e+17
19012.0	5.975867370329427e+17
19013.0	5.974817819153748e+17
19014.0	5.97366720832034e+17
19015.0	5.97256114938402e+17
19016.0	5.971435246496425e+17
19017.0	5.970343439106047e+17
19018.0	5.969226774173012e+17
19019.0	5.968112112719188e+17
19020.0	5.966982720170665e+17
19021.0	5.965878868836352e+17
19022.0	5.964765663505065e+17
19023.0	5.963627798462464e+17
19024.0	5.962522403624275e+17
19025.0	5.961423077943977e+17
19026.0	5.960287641403391e+17
19027.0	5.959166002025811e+17
19028.0	5.958072732920489e+17
19029.0	5.956946725175295e+17
19030.0	5.955846556439892e+17
19031.0	5.954734635264681e+17
19032.0	5.953617292951552e+17
19033.0	5.952449386206548e+17
19034.0	5.951381928848041e+17
19035.0	5.950254016888831e+17
19036.0	5.947055700006227e+17
19037.0	5.948040541459795e+17
19038.0	5.94691845399074e+17
19039.0	5.945816450946388e+17
19040.0	5.944705813927252e+17
19041.0	5.943587199341908e+17
19042.0	5.942421816169812e+17
19043.0	5.941365732365652e+17
19044.0	5.940245115699199e+17
19045.0	5.939139655150249e+17
19046.0	5.937989867798527e+17
19047.0	5.936912454560425e+17
19048.0	5.935658356266323e+17
19049.0	5.934647954025129e+17
19050.0	5.933546643040937e+17
19051.0	5.932097557146282e+17
19052.0	5.931334313355946e+17
19053.0	5.930239191067305e+17
19054.0	5.929130791709353e+17
19055.0	5.92786244047121e+17
19056.0	5.92688954998784e+17
19057.0	5.925792497620308e+17
19058.0	5.924679588686506e+17
19059.0	5.923573063483391e+17
19060.0	5.922449821881684e+17
19061.0	5.921355576202579e+17
19062.0	5.920242410717183e+17
19063.0	5.919134479723177e+17
19064.0	5.917944185181524e+17
19065.0	5.916808353677311e+17
19066.0	5.915769700002474e+17
19067.0	5.914689173891754e+17
19068.0	5.913587987338579e+17
19069.0	5.912480152813567e+17
19070.0	5.911352299574612e+17
19071.0	5.910259312885759e+17
19072.0	5.909154812832425e+17
19073.0	5.908043339748692e+17
19074.0	5.906938873249791e+17
19075.0	5.905831147776681e+17
19076.0	5.904709125319338e+17
19077.0	5.903609615089663e+17
19078.0	5.902483687036243e+17
19079.0	5.901400822601044e+17
19080.0	5.900287409651711e+17
19081.0	5.899159658474154e+17
19082.0	5.898049554830676e+17
19083.0	5.896916211946836e+17
19084.0	5.895730431874388e+17
19085.0	5.8947565794973e+17
19086.0	5.893433261905236e+17
19087.0	5.892494574572883e+17
19088.0	5.891405155838634e+17
19089.0	5.890201185768788e+17
19090.0	5.889218475720704e+17
19091.0	5.888120675368959e+17
19092.0	5.886983959565652e+17
19093.0	5.885923900959402e+17
19094.0	5.884817437971798e+17
19095.0	5.883712824672255e+17
19096.0	5.882599692741289e+17
19097.0	5.881507979023699e+17
19098.0	5.880404995910313e+17
19099.0	5.879298305032192e+17
19100.0	5.878190861975551e+17
19101.0	5.87709586481698e+17
19102.0	5.875925019962025e+17
19103.0	5.874888449458175e+17
19104.0	5.873788515603795e+17
19105.0	5.872686381836969e+17
19106.0	5.871573607819945e+17
19107.0	5.870470658960042e+17
19108.0	5.86938116542737e+17
19109.0	5.868111189595476e+17
19110.0	5.867178027559593e+17
19111.0	5.866077894475776e+17
19112.0	5.864977185374208e+17
19113.0	5.863874900612436e+17
19114.0	5.862775845464746e+17
19115.0	5.861645068795901e+17
19116.0	5.860562509845844e+17
19117.0	5.859468213136042e+17
19118.0	5.858321978359807e+17
19119.0	5.854306300679503e+17
19120.0	5.856152387234473e+17
19121.0	5.855067120861183e+17
19122.0	5.853980126434644e+17
19123.0	5.852880557484714e+17
19124.0	5.851772311917908e+17
19125.0	5.850684075278335e+17
19126.0	5.84958308585745e+17
19127.0	5.847396800703144e+17
19128.0	5.847322769839444e+17
19129.0	5.846238836555776e+17
19130.0	5.845187906153129e+17
19131.0	5.844097004033363e+17
19132.0	5.842999151951871e+17
19133.0	5.841784238942889e+17
19134.0	5.840768040173567e+17
19135.0	5.839708424066388e+17
19136.0	5.838615854710783e+17
19137.0	5.837417344226643e+17
19138.0	5.836413034212009e+17
19139.0	5.83532806144e+17
19140.0	5.834232836390911e+17
19141.0	5.833137504387071e+17
19142.0	5.832026750626474e+17
19143.0	5.830907578897748e+17
19144.0	5.8298326319104e+17
19145.0	5.828758100858195e+17
19146.0	5.827296317407232e+17
19147.0	5.826509865134761e+17
19148.0	5.825474304759124e+17
19149.0	5.824376610663082e+17
19150.0	5.823281764499455e+17
19151.0	5.822190644974931e+17
19152.0	5.821098402775039e+17
19153.0	5.819993332296361e+17
19154.0	5.818835319914495e+17
19155.0	5.817821898473471e+17
19156.0	5.816727600365567e+17
19157.0	5.815634521402025e+17
19158.0	5.814428561134931e+17
19159.0	5.813438500569087e+17
19160.0	5.812350720409599e+17
19161.0	5.811261537954473e+17
19162.0	5.809909766903124e+17
19163.0	5.809084374712319e+17
19164.0	5.807994320541012e+17
19165.0	5.806891993836201e+17
19166.0	5.805734560268287e+17
19167.0	5.804696856603306e+17
19168.0	5.803605780419924e+17
19169.0	5.802521587089407e+17
19170.0	5.801449255949652e+17
19171.0	5.800342864964265e+17
19172.0	5.799269999050751e+17
19173.0	5.79817964778291e+17
19174.0	5.797054391517184e+17
19175.0	5.795999660376063e+17
19176.0	5.794908171053738e+17
19177.0	5.793729738003796e+17
19178.0	5.792730251438762e+17
19179.0	5.791618687478442e+17
19180.0	5.790542529735338e+17
19181.0	5.789386488676351e+17
19182.0	5.78836735529233e+17
19183.0	5.787289589732692e+17
19184.0	5.786179634287956e+17
19185.0	5.785105325533865e+17
19186.0	5.784024490442751e+17
19187.0	5.78289464840465e+17
19188.0	5.781848197518676e+17
19189.0	5.780761307250687e+17
19190.0	5.779672558906025e+17
19191.0	5.778567775737174e+17
19192.0	5.777502127521791e+17
19193.0	5.776409037373437e+17
19194.0	5.775318656745472e+17
19195.0	5.774240915652607e+17
19196.0	5.773142897197055e+17
19197.0	5.772061913907199e+17
19198.0	5.770979785572351e+17
19199.0	5.768312409554941e+17
19200.0	5.76783566049553e+17
19201.0	5.767722335294804e+17
19202.0	5.766638241229482e+17
19203.0	5.765549051084799e+17
19204.0	5.76445041746466e+17
19205.0	5.7633749231206394e+17
19206.0	5.762289082826751e+17
19207.0	5.761157390401534e+17
19208.0	5.759974821068799e+17
19209.0	5.759033178849279e+17
19210.0	5.7579468142673914e+17
19211.0	5.7568701091676154e+17
19212.0	5.7557858172709536e+17
19213.0	5.754636111009109e+17
19214.0	5.7535468796204365e+17
19215.0	5.7525265788218016e+17
19216.0	5.7514439653457914e+17
19217.0	5.750358876531369e+17
19218.0	5.7487710780129254e+17
19219.0	5.748101951608147e+17
19220.0	5.7470951438854816e+17
19221.0	5.745818436195668e+17
19222.0	5.744941609254911e+17
19223.0	5.7438426372942496e+17
19224.0	5.742741614318932e+17
19225.0	5.741594659520511e+17
19226.0	5.7405903117571405e+17
19227.0	5.739505467610453e+17
19228.0	5.7384385499190605e+17
19229.0	5.7373545159720954e+17
19230.0	5.7362643995852794e+17
19231.0	5.735178227941375e+17
19232.0	5.7340961429476685e+17
19233.0	5.7329753060802554e+17
19234.0	5.7319188937222816e+17
19235.0	5.730829796551338e+17
19236.0	5.729160817278978e+17
19237.0	5.7261979057083725e+17
19238.0	5.725067481361066e+17
19239.0	5.724042379482452e+17
19240.0	5.722912816365568e+17
19241.0	5.721865997778943e+17
19242.0	5.7207967760165536e+17
19243.0	5.719623346771285e+17
19244.0	5.718640152980137e+17
19245.0	5.7175530208406176e+17
19246.0	5.716462199810729e+17
19247.0	5.7153862594723834e+17
19248.0	5.7143058032667296e+17
19249.0	5.71322082140706e+17
19250.0	5.712124622580394e+17
19251.0	5.7110040632360954e+17
19252.0	5.7097724030702925e+17
19253.0	5.7088691268485114e+17
19254.0	5.7077931648395936e+17
19255.0	5.7065894841767245e+17
19256.0	5.7056232290822816e+17
19257.0	5.7045462150021114e+17
19258.0	5.703460562752852e+17
19259.0	5.702328338350079e+17
19260.0	5.701244970598399e+17
19261.0	5.700196816125951e+17
19262.0	5.6990825496357536e+17
19263.0	5.698000294772735e+17
19264.0	5.696616679167315e+17
19265.0	5.6957318739613e+17
19266.0	5.694640980929194e+17
19267.0	5.693687258415103e+17
19268.0	5.6925956104082765e+17
19269.0	5.6915104048523936e+17
19270.0	5.690424498847743e+17
19271.0	5.6891251663831034e+17
19272.0	5.688226838740992e+17
19273.0	5.6857442910207974e+17
19274.0	5.685279559341395e+17
19275.0	5.6849819014703776e+17
19276.0	5.683880010973183e+17
19277.0	5.682792996274175e+17
19278.0	5.6817052608539296e+17
19279.0	5.680602499339604e+17
19280.0	5.679469549322239e+17
19281.0	5.67842805330739e+17
19282.0	5.6773464618434554e+17
19283.0	5.676230053462015e+17
19284.0	5.675128195820202e+17
19285.0	5.673944779937108e+17
19286.0	5.6729520413081594e+17
19287.0	5.6718783952541005e+17
19288.0	5.67033749115153e+17
19289.0	5.6681776629678035e+17
19290.0	5.6685914960691194e+17
19291.0	5.667337583722496e+17
19292.0	5.666396897804287e+17
19293.0	5.665293501551956e+17
19294.0	5.6641926051048096e+17
19295.0	5.6630997106906445e+17
19296.0	5.6619950358746445e+17
19297.0	5.660886374372692e+17
19298.0	5.659775605232981e+17
19299.0	5.658692584210431e+17
19300.0	5.657586347715241e+17
19301.0	5.656478220287999e+17
19302.0	5.655373140721663e+17
19303.0	5.654215999356926e+17
19304.0	5.653136166704468e+17
19305.0	5.652040914392404e+17
19306.0	5.65093583692322e+17
19307.0	5.649797161680896e+17
19308.0	5.64870232740113e+17
19309.0	5.647544997991765e+17
19310.0	5.646400652749483e+17
19311.0	5.6453499872870394e+17
19312.0	5.6423288063481184e+17
19313.0	5.6402849317956256e+17
19314.0	5.6371418105555565e+17
19315.0	5.6362393766898394e+17
19316.0	5.636921100686676e+17
19317.0	5.6357891398260045e+17
19318.0	5.63465857147426e+17
19319.0	5.633540345561088e+17
19320.0	5.632405545156607e+17
19321.0	5.6312739974348794e+17
19322.0	5.630083505760938e+17
19323.0	5.628970721258153e+17
19324.0	5.627856053512873e+17
19325.0	5.6266660148237645e+17
19326.0	5.625306737366356e+17
19327.0	5.6239760629650765e+17
19328.0	5.622837049382228e+17
19329.0	5.6216848265379834e+17
19330.0	5.620503524584105e+17
19331.0	5.619344568483839e+17
19332.0	5.618211251464873e+17
19333.0	5.61703976837666e+17
19334.0	5.6158781740591776e+17
19335.0	5.6147116549297485e+17
19336.0	5.6135366381404154e+17
19337.0	5.612357411667966e+17
19338.0	5.611030082923176e+17
19339.0	5.606709120030034e+17
19340.0	5.6054397432845645e+17
19341.0	5.6043084213562016e+17
19342.0	5.602872288870398e+17
19343.0	5.6019050879604045e+17
19344.0	5.600692010658473e+17
19345.0	5.598058848976892e+17
19346.0	5.5979401669509114e+17
19347.0	5.596991218952874e+17
19348.0	5.5957995507766605e+17
19349.0	5.5945414769814176e+17
19350.0	5.593304420144468e+17
19351.0	5.592043715821567e+17
19352.0	5.590770485908819e+17
19353.0	5.58863642473267e+17
19354.0	5.5863903882226336e+17
19355.0	5.5850489106923514e+17
19356.0	5.583815526667604e+17
19357.0	5.582517569235626e+17
19358.0	5.581202077515775e+17
19359.0	5.5798164773055136e+17
19360.0	5.578546820240724e+17
19361.0	5.5772071749222394e+17
19362.0	5.575891368629589e+17
19363.0	5.5745354941508256e+17
19364.0	5.573166778111317e+17
19365.0	5.571791542026238e+17
19366.0	5.5704019299642016e+17
19367.0	5.569000677310462e+17
19368.0	5.5675866320295245e+17
19369.0	5.5661165193898656e+17
19370.0	5.564557704211113e+17
19371.0	5.563224095894185e+17
19372.0	5.561784946305706e+17
19373.0	5.56028090524194e+17
19374.0	5.558785573650431e+17
19375.0	5.5572635599940256e+17
19376.0	5.5557226635810125e+17
19377.0	5.5541533186020685e+17
19378.0	5.5525732865365325e+17
19379.0	5.5509701089034234e+17
19380.0	5.549344500831573e+17
19381.0	5.547690287606441e+17
19382.0	5.545966917298858e+17
19383.0	5.5442524815578445e+17
19384.0	5.542588039823358e+17
19385.0	5.5408302272894285e+17
19386.0	5.539045633425407e+17
19387.0	5.5372267070859936e+17
19388.0	5.5353746233753594e+17
19389.0	5.533487603908607e+17
19390.0	5.531563773132798e+17
19391.0	5.5277126163278464e+17
19392.0	5.527596101358932e+17
19393.0	5.525554421825535e+17
19394.0	5.523461096428884e+17
19395.0	5.5213233218955936e+17
19396.0	5.519140485857278e+17
19397.0	5.5167674045781325e+17
19398.0	5.5138001309313696e+17
19399.0	5.510994375737342e+17
19400.0	5.509008125329406e+17
19401.0	5.506550020614825e+17
19402.0	5.504004343027028e+17
19403.0	5.5013698293814605e+17
19404.0	5.498683994232147e+17
19405.0	5.4958962270098765e+17
19406.0	5.493045977939966e+17
19407.0	5.490113695274324e+17
19408.0	5.4864056718895776e+17
19409.0	5.482699854009685e+17
19410.0	5.479469440215721e+17
19411.0	5.476112899506175e+17
19412.0	5.4726398592068256e+17
19413.0	5.4690549561207456e+17
19414.0	5.4638470943648435e+17
19415.0	5.4597322304826016e+17
19416.0	5.455628670948692e+17
19417.0	5.4502129926144006e+17
19418.0	5.444926363227477e+17
19419.0	5.4395807668196704e+17
19420.0	5.432734496675156e+17
19421.0	5.4259417486458835e+17
19422.0	5.418584625556136e+17
19423.0	5.409106977707349e+17
19424.0	5.398683668796755e+17
19425.0	5.38574812907656e+17
19426.0	5.369666762790228e+17
19427.0	5.350624248638119e+17
19428.0	5.335042038781268e+17
19429.0	5.324451818242047e+17
19430.0	5.3131314826226336e+17
19431.0	5.300743194716843e+17
19432.0	5.2882362478537376e+17
19433.0	5.2742475806146554e+17
19434.0	5.2593809323021645e+17
19435.0	5.2439408198724256e+17
19436.0	5.2271811528403616e+17
19437.0	5.2094955239942816e+17
19438.0	5.186865840433833e+17
19439.0	5.1674065375942e+17
19440.0	5.139867196806482e+17
19441.0	5.09981735448302e+17
19442.0	5.03648329697417e+17
19443.0	4.986337400717311e+17
19444.0	4.9394483836136064e+17
19445.0	4.88580148153549e+17
19446.0	4.8199364453771936e+17
19447.0	4.707611376440679e+17
19448.0	4.578330031773019e+17
19449.0	4.381392163744424e+17
19450.0	3.910211532226565e+17
19451.0	3.756218266943482e+17
19452.0	4.1772732222450605e+17
19453.0	4.500274468443495e+17
19454.0	4.637876650945182e+17
19455.0	4.767700520446639e+17
19456.0	4.847661346368171e+17
19457.0	4.904087530591571e+17
19458.0	4.947730238188209e+17
19459.0	4.9946683391344634e+17
19460.0	5.055913369709229e+17
19461.0	5.1045582007610054e+17
19462.0	5.134923525171885e+17
19463.0	5.1574517855682586e+17
19464.0	5.176233712506198e+17
19465.0	5.19263080222993e+17
19466.0	5.2081577115866445e+17
19467.0	5.222066583590228e+17
19468.0	5.2350755844478304e+17
19469.0	5.247489600214357e+17
19470.0	5.259012348051455e+17
19471.0	5.269447095528106e+17
19472.0	5.279076860297214e+17
19473.0	5.287952241044138e+17
19474.0	5.297745908028756e+17
19475.0	5.3141175634930374e+17
19476.0	5.3304361833813274e+17
19477.0	5.34217177536921e+17
19478.0	5.3515957263401e+17
19479.0	5.3590778788358784e+17
19480.0	5.364829073528149e+17
19481.0	5.3713227907508915e+17
19482.0	5.374871217373184e+17
19483.0	5.379686321706324e+17
19484.0	5.382119524139007e+17
19485.0	5.386236057354239e+17
19486.0	5.388568283316224e+17
19487.0	5.3904858911429965e+17
19488.0	5.393112483146409e+17
19489.0	5.3955127505059834e+17
19490.0	5.396085672159912e+17
19491.0	5.3983387537025696e+17
19492.0	5.399614323337898e+17
19493.0	5.400860222466729e+17
19494.0	5.402972982170964e+17
19495.0	5.4039004210790394e+17
19496.0	5.404500366633641e+17
19497.0	5.4054893380785485e+17
19498.0	5.406136761057279e+17
19499.0	5.403610061996027e+17
19500.0	5.4073246445731834e+17
19501.0	5.4077854496849914e+17
19502.0	5.4081785482444794e+17
19503.0	5.40851763814946e+17
19504.0	5.408787738045098e+17
19505.0	5.4093194143115936e+17
19506.0	5.4099264601238176e+17
19507.0	5.4100176484870816e+17
19508.0	5.410090425253887e+17
19509.0	5.410101148691115e+17
19510.0	5.409950802466132e+17
19511.0	5.406103307987622e+17
19512.0	5.4095548070406803e+17
19513.0	5.4086773544495763e+17
19514.0	5.4089995098521574e+17
19515.0	5.409026811275947e+17
19516.0	5.409092287157588e+17
19517.0	5.4087709636253e+17
19518.0	5.4085092635224723e+17
19519.0	5.408171805900799e+17
19520.0	5.4077916125156685e+17
19521.0	5.4074236909649914e+17
19522.0	5.406989740583592e+17
19523.0	5.4065791636602874e+17
19524.0	5.406123678324052e+17
19525.0	5.4056344288406176e+17
19526.0	5.405150113256789e+17
19527.0	5.40463298912802e+17
19528.0	5.4040970933917e+17
19529.0	5.40354640224802e+17
19530.0	5.4029890882983245e+17
19531.0	5.4024075857974605e+17
19532.0	5.401811101242709e+17
19533.0	5.401200460911956e+17
19534.0	5.400575176168788e+17
19535.0	5.3999252477924685e+17
19536.0	5.399264561026387e+17
19537.0	5.398628004091221e+17
19538.0	5.39793823891456e+17
19539.0	5.3968885171705184e+17
19540.0	5.3965595278486176e+17
19541.0	5.3958710062830925e+17
19542.0	5.395153384636415e+17
19543.0	5.3944322838145696e+17
19544.0	5.3937013277764256e+17
19545.0	5.3927559008965946e+17
19546.0	5.3915837823713274e+17
19547.0	5.391459639361534e+17
19548.0	5.3906975552962554e+17
19549.0	5.389864214200319e+17
19550.0	5.389149046221483e+17
19551.0	5.388366927364094e+17
19552.0	5.3875762332521805e+17
19553.0	5.3868650869118285e+17
19554.0	5.387690394517503e+17
19555.0	5.38689623101713e+17
19556.0	5.386087973956266e+17
19557.0	5.3852627110898336e+17
19558.0	5.3844352000764576e+17
19559.0	5.3836006636038816e+17
19560.0	5.3827528794221216e+17
19561.0	5.381911504136873e+17
19562.0	5.38108197216802e+17
19563.0	5.3802356392154445e+17
19564.0	5.3793835390948685e+17
19565.0	5.3785274306177696e+17
19566.0	5.3776484533971616e+17
19567.0	5.376804127419049e+17
19568.0	5.3759223225384954e+17
19569.0	5.375054647569065e+17
19570.0	5.3741961749026125e+17
19571.0	5.3733200987422714e+17
19572.0	5.3724194215908685e+17
19573.0	5.371687017818794e+17
19574.0	5.3736001286526285e+17
19575.0	5.3727696718397434e+17
19576.0	5.37187341898001e+17
19577.0	5.370952312072873e+17
19578.0	5.37005687640337e+17
19579.0	5.3691636532292243e+17
19580.0	5.368265308809898e+17
19581.0	5.367364310794239e+17
19582.0	5.366470371792212e+17
19583.0	5.365562750271487e+17
19584.0	5.36465305187123e+17
19585.0	5.363672429887487e+17
19586.0	5.362744295424e+17
19587.0	5.361902964178943e+17
19588.0	5.3607083802624e+17
19589.0	5.3600691368755194e+17
19590.0	5.3591027084165114e+17
19591.0	5.3582385538662394e+17
19592.0	5.357320259239935e+17
19593.0	5.356386286305279e+17
19594.0	5.3553187960913894e+17
19595.0	5.354537526580564e+17
19596.0	5.3534596268032e+17
19597.0	5.352686799727275e+17
19598.0	5.351536502068564e+17
19599.0	5.3508346223438496e+17
19600.0	5.3499099286077446e+17
19601.0	5.348937135292415e+17
19602.0	5.348021317402623e+17
19603.0	5.3468387103211514e+17
19604.0	5.346154961873578e+17
19605.0	5.34505730412817e+17
19606.0	5.344304044878506e+17
19607.0	5.343373566498132e+17
19608.0	5.3424260228928845e+17
19609.0	5.341464300442963e+17
19610.0	5.340560418843306e+17
19611.0	5.3396138755795616e+17
19612.0	5.3386817942760083e+17
19613.0	5.337733928408404e+17
19614.0	5.336775782301694e+17
19615.0	5.33585909059857e+17
19616.0	5.3349006082484896e+17
19617.0	5.3339704472371194e+17
19618.0	5.332710903338323e+17
19619.0	5.3316267624366054e+17
19620.0	5.330728567614121e+17
19621.0	5.3301958979966285e+17
19622.0	5.329254500444841e+17
19623.0	5.328309177024511e+17
19624.0	5.327357518107988e+17
19625.0	5.32641708384802e+17
19626.0	5.3254678667154765e+17
19627.0	5.324523772925268e+17
19628.0	5.3235367797937485e+17
19629.0	5.3225757515011405e+17
19630.0	5.3216641824413005e+17
19631.0	5.319579121920685e+17
19632.0	5.3213617717248006e+17
19633.0	5.3212980238964045e+17
19634.0	5.3203700523117216e+17
19635.0	5.319396096475135e+17
19636.0	5.31846338113263e+17
19637.0	5.317296027336704e+17
19638.0	5.316559338384042e+17
19639.0	5.315608127558996e+17
19640.0	5.31462443045137e+17
19641.0	5.313139451101185e+17
19642.0	5.312750399346005e+17
19643.0	5.311793755499178e+17
19644.0	5.3108130090844154e+17
19645.0	5.309726276801876e+17
19646.0	5.308945418332841e+17
19647.0	5.307992312381439e+17
19648.0	5.307036381566292e+17
19649.0	5.306081119742634e+17
19650.0	5.305132279398398e+17
19651.0	5.3041744108148045e+17
19652.0	5.3032202961332896e+17
19653.0	5.3022701863130445e+17
19654.0	5.301312308641791e+17
19655.0	5.300356765100715e+17
19656.0	5.2994050111133e+17
19657.0	5.2984513214545914e+17
19658.0	5.297500466446335e+17
19659.0	5.296546562179072e+17
