# Flux units: erg / (cm m2 s)
# Wavelength units: Angstrom
wave	flux
19000.0	4.893648539178324e+17
19001.0	4.892562187179348e+17
19002.0	4.891859056852992e+17
19003.0	4.890949390609066e+17
19004.0	4.890050711344469e+17
19005.0	4.889126639064404e+17
19006.0	4.888251151504724e+17
19007.0	4.887361114603519e+17
19008.0	4.8863663081826976e+17
19009.0	4.8854007297693005e+17
19010.0	4.883726076302674e+17
19011.0	4.883718863497897e+17
19012.0	4.882040524636159e+17
19013.0	4.8820017986273274e+17
19014.0	4.8810300951319885e+17
19015.0	4.880123699047082e+17
19016.0	4.879202713774761e+17
19017.0	4.878427270851242e+17
19018.0	4.877492129802922e+17
19019.0	4.8766347735203834e+17
19020.0	4.8757290590098765e+17
19021.0	4.874863460919978e+17
19022.0	4.87396267331857e+17
19023.0	4.872988265895253e+17
19024.0	4.872067306487808e+17
19025.0	4.871235421514409e+17
19026.0	4.8702791635435514e+17
19027.0	4.868949507659092e+17
19028.0	4.8686121548950176e+17
19029.0	4.867689338809002e+17
19030.0	4.866843779705513e+17
19031.0	4.8659627270034765e+17
19032.0	4.865052961494356e+17
19033.0	4.8640109831345485e+17
19034.0	4.8632447725731834e+17
19035.0	4.8622057421100365e+17
19036.0	4.818680171637403e+17
19037.0	4.8604943745023994e+17
19038.0	4.8596676093760845e+17
19039.0	4.8588223997979296e+17
19040.0	4.8579392737116154e+17
19041.0	4.857039840870398e+17
19042.0	4.8533999252930515e+17
19043.0	4.855297484346709e+17
19044.0	4.854382938030079e+17
19045.0	4.8534843908860576e+17
19046.0	4.8525112235786234e+17
19047.0	4.8517159975212365e+17
19048.0	4.850017943333545e+17
19049.0	4.8445016198785645e+17
19050.0	4.848916088487936e+17
19051.0	4.842215630525771e+17
19052.0	4.84641049027106e+17
19053.0	4.846413612231338e+17
19054.0	4.8455311089991674e+17
19055.0	4.843457415741441e+17
19056.0	4.843437905237332e+17
19057.0	4.842870782208681e+17
19058.0	4.839198767622822e+17
19059.0	4.8400245184266234e+17
19060.0	4.8401792917394765e+17
19061.0	4.839336484099412e+17
19062.0	4.838446154295978e+17
19063.0	4.837566750654464e+17
19064.0	4.836462674924886e+17
19065.0	4.835520286818303e+17
19066.0	4.833804641020588e+17
19067.0	4.834012555466068e+17
19068.0	4.833153417303381e+17
19069.0	4.832270971393363e+17
19070.0	4.831334553179477e+17
19071.0	4.830473712129364e+17
19072.0	4.8285550780962125e+17
19073.0	4.828727106775722e+17
19074.0	4.8278601217693005e+17
19075.0	4.826977894662142e+17
19076.0	4.826058036259498e+17
19077.0	4.825179742710442e+17
19078.0	4.8242406527249056e+17
19079.0	4.823444852047871e+17
19080.0	4.8225418890007885e+17
19081.0	4.821600506129066e+17
19082.0	4.820729077257557e+17
19083.0	4.8197823676197536e+17
19084.0	4.818703497560064e+17
19085.0	4.8181263627277645e+17
19086.0	4.8153032270370125e+17
19087.0	4.813195570402644e+17
19088.0	4.8139977932581523e+17
19089.0	4.813867186825898e+17
19090.0	4.813704240212649e+17
19091.0	4.812590444183552e+17
19092.0	4.809657009482414e+17
19093.0	4.8111265097536845e+17
19094.0	4.810247676537514e+17
19095.0	4.8093737939981645e+17
19096.0	4.8084645304074234e+17
19097.0	4.8076133907824634e+17
19098.0	4.8055925744162125e+17
19099.0	4.804512766929579e+17
19100.0	4.804880116656811e+17
19101.0	4.804069445773994e+17
19102.0	4.8029728701590176e+17
19103.0	4.802339985337002e+17
19104.0	4.801476199885482e+17
19105.0	4.7981459665496794e+17
19106.0	4.799522698603177e+17
19107.0	4.798191304179711e+17
19108.0	4.7970528183801165e+17
19109.0	4.794709961954641e+17
19110.0	4.796127610841769e+17
19111.0	4.794634886709246e+17
19112.0	4.793644418596863e+17
19113.0	4.79357634154769e+17
19114.0	4.792255312647508e+17
19115.0	4.79157693710336e+17
19116.0	4.790934124363775e+17
19117.0	4.790051066085376e+17
19118.0	4.7889099951964154e+17
19119.0	4.7667199823489376e+17
19120.0	4.787110755521875e+17
19121.0	4.786361962506923e+17
19122.0	4.7857261759255885e+17
19123.0	4.784855097278464e+17
19124.0	4.783814989578239e+17
19125.0	4.783090156524883e+17
19126.0	4.782218004834985e+17
19127.0	4.777972377234089e+17
19128.0	4.7803199816116896e+17
19129.0	4.779486126713513e+17
19130.0	4.778721811278506e+17
19131.0	4.7778700215364256e+17
19132.0	4.776994133420713e+17
19133.0	4.77601696195106e+17
19134.0	4.7751796782093645e+17
19135.0	4.774371607795029e+17
19136.0	4.773520287115945e+17
19137.0	4.772346899813717e+17
19138.0	4.771752466972672e+17
19139.0	4.770911157398185e+17
19140.0	4.770043500604074e+17
19141.0	4.7691713307388576e+17
19142.0	4.768248338492075e+17
19143.0	4.767316976511657e+17
19144.0	4.766502595766955e+17
19145.0	4.765689213965653e+17
19146.0	4.763740243929771e+17
19147.0	4.763772105261055e+17
19148.0	4.762158123799892e+17
19149.0	4.76115021926673e+17
19150.0	4.761337022382079e+17
19151.0	4.7604762819952634e+17
19152.0	4.759573498604202e+17
19153.0	4.7568744646792506e+17
19154.0	4.757425379519145e+17
19155.0	4.7570005188935674e+17
19156.0	4.756138458699091e+17
19157.0	4.754566920798209e+17
19158.0	4.751578567278592e+17
19159.0	4.7534823366983674e+17
19160.0	4.7526256976418125e+17
19161.0	4.7517716108192416e+17
19162.0	4.7472468159365146e+17
19163.0	4.749945988972543e+17
19164.0	4.7491860684690765e+17
19165.0	4.746210997611176e+17
19166.0	4.747124419854334e+17
19167.0	4.746267792681642e+17
19168.0	4.745734732993877e+17
19169.0	4.7448050550265165e+17
19170.0	4.7440227523188045e+17
19171.0	4.7429141453428045e+17
19172.0	4.742265088682666e+17
19173.0	4.7414195498516474e+17
19174.0	4.740458688632149e+17
19175.0	4.7397029820061005e+17
19176.0	4.7388413041923405e+17
19177.0	4.737708919706964e+17
19178.0	4.737006364699306e+17
19179.0	4.735909494084949e+17
19180.0	4.7353711558655994e+17
19181.0	4.7342266875903994e+17
19182.0	4.7336168784308896e+17
19183.0	4.7328057342907725e+17
19184.0	4.7319415832357536e+17
19185.0	4.731056390755668e+17
19186.0	4.7302212489052166e+17
19187.0	4.729253755792043e+17
19188.0	4.728489207573162e+17
19189.0	4.727631065557674e+17
19190.0	4.7267585084183885e+17
19191.0	4.725825538621439e+17
19192.0	4.7250498552244896e+17
19193.0	4.723936618435924e+17
19194.0	4.7229329005172045e+17
19195.0	4.722449343403348e+17
19196.0	4.721551179339093e+17
19197.0	4.720677832971604e+17
19198.0	4.719676746978644e+17
19199.0	4.696887448480419e+17
19200.0	4.702958190417244e+17
19201.0	4.717108252377086e+17
19202.0	4.7164048011864736e+17
19203.0	4.715504342138879e+17
19204.0	4.714671711278421e+17
19205.0	4.713865469580629e+17
19206.0	4.712994990019925e+17
19207.0	4.711973800727892e+17
19208.0	4.710825491169279e+17
19209.0	4.7104348008393376e+17
19210.0	4.709576716146004e+17
19211.0	4.708750167725396e+17
19212.0	4.7078862564447565e+17
19213.0	4.706705308210516e+17
19214.0	4.705729152461482e+17
19215.0	4.705234330845183e+17
19216.0	4.7044656610235725e+17
19217.0	4.7035943167371936e+17
19218.0	4.7012587584006803e+17
19219.0	4.7016575779908256e+17
19220.0	4.700984914389674e+17
19221.0	4.699603697227094e+17
19222.0	4.6993176359075834e+17
19223.0	4.698440769120938e+17
19224.0	4.6975516388884474e+17
19225.0	4.696503838135636e+17
19226.0	4.695877791427242e+17
19227.0	4.695030795075583e+17
19228.0	4.6942133559842125e+17
19229.0	4.6933584743410336e+17
19230.0	4.692490379941205e+17
19231.0	4.691630711898111e+17
19232.0	4.690782099341311e+17
19233.0	4.6898238281045325e+17
19234.0	4.68904246841617e+17
19235.0	4.6881802013026976e+17
19236.0	4.687384302059519e+17
19237.0	4.686499083015509e+17
19238.0	4.6854775966269434e+17
19239.0	4.6848306916447565e+17
19240.0	4.6839688348740256e+17
19241.0	4.6830874613077325e+17
19242.0	4.682248993374207e+17
19243.0	4.6811659954203296e+17
19244.0	4.6805371196538874e+17
19245.0	4.679671550225066e+17
19246.0	4.678799114720596e+17
19247.0	4.677964429350229e+17
19248.0	4.677121451141802e+17
19249.0	4.676209352900606e+17
19250.0	4.675022396325888e+17
19251.0	4.674013601202175e+17
19252.0	4.673278188716032e+17
19253.0	4.672825113007445e+17
19254.0	4.6720239862633805e+17
19255.0	4.6708766490842445e+17
19256.0	4.670276408530261e+17
19257.0	4.6694767672688634e+17
19258.0	4.6686294682282656e+17
19259.0	4.667662657388543e+17
19260.0	4.665888026394621e+17
19261.0	4.6660602109624314e+17
19262.0	4.6651138096059725e+17
19263.0	4.6642432370715296e+17
19264.0	4.6624636854599654e+17
19265.0	4.662286111910569e+17
19266.0	4.66112876572399e+17
19267.0	4.660993632239615e+17
19268.0	4.6601354322029216e+17
19269.0	4.659294793018025e+17
19270.0	4.658447281466025e+17
19271.0	4.656941385121794e+17
19272.0	4.656688546185215e+17
19273.0	4.655249019109374e+17
19274.0	4.6543024031443603e+17
19275.0	4.65421901898274e+17
19276.0	4.6533371819458554e+17
19277.0	4.6525024105922554e+17
19278.0	4.651618995798014e+17
19279.0	4.650776349638654e+17
19280.0	4.649813238175061e+17
19281.0	4.6491041861905056e+17
19282.0	4.6482853147443194e+17
19283.0	4.647132943701332e+17
19284.0	4.6465048676488525e+17
19285.0	4.6454634324514125e+17
19286.0	4.644836354643285e+17
19287.0	4.644027946587476e+17
19288.0	4.6317680526185715e+17
19289.0	4.613589378443895e+17
19290.0	4.641488384993962e+17
19291.0	4.6402544123685555e+17
19292.0	4.639836343719253e+17
19293.0	4.638984131051519e+17
19294.0	4.63812181430545e+17
19295.0	4.6373113118938445e+17
19296.0	4.635330126107991e+17
19297.0	4.635327699703125e+17
19298.0	4.634726081320277e+17
19299.0	4.6326225623668064e+17
19300.0	4.633028789097813e+17
19301.0	4.6322340579682976e+17
19302.0	4.631373847461887e+17
19303.0	4.630407739168085e+17
19304.0	4.629654112916821e+17
19305.0	4.628833887409494e+17
19306.0	4.627990045873494e+17
19307.0	4.627050321849002e+17
19308.0	4.6262598612200096e+17
19309.0	4.6246178687986336e+17
19310.0	4.623519529478825e+17
19311.0	4.623637615913642e+17
19312.0	4.6229158097496736e+17
19313.0	4.6220444878329165e+17
19314.0	4.523216204726306e+17
19315.0	4.5304403215429536e+17
19316.0	4.617925142336856e+17
19317.0	4.6186952228427085e+17
19318.0	4.617867973973332e+17
19319.0	4.6170556973711354e+17
19320.0	4.615715579494398e+17
19321.0	4.6143594561536e+17
19322.0	4.614368197782187e+17
19323.0	4.613340562543958e+17
19324.0	4.612797925163007e+17
19325.0	4.6111906951331834e+17
19326.0	4.6111395553826125e+17
19327.0	4.610258429979306e+17
19328.0	4.607288186066263e+17
19329.0	4.608636270324394e+17
19330.0	4.607721208807423e+17
19331.0	4.6068672275415034e+17
19332.0	4.606092992577534e+17
19333.0	4.6052190757847034e+17
19334.0	4.604321665297066e+17
19335.0	4.5991628014004954e+17
19336.0	4.602644929358506e+17
19337.0	4.6018728013332474e+17
19338.0	4.600667402403838e+17
19339.0	4.600174957559808e+17
19340.0	4.598825230532608e+17
19341.0	4.596810165256194e+17
19342.0	4.5963949732003846e+17
19343.0	4.5967971817881594e+17
19344.0	4.5943641569143475e+17
19345.0	4.5903169625347354e+17
19346.0	4.592613685810516e+17
19347.0	4.5912630842709325e+17
19348.0	4.5925680958231885e+17
19349.0	4.5916561429845325e+17
19350.0	4.590071181213695e+17
19351.0	4.589926824454826e+17
19352.0	4.586854833018194e+17
19353.0	4.588316229195092e+17
19354.0	4.587480585426261e+17
19355.0	4.586425793467734e+17
19356.0	4.5857192042386765e+17
19357.0	4.5848676619605325e+17
19358.0	4.583998018464426e+17
19359.0	4.582544121703081e+17
19360.0	4.5805800801348243e+17
19361.0	4.581377979361961e+17
19362.0	4.5806007454706336e+17
19363.0	4.57974245036305e+17
19364.0	4.578882155271508e+17
19365.0	4.578013119949481e+17
19366.0	4.5771629883555834e+17
19367.0	4.576294999512404e+17
19368.0	4.57544265961745e+17
19369.0	4.574474284302334e+17
19370.0	4.5736297856587085e+17
19371.0	4.572754792327849e+17
19372.0	4.571971394207743e+17
19373.0	4.5710660704665594e+17
19374.0	4.570227740246015e+17
19375.0	4.569351258636287e+17
19376.0	4.5684892620554234e+17
19377.0	4.5675508193908045e+17
19378.0	4.5665913339030176e+17
19379.0	4.5657146684429645e+17
19380.0	4.564824775546196e+17
19381.0	4.563934601631061e+17
19382.0	4.562934086063445e+17
19383.0	4.561966863482879e+17
19384.0	4.5612304555485856e+17
19385.0	4.560358449261226e+17
19386.0	4.55946152251665e+17
19387.0	4.558543775247017e+17
19388.0	4.557548893328725e+17
19389.0	4.556600449346218e+17
19390.0	4.5556256861061114e+17
19391.0	4.514791327181422e+17
19392.0	4.553244024679079e+17
19393.0	4.5528650986728096e+17
19394.0	4.5518871561502714e+17
19395.0	4.550159442640896e+17
19396.0	4.549654171615232e+17
19397.0	4.5489320928215034e+17
19398.0	4.547313564734805e+17
19399.0	4.5446088062839443e+17
19400.0	4.545201825644544e+17
19401.0	4.5447695921315834e+17
19402.0	4.5437470690508794e+17
19403.0	4.5425917522083834e+17
19404.0	4.5415173371985914e+17
19405.0	4.540393370681342e+17
19406.0	4.539329783966379e+17
19407.0	4.537475106777769e+17
19408.0	4.535536707087023e+17
19409.0	4.5359600305001805e+17
19410.0	4.5348374963377485e+17
19411.0	4.533660102776149e+17
19412.0	4.532382877089791e+17
19413.0	4.5302427369690445e+17
19414.0	4.529686435244714e+17
19415.0	4.5284122860803405e+17
19416.0	4.526643351650304e+17
19417.0	4.525044789848745e+17
19418.0	4.523973403126442e+17
19419.0	4.522449363621205e+17
19420.0	4.5206201025167354e+17
19421.0	4.5189031452999674e+17
19422.0	4.5166242373304314e+17
19423.0	4.5146815196037114e+17
19424.0	4.5121712629131936e+17
19425.0	4.509595562497365e+17
19426.0	4.5066278120980474e+17
19427.0	4.503125991183702e+17
19428.0	4.498923094452907e+17
19429.0	4.4950406006046714e+17
19430.0	4.4913486414042477e+17
19431.0	4.481835633475594e+17
19432.0	4.48486720999697e+17
19433.0	4.481041177772032e+17
19434.0	4.475863028465664e+17
19435.0	4.469155765944319e+17
19436.0	4.458652156384591e+17
19437.0	4.4511031781403315e+17
19438.0	4.3557362870517875e+17
19439.0	4.4035934382981126e+17
19440.0	4.389083518337023e+17
19441.0	4.3764019458211834e+17
19442.0	4.361212893244075e+17
19443.0	4.339799583009458e+17
19444.0	4.2884589406563014e+17
19445.0	4.22126450306799e+17
19446.0	4.1741203373643085e+17
19447.0	4.122453101335891e+17
19448.0	4.0668352559622906e+17
19449.0	3.916754298339311e+17
19450.0	3.565491835983248e+17
19451.0	3.3602255566056454e+17
19452.0	3.784470821863423e+17
19453.0	4.010907444532551e+17
19454.0	4.0925620534422144e+17
19455.0	4.1434212868642125e+17
19456.0	4.191920981016577e+17
19457.0	4.241519030566917e+17
19458.0	4.0341107746629306e+17
19459.0	4.3314504517987814e+17
19460.0	4.355250949455868e+17
19461.0	4.3676588016926714e+17
19462.0	4.3788380206530586e+17
19463.0	4.402220558013781e+17
19464.0	4.42300113861564e+17
19465.0	4.4351026451797376e+17
19466.0	4.4423066929507e+17
19467.0	4.44752966328866e+17
19468.0	4.451202622291966e+17
19469.0	4.451848422075048e+17
19470.0	4.4563794322172595e+17
19471.0	4.4582283296549536e+17
19472.0	4.4595418269832525e+17
19473.0	4.4612580264290976e+17
19474.0	4.462261810757629e+17
19475.0	4.464206408231592e+17
19476.0	4.467540616369491e+17
19477.0	4.4688028299427834e+17
19478.0	4.469635066538666e+17
19479.0	4.468640184620371e+17
19480.0	4.470691998990336e+17
19481.0	4.470861396443136e+17
19482.0	4.471169123439957e+17
19483.0	4.4712382490651296e+17
19484.0	4.471064496526677e+17
19485.0	4.470913393928874e+17
19486.0	4.469153129824259e+17
19487.0	4.4705475520539315e+17
19488.0	4.47024311898385e+17
19489.0	4.4696939965098656e+17
19490.0	4.4665672631145766e+17
19491.0	4.46912404721937e+17
19492.0	4.468738428502015e+17
19493.0	4.46825639322146e+17
19494.0	4.4677396696487245e+17
19495.0	4.467193699194197e+17
19496.0	4.4657009876445843e+17
19497.0	4.466000778319189e+17
19498.0	4.461762002812932e+17
19499.0	4.401531354873814e+17
19500.0	4.4644287993173325e+17
19501.0	4.463885418146474e+17
19502.0	4.4632500691708576e+17
19503.0	4.4627231024087034e+17
19504.0	4.462178695730516e+17
19505.0	4.4614907760476154e+17
19506.0	4.460870279801513e+17
19507.0	4.460143317439829e+17
19508.0	4.459585623905621e+17
19509.0	4.4589320108332365e+17
19510.0	4.457543582963029e+17
19511.0	4.293316387886307e+17
19512.0	4.447309386831168e+17
19513.0	4.4378974210839584e+17
19514.0	4.442379918508014e+17
19515.0	4.4534923417791174e+17
19516.0	4.453880063939923e+17
19517.0	4.453212561429844e+17
19518.0	4.4522209860212045e+17
19519.0	4.451440063239508e+17
19520.0	4.4496374967828454e+17
19521.0	4.45047137964305e+17
19522.0	4.449471640720725e+17
19523.0	4.448570054803457e+17
19524.0	4.447117237376341e+17
19525.0	4.4474559078509216e+17
19526.0	4.446763978413397e+17
19527.0	4.4459910849276576e+17
19528.0	4.4452085634170874e+17
19529.0	4.444388335812607e+17
19530.0	4.4438280697719456e+17
19531.0	4.4430894828967245e+17
19532.0	4.44235626263347e+17
19533.0	4.441599436128255e+17
19534.0	4.4408323293839354e+17
19535.0	4.440042516774912e+17
19536.0	4.439237172658175e+17
19537.0	4.438518159900672e+17
19538.0	4.436137884691116e+17
19539.0	4.4358768179281946e+17
19540.0	4.4361842722952525e+17
19541.0	4.4351498213130234e+17
19542.0	4.434545690542079e+17
19543.0	4.43238577078272e+17
19544.0	4.433045159411711e+17
19545.0	4.4314407933924666e+17
19546.0	4.4298064947227315e+17
19547.0	4.4308356846496416e+17
19548.0	4.430062801649663e+17
19549.0	4.42912631562786e+17
19550.0	4.428512131110229e+17
19551.0	4.4277417465173325e+17
19552.0	4.426961486435668e+17
19553.0	4.426143348293632e+17
19554.0	4.4253190550104736e+17
19555.0	4.424438193149268e+17
19556.0	4.4237332725541536e+17
19557.0	4.4230538784931834e+17
19558.0	4.422288580891989e+17
19559.0	4.421561517167955e+17
19560.0	4.420210667465385e+17
19561.0	4.4199640102338554e+17
19562.0	4.4186833354315085e+17
19563.0	4.418456021630975e+17
19564.0	4.417672970939049e+17
19565.0	4.4168919370082976e+17
19566.0	4.4160602813235194e+17
19567.0	4.4153349827024205e+17
19568.0	4.4145203307260576e+17
19569.0	4.4137343929548794e+17
19570.0	4.4129765024945485e+17
19571.0	4.4121944095020365e+17
19572.0	4.411375424809642e+17
19573.0	4.410438278184959e+17
19574.0	4.4096564550260045e+17
19575.0	4.4090842512971085e+17
19576.0	4.408209852159317e+17
19577.0	4.4072332420273485e+17
19578.0	4.406658631467006e+17
19579.0	4.405916737383082e+17
19580.0	4.4051372015179085e+17
19581.0	4.4043664750892365e+17
19582.0	4.403619180139861e+17
19583.0	4.402837990320811e+17
19584.0	4.402036272179882e+17
19585.0	4.4010781463456403e+17
19586.0	4.40024298422272e+17
19587.0	4.3995628421775354e+17
19588.0	4.3980234508206086e+17
19589.0	4.398107501177513e+17
19590.0	4.397078810372778e+17
19591.0	4.396564160883369e+17
19592.0	4.3957918343277216e+17
19593.0	4.394848789113514e+17
19594.0	4.393680111315625e+17
19595.0	4.3933953614151674e+17
19596.0	4.392336896644438e+17
19597.0	4.391866974513834e+17
19598.0	4.389933642241364e+17
19599.0	4.3903186199292576e+17
19600.0	4.389551485222911e+17
19601.0	4.388653760861525e+17
19602.0	4.387901809535657e+17
19603.0	4.386054519914493e+17
19604.0	4.386322215774891e+17
19605.0	4.385114675653291e+17
19606.0	4.384854928698026e+17
19607.0	4.3840861302510925e+17
19608.0	4.383279392227327e+17
19609.0	4.382429564021418e+17
19610.0	4.380980490709675e+17
19611.0	4.379877611055787e+17
19612.0	4.3801890926537376e+17
19613.0	4.3793917442785274e+17
19614.0	4.378564438086996e+17
19615.0	4.3778377154996896e+17
19616.0	4.3759531343216646e+17
19617.0	4.375168747044864e+17
19618.0	4.3742983178158054e+17
19619.0	4.373120583117479e+17
19620.0	4.3721690982645734e+17
19621.0	4.371654857020755e+17
19622.0	4.3723886805647354e+17
19623.0	4.371539691219626e+17
19624.0	4.3706108926580045e+17
19625.0	4.3700514514971296e+17
19626.0	4.3692558185922554e+17
19627.0	4.3684790097237325e+17
19628.0	4.367093313743532e+17
19629.0	4.3629676823838694e+17
19630.0	4.3647159556724064e+17
19631.0	4.34035274040388e+17
19632.0	4.3644837415266976e+17
19633.0	4.3636327969368736e+17
19634.0	4.363038794011989e+17
19635.0	4.361980831858687e+17
19636.0	4.359752457562792e+17
19637.0	4.358529350980948e+17
19638.0	4.359740638713172e+17
19639.0	4.359143009113428e+17
19640.0	4.3581870405495475e+17
19641.0	4.354579939109554e+17
19642.0	4.3567066672442016e+17
19643.0	4.355921950015487e+17
19644.0	4.355169687612074e+17
19645.0	4.35396813136418e+17
19646.0	4.351859079424679e+17
19647.0	4.352906239847081e+17
19648.0	4.352179352283817e+17
19649.0	4.3513966245533e+17
19650.0	4.350632374829055e+17
19651.0	4.349850936847019e+17
19652.0	4.349072833336662e+17
19653.0	4.3482898567441056e+17
19654.0	4.347523034513406e+17
19655.0	4.346736166305791e+17
19656.0	4.345974278673749e+17
