# Flux units: erg / (cm m2 s)
# Wavelength units: Angstrom
wave	flux
19000.0	4.760784483647486e+17
19001.0	4.7598534005882874e+17
19002.0	4.759023907766271e+17
19003.0	4.758139899478014e+17
19004.0	4.7572577471692794e+17
19005.0	4.7563762302975994e+17
19006.0	4.755497412460543e+17
19007.0	4.754592472498174e+17
19008.0	4.7537025110944416e+17
19009.0	4.7528458545616205e+17
19010.0	4.751682064525993e+17
19011.0	4.751079017982633e+17
19012.0	4.7501072585632416e+17
19013.0	4.749331462619136e+17
19014.0	4.748424404533247e+17
19015.0	4.7475523017768954e+17
19016.0	4.7466646150840314e+17
19017.0	4.7458052895757645e+17
19018.0	4.744924738792106e+17
19019.0	4.744051946072745e+17
19020.0	4.7431614512933536e+17
19021.0	4.742293112924842e+17
19022.0	4.741417964404734e+17
19023.0	4.7405219729899514e+17
19024.0	4.7396486496911354e+17
19025.0	4.7387816108578125e+17
19026.0	4.737886310804138e+17
19027.0	4.736971756797951e+17
19028.0	4.736150073769982e+17
19029.0	4.7352636111148365e+17
19030.0	4.734400422652587e+17
19031.0	4.733526060564479e+17
19032.0	4.7326465024327674e+17
19033.0	4.7317229229834234e+17
19034.0	4.730886394216447e+17
19035.0	4.7300009745448954e+17
19036.0	4.724414012719098e+17
19037.0	4.728260994793471e+17
19038.0	4.7273778722024096e+17
19039.0	4.726511149339989e+17
19040.0	4.725638709641214e+17
19041.0	4.724759449305087e+17
19042.0	4.723837432233984e+17
19043.0	4.723013270372351e+17
19044.0	4.7221319373509965e+17
19045.0	4.721260723088042e+17
19046.0	4.720353167977129e+17
19047.0	4.71951281889826e+17
19048.0	4.718514889818111e+17
19049.0	4.717725697267028e+17
19050.0	4.716863953742506e+17
19051.0	4.7152738714255334e+17
19052.0	4.7151109394923514e+17
19053.0	4.7142628106786125e+17
19054.0	4.71339511124241e+17
19055.0	4.712390070719829e+17
19056.0	4.7116346010719565e+17
19057.0	4.7107736698443085e+17
19058.0	4.709888645136383e+17
19059.0	4.709029246227796e+17
19060.0	4.7081469296421536e+17
19061.0	4.7072883681962656e+17
19062.0	4.7064123661352954e+17
19063.0	4.7055435614999885e+17
19064.0	4.7046031559010976e+17
19065.0	4.703711372072277e+17
19066.0	4.7028983153295354e+17
19067.0	4.7020516188706125e+17
19068.0	4.70118711759121e+17
19069.0	4.700316492627968e+17
19070.0	4.699429611241472e+17
19071.0	4.698570540886698e+17
19072.0	4.69770437796386e+17
19073.0	4.6968308882909856e+17
19074.0	4.69596572431155e+17
19075.0	4.69509596127778e+17
19076.0	4.694213984430762e+17
19077.0	4.69335081554193e+17
19078.0	4.6924630009227936e+17
19079.0	4.691617524307285e+17
19080.0	4.690742591094782e+17
19081.0	4.689856339552938e+17
19082.0	4.6889844318317216e+17
19083.0	4.6880964424499194e+17
19084.0	4.687161304896853e+17
19085.0	4.6864002463389005e+17
19086.0	4.6853484952507725e+17
19087.0	4.6845462213645645e+17
19088.0	4.683768233197568e+17
19089.0	4.682781524579668e+17
19090.0	4.6820545922771616e+17
19091.0	4.68119305846784e+17
19092.0	4.6802764632337056e+17
19093.0	4.6794697335985485e+17
19094.0	4.6786008513686176e+17
19095.0	4.6777354818682874e+17
19096.0	4.6768592658978125e+17
19097.0	4.676004602358442e+17
19098.0	4.6751357879364256e+17
19099.0	4.674269141969578e+17
19100.0	4.6733963744160416e+17
19101.0	4.6725403791851514e+17
19102.0	4.6716160776164685e+17
19103.0	4.6708093990120096e+17
19104.0	4.669948343353343e+17
19105.0	4.669079549203796e+17
19106.0	4.6681961938288634e+17
19107.0	4.6673443558522874e+17
19108.0	4.6664901648711674e+17
19109.0	4.665275690166953e+17
19110.0	4.664763021787136e+17
19111.0	4.6638980129969485e+17
19112.0	4.663036049271465e+17
19113.0	4.662172183429119e+17
19114.0	4.6613081351345485e+17
19115.0	4.6604136914179405e+17
19116.0	4.659574315417598e+17
19117.0	4.6587144355621536e+17
19118.0	4.6578021772383565e+17
19119.0	4.6538981819897114e+17
19120.0	4.656090471290195e+17
19121.0	4.655251354637654e+17
19122.0	4.6544135675794765e+17
19123.0	4.653551466141013e+17
19124.0	4.65266914955537e+17
19125.0	4.6518275289033376e+17
19126.0	4.6509643767917216e+17
19127.0	4.6491569547291283e+17
19128.0	4.6490730343956474e+17
19129.0	4.6483421133100365e+17
19130.0	4.647520751146325e+17
19131.0	4.646660367275349e+17
19132.0	4.645805251450197e+17
19133.0	4.644825541727573e+17
19134.0	4.643999786030419e+17
19135.0	4.6432253455455565e+17
19136.0	4.642370145834325e+17
19137.0	4.6414226686388896e+17
19138.0	4.640637074800639e+17
19139.0	4.63979367436561e+17
19140.0	4.638935468736511e+17
19141.0	4.638077212775764e+17
19142.0	4.63720579019571e+17
19143.0	4.636325001734826e+17
19144.0	4.6354870056605005e+17
19145.0	4.634643387820714e+17
19146.0	4.6334686967889914e+17
19147.0	4.6328792873260365e+17
19148.0	4.6320695993084576e+17
19149.0	4.6312114090584736e+17
19150.0	4.6303545693743776e+17
19151.0	4.6295012109626016e+17
19152.0	4.628641012340053e+17
19153.0	4.6277774813429766e+17
19154.0	4.626867494933845e+17
19155.0	4.6260783897640954e+17
19156.0	4.625222582577834e+17
19157.0	4.624364948772181e+17
19158.0	4.6232754482490016e+17
19159.0	4.622645869936639e+17
19160.0	4.621791653090645e+17
19161.0	4.6209314614586016e+17
19162.0	4.6195456857866234e+17
19163.0	4.6192360909264205e+17
19164.0	4.6183846570011296e+17
19165.0	4.6175126605004794e+17
19166.0	4.616598683211093e+17
19167.0	4.6157712393065805e+17
19168.0	4.61494310543906e+17
19169.0	4.6140911101760845e+17
19170.0	4.6132614111341216e+17
19171.0	4.6123720481177594e+17
19172.0	4.611552002965502e+17
19173.0	4.6107012904605e+17
19174.0	4.6098170340092576e+17
19175.0	4.6089964380050765e+17
19176.0	4.6081426489780896e+17
19177.0	4.607213404422143e+17
19178.0	4.6064363355067725e+17
19179.0	4.605535336093013e+17
19180.0	4.6047160836642125e+17
19181.0	4.603811759565482e+17
19182.0	4.6030228529261216e+17
19183.0	4.602181423114923e+17
19184.0	4.601308443049983e+17
19185.0	4.6004729425865376e+17
19186.0	4.5996291856356685e+17
19187.0	4.598743786935638e+17
19188.0	4.597925374066688e+17
19189.0	4.5970725846821536e+17
19190.0	4.596220449609045e+17
19191.0	4.595357442200917e+17
19192.0	4.5945294677169485e+17
19193.0	4.593671081732779e+17
19194.0	4.5928178792093e+17
19195.0	4.591977903423487e+17
19196.0	4.591121778169172e+17
19197.0	4.590277440307198e+17
19198.0	4.589432328596138e+17
19199.0	4.5853512819889485e+17
19200.0	4.585769533090475e+17
19201.0	4.5868871466352634e+17
19202.0	4.586040096456702e+17
19203.0	4.585183790148266e+17
19204.0	4.584327903270229e+17
19205.0	4.58349076283392e+17
19206.0	4.5826385375832736e+17
19207.0	4.5817554632267085e+17
19208.0	4.580817813984596e+17
19209.0	4.5800982175197856e+17
19210.0	4.5792521544007674e+17
19211.0	4.578412356173824e+17
19212.0	4.5775641245996365e+17
19213.0	4.576647997729449e+17
19214.0	4.575789071379115e+17
19215.0	4.5750158018041165e+17
19216.0	4.5741767005306874e+17
19217.0	4.5733306527907834e+17
19218.0	4.5720502191609165e+17
19219.0	4.5715661349628576e+17
19220.0	4.5707815945939616e+17
19221.0	4.5697710119976954e+17
19222.0	4.5691049809892685e+17
19223.0	4.568245908537344e+17
19224.0	4.567386875232255e+17
19225.0	4.5664878848901114e+17
19226.0	4.5657099862015994e+17
19227.0	4.5648665102690976e+17
19228.0	4.564035394950485e+17
19229.0	4.563190616686591e+17
19230.0	4.562335184191487e+17
19231.0	4.561490176638975e+17
19232.0	4.560650365829119e+17
19233.0	4.559775585708713e+17
19234.0	4.558953217611093e+17
19235.0	4.5581057200401056e+17
19236.0	4.5572838077235194e+17
19237.0	4.5564320676140365e+17
19238.0	4.555546780762111e+17
19239.0	4.5547565480236365e+17
19240.0	4.553865484217002e+17
19241.0	4.553047325103445e+17
19242.0	4.5522174422111565e+17
19243.0	4.5512975935952205e+17
19244.0	4.550539897470974e+17
19245.0	4.5496945844333216e+17
19246.0	4.5488457209173325e+17
19247.0	4.548007894712319e+17
19248.0	4.547169254113279e+17
19249.0	4.5463250204098554e+17
19250.0	4.545473700429823e+17
19251.0	4.544601861914623e+17
19252.0	4.5436355257303034e+17
19253.0	4.542944035296597e+17
19254.0	4.542109510008831e+17
19255.0	4.541168369707689e+17
19256.0	4.540421958358357e+17
19257.0	4.539588917155157e+17
19258.0	4.538748296844629e+17
19259.0	4.537867503490389e+17
19260.0	4.536973862283945e+17
19261.0	4.536217272057856e+17
19262.0	4.535351611053396e+17
19263.0	4.5345122762970445e+17
19264.0	4.533409709118804e+17
19265.0	4.5327442303604045e+17
19266.0	4.531885928262314e+17
19267.0	4.5311754858659834e+17
19268.0	4.530330378349225e+17
19269.0	4.5294908891026765e+17
19270.0	4.528651206918143e+17
19271.0	4.527624885895168e+17
19272.0	4.526948986388478e+17
19273.0	4.524729710936063e+17
19274.0	4.524534658323795e+17
19275.0	4.5244455915793056e+17
19276.0	4.5235937717780474e+17
19277.0	4.5227552989511674e+17
19278.0	4.521916258495145e+17
19279.0	4.521059442578773e+17
19280.0	4.5201873454148256e+17
19281.0	4.5193894804411725e+17
19282.0	4.5185558065971194e+17
19283.0	4.517666110832639e+17
19284.0	4.516810636394495e+17
19285.0	4.5159315249561594e+17
19286.0	4.515173368856575e+17
19287.0	4.5143495928709114e+17
19288.0	4.5125382659112954e+17
19289.0	4.5092332445368237e+17
19290.0	4.5118248483553274e+17
19291.0	4.5108513042595834e+17
19292.0	4.510140151627774e+17
19293.0	4.5092947875594234e+17
19294.0	4.508451191390207e+17
19295.0	4.507614603203925e+17
19296.0	4.506767492207957e+17
19297.0	4.50591575908898e+17
19298.0	4.505069900791808e+17
19299.0	4.5042425897069216e+17
19300.0	4.5033982895936845e+17
19301.0	4.502552819269631e+17
19302.0	4.5017091294276256e+17
19303.0	4.5008218502813e+17
19304.0	4.500002634902185e+17
19305.0	4.499170894632277e+17
19306.0	4.4983298513960954e+17
19307.0	4.496185037422589e+17
19308.0	4.494487583719424e+17
19309.0	4.4935404679331834e+17
19310.0	4.49264205570594e+17
19311.0	4.491941351784447e+17
19312.0	4.491112377658025e+17
19313.0	4.490264332730366e+17
19314.0	4.484046297322822e+17
19315.0	4.48382979713708e+17
19316.0	4.487723598129834e+17
19317.0	4.486876807998123e+17
19318.0	4.4860273419004576e+17
19319.0	4.4851866174313805e+17
19320.0	4.484335082842793e+17
19321.0	4.4834875915632634e+17
19322.0	4.482589277902164e+17
19323.0	4.4817287206666234e+17
19324.0	4.4809302286445216e+17
19325.0	4.479974297130325e+17
19326.0	4.4792282408987296e+17
19327.0	4.478366086332415e+17
19328.0	4.477519165478228e+17
19329.0	4.47666618245666e+17
19330.0	4.475787293316435e+17
19331.0	4.47492958331426e+17
19332.0	4.4740954334167034e+17
19333.0	4.473227032832683e+17
19334.0	4.4723731452395514e+17
19335.0	4.4715127299112954e+17
19336.0	4.470652283125759e+17
19337.0	4.469789444188842e+17
19338.0	4.468818569068543e+17
19339.0	4.4680607037740365e+17
19340.0	4.467119738934612e+17
19341.0	4.466320317175125e+17
19342.0	4.465248666211668e+17
19343.0	4.4645905351748275e+17
19344.0	4.463712217858047e+17
19345.0	4.4615787047376166e+17
19346.0	4.4617012252508154e+17
19347.0	4.461059077308415e+17
19348.0	4.4602188680396794e+17
19349.0	4.459320757802325e+17
19350.0	4.4584418476905805e+17
19351.0	4.457551583597908e+17
19352.0	4.456651076315818e+17
19353.0	4.455803826907818e+17
19354.0	4.454913416014506e+17
19355.0	4.4539701198411085e+17
19356.0	4.453126051812692e+17
19357.0	4.452228017771861e+17
19358.0	4.449953111867389e+17
19359.0	4.447931363666602e+17
19360.0	4.447076439381334e+17
19361.0	4.4461632813793274e+17
19362.0	4.445273317878442e+17
19363.0	4.4441252201321805e+17
19364.0	4.442901915718998e+17
19365.0	4.4419768263202125e+17
19366.0	4.4410485555418445e+17
19367.0	4.440113734658729e+17
19368.0	4.4391745558937594e+17
19369.0	4.438191594886486e+17
19370.0	4.437122705173162e+17
19371.0	4.4362958323930445e+17
19372.0	4.435364026515455e+17
19373.0	4.43438450413841e+17
19374.0	4.4334212654475936e+17
19375.0	4.4324433404013216e+17
19376.0	4.4292586745801376e+17
19377.0	4.4277194328200525e+17
19378.0	4.4267125132492794e+17
19379.0	4.425695732170751e+17
19380.0	4.4246700179237536e+17
19381.0	4.42363046666786e+17
19382.0	4.422543515582464e+17
19383.0	4.421473970858666e+17
19384.0	4.420459467986261e+17
19385.0	4.418750567328426e+17
19386.0	4.415215311519743e+17
19387.0	4.414093093328212e+17
19388.0	4.4129586787997005e+17
19389.0	4.4118064944032416e+17
19390.0	4.4106367107071994e+17
19391.0	4.405153102124365e+17
19392.0	4.4065863503271245e+17
19393.0	4.4052948276565325e+17
19394.0	4.4040300192071674e+17
19395.0	4.402739489887572e+17
19396.0	4.401433655552682e+17
19397.0	4.4001062142607354e+17
19398.0	4.398725132014932e+17
19399.0	4.396932175407785e+17
19400.0	4.395887992242176e+17
19401.0	4.394444140838911e+17
19402.0	4.392943509045247e+17
19403.0	4.391389610289834e+17
19404.0	4.389810500971178e+17
19405.0	4.388165316684457e+17
19406.0	4.386482920532649e+17
19407.0	4.384748805816319e+17
19408.0	4.382527770154326e+17
19409.0	4.381072528419498e+17
19410.0	4.3791623116554234e+17
19411.0	4.3771621836936525e+17
19412.0	4.3750813174770336e+17
19413.0	4.372921917112319e+17
19414.0	4.3706500380972365e+17
19415.0	4.368312767785643e+17
19416.0	4.365772061846187e+17
19417.0	4.3632426532645536e+17
19418.0	4.3606164890801485e+17
19419.0	4.3577930975368525e+17
19420.0	4.35408765854242e+17
19421.0	4.3507681884897274e+17
19422.0	4.3474688161437005e+17
19423.0	4.344036551469738e+17
19424.0	4.340445438716587e+17
19425.0	4.3366581534719994e+17
19426.0	4.331885909333334e+17
19427.0	4.3269170061639674e+17
19428.0	4.3224354951004154e+17
19429.0	4.316571921022977e+17
19430.0	4.310642946561366e+17
19431.0	4.302685336851796e+17
19432.0	4.2957074410591584e+17
19433.0	4.286193364282027e+17
19434.0	4.274036013356378e+17
19435.0	4.2577572638228435e+17
19436.0	4.2344533137380717e+17
19437.0	4.207866772717567e+17
19438.0	4.185034746145447e+17
19439.0	4.17588807991296e+17
19440.0	4.157855210930174e+17
19441.0	4.138221153812479e+17
19442.0	4.1164538464174074e+17
19443.0	4.0925482625706675e+17
19444.0	4.063802030380372e+17
19445.0	4.0173270008681837e+17
19446.0	3.9334837691788006e+17
19447.0	3.8691801242009555e+17
19448.0	3.7902199019274304e+17
19449.0	3.615820056537765e+17
19450.0	3.158884773877072e+17
19451.0	3.009788741593762e+17
19452.0	3.426403858339176e+17
19453.0	3.719215190114307e+17
19454.0	3.83111370392644e+17
19455.0	3.896508257315497e+17
19456.0	3.970215237560993e+17
19457.0	4.036812102172662e+17
19458.0	4.054728947619182e+17
19459.0	4.093470325779114e+17
19460.0	4.115047864685908e+17
19461.0	4.133873571069951e+17
19462.0	4.151158455839402e+17
19463.0	4.166857439313919e+17
19464.0	4.180760722407423e+17
19465.0	4.199340243419136e+17
19466.0	4.2249101145101606e+17
19467.0	4.242597718174371e+17
19468.0	4.254335250726913e+17
19469.0	4.2631865652565306e+17
19470.0	4.2708625246562963e+17
19471.0	4.276629754871809e+17
19472.0	4.2808729399896736e+17
19473.0	4.2858436460107066e+17
19474.0	4.289079573217279e+17
19475.0	4.291393119147348e+17
19476.0	4.295634687361022e+17
19477.0	4.298094955637418e+17
19478.0	4.300154715417257e+17
19479.0	4.302073139735211e+17
19480.0	4.3038105882241696e+17
19481.0	4.3053977415188474e+17
19482.0	4.307275515341482e+17
19483.0	4.309038807733589e+17
19484.0	4.310165358641151e+17
19485.0	4.311147127067989e+17
19486.0	4.312057760098985e+17
19487.0	4.312864793122133e+17
19488.0	4.3135587533018445e+17
19489.0	4.3141437098120525e+17
19490.0	4.3138290957680614e+17
19491.0	4.3150617374010016e+17
19492.0	4.31543362396706e+17
19493.0	4.315715497274025e+17
19494.0	4.315929941551787e+17
19495.0	4.316081934740138e+17
19496.0	4.315961494601727e+17
19497.0	4.316222616589652e+17
19498.0	4.31613019230481e+17
19499.0	4.308956263830859e+17
19500.0	4.31611089850641e+17
19501.0	4.315985335025664e+17
19502.0	4.3158208267332256e+17
19503.0	4.315631235803818e+17
19504.0	4.315400131750569e+17
19505.0	4.3151490537226234e+17
19506.0	4.3148695348183034e+17
19507.0	4.314546982354942e+17
19508.0	4.314226596948651e+17
19509.0	4.313869201003861e+17
19510.0	4.313384921071614e+17
19511.0	4.303685240051019e+17
19512.0	4.313556925284347e+17
19513.0	4.3117440114797165e+17
19514.0	4.312133172985855e+17
19515.0	4.3126105819491e+17
19516.0	4.312429279663445e+17
19517.0	4.311887170065748e+17
19518.0	4.3114131577896954e+17
19519.0	4.313450612959915e+17
19520.0	4.3132189014316365e+17
19521.0	4.312676561846272e+17
19522.0	4.312085614471851e+17
19523.0	4.3115250618204154e+17
19524.0	4.3109347044447565e+17
19525.0	4.310325210557098e+17
19526.0	4.3097328958395725e+17
19527.0	4.3091146868872525e+17
19528.0	4.308497096594772e+17
19529.0	4.3078706297569274e+17
19530.0	4.307244593534293e+17
19531.0	4.3086481894058656e+17
19532.0	4.30852377027106e+17
19533.0	4.3078706982638925e+17
19534.0	4.307210588214612e+17
19535.0	4.3065356464073376e+17
19536.0	4.305857268766036e+17
19537.0	4.305203706724351e+17
19538.0	4.3045127433748474e+17
19539.0	4.30350813486558e+17
19540.0	4.3031498455340365e+17
19541.0	4.3024762123496096e+17
19542.0	4.301782280830976e+17
19543.0	4.301087701292372e+17
19544.0	4.3003943003531936e+17
19545.0	4.2995177879852346e+17
19546.0	4.2984337792040954e+17
19547.0	4.2982900173373446e+17
19548.0	4.2975843382722554e+17
19549.0	4.2968219543142394e+17
19550.0	4.296162546810879e+17
19551.0	4.2954502365511674e+17
19552.0	4.294733968965631e+17
19553.0	4.294007068120406e+17
19554.0	4.2932714298408954e+17
19555.0	4.29256868958481e+17
19556.0	4.2918537522926925e+17
19557.0	4.2911268556417696e+17
19558.0	4.2904006929940474e+17
19559.0	4.289670598186323e+17
19560.0	4.290547346833408e+17
19561.0	4.2904273463978656e+17
19562.0	4.2897041351420576e+17
19563.0	4.2889733077292365e+17
19564.0	4.288236316786687e+17
19565.0	4.28749873025297e+17
19566.0	4.2867453325912736e+17
19567.0	4.2860222387759776e+17
19568.0	4.2852697827355296e+17
19569.0	4.2845292986367994e+17
19570.0	4.2837981699331405e+17
19571.0	4.283055382462463e+17
19572.0	4.282293825481387e+17
19573.0	4.281561433593173e+17
19574.0	4.2807723647740576e+17
19575.0	4.280076079551828e+17
19576.0	4.2793289677537274e+17
19577.0	4.278550640547157e+17
19578.0	4.277812136858965e+17
19579.0	4.27707269784098e+17
19580.0	4.276327073622698e+17
19581.0	4.2755796164935674e+17
19582.0	4.274840350840148e+17
19583.0	4.274089998942207e+17
19584.0	4.2733375205321376e+17
19585.0	4.2725283351319885e+17
19586.0	4.271762895623509e+17
19587.0	4.2710612151282336e+17
19588.0	4.2700754670059526e+17
19589.0	4.2695665972674554e+17
19590.0	4.268766877013333e+17
19591.0	4.2680677026146976e+17
19592.0	4.2673162902568954e+17
19593.0	4.266553147129855e+17
19594.0	4.2656713408511994e+17
19595.0	4.2650422057369594e+17
19596.0	4.263939026889386e+17
19597.0	4.2635354810176845e+17
19598.0	4.262564287130283e+17
19599.0	4.2620290855512736e+17
19600.0	4.2612768958491296e+17
19601.0	4.2604864338220365e+17
19602.0	4.2597441468716365e+17
19603.0	4.258735343359316e+17
19604.0	4.2582314886103046e+17
19605.0	4.2573335356593485e+17
19606.0	4.2567336110762656e+17
19607.0	4.255980500025344e+17
19608.0	4.2552157525770234e+17
19609.0	4.254436195041279e+17
19610.0	4.2537081176937805e+17
19611.0	4.2529444160252576e+17
19612.0	4.25219465412608e+17
19613.0	4.2514301310730234e+17
19614.0	4.2506583183196166e+17
19615.0	4.249920007569406e+17
19616.0	4.249124753549993e+17
19617.0	4.2483994122868045e+17
19618.0	4.2473635331440634e+17
19619.0	4.246479868788734e+17
19620.0	4.245765298498218e+17
19621.0	4.245368029402452e+17
19622.0	4.244612921862825e+17
19623.0	4.243855848592725e+17
19624.0	4.243092655833087e+17
19625.0	4.2423386479001594e+17
19626.0	4.241575357273428e+17
19627.0	4.240822380440234e+17
19628.0	4.2399842795083085e+17
19629.0	4.2392563615443616e+17
19630.0	4.238522024198143e+17
19631.0	4.234131177209852e+17
19632.0	4.2370281389424634e+17
19633.0	4.236246467477504e+17
19634.0	4.2355134939791354e+17
19635.0	4.234731551981567e+17
19636.0	4.2339791294955514e+17
19637.0	4.2330462275065165e+17
19638.0	4.2324626753890976e+17
19639.0	4.231707905490944e+17
19640.0	4.2309236279650976e+17
19641.0	4.229636215712429e+17
19642.0	4.2294326241962656e+17
19643.0	4.2286695348961274e+17
19644.0	4.2278887959647565e+17
19645.0	4.2270133727177376e+17
19646.0	4.226403910287359e+17
19647.0	4.2256480191119354e+17
19648.0	4.2248881076961274e+17
19649.0	4.2241287086844576e+17
19650.0	4.223374307186006e+17
19651.0	4.222613930901502e+17
19652.0	4.2218562131066874e+17
19653.0	4.221100049301502e+17
19654.0	4.220341048049663e+17
