# Flux units: erg / (cm m2 s)
# Wavelength units: Angstrom
wave	flux
19000.0	7.030539728977919e+17
19001.0	7.028502086462121e+17
19002.0	7.028053761501865e+17
19003.0	7.026761762777769e+17
19004.0	7.025478729378474e+17
19005.0	7.024199739288234e+17
19006.0	7.022958105766569e+17
19007.0	7.021669505127764e+17
19008.0	7.019963814510591e+17
19009.0	7.018031769889449e+17
19010.0	7.014795892315474e+17
19011.0	7.016233703920979e+17
19012.0	7.014382841451859e+17
19013.0	7.013858178061652e+17
19014.0	7.012132907035304e+17
19015.0	7.010995998294017e+17
19016.0	7.009723361875283e+17
19017.0	7.008610285169321e+17
19018.0	7.007317088272383e+17
19019.0	7.00603562004753e+17
19020.0	7.00467530170368e+17
19021.0	7.003526590190931e+17
19022.0	7.002204790237866e+17
19023.0	7.000622279338665e+17
19024.0	6.999472178113193e+17
19025.0	6.998266656849919e+17
19026.0	6.996860981302612e+17
19027.0	6.995519172422313e+17
19028.0	6.99441405301009e+17
19029.0	6.993003890256553e+17
19030.0	6.991917987048106e+17
19031.0	6.990652981466452e+17
19032.0	6.989316017706323e+17
19033.0	6.987279150437714e+17
19034.0	6.986516607096148e+17
19035.0	6.984458729859753e+17
19036.0	6.963415237001211e+17
19037.0	6.982216666054655e+17
19038.0	6.981285671075839e+17
19039.0	6.980203196710911e+17
19040.0	6.97895913328913e+17
19041.0	6.977632260325375e+17
19042.0	6.975608967222611e+17
19043.0	6.97507212567074e+17
19044.0	6.973719178117119e+17
19045.0	6.972480470821546e+17
19046.0	6.970744985965908e+17
19047.0	6.969585379748521e+17
19048.0	6.967259725561853e+17
19049.0	6.9665509895482e+17
19050.0	6.965508397421908e+17
19051.0	6.961202661949437e+17
19052.0	6.962268947699028e+17
19053.0	6.962048242723498e+17
19054.0	6.960749607911424e+17
19055.0	6.95752432514936e+17
19056.0	6.958005695632726e+17
19057.0	6.956885238349823e+17
19058.0	6.955459662228136e+17
19059.0	6.954261019623423e+17
19060.0	6.952925078574419e+17
19061.0	6.951760936916308e+17
19062.0	6.950411549627732e+17
19063.0	6.949126356161876e+17
19064.0	6.947015436358998e+17
19065.0	6.945164196402516e+17
19066.0	6.944752626128212e+17
19067.0	6.94387672752674e+17
19068.0	6.942673739623081e+17
19069.0	6.941383726202879e+17
19070.0	6.939889516587689e+17
19071.0	6.938756444935508e+17
19072.0	6.937477155651583e+17
19073.0	6.936165380784127e+17
19074.0	6.934928800699732e+17
19075.0	6.933636423789225e+17
19076.0	6.932225410990079e+17
19077.0	6.930908273704959e+17
19078.0	6.929445432590333e+17
19079.0	6.928428737495039e+17
19080.0	6.927036090155007e+17
19081.0	6.925468823453695e+17
19082.0	6.924312943176362e+17
19083.0	6.922368464541012e+17
19084.0	6.920132932665344e+17
19085.0	6.920536457565524e+17
19086.0	6.916308409690793e+17
19087.0	6.917609391915007e+17
19088.0	6.915996114397866e+17
19089.0	6.91383525231821e+17
19090.0	6.9138562168477e+17
19091.0	6.912663563010048e+17
19092.0	6.910994832599722e+17
19093.0	6.910251019621715e+17
19094.0	6.908981268884138e+17
19095.0	6.907723516652202e+17
19096.0	6.906341229243049e+17
19097.0	6.905110125521578e+17
19098.0	6.903774081712127e+17
19099.0	6.902466267665748e+17
19100.0	6.901173939688788e+17
19101.0	6.899885311787007e+17
19102.0	6.897974112856745e+17
19103.0	6.897311026249728e+17
19104.0	6.896077182249641e+17
19105.0	6.894646331790678e+17
19106.0	6.893391323332607e+17
19107.0	6.891998202735273e+17
19108.0	6.890738855269716e+17
19109.0	6.888356918416723e+17
19110.0	6.88795538301474e+17
19111.0	6.886938759222612e+17
19112.0	6.885685617928873e+17
19113.0	6.884400129463636e+17
19114.0	6.883069533356032e+17
19115.0	6.881462466904064e+17
19116.0	6.880329644113919e+17
19117.0	6.878999043112959e+17
19118.0	6.876935564383571e+17
19119.0	6.847729513441923e+17
19120.0	6.874816829194239e+17
19121.0	6.873869052106068e+17
19122.0	6.872762527602003e+17
19123.0	6.871450903729494e+17
19124.0	6.870007933130067e+17
19125.0	6.868765702619135e+17
19126.0	6.867021294381737e+17
19127.0	6.854869436596223e+17
19128.0	6.864087069753343e+17
19129.0	6.862944839139325e+17
19130.0	6.862283330289663e+17
19131.0	6.861124040043178e+17
19132.0	6.85981519979042e+17
19133.0	6.858083721893204e+17
19134.0	6.857124565658281e+17
19135.0	6.855948786204672e+17
19136.0	6.854648619073536e+17
19137.0	6.852421266789716e+17
19138.0	6.851942500969129e+17
19139.0	6.850810915498666e+17
19140.0	6.849541887579476e+17
19141.0	6.848251779088383e+17
19142.0	6.846750021823146e+17
19143.0	6.845304115909972e+17
19144.0	6.844019531317247e+17
19145.0	6.843053605475668e+17
19146.0	6.837109198072497e+17
19147.0	6.839967196119039e+17
19148.0	6.839151571064148e+17
19149.0	6.837834720389801e+17
19150.0	6.836577667907583e+17
19151.0	6.835278787728724e+17
19152.0	6.83399920624162e+17
19153.0	6.832474832590166e+17
19154.0	6.830662725490003e+17
19155.0	6.830069992041129e+17
19156.0	6.828782748958719e+17
19157.0	6.827226571997183e+17
19158.0	6.82540884033536e+17
19159.0	6.824634968178685e+17
19160.0	6.823432135464276e+17
19161.0	6.82206359069218e+17
19162.0	6.819015122310486e+17
19163.0	6.819179675342163e+17
19164.0	6.818367710516564e+17
19165.0	6.816962067125588e+17
19166.0	6.815045347792211e+17
19167.0	6.81433929683217e+17
19168.0	6.813178918862847e+17
19169.0	6.81189947998208e+17
19170.0	6.81068874310178e+17
19171.0	6.809308573117098e+17
19172.0	6.808059190618794e+17
19173.0	6.806829891846143e+17
19174.0	6.80516590379554e+17
19175.0	6.804220547519827e+17
19176.0	6.80293196435729e+17
19177.0	6.800511760072701e+17
19178.0	6.800298732071593e+17
19179.0	6.798962587598847e+17
19180.0	6.79769671868962e+17
19181.0	6.79571832910643e+17
19182.0	6.795041840999081e+17
19183.0	6.793929183024468e+17
19184.0	6.792606449838762e+17
19185.0	6.791246091649024e+17
19186.0	6.79004337218082e+17
19187.0	6.788171805229055e+17
19188.0	6.787436937303379e+17
19189.0	6.786158709877418e+17
19190.0	6.784856305784148e+17
19191.0	6.783308696387583e+17
19192.0	6.782259118647978e+17
19193.0	6.780883176521727e+17
19194.0	6.779438921766228e+17
19195.0	6.778201695759017e+17
19196.0	6.776655413160617e+17
19197.0	6.77511106134016e+17
19198.0	6.772515816166739e+17
19199.0	6.759322688159741e+17
19200.0	6.760244657695404e+17
19201.0	6.76884872569378e+17
19202.0	6.768722414927872e+17
19203.0	6.767711132581887e+17
19204.0	6.766420616544255e+17
19205.0	6.765242300934825e+17
19206.0	6.763969986079402e+17
19207.0	6.761861131971241e+17
19208.0	6.760179485201746e+17
19209.0	6.760124360163327e+17
19210.0	6.758888140090025e+17
19211.0	6.757712190068052e+17
19212.0	6.756374872588287e+17
19213.0	6.754340939934376e+17
19214.0	6.753053733901654e+17
19215.0	6.752423334903808e+17
19216.0	6.751161292597929e+17
19217.0	6.749552991622484e+17
19218.0	6.743541373293905e+17
19219.0	6.745672134251858e+17
19220.0	6.745705301409792e+17
19221.0	6.742800959100246e+17
19222.0	6.743045737982634e+17
19223.0	6.741806930023764e+17
19224.0	6.740273458926931e+17
19225.0	6.738515768726867e+17
19226.0	6.737882028965887e+17
19227.0	6.736624886306132e+17
19228.0	6.735526454012585e+17
19229.0	6.734220729428649e+17
19230.0	6.732885402845183e+17
19231.0	6.731531724084564e+17
19232.0	6.730266491311444e+17
19233.0	6.728482349733204e+17
19234.0	6.727575629288787e+17
19235.0	6.726124669239295e+17
19236.0	6.725109154141524e+17
19237.0	6.723685967375017e+17
19238.0	6.72183385989666e+17
19239.0	6.721211706201427e+17
19240.0	6.719841047500116e+17
19241.0	6.718406185189375e+17
19242.0	6.717160852291583e+17
19243.0	6.714641650548732e+17
19244.0	6.714673287484756e+17
19245.0	6.713315330534057e+17
19246.0	6.711949582663679e+17
19247.0	6.710630167172435e+17
19248.0	6.709419273704788e+17
19249.0	6.708098609010004e+17
19250.0	6.706627551952895e+17
19251.0	6.704673324356943e+17
19252.0	6.701808454642345e+17
19253.0	6.702663211155455e+17
19254.0	6.70135922930483e+17
19255.0	6.698495199150076e+17
19256.0	6.698549119025152e+17
19257.0	6.697378808244905e+17
19258.0	6.696074430731604e+17
19259.0	6.694132182766931e+17
19260.0	6.692881713244841e+17
19261.0	6.691974503464959e+17
19262.0	6.69026034454801e+17
19263.0	6.688704106070013e+17
19264.0	6.684476867695953e+17
19265.0	6.685234797303123e+17
19266.0	6.683980522848256e+17
19267.0	6.684021262822057e+17
19268.0	6.682641799577599e+17
19269.0	6.681295165150548e+17
19270.0	6.67980112400657e+17
19271.0	6.676447983479469e+17
19272.0	6.676909682677076e+17
19273.0	6.67247324640051e+17
19274.0	6.670527361275214e+17
19275.0	6.673040501549737e+17
19276.0	6.671590959874047e+17
19277.0	6.670273732411391e+17
19278.0	6.668955738090153e+17
19279.0	6.667392972576084e+17
19280.0	6.66569868976674e+17
19281.0	6.664805117067263e+17
19282.0	6.663571377924776e+17
19283.0	6.662103167401983e+17
19284.0	6.660444213215232e+17
19285.0	6.658546410192895e+17
19286.0	6.657711700355753e+17
19287.0	6.656462154978644e+17
19288.0	6.648557157220346e+17
19289.0	6.640590078170436e+17
19290.0	6.652353198074538e+17
19291.0	6.649156214980614e+17
19292.0	6.649800555844948e+17
19293.0	6.648422874480639e+17
19294.0	6.646985046796969e+17
19295.0	6.645699578604201e+17
19296.0	6.64423343727138e+17
19297.0	6.642703106310141e+17
19298.0	6.641293408425302e+17
19299.0	6.640079786562902e+17
19300.0	6.638704646247763e+17
19301.0	6.637303742420307e+17
19302.0	6.635788775194623e+17
19303.0	6.633947551935146e+17
19304.0	6.632876124667904e+17
19305.0	6.631470806335487e+17
19306.0	6.629995602509823e+17
19307.0	6.628266751645012e+17
19308.0	6.626934327519913e+17
19309.0	6.625220563566591e+17
19310.0	6.623470777532416e+17
19311.0	6.622480760307711e+17
19312.0	6.621294858600447e+17
19313.0	6.61990866489617e+17
19314.0	6.598674677934753e+17
19315.0	6.598823529589446e+17
19316.0	6.61541095473152e+17
19317.0	6.614047522116948e+17
19318.0	6.61258676277521e+17
19319.0	6.611242226898262e+17
19320.0	6.609751022501887e+17
19321.0	6.608200967826089e+17
19322.0	6.60629878874658e+17
19323.0	6.605001635222868e+17
19324.0	6.603628174726484e+17
19325.0	6.60175525650978e+17
19326.0	6.600334452107946e+17
19327.0	6.598804079902719e+17
19328.0	6.597308713358676e+17
19329.0	6.595853719087786e+17
19330.0	6.594090611245055e+17
19331.0	6.592382687161001e+17
19332.0	6.591182282249555e+17
19333.0	6.589509045059583e+17
19334.0	6.588029558150484e+17
19335.0	6.586314119271764e+17
19336.0	6.58483290710562e+17
19337.0	6.583216797734227e+17
19338.0	6.580047016099836e+17
19339.0	6.579565768649385e+17
19340.0	6.57727967793425e+17
19341.0	6.575768478591657e+17
19342.0	6.572268535327398e+17
19343.0	6.572760728513194e+17
19344.0	6.570736533635071e+17
19345.0	6.557158136436038e+17
19346.0	6.560692224131067e+17
19347.0	6.565429968721236e+17
19348.0	6.563940904118954e+17
19349.0	6.561835365608104e+17
19350.0	6.560142390722559e+17
19351.0	6.558293230441812e+17
19352.0	6.556222959736148e+17
19353.0	6.555010135490559e+17
19354.0	6.55319798714641e+17
19355.0	6.550313835517271e+17
19356.0	6.548744990359551e+17
19357.0	6.54685075738897e+17
19358.0	6.544896388584788e+17
19359.0	6.542734420606973e+17
19360.0	6.540549237156522e+17
19361.0	6.538423104613034e+17
19362.0	6.536069560401919e+17
19363.0	6.534073263936851e+17
19364.0	6.532054259509929e+17
19365.0	6.52996559048977e+17
19366.0	6.527444312566444e+17
19367.0	6.524643144542889e+17
19368.0	6.522525383830185e+17
19369.0	6.520045535144617e+17
19370.0	6.517785842679809e+17
19371.0	6.514180736330409e+17
19372.0	6.512391889442131e+17
19373.0	6.509984621789183e+17
19374.0	6.507539905992022e+17
19375.0	6.504329918458537e+17
19376.0	6.501988955062272e+17
19377.0	6.499532782523731e+17
19378.0	6.497128592091817e+17
19379.0	6.494680590057472e+17
19380.0	6.492166856288937e+17
19381.0	6.48956314001954e+17
19382.0	6.486384689457834e+17
19383.0	6.48349820859187e+17
19384.0	6.481004308288852e+17
19385.0	6.478315203679572e+17
19386.0	6.475508294352896e+17
19387.0	6.472574140328617e+17
19388.0	6.469550126137343e+17
19389.0	6.466497189423785e+17
19390.0	6.46233078243874e+17
19391.0	6.442256823921302e+17
19392.0	6.454798491232936e+17
19393.0	6.452751748475561e+17
19394.0	6.44931086380783e+17
19395.0	6.444715833906516e+17
19396.0	6.44117612864034e+17
19397.0	6.437595361837055e+17
19398.0	6.433509882549586e+17
19399.0	6.424296478649001e+17
19400.0	6.423621499092991e+17
19401.0	6.420360157200383e+17
19402.0	6.415010278408192e+17
19403.0	6.40975240307234e+17
19404.0	6.405408667205631e+17
19405.0	6.399077334559401e+17
19406.0	6.393358110250323e+17
19407.0	6.388327332708351e+17
19408.0	6.375963076766383e+17
19409.0	6.374304895030611e+17
19410.0	6.36814530235597e+17
19411.0	6.360186447637161e+17
19412.0	6.35418493198882e+17
19413.0	6.344372767424513e+17
19414.0	6.336971224558249e+17
19415.0	6.328949077792086e+17
19416.0	6.320648574642857e+17
19417.0	6.314620700590079e+17
19418.0	6.3070432919552e+17
19419.0	6.299182799257599e+17
19420.0	6.291234886778879e+17
19421.0	6.282423771157846e+17
19422.0	6.271846083898025e+17
19423.0	6.262627216916479e+17
19424.0	6.251988004110333e+17
19425.0	6.239930876777812e+17
19426.0	6.228630494161576e+17
19427.0	6.214257413368489e+17
19428.0	6.200712240649556e+17
19429.0	6.185264653271041e+17
19430.0	6.167800446626474e+17
19431.0	6.149976217004718e+17
19432.0	6.133116465490601e+17
19433.0	6.114788050468864e+17
19434.0	6.093539462436178e+17
19435.0	6.069772456995496e+17
19436.0	6.045077760289448e+17
19437.0	6.020023217466025e+17
19438.0	5.968413902678701e+17
19439.0	5.957231171687766e+17
19440.0	5.92478992334848e+17
19441.0	5.886940294064808e+17
19442.0	5.842036739538945e+17
19443.0	5.79266843648546e+17
19444.0	5.7351191350913664e+17
19445.0	5.668630875690327e+17
19446.0	5.589388007658836e+17
19447.0	5.492848048035152e+17
19448.0	5.370473169463984e+17
19449.0	5.204809085528746e+17
19450.0	4.9465944730937914e+17
19451.0	4.7765894313192224e+17
19452.0	5.094757570532691e+17
19453.0	5.29380307002983e+17
19454.0	5.4319112065297005e+17
19455.0	5.537296252141567e+17
19456.0	5.621927564891481e+17
19457.0	5.6920001674390163e+17
19458.0	5.713706143623913e+17
19459.0	5.801022541441715e+17
19460.0	5.847058064517801e+17
19461.0	5.886861803257855e+17
19462.0	5.919441497183572e+17
19463.0	5.952166764216317e+17
19464.0	5.979456601238186e+17
19465.0	6.004027740738902e+17
19466.0	6.026842955841533e+17
19467.0	6.047410734235643e+17
19468.0	6.06821573197824e+17
19469.0	6.084070126299816e+17
19470.0	6.101737630859261e+17
19471.0	6.117213972288852e+17
19472.0	6.130341664959146e+17
19473.0	6.144995961252521e+17
19474.0	6.156264036543146e+17
19475.0	6.163814387023864e+17
19476.0	6.178014981958312e+17
19477.0	6.187515423053139e+17
19478.0	6.19723919405875e+17
19479.0	6.204490970213033e+17
19480.0	6.211683938030934e+17
19481.0	6.219215932839252e+17
19482.0	6.225147312035156e+17
19483.0	6.23051467058927e+17
19484.0	6.23635095163153e+17
19485.0	6.240737212847444e+17
19486.0	6.245169894522879e+17
19487.0	6.251424505659391e+17
19488.0	6.256182234710015e+17
19489.0	6.261154332540925e+17
19490.0	6.260024377955663e+17
19491.0	6.27157853344017e+17
19492.0	6.27784556740608e+17
19493.0	6.280815115763711e+17
19494.0	6.285603953967107e+17
19495.0	6.289368253726719e+17
19496.0	6.289403694896465e+17
19497.0	6.295904244640424e+17
19498.0	6.294756426514432e+17
19499.0	6.273840401350646e+17
19500.0	6.304065785604777e+17
19501.0	6.306273080726868e+17
19502.0	6.307952436707327e+17
19503.0	6.310079200493565e+17
19504.0	6.312291993649151e+17
19505.0	6.313511379184298e+17
19506.0	6.314738569620137e+17
19507.0	6.316210325727913e+17
19508.0	6.318035990915753e+17
19509.0	6.318801987567615e+17
19510.0	6.318212188034387e+17
19511.0	6.284593517472402e+17
19512.0	6.315999478764881e+17
19513.0	6.312573003628532e+17
19514.0	6.316406466063013e+17
19515.0	6.321103799932248e+17
19516.0	6.324159569199104e+17
19517.0	6.324392407597055e+17
19518.0	6.325162940388691e+17
19519.0	6.325909725031082e+17
19520.0	6.325932704224596e+17
19521.0	6.326364142916948e+17
19522.0	6.326215272387924e+17
19523.0	6.32656381485602e+17
19524.0	6.326560903309994e+17
19525.0	6.326529564868607e+17
19526.0	6.326576982174378e+17
19527.0	6.32660527485201e+17
19528.0	6.327427270355625e+17
19529.0	6.327251510842708e+17
19530.0	6.327140900055721e+17
19531.0	6.327443421921281e+17
19532.0	6.328086743569748e+17
19533.0	6.327841517294932e+17
19534.0	6.327547144262996e+17
19535.0	6.327072996371114e+17
19536.0	6.32770964697907e+17
19537.0	6.327569919333716e+17
19538.0	6.326053515558911e+17
19539.0	6.323572161118213e+17
19540.0	6.326142298488831e+17
19541.0	6.326788635142825e+17
19542.0	6.326333506322431e+17
19543.0	6.325851651396948e+17
19544.0	6.325369123285672e+17
19545.0	6.32130748302404e+17
19546.0	6.318866828012202e+17
19547.0	6.324346389091668e+17
19548.0	6.324039621891412e+17
19549.0	6.322682963776851e+17
19550.0	6.322888662231721e+17
19551.0	6.322281817746089e+17
19552.0	6.321619065285289e+17
19553.0	6.320811069669375e+17
19554.0	6.320197996642304e+17
19555.0	6.320006149177344e+17
19556.0	6.319418466369533e+17
19557.0	6.318715737298259e+17
19558.0	6.317983899757225e+17
19559.0	6.317260663335594e+17
19560.0	6.31631079678498e+17
19561.0	6.315564593053696e+17
19562.0	6.314939019602601e+17
19563.0	6.314243438324394e+17
19564.0	6.313652217621162e+17
19565.0	6.312984311059796e+17
19566.0	6.311982637165225e+17
19567.0	6.311360600211455e+17
19568.0	6.310327353693524e+17
19569.0	6.309549933155667e+17
19570.0	6.308869132604756e+17
19571.0	6.308015231729663e+17
19572.0	6.306868822190764e+17
19573.0	6.306205613249876e+17
19574.0	6.304679811437907e+17
19575.0	6.304525735078569e+17
19576.0	6.303642338459647e+17
19577.0	6.30261200069154e+17
19578.0	6.301661947494399e+17
19579.0	6.300974675831466e+17
19580.0	6.300084680873299e+17
19581.0	6.299317553856511e+17
19582.0	6.298522492775081e+17
19583.0	6.297594030456831e+17
19584.0	6.296648317665279e+17
19585.0	6.294835554156543e+17
19586.0	6.293693622037165e+17
19587.0	6.293642759110655e+17
19588.0	6.289917006402903e+17
19589.0	6.291600575561727e+17
19590.0	6.290281623541075e+17
19591.0	6.289949312330409e+17
19592.0	6.289043999774035e+17
19593.0	6.287919910223871e+17
19594.0	6.285197042166438e+17
19595.0	6.285912270263636e+17
19596.0	6.284633773004116e+17
19597.0	6.284022656619859e+17
19598.0	6.280650113242451e+17
19599.0	6.28206950556194e+17
19600.0	6.281268670322004e+17
19601.0	6.279800066932736e+17
19602.0	6.278650575279443e+17
19603.0	6.275649604594342e+17
19604.0	6.27674707010082e+17
19605.0	6.274134230521176e+17
19606.0	6.275322382472532e+17
19607.0	6.274345524177578e+17
19608.0	6.273263657986729e+17
19609.0	6.271971522947753e+17
19610.0	6.271293676584959e+17
19611.0	6.270200173996714e+17
19612.0	6.26930534720034e+17
19613.0	6.268186081099775e+17
19614.0	6.266912608616447e+17
19615.0	6.266157696811008e+17
19616.0	6.26494665794082e+17
19617.0	6.26401977967138e+17
19618.0	6.258988300981585e+17
19619.0	6.256945373642747e+17
19620.0	6.256692194268499e+17
19621.0	6.259755652393642e+17
19622.0	6.258957561626623e+17
19623.0	6.257954126823423e+17
19624.0	6.256831431180287e+17
19625.0	6.255848972790442e+17
19626.0	6.254679781190314e+17
19627.0	6.253632591407785e+17
19628.0	6.252137354188118e+17
19629.0	6.250341079187453e+17
19630.0	6.246637863873192e+17
19631.0	6.235541115415212e+17
19632.0	6.247693847014057e+17
19633.0	6.246981253638825e+17
19634.0	6.246414706627924e+17
19635.0	6.245093398806525e+17
19636.0	6.244227196037802e+17
19637.0	6.240317534284463e+17
19638.0	6.24213650046976e+17
19639.0	6.241069739365716e+17
19640.0	6.23918833537297e+17
19641.0	6.233455957726563e+17
19642.0	6.237821677338623e+17
19643.0	6.23671908569361e+17
19644.0	6.235182239580159e+17
19645.0	6.232989490304339e+17
19646.0	6.233546291150847e+17
19647.0	6.232584328227497e+17
19648.0	6.231495319835988e+17
19649.0	6.230448732635135e+17
19650.0	6.22941377274402e+17
19651.0	6.228284166285994e+17
19652.0	6.227235088367615e+17
19653.0	6.226295143443114e+17
19654.0	6.22514031174178e+17
19655.0	6.224005191172095e+17
19656.0	6.223001029356201e+17
19657.0	6.221894440539476e+17
19658.0	6.220856985037482e+17
19659.0	6.219755792192852e+17
19660.0	6.218709720891391e+17
19661.0	6.217583302803455e+17
19662.0	6.216510275409236e+17
19663.0	6.215120292850346e+17
19664.0	6.214227759639209e+17
19665.0	6.213248180639059e+17
