# Flux units: erg / (cm m2 s)
# Wavelength units: Angstrom
wave	flux
19000.0	5.4840698080679245e+17
19001.0	5.483042872579411e+17
19002.0	5.482024418672638e+17
19003.0	5.4810017746561696e+17
19004.0	5.478502230218071e+17
19005.0	5.4771889083514874e+17
19006.0	5.47616747229457e+17
19007.0	5.4751461851354426e+17
19008.0	5.474122352033791e+17
19009.0	5.4731031494437536e+17
19010.0	5.4720602273655456e+17
19011.0	5.471060998051156e+17
19012.0	5.4700380835020794e+17
19013.0	5.4690210731349325e+17
19014.0	5.468000725499903e+17
19015.0	5.4669804722367136e+17
19016.0	5.46595774013986e+17
19017.0	5.464939175084031e+17
19018.0	5.46392037724433e+17
19019.0	5.462900885247317e+17
19020.0	5.4618806005268474e+17
19021.0	5.4608613098564256e+17
19022.0	5.459842748994901e+17
19023.0	5.458823590445056e+17
19024.0	5.457804155071147e+17
19025.0	5.45678587732514e+17
19026.0	5.4557658526515194e+17
19027.0	5.4547456518171296e+17
19028.0	5.453730475758932e+17
19029.0	5.4527122336645114e+17
19030.0	5.451694255811241e+17
19031.0	5.4506763828155725e+17
19032.0	5.4496586650091514e+17
19033.0	5.4486373107411616e+17
19034.0	5.447623709644117e+17
19035.0	5.4466064972513274e+17
19036.0	5.4453624086637216e+17
19037.0	5.444572540130645e+17
19038.0	5.4435558142771194e+17
19039.0	5.4425392457099936e+17
19040.0	5.441522855400788e+17
19041.0	5.440506593017855e+17
19042.0	5.439487090535081e+17
19043.0	5.438474635182079e+17
19044.0	5.437458795025749e+17
19045.0	5.436443328162473e+17
19046.0	5.4354257697396045e+17
19047.0	5.434412676153343e+17
19048.0	5.433388264237738e+17
19049.0	5.432382794498047e+17
19050.0	5.431368068628479e+17
19051.0	5.430318582464511e+17
19052.0	5.4293375829934074e+17
19053.0	5.428324997616981e+17
19054.0	5.427311011343017e+17
19055.0	5.4262864176742394e+17
19056.0	5.4252834666141005e+17
19057.0	5.424270061251241e+17
19058.0	5.4232567355801594e+17
19059.0	5.4222436259157325e+17
19060.0	5.421229624961705e+17
19061.0	5.420217928078676e+17
19062.0	5.4192051238993914e+17
19063.0	5.4181928607853216e+17
19064.0	5.4171757889017165e+17
19065.0	5.416163211913898e+17
19066.0	5.4151568047472634e+17
19067.0	5.414145075707903e+17
19068.0	5.4131335724619085e+17
19069.0	5.412122348137129e+17
19070.0	5.411110737936383e+17
19071.0	5.4101002525081594e+17
19072.0	5.409089502838783e+17
19073.0	5.408078681866239e+17
19074.0	5.407068521496575e+17
19075.0	5.406058291920896e+17
19076.0	5.4050473059723936e+17
19077.0	5.404038010328404e+17
19078.0	5.403027483656192e+17
19079.0	5.4020193295619405e+17
19080.0	5.40101006537523e+17
19081.0	5.40000094589201e+17
19082.0	5.398989796365652e+17
19083.0	5.3979830599461536e+17
19084.0	5.3969651855523834e+17
19085.0	5.3959664588554234e+17
19086.0	5.3949449193390074e+17
19087.0	5.393944072421374e+17
19088.0	5.392942508976809e+17
19089.0	5.391924596135253e+17
19090.0	5.390927466070015e+17
19091.0	5.389919971180543e+17
19092.0	5.3889117884252154e+17
19093.0	5.387906449407998e+17
19094.0	5.3868973061570554e+17
19095.0	5.3858901845606394e+17
19096.0	5.384886183526399e+17
19097.0	5.383880968241151e+17
19098.0	5.382875125907455e+17
19099.0	5.381869409402879e+17
19100.0	5.3808639089049594e+17
19101.0	5.3798585971507194e+17
19102.0	5.378849000914942e+17
19103.0	5.3778485168046074e+17
19104.0	5.376843756601343e+17
19105.0	5.375839204016128e+17
19106.0	5.374833646895103e+17
19107.0	5.3738300002795514e+17
19108.0	5.372826630488064e+17
19109.0	5.371804261897557e+17
19110.0	5.3708191541056845e+17
19111.0	5.3698158031885645e+17
19112.0	5.3688125347594234e+17
19113.0	5.367809520085673e+17
19114.0	5.366806673184085e+17
19115.0	5.3658026337020576e+17
19116.0	5.3648015029698554e+17
19117.0	5.363799132820821e+17
19118.0	5.3627950108508154e+17
19119.0	5.3616029253413536e+17
19120.0	5.3607915966518605e+17
19121.0	5.359790777696255e+17
19122.0	5.358790633324543e+17
19123.0	5.3577893690736634e+17
19124.0	5.356788492795903e+17
19125.0	5.355787690617513e+17
19126.0	5.3547867856786765e+17
19127.0	5.353712173536596e+17
19128.0	5.3527833043708576e+17
19129.0	5.3517827797155834e+17
19130.0	5.3507866283212794e+17
19131.0	5.349786914564777e+17
19132.0	5.348787412620627e+17
19133.0	5.3477792221757434e+17
19134.0	5.3467892301168634e+17
19135.0	5.3457902286929914e+17
19136.0	5.3447916194365434e+17
19137.0	5.34378605252881e+17
19138.0	5.342793594918227e+17
19139.0	5.3417965655162874e+17
19140.0	5.340798621756073e+17
19141.0	5.339800820602196e+17
19142.0	5.338803148073642e+17
19143.0	5.337803193843711e+17
19144.0	5.336808480396628e+17
19145.0	5.3358115250940576e+17
19146.0	5.3347898933029536e+17
19147.0	5.3338141744605856e+17
19148.0	5.3328213638294176e+17
19149.0	5.331825091499349e+17
19150.0	5.330828613648382e+17
19151.0	5.3298330732243616e+17
19152.0	5.3288370910003194e+17
19153.0	5.3278417001731405e+17
19154.0	5.326840835779242e+17
19155.0	5.3258510583289165e+17
19156.0	5.324855903780864e+17
19157.0	5.323860946365098e+17
19158.0	5.322853738785449e+17
19159.0	5.3218709714152083e+17
19160.0	5.3208771331795616e+17
19161.0	5.319883387917652e+17
19162.0	5.31886042723123e+17
19163.0	5.317895528295081e+17
19164.0	5.316901966184447e+17
19165.0	5.3159079385060685e+17
19166.0	5.3149096934550176e+17
19167.0	5.313919436455935e+17
19168.0	5.312926581085524e+17
19169.0	5.3119345834502816e+17
19170.0	5.310943839911934e+17
19171.0	5.309949547992404e+17
19172.0	5.308959114832554e+17
19173.0	5.3079669305507834e+17
19174.0	5.306972632339796e+17
19175.0	5.3059833421277856e+17
19176.0	5.304991757631487e+17
19177.0	5.3039939949253965e+17
19178.0	5.303008795557888e+17
19179.0	5.302015285177002e+17
19180.0	5.3010258055222605e+17
19181.0	5.300030840416938e+17
19182.0	5.2990445435398816e+17
19183.0	5.298055092546217e+17
19184.0	5.296801436751189e+17
19185.0	5.295338878752085e+17
19186.0	5.2943493019293005e+17
19187.0	5.293359600675498e+17
19188.0	5.2923702880938656e+17
19189.0	5.2913812754049696e+17
19190.0	5.290392117313535e+17
19191.0	5.2894028648502605e+17
19192.0	5.288414426081962e+17
19193.0	5.287425379838634e+17
19194.0	5.2864371675627514e+17
19195.0	5.285448961578325e+17
19196.0	5.284460292123307e+17
19197.0	5.2834723252142074e+17
19198.0	5.2824847106266445e+17
19199.0	5.2813254714108576e+17
19200.0	5.280403417989119e+17
19201.0	5.279521900418389e+17
19202.0	5.27853466751249e+17
19203.0	5.277547484938238e+17
19204.0	5.276559239107925e+17
19205.0	5.275573524540073e+17
19206.0	5.2745862119423994e+17
19207.0	5.2735998556460365e+17
19208.0	5.272603355425451e+17
19209.0	5.271627136761856e+17
19210.0	5.2706408517686605e+17
19211.0	5.2696546527586976e+17
19212.0	5.2686686781439994e+17
19213.0	5.2676782177211725e+17
19214.0	5.266691583901696e+17
19215.0	5.265710776669525e+17
19216.0	5.2647254228118176e+17
19217.0	5.263740338088619e+17
19218.0	5.2627203378817696e+17
19219.0	5.261763451464361e+17
19220.0	5.2607847322965325e+17
19221.0	5.259785790291968e+17
19222.0	5.2588148389751456e+17
19223.0	5.25782986190575e+17
19224.0	5.2568447128698874e+17
19225.0	5.2558544929204896e+17
19226.0	5.254876195280214e+17
19227.0	5.253891876017492e+17
19228.0	5.252907546269012e+17
19229.0	5.251923305999019e+17
19230.0	5.2509389489875616e+17
19231.0	5.249955124652713e+17
19232.0	5.2489704055330125e+17
19233.0	5.247986223983274e+17
19234.0	5.2470021913313274e+17
19235.0	5.2460195763541325e+17
19236.0	5.245035847090175e+17
19237.0	5.2440515390122656e+17
19238.0	5.2430669016814925e+17
19239.0	5.2420852290245965e+17
19240.0	5.2410967385265485e+17
19241.0	5.240117106398549e+17
19242.0	5.2391350436713805e+17
19243.0	5.238144911103317e+17
19244.0	5.237168384158378e+17
19245.0	5.236185167997609e+17
19246.0	5.2352012576795296e+17
19247.0	5.2342187195979085e+17
19248.0	5.233235592216575e+17
19249.0	5.2322524145035936e+17
19250.0	5.231269039658324e+17
19251.0	5.2302830140129274e+17
19252.0	5.229289495243434e+17
19253.0	5.228319482751657e+17
19254.0	5.2273360715557536e+17
19255.0	5.2263450456009376e+17
19256.0	5.225370067752276e+17
19257.0	5.2243923566155085e+17
19258.0	5.223413710148947e+17
19259.0	5.2224271755946656e+17
19260.0	5.2214433386769056e+17
19261.0	5.2203414908218016e+17
19262.0	5.21857382097442e+17
19263.0	5.217589412233215e+17
19264.0	5.2165854496467616e+17
19265.0	5.215615028210345e+17
19266.0	5.2146315261378534e+17
19267.0	5.2136567503148365e+17
19268.0	5.2126730811692365e+17
19269.0	5.2116893239432525e+17
19270.0	5.2107053863621965e+17
19271.0	5.2097071881475405e+17
19272.0	5.208735825788926e+17
19273.0	5.207610159180458e+17
19274.0	5.206695175957162e+17
19275.0	5.205784126291968e+17
19276.0	5.204799447717205e+17
19277.0	5.2038145706120525e+17
19278.0	5.202829529929044e+17
19279.0	5.201844120147283e+17
19280.0	5.200855408050175e+17
19281.0	5.199873109043883e+17
19282.0	5.198887272142166e+17
19283.0	5.197898594298538e+17
19284.0	5.196914584715262e+17
19285.0	5.195920408139092e+17
19286.0	5.1949412751332685e+17
19287.0	5.193954128909653e+17
19288.0	5.1929198114461005e+17
19289.0	5.1918158405741216e+17
19290.0	5.1909907916171936e+17
19291.0	5.189991549020842e+17
19292.0	5.189013556865707e+17
19293.0	5.1880240108011514e+17
19294.0	5.187034817058132e+17
19295.0	5.1860448305916576e+17
19296.0	5.185054442171049e+17
19297.0	5.184063542045353e+17
19298.0	5.183072325249706e+17
19299.0	5.182080512163839e+17
19300.0	5.1810883467564365e+17
19301.0	5.180095103412907e+17
19302.0	5.1791021592630605e+17
19303.0	5.178106285391871e+17
19304.0	5.1771117089587194e+17
19305.0	5.1761184774990496e+17
19306.0	5.17512286577186e+17
19307.0	5.1741254889417376e+17
19308.0	5.1731293787914234e+17
19309.0	5.172125706310996e+17
19310.0	5.1711240743594656e+17
19311.0	5.170131841144149e+17
19312.0	5.169133645725696e+17
19313.0	5.1681314859909114e+17
19314.0	5.166926751159635e+17
19315.0	5.1659467681082016e+17
19316.0	5.1651241581390496e+17
19317.0	5.1641200047117645e+17
19318.0	5.163114293100543e+17
19319.0	5.1621076349747194e+17
19320.0	5.1610995277168634e+17
19321.0	5.1600909045596154e+17
19322.0	5.1590765512840525e+17
19323.0	5.158066490878634e+17
19324.0	5.157056755531775e+17
19325.0	5.156037285205333e+17
19326.0	5.1550274149416954e+17
19327.0	5.154009887976106e+17
19328.0	5.1529923463304525e+17
19329.0	5.151972562829311e+17
19330.0	5.15094922465553e+17
19331.0	5.149927641797973e+17
19332.0	5.1489029950013434e+17
19333.0	5.1478763097729696e+17
19334.0	5.1468472939096736e+17
19335.0	5.145817117622271e+17
19336.0	5.1447842989233485e+17
19337.0	5.1437493914610336e+17
19338.0	5.142703788523519e+17
19339.0	5.141673442366804e+17
19340.0	5.140627348695722e+17
19341.0	5.139586985842004e+17
19342.0	5.1385250390999046e+17
19343.0	5.137491170426879e+17
19344.0	5.1364388419229005e+17
19345.0	5.13528544956689e+17
19346.0	5.1343041991365965e+17
19347.0	5.1332606563013965e+17
19348.0	5.1321985557681485e+17
19349.0	5.131130116942506e+17
19350.0	5.130057972449279e+17
19351.0	5.128982185203028e+17
19352.0	5.1279015283698336e+17
19353.0	5.1268183165064525e+17
19354.0	5.125729998077951e+17
19355.0	5.124633613303807e+17
19356.0	5.123539541688319e+17
19357.0	5.122437159059455e+17
19358.0	5.121328675116373e+17
19359.0	5.120209306255359e+17
19360.0	5.119096851704489e+17
19361.0	5.1179715052612256e+17
19362.0	5.116842911028566e+17
19363.0	5.115705743638527e+17
19364.0	5.114561552886442e+17
19365.0	5.113410916188159e+17
19366.0	5.112252559873366e+17
19367.0	5.111086428717056e+17
19368.0	5.109912215835988e+17
19369.0	5.1087264476474016e+17
19370.0	5.107521661086378e+17
19371.0	5.106336418583893e+17
19372.0	5.10512533287731e+17
19373.0	5.1039038879389005e+17
19374.0	5.102671639172437e+17
19375.0	5.101427734435155e+17
19376.0	5.1001720374121805e+17
19377.0	5.098903411447124e+17
19378.0	5.0976217957225805e+17
19379.0	5.0963259969590605e+17
19380.0	5.095015415371092e+17
19381.0	5.092877289215315e+17
19382.0	5.0913563611845965e+17
19383.0	5.0899927405253965e+17
19384.0	5.0886162999760205e+17
19385.0	5.087215695342251e+17
19386.0	5.0857949692340896e+17
19387.0	5.084352460008106e+17
19388.0	5.082887096019626e+17
19389.0	5.0813976441432736e+17
19390.0	5.0798826720242336e+17
19391.0	5.078133327091028e+17
19392.0	5.0767699441090554e+17
19393.0	5.075169499065002e+17
19394.0	5.073536358722217e+17
19395.0	5.071869717774335e+17
19396.0	5.0701669827433805e+17
19397.0	5.0684267128859296e+17
19398.0	5.0658105003868154e+17
19399.0	5.063466556937555e+17
19400.0	5.061617760163157e+17
19401.0	5.059689675664041e+17
19402.0	5.057707407048703e+17
19403.0	5.055677683378858e+17
19404.0	5.053583131847339e+17
19405.0	5.0513502228097696e+17
19406.0	5.04752175788851e+17
19407.0	5.04520514941747e+17
19408.0	5.042777647742975e+17
19409.0	5.0402188958105594e+17
19410.0	5.0365352650997766e+17
19411.0	5.0328512254443514e+17
19412.0	5.030052248245588e+17
19413.0	5.026173266427903e+17
19414.0	5.021623697189546e+17
19415.0	5.018172224001367e+17
19416.0	5.012155098551636e+17
19417.0	5.007737798088017e+17
19418.0	5.0014707033047046e+17
19419.0	4.9944643855100576e+17
19420.0	4.986946847069523e+17
19421.0	4.9781048872359226e+17
19422.0	4.967476111256231e+17
19423.0	4.9573970239815686e+17
19424.0	4.9505839356750496e+17
19425.0	4.944052175415978e+17
19426.0	4.9372508745018016e+17
19427.0	4.929886830111402e+17
19428.0	4.92204191715601e+17
19429.0	4.913681134168745e+17
19430.0	4.904531996093098e+17
19431.0	4.8944151293242016e+17
19432.0	4.884366069770921e+17
19433.0	4.873649684567382e+17
19434.0	4.861043208967511e+17
19435.0	4.8483555819738426e+17
19436.0	4.8336154464529056e+17
19437.0	4.816580444334762e+17
19438.0	4.795675011885738e+17
19439.0	4.768441565183998e+17
19440.0	4.7262228985937926e+17
19441.0	4.681945755680765e+17
19442.0	4.6500193672451424e+17
19443.0	4.6150722955946656e+17
19444.0	4.574863249375229e+17
19445.0	4.5266920936570944e+17
19446.0	4.4512031416866086e+17
19447.0	4.347639550880422e+17
19448.0	4.2451259048154477e+17
19449.0	4.0566289917979245e+17
19450.0	3.632200872361979e+17
19451.0	3.5115382834462637e+17
19452.0	3.8682178830554605e+17
19453.0	4.1675458175740576e+17
19454.0	4.2980210925458726e+17
19455.0	4.3930318536704045e+17
19456.0	4.488137301207731e+17
19457.0	4.5435659918595366e+17
19458.0	4.5844968750011744e+17
19459.0	4.620426260338005e+17
19460.0	4.652087402386772e+17
19461.0	4.6853414809763744e+17
19462.0	4.731934660537014e+17
19463.0	4.7636090097500154e+17
19464.0	4.78488529347106e+17
19465.0	4.801758302481066e+17
19466.0	4.8153777479352314e+17
19467.0	4.827363782514005e+17
19468.0	4.8380804676102803e+17
19469.0	4.847804962832383e+17
19470.0	4.8563802299432954e+17
19471.0	4.864475691745279e+17
19472.0	4.872465478757034e+17
19473.0	4.8792273616022176e+17
19474.0	4.885461231905451e+17
19475.0	4.891159659457193e+17
19476.0	4.896384369732265e+17
19477.0	4.9011836370725536e+17
19478.0	4.9056420375210656e+17
19479.0	4.911727104404139e+17
19480.0	4.9207167708474054e+17
19481.0	4.928753780828844e+17
19482.0	4.9353549386437946e+17
19483.0	4.94044360107622e+17
19484.0	4.944258816890195e+17
19485.0	4.948729498260821e+17
19486.0	4.9512264764839264e+17
19487.0	4.9545591404189005e+17
19488.0	4.955825712573098e+17
19489.0	4.959190697115646e+17
19490.0	4.9602363552781645e+17
19491.0	4.9611702401324365e+17
19492.0	4.963389993735509e+17
19493.0	4.964563322317481e+17
19494.0	4.965238608756735e+17
19495.0	4.9657678579193165e+17
19496.0	4.966195744036181e+17
19497.0	4.968104883563178e+17
19498.0	4.968350773936127e+17
19499.0	4.968193344929791e+17
19500.0	4.968670224711679e+17
19501.0	4.9687505099816954e+17
19502.0	4.968779897372671e+17
19503.0	4.9687625084873376e+17
19504.0	4.968700605453653e+17
19505.0	4.9697550066428563e+17
19506.0	4.969697248280575e+17
19507.0	4.9695080236537165e+17
19508.0	4.9692854508148045e+17
19509.0	4.9690295933774496e+17
19510.0	4.968735003639807e+17
19511.0	4.96802530992674e+17
19512.0	4.968052238756521e+17
19513.0	4.967612144418814e+17
19514.0	4.9672650140330656e+17
19515.0	4.966886693404671e+17
19516.0	4.9664712217285965e+17
19517.0	4.9660091932781216e+17
19518.0	4.9655336773440845e+17
19519.0	4.9650363069890554e+17
19520.0	4.964520657857194e+17
19521.0	4.9639899819322016e+17
19522.0	4.9634426126772896e+17
19523.0	4.9628804543064736e+17
19524.0	4.9623039639988896e+17
19525.0	4.962308355435177e+17
19526.0	4.9620322940354554e+17
19527.0	4.961414892486655e+17
19528.0	4.9607861222768634e+17
19529.0	4.96014624624913e+17
19530.0	4.959496048039251e+17
19531.0	4.9588360057978874e+17
19532.0	4.958166510993408e+17
19533.0	4.9574880837195085e+17
19534.0	4.956801158785706e+17
19535.0	4.956106107387903e+17
19536.0	4.955402959585279e+17
19537.0	4.9546931239649274e+17
19538.0	4.953974736857771e+17
19539.0	4.953225398583295e+17
19540.0	4.952521459455317e+17
19541.0	4.9517851130374816e+17
19542.0	4.951042865233919e+17
19543.0	4.9502949865772365e+17
19544.0	4.9495417825525754e+17
19545.0	4.9487693965776205e+17
19546.0	4.9479769555380896e+17
19547.0	4.9472529145091405e+17
19548.0	4.946480363558227e+17
19549.0	4.945699698726228e+17
19550.0	4.94492350152704e+17
19551.0	4.944139068811946e+17
19552.0	4.943350727005523e+17
19553.0	4.942558184603647e+17
19554.0	4.941761797423103e+17
19555.0	4.9409651019612154e+17
19556.0	4.940163425763328e+17
19557.0	4.939358483600724e+17
19558.0	4.93855090741521e+17
19559.0	4.9377401365681485e+17
19560.0	4.936927522324479e+17
19561.0	4.9361118755990176e+17
19562.0	4.935293812255402e+17
19563.0	4.93447330992401e+17
19564.0	4.933650647526058e+17
19565.0	4.932825793604266e+17
19566.0	4.931998014854485e+17
19567.0	4.931169867005952e+17
19568.0	4.930339093523113e+17
19569.0	4.9295059712300365e+17
19570.0	4.928671894732798e+17
19571.0	4.9278357245788154e+17
19572.0	4.9269979144519674e+17
19573.0	4.926157902315519e+17
19574.0	4.925314819249493e+17
19575.0	4.9244752593988256e+17
19576.0	4.923631519924224e+17
19577.0	4.9227843690823674e+17
19578.0	4.9219382514373965e+17
19579.0	4.92109243158801e+17
19580.0	4.920243601626453e+17
19581.0	4.9193928359935994e+17
19582.0	4.918542592551593e+17
19583.0	4.917690499421524e+17
19584.0	4.9168372857132365e+17
19585.0	4.9159798399522125e+17
19586.0	4.915122187971243e+17
19587.0	4.9142708302424723e+17
19588.0	4.9133950847330976e+17
19589.0	4.912557365482836e+17
19590.0	4.911696372039679e+17
19591.0	4.9108398895704736e+17
19592.0	4.9099797832226125e+17
19593.0	4.909119223190868e+17
19594.0	4.908247177057621e+17
19595.0	4.9073955970307405e+17
19596.0	4.906510161980074e+17
19597.0	4.905669582913534e+17
19598.0	4.904792535771817e+17
19599.0	4.9039413325332474e+17
19600.0	4.903076325840212e+17
19601.0	4.902209147196757e+17
19602.0	4.9013430667618976e+17
19603.0	4.900458348937215e+17
19604.0	4.8996111442684576e+17
19605.0	4.8987312841468576e+17
19606.0	4.897875895691946e+17
19607.0	4.89700790964497e+17
19608.0	4.8961390882324474e+17
19609.0	4.8952692287296845e+17
19610.0	4.8944009840339616e+17
19611.0	4.8935310196736e+17
19612.0	4.892661300680021e+17
19613.0	4.8917909874933754e+17
19614.0	4.890920357636778e+17
19615.0	4.890049474024787e+17
19616.0	4.8891765519810554e+17
19617.0	4.888306861648555e+17
19618.0	4.8874132616861005e+17
19619.0	4.886531716153343e+17
19620.0	4.885662829030058e+17
19621.0	4.8848188099351885e+17
19622.0	4.8839462926417914e+17
19623.0	4.8830735502540794e+17
19624.0	4.8822006442885114e+17
19625.0	4.8813275265105894e+17
19626.0	4.880454298282666e+17
19627.0	4.879580885505364e+17
19628.0	4.8787033210661536e+17
19629.0	4.8778300194379085e+17
19630.0	4.8769582738964474e+17
19631.0	4.875895542819498e+17
19632.0	4.875211809751039e+17
19633.0	4.8743376217265485e+17
19634.0	4.873463447683071e+17
19635.0	4.872589152004778e+17
19636.0	4.871714740983124e+17
19637.0	4.870825057102506e+17
19638.0	4.869965286998015e+17
19639.0	4.8690910717105485e+17
19640.0	4.8682160497186125e+17
19641.0	4.8673038927571616e+17
19642.0	4.866466885140479e+17
19643.0	4.8655917506013856e+17
19644.0	4.8647159058268154e+17
19645.0	4.8638305924109645e+17
19646.0	4.862967459872768e+17
19647.0	4.862092536446975e+17
19648.0	4.8612176130211834e+17
19649.0	4.860342563766271e+17
19650.0	4.8594677284208634e+17
19651.0	4.858592779829247e+17
19652.0	4.8577178438205434e+17
19653.0	4.8568428574801914e+17
19654.0	4.855968009551872e+17
