# Flux units: erg / (cm m2 s)
# Wavelength units: Angstrom
wave	flux
19000.0	6.765073479499775e+17
19001.0	6.763768105140223e+17
19002.0	6.762543905243133e+17
19003.0	6.761274853556223e+17
19004.0	6.760005620815188e+17
19005.0	6.758748125833897e+17
19006.0	6.757482846224383e+17
19007.0	6.756050023044436e+17
19008.0	6.754926696158548e+17
19009.0	6.753656396666198e+17
19010.0	6.752232700291753e+17
19011.0	6.751131460610729e+17
19012.0	6.749560064617129e+17
19013.0	6.748625662465363e+17
19014.0	6.747331167431338e+17
19015.0	6.746075123679231e+17
19016.0	6.744804705348265e+17
19017.0	6.74354864202274e+17
19018.0	6.742271259049981e+17
19019.0	6.741026043592703e+17
19020.0	6.739747551226538e+17
19021.0	6.738495946446164e+17
19022.0	6.737237490270207e+17
19023.0	6.735954245058559e+17
19024.0	6.734693214978047e+17
19025.0	6.733412475863039e+17
19026.0	6.732131108301481e+17
19027.0	6.730614891173203e+17
19028.0	6.729646580170751e+17
19029.0	6.728374895859027e+17
19030.0	6.72711684722961e+17
19031.0	6.725852024799231e+17
19032.0	6.724587206563155e+17
19033.0	6.72328549732625e+17
19034.0	6.722051319878996e+17
19035.0	6.7207715894941e+17
19036.0	6.699408413775183e+17
19037.0	6.718260063327572e+17
19038.0	6.716989863799466e+17
19039.0	6.715736384864255e+17
19040.0	6.714472487976959e+17
19041.0	6.713208296789332e+17
19042.0	6.711911354378921e+17
19043.0	6.710681793462271e+17
19044.0	6.709415676390057e+17
19045.0	6.708143026689364e+17
19046.0	6.706869677938004e+17
19047.0	6.705622477875881e+17
19048.0	6.704280281022461e+17
19049.0	6.703071589564415e+17
19050.0	6.701819619879594e+17
19051.0	6.697553977759055e+17
19052.0	6.698842076479487e+17
19053.0	6.698006769653076e+17
19054.0	6.696786119535274e+17
19055.0	6.695419471287636e+17
19056.0	6.694252623604394e+17
19057.0	6.692991817220095e+17
19058.0	6.691688770000212e+17
19059.0	6.690474696551081e+17
19060.0	6.689203337297919e+17
19061.0	6.687951522103296e+17
19062.0	6.686687929303039e+17
19063.0	6.685427230572543e+17
19064.0	6.684119257142612e+17
19065.0	6.682832618039978e+17
19066.0	6.681619316342783e+17
19067.0	6.680382718083071e+17
19068.0	6.67912228778803e+17
19069.0	6.677861895241727e+17
19070.0	6.676591176318975e+17
19071.0	6.675331282195796e+17
19072.0	6.674077480299177e+17
19073.0	6.672818427133951e+17
19074.0	6.671560681193471e+17
19075.0	6.670300815032319e+17
19076.0	6.669032335867901e+17
19077.0	6.667776513015808e+17
19078.0	6.666509831110655e+17
19079.0	6.665262810005501e+17
19080.0	6.664000862071465e+17
19081.0	6.662728455640404e+17
19082.0	6.661466728606378e+17
19083.0	6.6601807787677e+17
19084.0	6.658870652960768e+17
19085.0	6.657709131344553e+17
19086.0	6.656277114170026e+17
19087.0	6.654584754449066e+17
19088.0	6.653886642607444e+17
19089.0	6.652281632063487e+17
19090.0	6.65140221514001e+17
19091.0	6.650149203869695e+17
19092.0	6.648739159954771e+17
19093.0	6.647647327398569e+17
19094.0	6.646384186185044e+17
19095.0	6.645125292403369e+17
19096.0	6.64386333258547e+17
19097.0	6.642618920337407e+17
19098.0	6.641365328855039e+17
19099.0	6.640108969132031e+17
19100.0	6.638820430708735e+17
19101.0	6.637585729672532e+17
19102.0	6.63630254248209e+17
19103.0	6.635086411726847e+17
19104.0	6.633830897855145e+17
19105.0	6.632574784197972e+17
19106.0	6.63120488047138e+17
19107.0	6.630057972509353e+17
19108.0	6.628808178270207e+17
19109.0	6.625723752819368e+17
19110.0	6.626265087169876e+17
19111.0	6.625040040722432e+17
19112.0	6.623792518397951e+17
19113.0	6.622539718240938e+17
19114.0	6.621285984851284e+17
19115.0	6.619975114555391e+17
19116.0	6.618769384275967e+17
19117.0	6.617515687935999e+17
19118.0	6.616135568282964e+17
19119.0	6.61358947615812e+17
19120.0	6.613599927664637e+17
19121.0	6.612393922658303e+17
19122.0	6.611261244571647e+17
19123.0	6.610007581786111e+17
19124.0	6.608652488146943e+17
19125.0	6.607487550270121e+17
19126.0	6.606236429931859e+17
19127.0	6.604299620581375e+17
19128.0	6.602707337652904e+17
19129.0	6.602463210984788e+17
19130.0	6.601242987986943e+17
19131.0	6.599961689631401e+17
19132.0	6.598742473266516e+17
19133.0	6.597240691534506e+17
19134.0	6.595769365342892e+17
19135.0	6.594982862039721e+17
19136.0	6.593741838090239e+17
19137.0	6.592424472914602e+17
19138.0	6.59117701000943e+17
19139.0	6.589989412405247e+17
19140.0	6.588741810388991e+17
19141.0	6.587492314644479e+17
19142.0	6.586226310119423e+17
19143.0	6.584971177929386e+17
19144.0	6.583733898794323e+17
19145.0	6.582487527107242e+17
19146.0	6.580979079927124e+17
19147.0	6.579959619387391e+17
19148.0	6.578736793823914e+17
19149.0	6.577491479101439e+17
19150.0	6.576246214710612e+17
19151.0	6.575002600079357e+17
19152.0	6.573731238729043e+17
19153.0	6.572498446101161e+17
19154.0	6.571206554331817e+17
19155.0	6.570004224234836e+17
19156.0	6.568760064344063e+17
19157.0	6.56748805497378e+17
19158.0	6.56501316745079e+17
19159.0	6.565004742492159e+17
19160.0	6.563743661380948e+17
19161.0	6.562429594326356e+17
19162.0	6.558446322537815e+17
19163.0	6.559978207488681e+17
19164.0	6.558783747304106e+17
19165.0	6.557485067053737e+17
19166.0	6.556178894378323e+17
19167.0	6.554776322615977e+17
19168.0	6.553770129358847e+17
19169.0	6.552488233314986e+17
19170.0	6.551304337883133e+17
19171.0	6.549891685111124e+17
19172.0	6.548800062270121e+17
19173.0	6.547559837335551e+17
19174.0	6.54630171320866e+17
19175.0	6.545079397952169e+17
19176.0	6.543833638633471e+17
19177.0	6.542525996553556e+17
19178.0	6.541281290704212e+17
19179.0	6.539859917275135e+17
19180.0	6.538743905954474e+17
19181.0	6.537559152088404e+17
19182.0	6.536341539345748e+17
19183.0	6.535102179136852e+17
19184.0	6.533834153656319e+17
19185.0	6.532623611112106e+17
19186.0	6.531381181371732e+17
19187.0	6.530101791424511e+17
19188.0	6.528878949083818e+17
19189.0	6.527599563330899e+17
19190.0	6.526343491616767e+17
19191.0	6.525111164556627e+17
19192.0	6.523905446161066e+17
19193.0	6.522612185650515e+17
19194.0	6.521388886829737e+17
19195.0	6.520168008122367e+17
19196.0	6.518924254380031e+17
19197.0	6.517671872255316e+17
19198.0	6.516394175408809e+17
19199.0	6.498737938148006e+17
19200.0	6.502819681009668e+17
19201.0	6.512667486672212e+17
19202.0	6.511455474723497e+17
19203.0	6.510178472034304e+17
19204.0	6.5089600239261e+17
19205.0	6.507734514707114e+17
19206.0	6.5064853321373e+17
19207.0	6.505207676534783e+17
19208.0	6.50391975956753e+17
19209.0	6.502748235235327e+17
19210.0	6.50151452615202e+17
19211.0	6.500269301607082e+17
19212.0	6.499024804074836e+17
19213.0	6.497604594565119e+17
19214.0	6.496280596097706e+17
19215.0	6.495224605966333e+17
19216.0	6.494042082071892e+17
19217.0	6.492801135717033e+17
19218.0	6.491217509132969e+17
19219.0	6.490245567261354e+17
19220.0	6.489045844623359e+17
19221.0	6.487679475296937e+17
19222.0	6.486573161207123e+17
19223.0	6.485327926176425e+17
19224.0	6.484059694475946e+17
19225.0	6.482777254570666e+17
19226.0	6.481584339987114e+17
19227.0	6.480336558314836e+17
19228.0	6.479099430174719e+17
19229.0	6.477852602007551e+17
19230.0	6.476566687820457e+17
19231.0	6.475325975647572e+17
19232.0	6.474101552753321e+17
19233.0	6.47283190337809e+17
19234.0	6.471607059655338e+17
19235.0	6.470359998005247e+17
19236.0	6.469121139015679e+17
19237.0	6.467866362642431e+17
19238.0	6.466561727878484e+17
19239.0	6.46537627635985e+17
19240.0	6.46407943880704e+17
19241.0	6.462853886945964e+17
19242.0	6.461621151640233e+17
19243.0	6.46030829883665e+17
19244.0	6.459128170588842e+17
19245.0	6.457878254714877e+17
19246.0	6.456620896048468e+17
19247.0	6.455375434525353e+17
19248.0	6.454124681188691e+17
19249.0	6.452864197066751e+17
19250.0	6.451611708686335e+17
19251.0	6.450317254197247e+17
19252.0	6.448996734205952e+17
19253.0	6.447850869227519e+17
19254.0	6.446598996011689e+17
19255.0	6.445275769296212e+17
19256.0	6.444054587200852e+17
19257.0	6.442838404016809e+17
19258.0	6.441584778280959e+17
19259.0	6.440298842423295e+17
19260.0	6.438738039144445e+17
19261.0	6.437813446770687e+17
19262.0	6.436535113089023e+17
19263.0	6.435272828212563e+17
19264.0	6.433823078918825e+17
19265.0	6.432699190695252e+17
19266.0	6.431445667020799e+17
19267.0	6.430253963193002e+17
19268.0	6.428991571361791e+17
19269.0	6.427728489567572e+17
19270.0	6.426464025750185e+17
19271.0	6.425066603894102e+17
19272.0	6.423919772827647e+17
19273.0	6.421293726083753e+17
19274.0	6.420614179629737e+17
19275.0	6.420132482689706e+17
19276.0	6.418855593945769e+17
19277.0	6.417587350361428e+17
19278.0	6.416322792871252e+17
19279.0	6.415010227377494e+17
19280.0	6.41374630322722e+17
19281.0	6.412495671525375e+17
19282.0	6.411225794259625e+17
19283.0	6.409690291022505e+17
19284.0	6.408317036047017e+17
19285.0	6.407310570859178e+17
19286.0	6.406100854592852e+17
19287.0	6.40484101988898e+17
19288.0	6.398070589052238e+17
19289.0	6.38920764511571e+17
19290.0	6.401009199524521e+17
19291.0	6.399616681508863e+17
19292.0	6.398435572492969e+17
19293.0	6.397142362314068e+17
19294.0	6.395854313226237e+17
19295.0	6.39456123097361e+17
19296.0	6.393266403191465e+17
19297.0	6.39195965100305e+17
19298.0	6.390663996243967e+17
19299.0	6.389371238350847e+17
19300.0	6.388068307173375e+17
19301.0	6.386761672425471e+17
19302.0	6.385451843715071e+17
19303.0	6.384116037582847e+17
19304.0	6.382819639033855e+17
19305.0	6.381516733022208e+17
19306.0	6.380193040039933e+17
19307.0	6.378851657580543e+17
19308.0	6.377543349305343e+17
19309.0	6.375661417529343e+17
19310.0	6.374141728216403e+17
19311.0	6.373517990472361e+17
19312.0	6.372260203986944e+17
19313.0	6.370922346840063e+17
19314.0	6.356269811455323e+17
19315.0	6.355718557575866e+17
19316.0	6.366869279735807e+17
19317.0	6.365572575002623e+17
19318.0	6.364216736874495e+17
19319.0	6.36287234220578e+17
19320.0	6.361513740730367e+17
19321.0	6.360156819073706e+17
19322.0	6.35865922535424e+17
19323.0	6.356423952826368e+17
19324.0	6.355304495185919e+17
19325.0	6.353404624371711e+17
19326.0	6.352556838092799e+17
19327.0	6.351173284003837e+17
19328.0	6.349791528572244e+17
19329.0	6.348398565261311e+17
19330.0	6.346983864969898e+17
19331.0	6.345578221578921e+17
19332.0	6.344179640696831e+17
19333.0	6.342763607315796e+17
19334.0	6.341348925898751e+17
19335.0	6.339926616440831e+17
19336.0	6.338484885258239e+17
19337.0	6.337053188248916e+17
19338.0	6.335525189320703e+17
19339.0	6.33415639568657e+17
19340.0	6.332674629872298e+17
19341.0	6.331227070005247e+17
19342.0	6.329581977294163e+17
19343.0	6.328281044702548e+17
19344.0	6.326793396376916e+17
19345.0	6.32451718534485e+17
19346.0	6.323460179492863e+17
19347.0	6.322247327285247e+17
19348.0	6.320753221828607e+17
19349.0	6.319202965826218e+17
19350.0	6.317659535354537e+17
19351.0	6.316112994806442e+17
19352.0	6.314529611492009e+17
19353.0	6.312985531602259e+17
19354.0	6.311400540471295e+17
19355.0	6.309769263797588e+17
19356.0	6.308193151309139e+17
19357.0	6.306571062957396e+17
19358.0	6.304917078321834e+17
19359.0	6.30321451106304e+17
19360.0	6.301606756046163e+17
19361.0	6.299346876934825e+17
19362.0	6.297220178859347e+17
19363.0	6.29550800175104e+17
19364.0	6.293778662948863e+17
19365.0	6.29203396600354e+17
19366.0	6.290270126254764e+17
19367.0	6.288487806402559e+17
19368.0	6.286685989328211e+17
19369.0	6.284817736575658e+17
19370.0	6.282856387051519e+17
19371.0	6.281131507493546e+17
19372.0	6.279263759455571e+17
19373.0	6.27734285910016e+17
19374.0	6.275413639342761e+17
19375.0	6.273449713816916e+17
19376.0	6.270472120784212e+17
19377.0	6.268053554375337e+17
19378.0	6.266000834035711e+17
19379.0	6.263915077959679e+17
19380.0	6.261566235563348e+17
19381.0	6.259411241314985e+17
19382.0	6.257189319955795e+17
19383.0	6.25494703804689e+17
19384.0	6.252273430691836e+17
19385.0	6.248634363762004e+17
19386.0	6.246274101673983e+17
19387.0	6.243865904982697e+17
19388.0	6.24140912496913e+17
19389.0	6.238901286294868e+17
19390.0	6.235039238979585e+17
19391.0	6.214051651999034e+17
19392.0	6.228573271971154e+17
19393.0	6.226054120559956e+17
19394.0	6.222106502452562e+17
19395.0	6.217591706091519e+17
19396.0	6.214596755630761e+17
19397.0	6.211010229349037e+17
19398.0	6.205177531640489e+17
19399.0	6.201635708250793e+17
19400.0	6.196384201965564e+17
19401.0	6.191258842868393e+17
19402.0	6.185867353085274e+17
19403.0	6.179482478051327e+17
19404.0	6.17270140696439e+17
19405.0	6.166414747850071e+17
19406.0	6.159370122078889e+17
19407.0	6.154906508110506e+17
19408.0	6.149823460453034e+17
19409.0	6.144907873878015e+17
19410.0	6.139939615932415e+17
19411.0	6.134769024761855e+17
19412.0	6.129394747004244e+17
19413.0	6.1238030120605e+17
19414.0	6.117971763483988e+17
19415.0	6.111810142164308e+17
19416.0	6.104500233655636e+17
19417.0	6.097779176068436e+17
19418.0	6.091204336812032e+17
19419.0	6.083660653876564e+17
19420.0	6.075151486200489e+17
19421.0	6.067272184146602e+17
19422.0	6.057419596977491e+17
19423.0	6.048190639898623e+17
19424.0	6.036655484611242e+17
19425.0	6.024984006754301e+17
19426.0	6.011553230181718e+17
19427.0	5.996188513861628e+17
19428.0	5.977976337683794e+17
19429.0	5.955301143128742e+17
19430.0	5.926816397131776e+17
19431.0	5.898257428032174e+17
19432.0	5.882917428745555e+17
19433.0	5.863673474056191e+17
19434.0	5.842736673805652e+17
19435.0	5.819983242898088e+17
19436.0	5.795614284229289e+17
19437.0	5.770857249680042e+17
19438.0	5.7203768716602086e+17
19439.0	5.710402689520984e+17
19440.0	5.6742313040281606e+17
19441.0	5.626546151402146e+17
19442.0	5.559270944800775e+17
19443.0	5.498433948702037e+17
19444.0	5.4388842620955264e+17
19445.0	5.3699410248335405e+17
19446.0	5.279692861647537e+17
19447.0	5.1558939721291066e+17
19448.0	5.020221083484167e+17
19449.0	4.815829921868458e+17
19450.0	4.469844199429445e+17
19451.0	4.373945606908573e+17
19452.0	4.6521325247092115e+17
19453.0	4.930188097880069e+17
19454.0	5.0898259561239834e+17
19455.0	5.213709432171181e+17
19456.0	5.3210019654533146e+17
19457.0	5.39567761880951e+17
19458.0	5.4363602334078605e+17
19459.0	5.5109885267804256e+17
19460.0	5.57891675575636e+17
19461.0	5.633104318300151e+17
19462.0	5.672028921834158e+17
19463.0	5.703539182185127e+17
19464.0	5.731236302203563e+17
19465.0	5.755782778497707e+17
19466.0	5.777857544454141e+17
19467.0	5.798749478234793e+17
19468.0	5.818392021128534e+17
19469.0	5.835899467552083e+17
19470.0	5.852495064596479e+17
19471.0	5.870899700607656e+17
19472.0	5.897741009944584e+17
19473.0	5.920792131578537e+17
19474.0	5.937836307338583e+17
19475.0	5.952210905071612e+17
19476.0	5.964690658164733e+17
19477.0	5.97504670511923e+17
19478.0	5.98378378568226e+17
19479.0	5.991686233303721e+17
19480.0	5.999176512962559e+17
19481.0	6.005549142725972e+17
19482.0	6.011195244238163e+17
19483.0	6.017331867506003e+17
19484.0	6.021988271259647e+17
19485.0	6.026369421716137e+17
19486.0	6.030789595977044e+17
19487.0	6.035301085129386e+17
19488.0	6.038908317990912e+17
19489.0	6.042248969278804e+17
19490.0	6.044915529504082e+17
19491.0	6.048349450229076e+17
19492.0	6.05110427329058e+17
19493.0	6.053657620862292e+17
19494.0	6.056539920007167e+17
19495.0	6.058773198842538e+17
19496.0	6.061886901234344e+17
19497.0	6.065398371145044e+17
19498.0	6.069338234683391e+17
19499.0	6.046061811815748e+17
19500.0	6.078966972547068e+17
19501.0	6.080234999425705e+17
19502.0	6.084137982448979e+17
19503.0	6.085951175873876e+17
19504.0	6.087158755841363e+17
19505.0	6.090712932854442e+17
19506.0	6.091404387636563e+17
19507.0	6.09201201086464e+17
19508.0	6.094542884656467e+17
19509.0	6.095569455939583e+17
19510.0	6.095871540898474e+17
19511.0	6.067988653757766e+17
19512.0	6.093196090146808e+17
19513.0	6.09116446016579e+17
19514.0	6.093298456330231e+17
19515.0	6.098622535958528e+17
19516.0	6.099104264355839e+17
19517.0	6.099086906228736e+17
19518.0	6.099882307048788e+17
19519.0	6.100644484786857e+17
19520.0	6.100512392871936e+17
19521.0	6.100355875427668e+17
19522.0	6.100138792233642e+17
19523.0	6.099915687417171e+17
19524.0	6.099646621417471e+17
19525.0	6.099391163837097e+17
19526.0	6.099231869064531e+17
19527.0	6.09934766051601e+17
19528.0	6.099778475655167e+17
19529.0	6.09936698647074e+17
19530.0	6.098931805760169e+17
19531.0	6.098470922354687e+17
19532.0	6.097987616899071e+17
19533.0	6.097483047720276e+17
19534.0	6.09695671849233e+17
19535.0	6.096407870745257e+17
19536.0	6.095832262639615e+17
19537.0	6.095266513245524e+17
19538.0	6.094628970648916e+17
19539.0	6.093833855041536e+17
19540.0	6.093405090917033e+17
19541.0	6.092767000963753e+17
19542.0	6.092102059775316e+17
19543.0	6.091425229832191e+17
19544.0	6.091042999413418e+17
19545.0	6.090798198161407e+17
19546.0	6.089907321001302e+17
19547.0	6.089528006322857e+17
19548.0	6.088784218510675e+17
19549.0	6.087990453469183e+17
19550.0	6.087265555404115e+17
19551.0	6.086490775180628e+17
19552.0	6.085704395609428e+17
19553.0	6.084899592557908e+17
19554.0	6.084088848973823e+17
19555.0	6.083283755117225e+17
19556.0	6.082466821439488e+17
19557.0	6.081633483139753e+17
19558.0	6.080794562221395e+17
19559.0	6.07994367705088e+17
19560.0	6.079081037343402e+17
19561.0	6.078218276001108e+17
19562.0	6.077360804375209e+17
19563.0	6.076484045242367e+17
19564.0	6.075601516844372e+17
19565.0	6.07471225938466e+17
19566.0	6.073808622452735e+17
19567.0	6.072914504493738e+17
19568.0	6.071996891441833e+17
19569.0	6.071091960567124e+17
19570.0	6.070177298907133e+17
19571.0	6.069252212304553e+17
19572.0	6.06831334531618e+17
19573.0	6.067383527538687e+17
19574.0	6.066416412611924e+17
19575.0	6.065511894177107e+17
19576.0	6.064565791315284e+17
19577.0	6.063603034969428e+17
19578.0	6.062642472244563e+17
19579.0	6.0616909272733e+17
19580.0	6.060729016079702e+17
19581.0	6.059765428562602e+17
19582.0	6.058802216435711e+17
19583.0	6.057828692612436e+17
19584.0	6.056842408318292e+17
19585.0	6.055826235413844e+17
19586.0	6.05481982894626e+17
19587.0	6.053793196845738e+17
19588.0	6.052720754556927e+17
19589.0	6.051895093930665e+17
19590.0	6.050884989485055e+17
19591.0	6.049926839883092e+17
19592.0	6.048927765757951e+17
19593.0	6.047917184559786e+17
19594.0	6.046805472400723e+17
19595.0	6.045896282210303e+17
19596.0	6.04261300760303e+17
19597.0	6.043833398373034e+17
19598.0	6.042749354639359e+17
19599.0	6.041862751475028e+17
19600.0	6.040844898052777e+17
19601.0	6.039797027394902e+17
19602.0	6.038783270409555e+17
19603.0	6.037353285375314e+17
19604.0	6.036706162988372e+17
19605.0	6.035604917714943e+17
19606.0	6.03469462442257e+17
19607.0	6.034241678737408e+17
19608.0	6.033272424016554e+17
19609.0	6.03222010110498e+17
19610.0	6.03120652587281e+17
19611.0	6.030166912401407e+17
19612.0	6.029130960557395e+17
19613.0	6.02809050333184e+17
19614.0	6.027032834779817e+17
19615.0	6.026003274356052e+17
19616.0	6.02480921752371e+17
19617.0	6.023917187629056e+17
19618.0	6.022651451539453e+17
19619.0	6.021550750826493e+17
19620.0	6.020513618984959e+17
19621.0	6.019728208297983e+17
19622.0	6.018678036365311e+17
19623.0	6.017626885062655e+17
19624.0	6.016574727127039e+17
19625.0	6.015519103298218e+17
19626.0	6.014466606323028e+17
19627.0	6.013410261073919e+17
19628.0	6.011958565623126e+17
19629.0	6.011258312589311e+17
19630.0	6.009426019003052e+17
19631.0	5.99133377405474e+17
19632.0	6.00810981634867e+17
19633.0	6.007034475096746e+17
19634.0	6.006004898594815e+17
19635.0	6.004928576574803e+17
19636.0	6.003883902675625e+17
19637.0	6.002666173890559e+17
19638.0	6.001755765953876e+17
19639.0	6.000683122338474e+17
19640.0	5.999594710237184e+17
19641.0	5.998280353076566e+17
19642.0	5.997501941983913e+17
19643.0	5.996425851349674e+17
19644.0	5.995345246246228e+17
19645.0	5.994194789203967e+17
19646.0	5.993237256164692e+17
19647.0	5.992169861021695e+17
19648.0	5.991101949979306e+17
19649.0	5.990032503122601e+17
19650.0	5.988964880089087e+17
19651.0	5.987895772271958e+17
19652.0	5.986826275083606e+17
19653.0	5.985748031373311e+17
19654.0	5.984686120282794e+17
19655.0	5.983613710849364e+17
19656.0	5.982541842481151e+17
19657.0	5.981473459579561e+17
19658.0	5.980401982679721e+17
19659.0	5.979329541089962e+17
19660.0	5.978258097744553e+17
19661.0	5.977185723962708e+17
19662.0	5.976113110406484e+17
19663.0	5.975016157304148e+17
19664.0	5.973899283354963e+17
19665.0	5.972893803828564e+17
