# Flux units: erg / (cm m2 s)
# Wavelength units: Angstrom
wave	flux
19000.0	5.562257091417428e+17
19001.0	5.561094122067286e+17
19002.0	5.560210045272064e+17
19003.0	5.5591832782547616e+17
19004.0	5.5581575765906765e+17
19005.0	5.557123363285673e+17
19006.0	5.556107827216383e+17
19007.0	5.5550893187836576e+17
19008.0	5.5539736304244045e+17
19009.0	5.552914334482431e+17
19010.0	5.5512868424690323e+17
19011.0	5.550946975219711e+17
19012.0	5.549806683772244e+17
19013.0	5.548936687954602e+17
19014.0	5.547845418134185e+17
19015.0	5.5468315499997856e+17
19016.0	5.545790548213758e+17
19017.0	5.544853327489705e+17
19018.0	5.543814327784787e+17
19019.0	5.5427968574423034e+17
19020.0	5.541763705296211e+17
19021.0	5.5407661271394976e+17
19022.0	5.539738562505385e+17
19023.0	5.5386745927106554e+17
19024.0	5.5376696933963085e+17
19025.0	5.5366777481898656e+17
19026.0	5.535623685341183e+17
19027.0	5.5345866534638925e+17
19028.0	5.53362183491857e+17
19029.0	5.5325769939462816e+17
19030.0	5.5315931905829536e+17
19031.0	5.5305801997571405e+17
19032.0	5.5295499843229005e+17
19033.0	5.528409450304853e+17
19034.0	5.527495278679381e+17
19035.0	5.526422912587092e+17
19036.0	5.5204342350042426e+17
19037.0	5.524427865325568e+17
19038.0	5.5234146703769594e+17
19039.0	5.52242643992576e+17
19040.0	5.521416534709588e+17
19041.0	5.520388696746666e+17
19042.0	5.51912486417203e+17
19043.0	5.5183665500869965e+17
19044.0	5.517333959977642e+17
19045.0	5.516330314760191e+17
19046.0	5.515221513448106e+17
19047.0	5.514268283764735e+17
19048.0	5.512941121394004e+17
19049.0	5.5119075435260576e+17
19050.0	5.5111731132061005e+17
19051.0	5.5094335997214694e+17
19052.0	5.509086355390462e+17
19053.0	5.508202816864255e+17
19054.0	5.507190095871999e+17
19055.0	5.505783265492992e+17
19056.0	5.5051068668641274e+17
19057.0	5.50413807910912e+17
19058.0	5.502984176446122e+17
19059.0	5.5020607962262176e+17
19060.0	5.501074430143145e+17
19061.0	5.5000947260129274e+17
19062.0	5.4990743000842234e+17
19063.0	5.498063883862014e+17
19064.0	5.496880327469739e+17
19065.0	5.4958056803751245e+17
19066.0	5.494903811342336e+17
19067.0	5.494001219491156e+17
19068.0	5.493006248094377e+17
19069.0	5.491996628090879e+17
19070.0	5.4909429748858874e+17
19071.0	5.489966569575764e+17
19072.0	5.488912473172651e+17
19073.0	5.4879459265740794e+17
19074.0	5.486942546296831e+17
19075.0	5.48593210700595e+17
19076.0	5.4848934323595936e+17
19077.0	5.483887722845524e+17
19078.0	5.482839145447423e+17
19079.0	5.4818887147629216e+17
19080.0	5.4808643496837114e+17
19081.0	5.4798100750226765e+17
19082.0	5.4788058558846285e+17
19083.0	5.477728598534825e+17
19084.0	5.476557357318143e+17
19085.0	5.475818934020777e+17
19086.0	5.474279992153428e+17
19087.0	5.473594570178558e+17
19088.0	5.472640182168234e+17
19089.0	5.4715109182450336e+17
19090.0	5.4707591710419616e+17
19091.0	5.4697502654682445e+17
19092.0	5.4685997259380045e+17
19093.0	5.46778014425634e+17
19094.0	5.466774814326783e+17
19095.0	5.4657687706664954e+17
19096.0	5.4647391403376634e+17
19097.0	5.4637531978792954e+17
19098.0	5.4626938711790925e+17
19099.0	5.4616709363575456e+17
19100.0	5.460710429556735e+17
19101.0	5.4597309938619725e+17
19102.0	5.45855176249617e+17
19103.0	5.457721336441513e+17
19104.0	5.456722050504021e+17
19105.0	5.455589727535103e+17
19106.0	5.454691921384789e+17
19107.0	5.4536509007243936e+17
19108.0	5.4526552456560634e+17
19109.0	5.4514073080954874e+17
19110.0	5.4506780241865376e+17
19111.0	5.449660337837396e+17
19112.0	5.4486518894428154e+17
19113.0	5.447685593104383e+17
19114.0	5.446662711410687e+17
19115.0	5.44561040667443e+17
19116.0	5.4446536272117754e+17
19117.0	5.443647415779326e+17
19118.0	5.442526520191657e+17
19119.0	5.429598934269933e+17
19120.0	5.440601662510421e+17
19121.0	5.439642592258729e+17
19122.0	5.4386762721525754e+17
19123.0	5.4376765255406925e+17
19124.0	5.4366530377700685e+17
19125.0	5.435671286120447e+17
19126.0	5.434648180730538e+17
19127.0	5.43111092843315e+17
19128.0	5.432629472002047e+17
19129.0	5.4315638377676794e+17
19130.0	5.430657610153983e+17
19131.0	5.42967669666611e+17
19132.0	5.4286758958858234e+17
19133.0	5.427605162076842e+17
19134.0	5.4266765012282016e+17
19135.0	5.4256808908991136e+17
19136.0	5.424688852718932e+17
19137.0	5.423463463037609e+17
19138.0	5.4226735658434554e+17
19139.0	5.4216975995371514e+17
19140.0	5.4206810393586336e+17
19141.0	5.4196760974021965e+17
19142.0	5.418643562517844e+17
19143.0	5.417598300717055e+17
19144.0	5.416634072869545e+17
19145.0	5.4156906697413965e+17
19146.0	5.413830580502528e+17
19147.0	5.41356394090769e+17
19148.0	5.412657895746218e+17
19149.0	5.411646981799936e+17
19150.0	5.410703487096149e+17
19151.0	5.4097110721276576e+17
19152.0	5.408715867247955e+17
19153.0	5.407607172890623e+17
19154.0	5.406550550118399e+17
19155.0	5.4057388187757216e+17
19156.0	5.4047429595845965e+17
19157.0	5.403707528533332e+17
19158.0	5.402500244264276e+17
19159.0	5.4017329110275405e+17
19160.0	5.400756856640852e+17
19161.0	5.399773379035135e+17
19162.0	5.398316066712235e+17
19163.0	5.397765365781845e+17
19164.0	5.3968016615232845e+17
19165.0	5.395687385945428e+17
19166.0	5.3946239788864845e+17
19167.0	5.393784616867156e+17
19168.0	5.392831218013524e+17
19169.0	5.391830938725034e+17
19170.0	5.3908543446712314e+17
19171.0	5.3898364912489805e+17
19172.0	5.388873459477162e+17
19173.0	5.3878840937676794e+17
19174.0	5.38680659734255e+17
19175.0	5.385899086271828e+17
19176.0	5.384909101902506e+17
19177.0	5.3837119818301434e+17
19178.0	5.3829200469032954e+17
19179.0	5.3819054147065165e+17
19180.0	5.3809427331590816e+17
19181.0	5.3797564728388256e+17
19182.0	5.378957875959124e+17
19183.0	5.377992337391615e+17
19184.0	5.3769978036005536e+17
19185.0	5.375999825586857e+17
19186.0	5.3750245639236256e+17
19187.0	5.373954437589674e+17
19188.0	5.3730467349790714e+17
19189.0	5.372067234272596e+17
19190.0	5.371077732947285e+17
19191.0	5.370047820201983e+17
19192.0	5.3691045219314336e+17
19193.0	5.368096726450175e+17
19194.0	5.36709108404497e+17
19195.0	5.3661391119537485e+17
19196.0	5.3651249572085766e+17
19197.0	5.3641427113301325e+17
19198.0	5.3631172704119456e+17
19199.0	5.359255604079273e+17
19200.0	5.359111264097622e+17
19201.0	5.3601711108915194e+17
19202.0	5.359229692368213e+17
19203.0	5.3582460239216634e+17
19204.0	5.357236334013098e+17
19205.0	5.3562757677929805e+17
19206.0	5.3552858211723936e+17
19207.0	5.354167746953214e+17
19208.0	5.352986309383508e+17
19209.0	5.3523423872505165e+17
19210.0	5.351357879244117e+17
19211.0	5.350393621337428e+17
19212.0	5.3494051350336845e+17
19213.0	5.348292199535956e+17
19214.0	5.3472793771813536e+17
19215.0	5.346448521210538e+17
19216.0	5.345476961020586e+17
19217.0	5.344476238533972e+17
19218.0	5.342379723369127e+17
19219.0	5.342320945790975e+17
19220.0	5.3415121427715405e+17
19221.0	5.3401187152909645e+17
19222.0	5.339566784730452e+17
19223.0	5.338574903137621e+17
19224.0	5.337561258000382e+17
19225.0	5.3364387895487136e+17
19226.0	5.3356323640005965e+17
19227.0	5.334652939490644e+17
19228.0	5.333705741915477e+17
19229.0	5.332723950419967e+17
19230.0	5.3317324847622816e+17
19231.0	5.3307465660716365e+17
19232.0	5.329774352269312e+17
19233.0	5.3287102447616e+17
19234.0	5.327739760410623e+17
19235.0	5.326741762124457e+17
19236.0	5.325807486500862e+17
19237.0	5.324807081383252e+17
19238.0	5.323717993999019e+17
19239.0	5.3228741042285216e+17
19240.0	5.321887239023275e+17
19241.0	5.3208861432436045e+17
19242.0	5.319916805335722e+17
19243.0	5.318742508568575e+17
19244.0	5.3179833262626125e+17
19245.0	5.316997267062783e+17
19246.0	5.316003337251498e+17
19247.0	5.3150366690181114e+17
19248.0	5.31407246074402e+17
19249.0	5.3130918904900256e+17
19250.0	5.3120692898146976e+17
19251.0	5.310975871112532e+17
19252.0	5.3097774815641594e+17
19253.0	5.3091481318413645e+17
19254.0	5.308208585375742e+17
19255.0	5.3069756305681056e+17
19256.0	5.3062206250898765e+17
19257.0	5.3052802481520634e+17
19258.0	5.3043029655333536e+17
19259.0	5.303228576388436e+17
19260.0	5.302220018941951e+17
19261.0	5.301355007355562e+17
19262.0	5.300317128927915e+17
19263.0	5.2993216339421856e+17
19264.0	5.297638782708393e+17
19265.0	5.297164064391167e+17
19266.0	5.2960499495949645e+17
19267.0	5.29551899824401e+17
19268.0	5.294534432216405e+17
19269.0	5.293562941931519e+17
19270.0	5.292583178381993e+17
19271.0	5.291116471517184e+17
19272.0	5.290590214291456e+17
19273.0	5.2891329411153914e+17
19274.0	5.2880613034338976e+17
19275.0	5.2877166875333965e+17
19276.0	5.2867143460454394e+17
19277.0	5.2857478791386445e+17
19278.0	5.2847775471807136e+17
19279.0	5.2837796376739834e+17
19280.0	5.2827096182947834e+17
19281.0	5.281841384084819e+17
19282.0	5.2808911931746976e+17
19283.0	5.279877607456767e+17
19284.0	5.278900913438719e+17
19285.0	5.277736853569534e+17
19286.0	5.276936149052074e+17
19287.0	5.27600851161361e+17
19288.0	5.2736867105942176e+17
19289.0	5.2706600435056576e+17
19290.0	5.2730837437426336e+17
19291.0	5.271773991228758e+17
19292.0	5.271144132597077e+17
19293.0	5.270160424304639e+17
19294.0	5.269180478302889e+17
19295.0	5.2682203308141216e+17
19296.0	5.2671781888764576e+17
19297.0	5.2662344243391136e+17
19298.0	5.2652502861305165e+17
19299.0	5.2642516440186874e+17
19300.0	5.2633286944139936e+17
19301.0	5.262357343240191e+17
19302.0	5.2613704514710176e+17
19303.0	5.260303983269205e+17
19304.0	5.259390512092499e+17
19305.0	5.258432142988628e+17
19306.0	5.2574674467771725e+17
19307.0	5.256431511011326e+17
19308.0	5.2554856688954016e+17
19309.0	5.254357907232083e+17
19310.0	5.2533174975419725e+17
19311.0	5.2524533227192314e+17
19312.0	5.2515176580819616e+17
19313.0	5.250550956993194e+17
19314.0	5.2397981009182656e+17
19315.0	5.239716170782053e+17
19316.0	5.2475231909969914e+17
19317.0	5.2466244893627725e+17
19318.0	5.2456445608372896e+17
19319.0	5.244691422729555e+17
19320.0	5.2436861606079136e+17
19321.0	5.242677190721535e+17
19322.0	5.241647756126889e+17
19323.0	5.2407173441563296e+17
19324.0	5.23977262960913e+17
19325.0	5.23870674231842e+17
19326.0	5.2378140357427194e+17
19327.0	5.23681224790289e+17
19328.0	5.2357415287739725e+17
19329.0	5.234867681187157e+17
19330.0	5.23382760284706e+17
19331.0	5.2328284993617914e+17
19332.0	5.231906452231509e+17
19333.0	5.230904134511273e+17
19334.0	5.2299289763075405e+17
19335.0	5.228685826544981e+17
19336.0	5.2278425764058445e+17
19337.0	5.2268491506100896e+17
19338.0	5.22556901897011e+17
19339.0	5.224864782046547e+17
19340.0	5.223588950267221e+17
19341.0	5.222722371409236e+17
19342.0	5.221327872283987e+17
19343.0	5.2208746078317216e+17
19344.0	5.2197725313870496e+17
19345.0	5.2157548600142445e+17
19346.0	5.2165698118833485e+17
19347.0	5.216617000599551e+17
19348.0	5.215814949710507e+17
19349.0	5.2147675942529696e+17
19350.0	5.213674154579285e+17
19351.0	5.212677234229246e+17
19352.0	5.211511520406186e+17
19353.0	5.210712197212842e+17
19354.0	5.209701359463083e+17
19355.0	5.2085484655301965e+17
19356.0	5.2076630269842765e+17
19357.0	5.2066460928136525e+17
19358.0	5.205620106635946e+17
19359.0	5.204516267884543e+17
19360.0	5.2034245842261325e+17
19361.0	5.202484654680747e+17
19362.0	5.2015064416255994e+17
19363.0	5.200469906773332e+17
19364.0	5.1994287763619834e+17
19365.0	5.198385820729343e+17
19366.0	5.197338775650304e+17
19367.0	5.1962892538347514e+17
19368.0	5.1952367030326605e+17
19369.0	5.1941138850556576e+17
19370.0	5.193059249684479e+17
19371.0	5.1919733751371085e+17
19372.0	5.1909770175228576e+17
19373.0	5.189866939744256e+17
19374.0	5.188703083298815e+17
19375.0	5.187618568404992e+17
19376.0	5.186530245083134e+17
19377.0	5.185415129246378e+17
19378.0	5.1843139720533325e+17
19379.0	5.1832047918557856e+17
19380.0	5.1820856110394016e+17
19381.0	5.180949843847849e+17
19382.0	5.179715802016425e+17
19383.0	5.178523562016766e+17
19384.0	5.177502720152918e+17
19385.0	5.176349463412736e+17
19386.0	5.175011257439573e+17
19387.0	5.1738229097540256e+17
19388.0	5.1726232605163514e+17
19389.0	5.1714080832662176e+17
19390.0	5.170170751702356e+17
19391.0	5.1642907198750637e+17
19392.0	5.1675932819892896e+17
19393.0	5.166184346768724e+17
19394.0	5.1648638316707834e+17
19395.0	5.1635256047261005e+17
19396.0	5.162227991227049e+17
19397.0	5.1608746633898656e+17
19398.0	5.159031312220159e+17
19399.0	5.156524495557972e+17
19400.0	5.156116650524671e+17
19401.0	5.154558221221886e+17
19402.0	5.152848299950079e+17
19403.0	5.1513054447970976e+17
19404.0	5.1493322617432723e+17
19405.0	5.147546920594089e+17
19406.0	5.145602111307775e+17
19407.0	5.1434425452680525e+17
19408.0	5.1401047866518214e+17
19409.0	5.1389814080361805e+17
19410.0	5.136578012424874e+17
19411.0	5.1345128496824314e+17
19412.0	5.1325539468356256e+17
19413.0	5.130504145032534e+17
19414.0	5.1283885996113914e+17
19415.0	5.1262435360767994e+17
19416.0	5.12337089012258e+17
19417.0	5.1211664806816403e+17
19418.0	5.118772731969535e+17
19419.0	5.1158592474753696e+17
19420.0	5.1129628799358285e+17
19421.0	5.1099538995281894e+17
19422.0	5.106245868453887e+17
19423.0	5.1025427258408966e+17
19424.0	5.098401827913728e+17
19425.0	5.0933278532348576e+17
19426.0	5.087226148246869e+17
19427.0	5.079848164786175e+17
19428.0	5.071145792787796e+17
19429.0	5.060068134005419e+17
19430.0	5.0518923960210765e+17
19431.0	5.045203975012353e+17
19432.0	5.039606398102185e+17
19433.0	5.032420508172287e+17
19434.0	5.0249107802248525e+17
19435.0	5.0162016574941843e+17
19436.0	5.0057199610757094e+17
19437.0	4.99382722319701e+17
19438.0	4.967826790722215e+17
19439.0	4.9494108447703014e+17
19440.0	4.9076284228457894e+17
19441.0	4.877943730514601e+17
19442.0	4.855195209738924e+17
19443.0	4.830504192835584e+17
19444.0	4.802111333553489e+17
19445.0	4.759686906292907e+17
19446.0	4.674377396955808e+17
19447.0	4.588316238981798e+17
19448.0	4.506335347474438e+17
19449.0	4.3644771767419034e+17
19450.0	3.991325774970933e+17
19451.0	3.77892588556566e+17
19452.0	4.222030272528411e+17
19453.0	4.447834306073953e+17
19454.0	4.5471342855017766e+17
19455.0	4.620499316725071e+17
19456.0	4.717803635823945e+17
19457.0	4.774180368504145e+17
19458.0	4.7756906912372563e+17
19459.0	4.829109982418268e+17
19460.0	4.851662743142398e+17
19461.0	4.8726490879098835e+17
19462.0	4.911832802263056e+17
19463.0	4.944189965991939e+17
19464.0	4.9629335066596666e+17
19465.0	4.9755577402436243e+17
19466.0	4.9846467166207994e+17
19467.0	4.9919690947952634e+17
19468.0	4.9983821751255046e+17
19469.0	5.003107160642899e+17
19470.0	5.008650249349802e+17
19471.0	5.0129425315921914e+17
19472.0	5.0174539249745914e+17
19473.0	5.0255132388666054e+17
19474.0	5.034058150401367e+17
19475.0	5.0387637009121274e+17
19476.0	5.044568569413632e+17
19477.0	5.048169723330557e+17
19478.0	5.0507551936785056e+17
19479.0	5.0532145594804896e+17
19480.0	5.05465705402641e+17
19481.0	5.056290321596415e+17
19482.0	5.0571861543266976e+17
19483.0	5.0584557289035085e+17
19484.0	5.059150088940201e+17
19485.0	5.0596048451665914e+17
19486.0	5.0601773774493e+17
19487.0	5.0608723938945696e+17
19488.0	5.061153691882836e+17
19489.0	5.061180062171136e+17
19490.0	5.05923659715925e+17
19491.0	5.0614453987355296e+17
19492.0	5.061990441549823e+17
19493.0	5.062193745756159e+17
19494.0	5.0629645008459085e+17
19495.0	5.062831962237609e+17
19496.0	5.0626910629833376e+17
19497.0	5.0630395935675725e+17
19498.0	5.0627181805567994e+17
19499.0	5.0554100790940954e+17
19500.0	5.0626543761053005e+17
19501.0	5.062660575286612e+17
19502.0	5.062292493653334e+17
19503.0	5.0618471431536634e+17
19504.0	5.061428713794217e+17
19505.0	5.0612716860429645e+17
19506.0	5.060753968420181e+17
19507.0	5.060165536929108e+17
19508.0	5.059633139242325e+17
19509.0	5.0590736729156256e+17
19510.0	5.058342466617342e+17
19511.0	5.041998331379696e+17
19512.0	5.056293187005095e+17
19513.0	5.0541795017577766e+17
19514.0	5.0545404516761574e+17
19515.0	5.054735614738432e+17
19516.0	5.054722794848255e+17
19517.0	5.054070234546175e+17
19518.0	5.053502860558334e+17
19519.0	5.052780270059519e+17
19520.0	5.051966662464853e+17
19521.0	5.051358687614293e+17
19522.0	5.0505587877041485e+17
19523.0	5.049850495587668e+17
19524.0	5.0490590311219194e+17
19525.0	5.048343114459819e+17
19526.0	5.047590399071572e+17
19527.0	5.0468050191428256e+17
19528.0	5.046016365559807e+17
19529.0	5.0452252359393274e+17
19530.0	5.044510700601343e+17
19531.0	5.043770225590271e+17
19532.0	5.042971574883668e+17
19533.0	5.042168632705023e+17
19534.0	5.0413575682566816e+17
19535.0	5.04052296257809e+17
19536.0	5.0396776173841056e+17
19537.0	5.038914820287145e+17
19538.0	5.037871529110187e+17
19539.0	5.036426648704342e+17
19540.0	5.0364013871103994e+17
19541.0	5.035589066468009e+17
19542.0	5.034759662425428e+17
19543.0	5.033854404395007e+17
19544.0	5.0330867572845216e+17
19545.0	5.031557705586002e+17
19546.0	5.0300592450437114e+17
19547.0	5.0305706956772685e+17
19548.0	5.029729367927466e+17
19549.0	5.0287447124213766e+17
19550.0	5.028029837344768e+17
19551.0	5.027201174295892e+17
19552.0	5.026345598495402e+17
19553.0	5.025457388912639e+17
19554.0	5.024572641727828e+17
19555.0	5.02377000014097e+17
19556.0	5.0229711683802445e+17
19557.0	5.0221098764424525e+17
19558.0	5.021246359426388e+17
19559.0	5.020386020993706e+17
19560.0	5.0194593894891514e+17
19561.0	5.0186186552333645e+17
19562.0	5.0177528313501005e+17
19563.0	5.0169241459316045e+17
19564.0	5.016055216166228e+17
19565.0	5.0151852539030176e+17
19566.0	5.0142711437940045e+17
19567.0	5.01344726155264e+17
19568.0	5.0125931299908256e+17
19569.0	5.011719927627775e+17
19570.0	5.010878012675413e+17
19571.0	5.009996813172736e+17
19572.0	5.009079327348053e+17
19573.0	5.008262846655146e+17
19574.0	5.007335782438228e+17
19575.0	5.0065893452240205e+17
19576.0	5.005700641412436e+17
19577.0	5.0047877483506336e+17
19578.0	5.003894696443903e+17
19579.0	5.0030362727109965e+17
19580.0	5.0021594045262496e+17
19581.0	5.0012909032789325e+17
19582.0	5.000436496990206e+17
19583.0	4.9995558420479994e+17
19584.0	4.998671530371754e+17
19585.0	4.997634069976404e+17
19586.0	4.996715692862122e+17
19587.0	4.9960052015322445e+17
19588.0	4.9944669139763194e+17
19589.0	4.9942276827600205e+17
19590.0	4.993201175789566e+17
19591.0	4.992485145881258e+17
19592.0	4.991608252530687e+17
19593.0	4.9906949302517754e+17
19594.0	4.989485425098751e+17
19595.0	4.9889208934509216e+17
19596.0	4.9880127832937805e+17
19597.0	4.987171855400959e+17
19598.0	4.985558961662634e+17
19599.0	4.9854106077320525e+17
19600.0	4.9845400344985594e+17
19601.0	4.9835595698012154e+17
19602.0	4.9826909322390176e+17
19603.0	4.981255029740883e+17
19604.0	4.980933927108607e+17
19605.0	4.9796879650652154e+17
19606.0	4.9792170160291834e+17
19607.0	4.978344316283562e+17
19608.0	4.977434469684564e+17
19609.0	4.976497987158015e+17
19610.0	4.9756471949612365e+17
19611.0	4.9747281299810976e+17
19612.0	4.97391615606784e+17
19613.0	4.97301584871424e+17
19614.0	4.97209005257523e+17
19615.0	4.971298157494271e+17
19616.0	4.9703563950380365e+17
19617.0	4.9694670529931936e+17
19618.0	4.9677907420774374e+17
19619.0	4.966668367298557e+17
19620.0	4.965873736133289e+17
19621.0	4.965913727423828e+17
19622.0	4.9651188292212045e+17
19623.0	4.9642299066067616e+17
19624.0	4.963323774763007e+17
19625.0	4.9624624136191994e+17
19626.0	4.9615697937257805e+17
19627.0	4.9606869151034016e+17
19628.0	4.9597222440577696e+17
19629.0	4.958589229028692e+17
19630.0	4.95775183273984e+17
19631.0	4.953939903163049e+17
19632.0	4.95622649160226e+17
19633.0	4.955316286390272e+17
19634.0	4.9544883762189645e+17
19635.0	4.9535473966994765e+17
19636.0	4.952623324419412e+17
19637.0	4.951300243805525e+17
19638.0	4.9509278028922874e+17
19639.0	4.95004990640401e+17
19640.0	4.9490400263536634e+17
19641.0	4.9464051233368794e+17
19642.0	4.947390171010389e+17
19643.0	4.9465020173516794e+17
19644.0	4.9455454944406176e+17
19645.0	4.9443499444360525e+17
19646.0	4.9437769752466765e+17
19647.0	4.9429876337978016e+17
19648.0	4.942100420362239e+17
19649.0	4.9412117899509754e+17
19650.0	4.9403359353896954e+17
19651.0	4.939445975384062e+17
19652.0	4.9385599810928634e+17
19653.0	4.937684430618623e+17
19654.0	4.936792874680319e+17
19655.0	4.9359039828241056e+17
