# Flux units: erg / (cm m2 s)
# Wavelength units: Angstrom
wave	flux
19000.0	6.158732895453181e+17
19001.0	6.157493508680361e+17
19002.0	6.156480826135892e+17
19003.0	6.155345481170943e+17
19004.0	6.154216564675924e+17
19005.0	6.153076417931946e+17
19006.0	6.151959465689087e+17
19007.0	6.150822678582612e+17
19008.0	6.149673916039167e+17
19009.0	6.148404621781674e+17
19010.0	6.147146976504489e+17
19011.0	6.146209599193087e+17
19012.0	6.144578387531092e+17
19013.0	6.144078776019626e+17
19014.0	6.142922646880255e+17
19015.0	6.141812030133588e+17
19016.0	6.14069989155362e+17
19017.0	6.13959757603362e+17
19018.0	6.138460867220819e+17
19019.0	6.137352203621716e+17
19020.0	6.136221090010452e+17
19021.0	6.13511464100386e+17
19022.0	6.133985117033812e+17
19023.0	6.132808892983977e+17
19024.0	6.131661645283327e+17
19025.0	6.130515468528297e+17
19026.0	6.129291972575231e+17
19027.0	6.127826110862676e+17
19028.0	6.127165336715263e+17
19029.0	6.126063845375999e+17
19030.0	6.124968242839551e+17
19031.0	6.123829952774144e+17
19032.0	6.122657312058026e+17
19033.0	6.121345930057043e+17
19034.0	6.119966510153727e+17
19035.0	6.116326533758975e+17
19036.0	6.08170118689587e+17
19037.0	6.11475957883426e+17
19038.0	6.115525978838356e+17
19039.0	6.114715219875156e+17
19040.0	6.113696261952852e+17
19041.0	6.112613480005631e+17
19042.0	6.11027704366148e+17
19043.0	6.110429836563795e+17
19044.0	6.109300186764627e+17
19045.0	6.10815404286498e+17
19046.0	6.107027946340351e+17
19047.0	6.105888430839124e+17
19048.0	6.104472426818218e+17
19049.0	6.101109107414354e+17
19050.0	6.102086319428948e+17
19051.0	6.096363390850386e+17
19052.0	6.097688486128297e+17
19053.0	6.09894527996177e+17
19054.0	6.098054156036778e+17
19055.0	6.096427974044332e+17
19056.0	6.095772491710463e+17
19057.0	6.094800316355924e+17
19058.0	6.09244875535155e+17
19059.0	6.092122510502569e+17
19060.0	6.091456732550484e+17
19061.0	6.090357820708179e+17
19062.0	6.089245073954132e+17
19063.0	6.08812672360994e+17
19064.0	6.086926155819689e+17
19065.0	6.085746693068116e+17
19066.0	6.084297939222528e+17
19067.0	6.083665126402729e+17
19068.0	6.082567157579776e+17
19069.0	6.081453982307667e+17
19070.0	6.080316094895443e+17
19071.0	6.079187110592511e+17
19072.0	6.077657542994601e+17
19073.0	6.076999272846676e+17
19074.0	6.075887980118013e+17
19075.0	6.074774504254121e+17
19076.0	6.073650674051753e+17
19077.0	6.072529038169427e+17
19078.0	6.071399772848127e+17
19079.0	6.070317503305043e+17
19080.0	6.069193481562793e+17
19081.0	6.068042693869567e+17
19082.0	6.066949744230399e+17
19083.0	6.065753548303018e+17
19084.0	6.064508295796054e+17
19085.0	6.063549677830141e+17
19086.0	6.061297972019199e+17
19087.0	6.059855309701117e+17
19088.0	6.059205681217535e+17
19089.0	6.058662200082432e+17
19090.0	6.0578616311808e+17
19091.0	6.056747396846932e+17
19092.0	6.054708012296877e+17
19093.0	6.054701785153535e+17
19094.0	6.053633980366847e+17
19095.0	6.052541053097299e+17
19096.0	6.051432160209578e+17
19097.0	6.050332695418195e+17
19098.0	6.048711823414611e+17
19099.0	6.047498476279124e+17
19100.0	6.046925171545427e+17
19101.0	6.045859659644927e+17
19102.0	6.044710295218857e+17
19103.0	6.043676230112598e+17
19104.0	6.042562129996457e+17
19105.0	6.040292589305859e+17
19106.0	6.040217934888959e+17
19107.0	6.038821107225939e+17
19108.0	6.03736895459601e+17
19109.0	6.035543241872724e+17
19110.0	6.035239575661226e+17
19111.0	6.034325516582912e+17
19112.0	6.033273246100137e+17
19113.0	6.032594753115475e+17
19114.0	6.031257364332544e+17
19115.0	6.030238600746324e+17
19116.0	6.029260644941823e+17
19117.0	6.028124314315433e+17
19118.0	6.026770879523497e+17
19119.0	6.02045451844539e+17
19120.0	6.024439865016319e+17
19121.0	6.023477830090751e+17
19122.0	6.02266335916851e+17
19123.0	6.021586182209535e+17
19124.0	6.020210956610217e+17
19125.0	6.019358490187092e+17
19126.0	6.018151709933567e+17
19127.0	6.015963664569683e+17
19128.0	6.015797291909119e+17
19129.0	6.014885639662248e+17
19130.0	6.013871253531306e+17
19131.0	6.012788938549929e+17
19132.0	6.011687803726505e+17
19133.0	6.010535424294911e+17
19134.0	6.009420945293312e+17
19135.0	6.008383524044799e+17
19136.0	6.007280591962112e+17
19137.0	6.006097511623337e+17
19138.0	6.005068204954964e+17
19139.0	6.003994419789823e+17
19140.0	6.002900105603753e+17
19141.0	6.00180200186402e+17
19142.0	6.000664624059731e+17
19143.0	5.999565148782591e+17
19144.0	5.998458067135145e+17
19145.0	5.99740184212275e+17
19146.0	5.995703794226516e+17
19147.0	5.995146030787241e+17
19148.0	5.993694502409558e+17
19149.0	5.992524990644223e+17
19150.0	5.991900526586538e+17
19151.0	5.990795671415465e+17
19152.0	5.989641792520191e+17
19153.0	5.98773529190946e+17
19154.0	5.98732106244642e+17
19155.0	5.986314529450666e+17
19156.0	5.985164385583101e+17
19157.0	5.983552067163476e+17
19158.0	5.981745705560748e+17
19159.0	5.981645855260671e+17
19160.0	5.980629056705875e+17
19161.0	5.979244161837737e+17
19162.0	5.976341570650112e+17
19163.0	5.976534830197417e+17
19164.0	5.976243969895082e+17
19165.0	5.974364930091688e+17
19166.0	5.974100226867199e+17
19167.0	5.972964941321556e+17
19168.0	5.972018483341993e+17
19169.0	5.970988566402388e+17
19170.0	5.969910404481023e+17
19171.0	5.968769736944297e+17
19172.0	5.967696423638356e+17
19173.0	5.96666146165009e+17
19174.0	5.965561714442237e+17
19175.0	5.964502362576211e+17
19176.0	5.963404251146922e+17
19177.0	5.962141282598911e+17
19178.0	5.96109391106321e+17
19179.0	5.959973744585385e+17
19180.0	5.958982280325801e+17
19181.0	5.957842915120468e+17
19182.0	5.956811031052287e+17
19183.0	5.955766104795818e+17
19184.0	5.954673852809215e+17
19185.0	5.953568784427689e+17
19186.0	5.952479518086484e+17
19187.0	5.951300619468799e+17
19188.0	5.950261590403754e+17
19189.0	5.949145526654291e+17
19190.0	5.948013511966719e+17
19191.0	5.94685487882786e+17
19192.0	5.945753172880042e+17
19193.0	5.944457420952916e+17
19194.0	5.943158641437354e+17
19195.0	5.942032182804479e+17
19196.0	5.94047280488994e+17
19197.0	5.938337688147284e+17
19198.0	5.933955252835667e+17
19199.0	5.918987293906258e+17
19200.0	5.919636281360384e+17
19201.0	5.931115915946666e+17
19202.0	5.933026801003178e+17
19203.0	5.93282395677218e+17
19204.0	5.932240135520255e+17
19205.0	5.9313973886976e+17
19206.0	5.930448741990399e+17
19207.0	5.929312320487423e+17
19208.0	5.928263715127295e+17
19209.0	5.927355588192938e+17
19210.0	5.92629721919215e+17
19211.0	5.925234524465834e+17
19212.0	5.924128132781396e+17
19213.0	5.922849300676607e+17
19214.0	5.921717406225747e+17
19215.0	5.920815776967338e+17
19216.0	5.919820446957567e+17
19217.0	5.918700871177556e+17
19218.0	5.917187062278825e+17
19219.0	5.916394849828863e+17
19220.0	5.915484008480767e+17
19221.0	5.914290140392106e+17
19222.0	5.913331595826516e+17
19223.0	5.912290798163284e+17
19224.0	5.911178167451647e+17
19225.0	5.910072086145705e+17
19226.0	5.909050224366932e+17
19227.0	5.907976118337535e+17
19228.0	5.90691624358161e+17
19229.0	5.905825203049812e+17
19230.0	5.904734679116458e+17
19231.0	5.903647128944639e+17
19232.0	5.902567569620991e+17
19233.0	5.901426872025087e+17
19234.0	5.900403541540864e+17
19235.0	5.899298822684672e+17
19236.0	5.898248724152319e+17
19237.0	5.897153289388031e+17
19238.0	5.895984819907242e+17
19239.0	5.894997366800383e+17
19240.0	5.893921864766804e+17
19241.0	5.892820754410154e+17
19242.0	5.891746479210495e+17
19243.0	5.890527362110804e+17
19244.0	5.889600621554345e+17
19245.0	5.888512572260351e+17
19246.0	5.887434186642772e+17
19247.0	5.886358000937642e+17
19248.0	5.885274089324543e+17
19249.0	5.88414616268527e+17
19250.0	5.882913201586175e+17
19251.0	5.88176411538227e+17
19252.0	5.880671652282367e+17
19253.0	5.879856726977194e+17
19254.0	5.878793136067924e+17
19255.0	5.877526874292221e+17
19256.0	5.8766198322845e+17
19257.0	5.875552356051625e+17
19258.0	5.874463052660735e+17
19259.0	5.873254572315988e+17
19260.0	5.871349677424637e+17
19261.0	5.871162545056425e+17
19262.0	5.870049834653012e+17
19263.0	5.868922652502698e+17
19264.0	5.867571366592512e+17
19265.0	5.866704464773119e+17
19266.0	5.865602122689194e+17
19267.0	5.864734732932436e+17
19268.0	5.863652153709908e+17
19269.0	5.862570795029844e+17
19270.0	5.861452828464468e+17
19271.0	5.860176793261396e+17
19272.0	5.859289860844202e+17
19273.0	5.858015813042176e+17
19274.0	5.856764026508627e+17
19275.0	5.856084815598931e+17
19276.0	5.854986583233876e+17
19277.0	5.853907639773865e+17
19278.0	5.852789678800895e+17
19279.0	5.8516924544669e+17
19280.0	5.850601596387327e+17
19281.0	5.849538097752746e+17
19282.0	5.84843208565282e+17
19283.0	5.847255147872255e+17
19284.0	5.846118283171156e+17
19285.0	5.845008442370729e+17
19286.0	5.843814210775721e+17
19287.0	5.842207629464916e+17
19288.0	5.827792117694455e+17
19289.0	5.817266569128599e+17
19290.0	5.838783459797674e+17
19291.0	5.838187208026796e+17
19292.0	5.83751709106722e+17
19293.0	5.836498696579753e+17
19294.0	5.835424689815551e+17
19295.0	5.834383678242815e+17
19296.0	5.832739737567233e+17
19297.0	5.832089815482367e+17
19298.0	5.831121222762496e+17
19299.0	5.829430086380202e+17
19300.0	5.828972840834388e+17
19301.0	5.827898638336e+17
19302.0	5.826794311647231e+17
19303.0	5.825635217833981e+17
19304.0	5.824602543838548e+17
19305.0	5.82349714760226e+17
19306.0	5.822377849345364e+17
19307.0	5.821200435511296e+17
19308.0	5.820017146855423e+17
19309.0	5.818378589569023e+17
19310.0	5.817027059690154e+17
19311.0	5.816429611843583e+17
19312.0	5.815421313045844e+17
19313.0	5.813673190053204e+17
19314.0	5.749775406901922e+17
19315.0	5.7536398743306944e+17
19316.0	5.809581280198656e+17
19317.0	5.809992314301097e+17
19318.0	5.809095377769812e+17
19319.0	5.808093613697705e+17
19320.0	5.806789816396457e+17
19321.0	5.805400100874922e+17
19322.0	5.804686526032553e+17
19323.0	5.803517076482729e+17
19324.0	5.802427249502889e+17
19325.0	5.801181482494634e+17
19326.0	5.800264432178516e+17
19327.0	5.799255874732031e+17
19328.0	5.797205985547606e+17
19329.0	5.797131013062655e+17
19330.0	5.796011992328874e+17
19331.0	5.794878570452308e+17
19332.0	5.79381028401971e+17
19333.0	5.792677428374185e+17
19334.0	5.79157160431889e+17
19335.0	5.788444055131479e+17
19336.0	5.789319100891135e+17
19337.0	5.788233800963412e+17
19338.0	5.786892986832211e+17
19339.0	5.785948593149267e+17
19340.0	5.784707558714025e+17
19341.0	5.78286197407744e+17
19342.0	5.78204968559138e+17
19343.0	5.781392814942889e+17
19344.0	5.779454859848364e+17
19345.0	5.777394923907754e+17
19346.0	5.776997854041428e+17
19347.0	5.775780760693418e+17
19348.0	5.775692144836607e+17
19349.0	5.774515556581375e+17
19350.0	5.773020873708884e+17
19351.0	5.772238058597034e+17
19352.0	5.770037831576233e+17
19353.0	5.769961951024467e+17
19354.0	5.768805282217983e+17
19355.0	5.767531276358996e+17
19356.0	5.766444301505876e+17
19357.0	5.765270651360596e+17
19358.0	5.764071126553941e+17
19359.0	5.7626433665979706e+17
19360.0	5.760883652646228e+17
19361.0	5.760507512356863e+17
19362.0	5.759328680848041e+17
19363.0	5.758097433122132e+17
19364.0	5.756887779770368e+17
19365.0	5.755641590535508e+17
19366.0	5.754416360237737e+17
19367.0	5.753165825004885e+17
19368.0	5.751920785009321e+17
19369.0	5.75064560055091e+17
19370.0	5.749431722136916e+17
19371.0	5.748161600902484e+17
19372.0	5.746915697579347e+17
19373.0	5.745569757309609e+17
19374.0	5.7442299106645325e+17
19375.0	5.742951477018622e+17
19376.0	5.7416904175779834e+17
19377.0	5.740352020064937e+17
19378.0	5.7390085117924685e+17
19379.0	5.7376486184714234e+17
19380.0	5.736281757712383e+17
19381.0	5.734917117837311e+17
19382.0	5.7334181567747405e+17
19383.0	5.73202417914129e+17
19384.0	5.7306447326740474e+17
19385.0	5.729283446844074e+17
19386.0	5.727815064354815e+17
19387.0	5.726220619961684e+17
19388.0	5.724661683148116e+17
19389.0	5.7229869590773754e+17
19390.0	5.720338059668138e+17
19391.0	5.6883933889604006e+17
19392.0	5.713158924664829e+17
19393.0	5.7162454179075405e+17
19394.0	5.714980102646441e+17
19395.0	5.713114496499712e+17
19396.0	5.7113790731605325e+17
19397.0	5.7097461453291514e+17
19398.0	5.7077258196964685e+17
19399.0	5.7053285435746976e+17
19400.0	5.703635958759423e+17
19401.0	5.702154977979049e+17
19402.0	5.7002028720018765e+17
19403.0	5.6981592344275616e+17
19404.0	5.6960484802996896e+17
19405.0	5.6939004471978656e+17
19406.0	5.691707321832788e+17
19407.0	5.689096638824446e+17
19408.0	5.686688804940458e+17
19409.0	5.6845984162556576e+17
19410.0	5.681968195480234e+17
19411.0	5.6795557702314656e+17
19412.0	5.6768376046878714e+17
19413.0	5.6735385580994554e+17
19414.0	5.670847209537534e+17
19415.0	5.667840026389162e+17
19416.0	5.664290819626324e+17
19417.0	5.660922708230143e+17
19418.0	5.657585112492715e+17
19419.0	5.653966740258814e+17
19420.0	5.650222891226452e+17
19421.0	5.645970468154026e+17
19422.0	5.641581034646186e+17
19423.0	5.636679254321834e+17
19424.0	5.6317273506665805e+17
19425.0	5.626834592989183e+17
19426.0	5.6209977645902496e+17
19427.0	5.6149006600546976e+17
19428.0	5.608515577402708e+17
19429.0	5.60102206812979e+17
19430.0	5.591689782973782e+17
19431.0	5.581040371018411e+17
19432.0	5.576602844921855e+17
19433.0	5.5677604950179834e+17
19434.0	5.557505656619007e+17
19435.0	5.5448995752837094e+17
19436.0	5.53154599068194e+17
19437.0	5.51788750184994e+17
19438.0	5.448407096579423e+17
19439.0	5.4774513123983334e+17
19440.0	5.468554741328553e+17
19441.0	5.4483672066512186e+17
19442.0	5.423673522869589e+17
19443.0	5.394519896533673e+17
19444.0	5.360457944662014e+17
19445.0	5.319769757231788e+17
19446.0	5.269202178233683e+17
19447.0	5.205367550115837e+17
19448.0	5.119929624472238e+17
19449.0	4.9947857335091194e+17
19450.0	4.7639827026629894e+17
19451.0	4.5793373113549e+17
19452.0	4.902574245281792e+17
19453.0	5.062603392942085e+17
19454.0	5.161803207497041e+17
19455.0	5.23256616522001e+17
19456.0	5.2866113632993286e+17
19457.0	5.32811774898995e+17
19458.0	5.198426873878069e+17
19459.0	5.3794630162623514e+17
19460.0	5.4186548955272506e+17
19461.0	5.44014331945506e+17
19462.0	5.458660473263446e+17
19463.0	5.4743459797401594e+17
19464.0	5.488277027728042e+17
19465.0	5.500887484421462e+17
19466.0	5.511774586885459e+17
19467.0	5.521135905013758e+17
19468.0	5.5296142739155616e+17
19469.0	5.536352994415955e+17
19470.0	5.5442414729079456e+17
19471.0	5.5506582896640006e+17
19472.0	5.556014502554281e+17
19473.0	5.56109486306099e+17
19474.0	5.5650985100793146e+17
19475.0	5.5692589625507834e+17
19476.0	5.573728034007721e+17
19477.0	5.5770454586381645e+17
19478.0	5.5797561037946874e+17
19479.0	5.582235888167592e+17
19480.0	5.585190002185556e+17
19481.0	5.587430165271894e+17
19482.0	5.589519510973098e+17
19483.0	5.5910905581404154e+17
19484.0	5.5925922468986874e+17
19485.0	5.594001376455338e+17
19486.0	5.5946256070301024e+17
19487.0	5.596354954919934e+17
19488.0	5.5971398147549856e+17
19489.0	5.597821631026517e+17
19490.0	5.597977928269823e+17
19491.0	5.599277463459156e+17
19492.0	5.599802723838634e+17
19493.0	5.600431303207594e+17
19494.0	5.6006697221270176e+17
19495.0	5.600662797331113e+17
19496.0	5.600293844680703e+17
19497.0	5.5998426480203085e+17
19498.0	5.5880134748187264e+17
19499.0	5.5515721502119174e+17
19500.0	5.59892431774242e+17
19501.0	5.6003800579003725e+17
19502.0	5.6005540432226963e+17
19503.0	5.6008065431197005e+17
19504.0	5.600531877724158e+17
19505.0	5.600178836165972e+17
19506.0	5.5999732201990816e+17
19507.0	5.5997131873320954e+17
19508.0	5.5991959562485754e+17
19509.0	5.5983555155940685e+17
19510.0	5.595710158973609e+17
19511.0	5.493689437301354e+17
19512.0	5.582905001989457e+17
19513.0	5.580665951092723e+17
19514.0	5.583178201475745e+17
19515.0	5.5946782280690336e+17
19516.0	5.5949778313980576e+17
19517.0	5.594618624912042e+17
19518.0	5.5938649699997e+17
19519.0	5.593222015352831e+17
19520.0	5.5920586349608934e+17
19521.0	5.59223371080226e+17
19522.0	5.591361701718696e+17
19523.0	5.590622816348842e+17
19524.0	5.5895573680619526e+17
19525.0	5.589393145681237e+17
19526.0	5.5886966738124794e+17
19527.0	5.587888602000041e+17
19528.0	5.5870503353931085e+17
19529.0	5.5862867686413645e+17
19530.0	5.5856849726996474e+17
19531.0	5.5849118541195936e+17
19532.0	5.584111344637267e+17
19533.0	5.5832847395935565e+17
19534.0	5.582436122842452e+17
19535.0	5.581612360837802e+17
19536.0	5.580766187967828e+17
19537.0	5.579935324307455e+17
19538.0	5.5782369604403194e+17
19539.0	5.5779373291492685e+17
19540.0	5.577391446076074e+17
19541.0	5.576428819753642e+17
19542.0	5.575641518833664e+17
19543.0	5.574079186031956e+17
19544.0	5.573894788349951e+17
19545.0	5.572599963364009e+17
19546.0	5.571587572323668e+17
19547.0	5.5713063435414176e+17
19548.0	5.5704694212089165e+17
19549.0	5.56948628124467e+17
19550.0	5.5687169088771405e+17
19551.0	5.567819647287294e+17
19552.0	5.566933911644841e+17
19553.0	5.5660039687372794e+17
19554.0	5.5650756979589114e+17
19555.0	5.5640810271539194e+17
19556.0	5.5632072229082445e+17
19557.0	5.56235035316497e+17
19558.0	5.561442023505919e+17
19559.0	5.560526811693055e+17
19560.0	5.559307083623081e+17
19561.0	5.5586703260603725e+17
19562.0	5.5574847256439456e+17
19563.0	5.5568413410809165e+17
19564.0	5.555909596020735e+17
19565.0	5.554971646885887e+17
19566.0	5.5540370538932896e+17
19567.0	5.55316707205666e+17
19568.0	5.552210084276906e+17
19569.0	5.5512778170258765e+17
19570.0	5.550348320112639e+17
19571.0	5.549408245863765e+17
19572.0	5.548426501204649e+17
19573.0	5.547402891100158e+17
19574.0	5.5464445303848954e+17
19575.0	5.5456100009028256e+17
19576.0	5.544599931409749e+17
19577.0	5.543531124184404e+17
19578.0	5.5427390082034336e+17
19579.0	5.5418125612482534e+17
19580.0	5.540861678977023e+17
19581.0	5.5399249699580576e+17
19582.0	5.5389815584413005e+17
19583.0	5.5380296849162234e+17
19584.0	5.5370494718771194e+17
19585.0	5.5359912196177914e+17
19586.0	5.5349765489732256e+17
19587.0	5.534089309672788e+17
19588.0	5.532897685536768e+17
19589.0	5.532214973781332e+17
19590.0	5.5311969344116045e+17
19591.0	5.530348615456083e+17
19592.0	5.5294003385466874e+17
19593.0	5.5283424001611085e+17
19594.0	5.527165259655849e+17
19595.0	5.526492462536021e+17
19596.0	5.525280094071466e+17
19597.0	5.5245874103582714e+17
19598.0	5.5232657411276794e+17
19599.0	5.522655423059284e+17
19600.0	5.521705267800747e+17
19601.0	5.520673304040789e+17
19602.0	5.5196364490233165e+17
19603.0	5.518300613530964e+17
19604.0	5.517634407060821e+17
19605.0	5.516600532096341e+17
19606.0	5.515887907263828e+17
19607.0	5.514931158559402e+17
19608.0	5.5139491985926816e+17
19609.0	5.512955647666858e+17
19610.0	5.511663597912064e+17
19611.0	5.510527560187904e+17
19612.0	5.510087936311294e+17
19613.0	5.509104255980883e+17
19614.0	5.5080952888907085e+17
19615.0	5.5071115400533325e+17
19616.0	5.505548436198741e+17
19617.0	5.504632911211179e+17
19618.0	5.503673557843966e+17
19619.0	5.502502094329172e+17
19620.0	5.501590745470292e+17
19621.0	5.50051230392866e+17
19622.0	5.500317920307883e+17
19623.0	5.4992953280211616e+17
19624.0	5.498205698173609e+17
19625.0	5.497330109251583e+17
19626.0	5.4962712173608954e+17
19627.0	5.49507110744883e+17
19628.0	5.493509853282304e+17
19629.0	5.490034412442964e+17
19630.0	5.484391957179049e+17
19631.0	5.4739911185530886e+17
19632.0	5.487789518880767e+17
19633.0	5.488697757663231e+17
19634.0	5.4883050030366726e+17
19635.0	5.4873961379048083e+17
19636.0	5.485797569811796e+17
19637.0	5.48458581790993e+17
19638.0	5.484703224168446e+17
19639.0	5.4838011377309e+17
19640.0	5.4826756752452256e+17
19641.0	5.4810431486689286e+17
19642.0	5.48084875456239e+17
19643.0	5.479879425043113e+17
19644.0	5.4789154733206176e+17
19645.0	5.477852133370539e+17
19646.0	5.4761686341167763e+17
19647.0	5.476086327192234e+17
19648.0	5.4751320978664083e+17
19649.0	5.474159607240021e+17
19650.0	5.4731958561450656e+17
19651.0	5.472219790573568e+17
19652.0	5.471248449885524e+17
19653.0	5.4702688785749325e+17
19654.0	5.4693069002724685e+17
19655.0	5.468333767218517e+17
19656.0	5.467369252760234e+17
19657.0	5.466397847060478e+17
19658.0	5.465424648994814e+17
19659.0	5.464460749701119e+17
19660.0	5.463490647031807e+17
19661.0	5.462518826095956e+17
