# Flux units: erg / (cm m2 s)
# Wavelength units: Angstrom
wave	flux
19000.0	4.672979008312661e+17
19001.0	4.672102109369684e+17
19002.0	4.671415352907093e+17
19003.0	4.6706175669261645e+17
19004.0	4.6695917506177696e+17
19005.0	4.668876862958249e+17
19006.0	4.668129748363945e+17
19007.0	4.66735959585587e+17
19008.0	4.6665500448522234e+17
19009.0	4.6656558485995514e+17
19010.0	4.664854731642196e+17
19011.0	4.663984733727402e+17
19012.0	4.6628970430463974e+17
19013.0	4.6625819298802336e+17
19014.0	4.661556214934185e+17
19015.0	4.6607504975243936e+17
19016.0	4.6600900861842765e+17
19017.0	4.6593702128954016e+17
19018.0	4.658494391189502e+17
19019.0	4.657732251899221e+17
19020.0	4.6569010002657274e+17
19021.0	4.656125302188714e+17
19022.0	4.655364832231423e+17
19023.0	4.654356456538111e+17
19024.0	4.653561468157951e+17
19025.0	4.652835534099796e+17
19026.0	4.6520462157195936e+17
19027.0	4.6512574174330874e+17
19028.0	4.6503360441876474e+17
19029.0	4.6494795547279366e+17
19030.0	4.648631873306623e+17
19031.0	4.6479448309323085e+17
19032.0	4.6471609819245216e+17
19033.0	4.6459968689274874e+17
19034.0	4.645068245128532e+17
19035.0	4.6435644613154125e+17
19036.0	4.641345756288341e+17
19037.0	4.642029134938111e+17
19038.0	4.641894615220223e+17
19039.0	4.6413414683115514e+17
19040.0	4.6406160522499405e+17
19041.0	4.63989271236881e+17
19042.0	4.6331289371934624e+17
19043.0	4.638362797342719e+17
19044.0	4.637670676365311e+17
19045.0	4.6367499050024954e+17
19046.0	4.635912292007936e+17
19047.0	4.63507634065681e+17
19048.0	4.63352358904354e+17
19049.0	4.6209251693035354e+17
19050.0	4.6325349244818765e+17
19051.0	4.631529337301674e+17
19052.0	4.630795276080468e+17
19053.0	4.630220295722324e+17
19054.0	4.629414892885332e+17
19055.0	4.626770967221589e+17
19056.0	4.6274909481642643e+17
19057.0	4.627264918519807e+17
19058.0	4.62006871269921e+17
19059.0	4.623034228932606e+17
19060.0	4.6248725616175776e+17
19061.0	4.624014249732779e+17
19062.0	4.6231136648560634e+17
19063.0	4.6225037012063565e+17
19064.0	4.6216786040149325e+17
19065.0	4.6207894514128205e+17
19066.0	4.6177765318546797e+17
19067.0	4.619020268120746e+17
19068.0	4.618545904921257e+17
19069.0	4.617721451555497e+17
19070.0	4.616756209385472e+17
19071.0	4.6160101727272954e+17
19072.0	4.612946118311932e+17
19073.0	4.614602091746644e+17
19074.0	4.6135662957909325e+17
19075.0	4.612935206131028e+17
19076.0	4.612103750374741e+17
19077.0	4.611307593181866e+17
19078.0	4.6105000023162874e+17
19079.0	4.60966547423232e+17
19080.0	4.6089359400632314e+17
19081.0	4.608135664762879e+17
19082.0	4.607425815860564e+17
19083.0	4.606459612495871e+17
19084.0	4.6056053592992416e+17
19085.0	4.6049359574685005e+17
19086.0	4.600554207226536e+17
19087.0	4.598154433396727e+17
19088.0	4.599300287190352e+17
19089.0	4.601653425253034e+17
19090.0	4.600999270416383e+17
19091.0	4.599817557420718e+17
19092.0	4.5944318159312346e+17
19093.0	4.598579073122304e+17
19094.0	4.597829412585471e+17
19095.0	4.596927377178622e+17
19096.0	4.596245291073536e+17
19097.0	4.595438501320021e+17
19098.0	4.5921587177717715e+17
19099.0	4.590751372192429e+17
19100.0	4.5930696891432954e+17
19101.0	4.592236919870804e+17
19102.0	4.591463135095466e+17
19103.0	4.5905997816572576e+17
19104.0	4.5899525767823354e+17
19105.0	4.5834685113521664e+17
19106.0	4.588292276223998e+17
19107.0	4.586131650423463e+17
19108.0	4.584501184648534e+17
19109.0	4.585857627455487e+17
19110.0	4.5850633667870714e+17
19111.0	4.582554942308348e+17
19112.0	4.581532935127037e+17
19113.0	4.5827627302256634e+17
19114.0	4.580761529221118e+17
19115.0	4.5809285254348794e+17
19116.0	4.5801309638492154e+17
19117.0	4.5791912468152314e+17
19118.0	4.5771937493811194e+17
19119.0	4.571828627789138e+17
19120.0	4.5761655563004576e+17
19121.0	4.576029346278057e+17
19122.0	4.575572153161044e+17
19123.0	4.5748717218693114e+17
19124.0	4.5739738360272205e+17
19125.0	4.573218606852778e+17
19126.0	4.5723178604953594e+17
19127.0	4.571393673570987e+17
19128.0	4.570663578763263e+17
19129.0	4.570055135548755e+17
19130.0	4.5693757841298765e+17
19131.0	4.568606309001897e+17
19132.0	4.567754419994623e+17
19133.0	4.567045298105002e+17
19134.0	4.5662559999972685e+17
19135.0	4.565530455310334e+17
19136.0	4.5646654542097056e+17
19137.0	4.56379400646383e+17
19138.0	4.563126611607552e+17
19139.0	4.562397988301481e+17
19140.0	4.5616319909505696e+17
19141.0	4.5608123065084576e+17
19142.0	4.559972123104596e+17
19143.0	4.5591826264664736e+17
19144.0	4.558325022719998e+17
19145.0	4.5575996038621856e+17
19146.0	4.556336324236629e+17
19147.0	4.556047995895807e+17
19148.0	4.55326146669227e+17
19149.0	4.5519879578583034e+17
19150.0	4.553756594492757e+17
19151.0	4.552894630767274e+17
19152.0	4.5521881778530976e+17
19153.0	4.5470083780880986e+17
19154.0	4.550250676442453e+17
19155.0	4.549835565476523e+17
19156.0	4.548999572881407e+17
19157.0	4.546835150536708e+17
19158.0	4.5443452124528685e+17
19159.0	4.546493864214527e+17
19160.0	4.545754743264597e+17
19161.0	4.545034367358292e+17
19162.0	4.544233418872148e+17
19163.0	4.543457436281514e+17
19164.0	4.5426707659052365e+17
19165.0	4.537149116383224e+17
19166.0	4.541011372714665e+17
19167.0	4.54040935866914e+17
19168.0	4.539566421704702e+17
19169.0	4.5388091533994656e+17
19170.0	4.5380503548723194e+17
19171.0	4.537195032827221e+17
19172.0	4.5364583914100045e+17
19173.0	4.535749661687807e+17
19174.0	4.5349154425842336e+17
19175.0	4.5340927997597e+17
19176.0	4.5333815010263034e+17
19177.0	4.5324470317656736e+17
19178.0	4.531755972646228e+17
19179.0	4.531005469054292e+17
19180.0	4.5302261778568525e+17
19181.0	4.52943351451921e+17
19182.0	4.528511345055061e+17
19183.0	4.5278451455754234e+17
19184.0	4.5271079323347616e+17
19185.0	4.5262631540708685e+17
19186.0	4.525498839334911e+17
19187.0	4.524697386134187e+17
19188.0	4.523967239596714e+17
19189.0	4.5231670104337056e+17
19190.0	4.522348583583743e+17
19191.0	4.52154099831057e+17
19192.0	4.520730265212245e+17
19193.0	4.519288699704662e+17
19194.0	4.518158886327638e+17
19195.0	4.5182322845504845e+17
19196.0	4.5173250600905376e+17
19197.0	4.5163544645905056e+17
19198.0	4.5153557316020896e+17
19199.0	4.5144832730289485e+17
19200.0	4.5137050583695354e+17
19201.0	4.51312422555921e+17
19202.0	4.5125755651577165e+17
19203.0	4.511856164427093e+17
19204.0	4.511294756836693e+17
19205.0	4.51052994297856e+17
19206.0	4.509814697405098e+17
19207.0	4.508790495204691e+17
19208.0	4.508294330712063e+17
19209.0	4.507585135422121e+17
19210.0	4.506749284734292e+17
19211.0	4.506086885294079e+17
19212.0	4.5053209312843085e+17
19213.0	4.50449417244945e+17
19214.0	4.503780775865003e+17
19215.0	4.5030258039412045e+17
19216.0	4.502265536708607e+17
19217.0	4.5015278278410234e+17
19218.0	4.5006188298895354e+17
19219.0	4.499740288876543e+17
19220.0	4.499176071801513e+17
19221.0	4.498386861774165e+17
19222.0	4.497533336289279e+17
19223.0	4.4968523735586125e+17
19224.0	4.4960381941405005e+17
19225.0	4.4953968556987725e+17
19226.0	4.494662359668052e+17
19227.0	4.493849432948736e+17
19228.0	4.4931192892074656e+17
19229.0	4.492103138672639e+17
19230.0	4.491528054854997e+17
19231.0	4.4908759468386976e+17
19232.0	4.4900923676644685e+17
19233.0	4.489227583269545e+17
19234.0	4.4884585590292474e+17
19235.0	4.487705761153023e+17
19236.0	4.4869759837143034e+17
19237.0	4.4860769094860794e+17
19238.0	4.485350796470953e+17
19239.0	4.484656890118143e+17
19240.0	4.483813171615061e+17
19241.0	4.4831414831895885e+17
19242.0	4.4821845848883194e+17
19243.0	4.4814884988955296e+17
19244.0	4.480778331226112e+17
19245.0	4.480075574891862e+17
19246.0	4.4793267986541216e+17
19247.0	4.478561989689344e+17
19248.0	4.4777492020811085e+17
19249.0	4.4767725555985056e+17
19250.0	4.475259053583019e+17
19251.0	4.4745218032926694e+17
19252.0	4.4744794757748045e+17
19253.0	4.473878655008766e+17
19254.0	4.4731594912563194e+17
19255.0	4.472197672337406e+17
19256.0	4.471498672701438e+17
19257.0	4.470797577311572e+17
19258.0	4.4699885666740896e+17
19259.0	4.4692402280420685e+17
19260.0	4.468306781492564e+17
19261.0	4.4677124591015245e+17
19262.0	4.4668405415936e+17
19263.0	4.46598709510144e+17
19264.0	4.465262566834176e+17
19265.0	4.464453700201129e+17
19266.0	4.463748729973417e+17
19267.0	4.4631236276824736e+17
19268.0	4.4622893813159245e+17
19269.0	4.4615775380220576e+17
19270.0	4.460798109810687e+17
19271.0	4.4599477929683616e+17
19272.0	4.459314632720383e+17
19273.0	4.458485229376853e+17
19274.0	4.457518122838697e+17
19275.0	4.457078526225066e+17
19276.0	4.456305172064938e+17
19277.0	4.4555656617437856e+17
19278.0	4.4546679576548685e+17
19279.0	4.453991079477246e+17
19280.0	4.453268607117994e+17
19281.0	4.452457722325674e+17
19282.0	4.451700438641321e+17
19283.0	4.4508582014266016e+17
19284.0	4.4501050798899194e+17
19285.0	4.449232798176597e+17
19286.0	4.448259254080853e+17
19287.0	4.447142538117119e+17
19288.0	4.445325872507561e+17
19289.0	4.444309396914176e+17
19290.0	4.4448470374809594e+17
19291.0	4.444296205828096e+17
19292.0	4.44389965046306e+17
19293.0	4.443205656029865e+17
19294.0	4.4424971388190714e+17
19295.0	4.441711988178944e+17
19296.0	4.43820431061812e+17
19297.0	4.439802099269633e+17
19298.0	4.439414587523072e+17
19299.0	4.4356640681492506e+17
19300.0	4.4380004947066874e+17
19301.0	4.4372068254351354e+17
19302.0	4.436452874824362e+17
19303.0	4.4355675942638925e+17
19304.0	4.4348635866289485e+17
19305.0	4.4340520573119123e+17
19306.0	4.4333286629048314e+17
19307.0	4.432466894913534e+17
19308.0	4.4316865838011725e+17
19309.0	4.430771279014571e+17
19310.0	4.429847794636117e+17
19311.0	4.42879295234594e+17
19312.0	4.42733249569314e+17
19313.0	4.4239881128727885e+17
19314.0	4.393041005641732e+17
19315.0	4.393453799254704e+17
19316.0	4.4182743327703085e+17
19317.0	4.423654030966783e+17
19318.0	4.423613388161023e+17
19319.0	4.4230262597003936e+17
19320.0	4.42153259394662e+17
19321.0	4.41939723742959e+17
19322.0	4.421184273077589e+17
19323.0	4.4205040247767034e+17
19324.0	4.419735639468715e+17
19325.0	4.419040628615849e+17
19326.0	4.418234897225045e+17
19327.0	4.417553550016512e+17
19328.0	4.411680561124698e+17
19329.0	4.4160607266187936e+17
19330.0	4.415337493692414e+17
19331.0	4.4145595027292154e+17
19332.0	4.4137845400535034e+17
19333.0	4.413103401861119e+17
19334.0	4.412043602602667e+17
19335.0	4.401173701678433e+17
19336.0	4.410675468173312e+17
19337.0	4.4100098251380045e+17
19338.0	4.4090927839095456e+17
19339.0	4.4083912669921274e+17
19340.0	4.407484823371776e+17
19341.0	4.403066303064755e+17
19342.0	4.40507250228156e+17
19343.0	4.405341898233173e+17
19344.0	4.40069952862072e+17
19345.0	4.401902416560132e+17
19346.0	4.402654391653717e+17
19347.0	4.39748964454673e+17
19348.0	4.401644114542591e+17
19349.0	4.400902105115306e+17
19350.0	4.398308291597654e+17
19351.0	4.399399417413632e+17
19352.0	4.393562267451383e+17
19353.0	4.3979682712562336e+17
19354.0	4.3972788542068045e+17
19355.0	4.396448426054997e+17
19356.0	4.3957335328030714e+17
19357.0	4.395024522062507e+17
19358.0	4.394255651613353e+17
19359.0	4.392435623570085e+17
19360.0	4.3886964917316243e+17
19361.0	4.3920086636953594e+17
19362.0	4.3912483608111776e+17
19363.0	4.3905078927906125e+17
19364.0	4.38978088149538e+17
19365.0	4.3889862859816954e+17
19366.0	4.3880969663064736e+17
19367.0	4.3874574272211616e+17
19368.0	4.386756708619606e+17
19369.0	4.38603892339507e+17
19370.0	4.3853100043905696e+17
19371.0	4.3844086638400845e+17
19372.0	4.3837423238512634e+17
19373.0	4.382897179284821e+17
19374.0	4.382132334668457e+17
19375.0	4.3814990108426234e+17
19376.0	4.3807717353062394e+17
19377.0	4.3800328765003085e+17
19378.0	4.379280990186155e+17
19379.0	4.3785268815899296e+17
19380.0	4.377550974702932e+17
19381.0	4.376850736349182e+17
19382.0	4.376137456506198e+17
19383.0	4.375383080872618e+17
19384.0	4.374472719073279e+17
19385.0	4.373928055144447e+17
19386.0	4.373136551531861e+17
19387.0	4.3723055900043936e+17
19388.0	4.3714519442827936e+17
19389.0	4.3705540954903885e+17
19390.0	4.3692462849392634e+17
19391.0	4.3669629282112845e+17
19392.0	4.3671859365587616e+17
19393.0	4.367319295852543e+17
19394.0	4.366906040167082e+17
19395.0	4.364810452642478e+17
19396.0	4.365230552033964e+17
19397.0	4.364789026040489e+17
19398.0	4.362744543313921e+17
19399.0	4.361443761018196e+17
19400.0	4.361379143570773e+17
19401.0	4.361788311207934e+17
19402.0	4.3611256852753056e+17
19403.0	4.3603780114404685e+17
19404.0	4.3595331143379616e+17
19405.0	4.3587385404948474e+17
19406.0	4.3580547123554995e+17
19407.0	4.3554598887096275e+17
19408.0	4.3564667789202765e+17
19409.0	4.355687635222527e+17
19410.0	4.354983786272085e+17
19411.0	4.354222875912875e+17
19412.0	4.3534354295903565e+17
19413.0	4.350852511476394e+17
19414.0	4.351960102731774e+17
19415.0	4.351110864524629e+17
19416.0	4.3501832774178125e+17
19417.0	4.349586100802899e+17
19418.0	4.348779773121877e+17
19419.0	4.347959051288576e+17
19420.0	4.347136643345066e+17
19421.0	4.3463150539898874e+17
19422.0	4.345377780137983e+17
19423.0	4.344665149014015e+17
19424.0	4.3438097850258765e+17
19425.0	4.3428443226548896e+17
19426.0	4.3420310359244806e+17
19427.0	4.3411091034385056e+17
19428.0	4.3399790978225485e+17
19429.0	4.3390958703738874e+17
19430.0	4.337867801231359e+17
19431.0	4.336688937566207e+17
19432.0	4.335763292422142e+17
19433.0	4.334596316113578e+17
19434.0	4.3333924872519674e+17
19435.0	4.331779971700053e+17
19436.0	4.3299043600411296e+17
19437.0	4.327427825554773e+17
19438.0	4.32259299750707e+17
19439.0	4.32267168125201e+17
19440.0	4.322481523392511e+17
19441.0	4.320707705394517e+17
19442.0	4.3179453137114445e+17
19443.0	4.3143539122503674e+17
19444.0	4.309859296783017e+17
19445.0	4.303946049563306e+17
19446.0	4.296188796163412e+17
19447.0	4.285566849908736e+17
19448.0	4.270005148800341e+17
19449.0	4.2456425067533626e+17
19450.0	4.19733245246395e+17
19451.0	4.1560187013693446e+17
19452.0	4.225385653512875e+17
19453.0	4.256420668462422e+17
19454.0	4.273468491169792e+17
19455.0	4.2839228561053e+17
19456.0	4.289592520518314e+17
19457.0	4.286846636217686e+17
19458.0	4.205393265819681e+17
19459.0	4.266678781913782e+17
19460.0	4.2998227663148365e+17
19461.0	4.305222023249919e+17
19462.0	4.307330578164394e+17
19463.0	4.3084461686565536e+17
19464.0	4.3089840329195514e+17
19465.0	4.3092428081943885e+17
19466.0	4.3093531309725005e+17
19467.0	4.3092827799115085e+17
19468.0	4.309105262286164e+17
19469.0	4.3052034494737005e+17
19470.0	4.308426620403711e+17
19471.0	4.3080149844186445e+17
19472.0	4.307572926447615e+17
19473.0	4.307051796758527e+17
19474.0	4.3026361111019456e+17
19475.0	4.3055855568595616e+17
19476.0	4.305274879169876e+17
19477.0	4.304695520657407e+17
19478.0	4.304189839289002e+17
19479.0	4.2999553853139565e+17
19480.0	4.3029316550437536e+17
19481.0	4.3021214175723514e+17
19482.0	4.3015113777261216e+17
19483.0	4.3009290181891405e+17
19484.0	4.300163009653418e+17
19485.0	4.299563355602944e+17
19486.0	4.2949936732788166e+17
19487.0	4.298049829819731e+17
19488.0	4.297351140562261e+17
19489.0	4.296567682323796e+17
19490.0	4.2957435582109005e+17
19491.0	4.295116569881257e+17
19492.0	4.2945147075297274e+17
19493.0	4.2937377469672096e+17
19494.0	4.2929903709279565e+17
19495.0	4.292224116326399e+17
19496.0	4.291100806916778e+17
19497.0	4.290049122238463e+17
19498.0	4.287773315257684e+17
19499.0	4.2858191365952845e+17
19500.0	4.287500982594218e+17
19501.0	4.287632624320512e+17
19502.0	4.2871561409003514e+17
19503.0	4.2865657674465274e+17
19504.0	4.285841285316607e+17
19505.0	4.284996249802068e+17
19506.0	4.284348176706218e+17
19507.0	4.283474282283007e+17
19508.0	4.282338475944617e+17
19509.0	4.2806071518385485e+17
19510.0	4.274609568350206e+17
19511.0	4.240641803070117e+17
19512.0	4.2706067357259085e+17
19513.0	4.275485584392191e+17
19514.0	4.2760157227472205e+17
19515.0	4.2770910814754125e+17
19516.0	4.27630284382754e+17
19517.0	4.276363136947541e+17
19518.0	4.2747352227075386e+17
19519.0	4.2740749364974906e+17
19520.0	4.2708579228057555e+17
19521.0	4.273933044591274e+17
19522.0	4.272596148639059e+17
19523.0	4.2716725468200986e+17
19524.0	4.268972499271687e+17
19525.0	4.271046188335102e+17
19526.0	4.270307457455444e+17
19527.0	4.2696608999014394e+17
19528.0	4.268607058651817e+17
19529.0	4.267771330996907e+17
19530.0	4.2675005383420576e+17
19531.0	4.2667676235639456e+17
19532.0	4.2660227634080416e+17
19533.0	4.265235431030783e+17
19534.0	4.2646355714594125e+17
19535.0	4.263916636296532e+17
19536.0	4.26311209189376e+17
19537.0	4.262390632458921e+17
19538.0	4.2582335724803456e+17
19539.0	4.260985386827776e+17
19540.0	4.260268123794089e+17
19541.0	4.258715593779882e+17
19542.0	4.2584489255239674e+17
19543.0	4.254427434538327e+17
19544.0	4.257042637608276e+17
19545.0	4.2564646457398605e+17
19546.0	4.255789673174357e+17
19547.0	4.255220620765867e+17
19548.0	4.2545368932898125e+17
19549.0	4.253696686817279e+17
19550.0	4.252987470555817e+17
19551.0	4.2524357035731616e+17
19552.0	4.2516262112897696e+17
19553.0	4.250993734014294e+17
19554.0	4.2501768912131405e+17
19555.0	4.2490020289140064e+17
19556.0	4.2484555838040736e+17
19557.0	4.248058721555797e+17
19558.0	4.2473785508495354e+17
19559.0	4.2466466559863456e+17
19560.0	4.244605490954237e+17
19561.0	4.245201037382996e+17
19562.0	4.2432978216113485e+17
19563.0	4.2438233755921056e+17
19564.0	4.242894091190272e+17
19565.0	4.242292029609302e+17
19566.0	4.2414939059869005e+17
19567.0	4.2409350736991565e+17
19568.0	4.2401902401071776e+17
19569.0	4.239502094630911e+17
19570.0	4.238771129505108e+17
19571.0	4.238023826167125e+17
19572.0	4.2373135109980154e+17
19573.0	4.2362080420604576e+17
19574.0	4.2356833954474656e+17
19575.0	4.235217594919594e+17
19576.0	4.2342922832226976e+17
19577.0	4.233175626678272e+17
19578.0	4.233044753907712e+17
19579.0	4.23235638263808e+17
19580.0	4.231544914837504e+17
19581.0	4.230763620859904e+17
19582.0	4.2301747699384314e+17
19583.0	4.229524187949738e+17
19584.0	4.228707069023572e+17
19585.0	4.2279549051863034e+17
19586.0	4.227232378301098e+17
19587.0	4.226617228394495e+17
19588.0	4.225816008676694e+17
19589.0	4.225157851075925e+17
19590.0	4.2244007030074016e+17
19591.0	4.2237257381314554e+17
19592.0	4.2230191572910086e+17
19593.0	4.221980812596564e+17
19594.0	4.221111993281193e+17
19595.0	4.2208782118638925e+17
19596.0	4.2200589125986976e+17
19597.0	4.2194156713410554e+17
19598.0	4.2183295255620256e+17
19599.0	4.217924680854186e+17
19600.0	4.21719161508113e+17
19601.0	4.21651994972433e+17
19602.0	4.2158049012831565e+17
19603.0	4.2150539621826554e+17
19604.0	4.214400342119764e+17
19605.0	4.213513673244672e+17
19606.0	4.212928339946154e+17
19607.0	4.212332216800597e+17
19608.0	4.2114184660036256e+17
19609.0	4.2108609101823994e+17
19610.0	4.2084781407600666e+17
19611.0	4.206827036213249e+17
19612.0	4.208757758230528e+17
19613.0	4.2078920273210016e+17
19614.0	4.207252693756585e+17
19615.0	4.206592879405738e+17
19616.0	4.204173757950638e+17
19617.0	4.202485605116588e+17
19618.0	4.2040129189751443e+17
19619.0	4.203072528056319e+17
19620.0	4.201902961065979e+17
19621.0	4.198291352846333e+17
19622.0	4.201539000336382e+17
19623.0	4.2007112090036896e+17
19624.0	4.1996575460119885e+17
19625.0	4.1994352989306874e+17
19626.0	4.198595283298986e+17
19627.0	4.1979278968313165e+17
19628.0	4.1971225373354675e+17
19629.0	4.187483677917178e+17
19630.0	4.1954861554947405e+17
19631.0	4.19445990158063e+17
19632.0	4.1941751195238394e+17
19633.0	4.1935484660394656e+17
19634.0	4.1929501387871565e+17
19635.0	4.1918836412252134e+17
19636.0	4.187343221861029e+17
19637.0	4.1865446529433555e+17
19638.0	4.1899049915951763e+17
19639.0	4.1894028271506765e+17
19640.0	4.1884161073479674e+17
19641.0	4.1875637555691514e+17
19642.0	4.187096063410176e+17
19643.0	4.18646932394257e+17
19644.0	4.1859896989887136e+17
19645.0	4.185361882983081e+17
19646.0	4.180150751068153e+17
19647.0	4.183719102032553e+17
19648.0	4.183278516262229e+17
19649.0	4.182517770179925e+17
19650.0	4.181833749801642e+17
19651.0	4.1811356218818554e+17
19652.0	4.180482355538602e+17
19653.0	4.1796991377735674e+17
19654.0	4.179075653784917e+17
19655.0	4.1782738154072736e+17
