# Flux units: erg / (cm m2 s)
# Wavelength units: Angstrom
wave	flux
19000.0	6.225000152782164e+17
19001.0	6.22372897108787e+17
19002.0	6.222677677877929e+17
19003.0	6.22151371517679e+17
19004.0	6.220350373931689e+17
19005.0	6.21918380167441e+17
19006.0	6.21802988572945e+17
19007.0	6.21685902479633e+17
19008.0	6.215631895876948e+17
19009.0	6.214459183857663e+17
19010.0	6.212833366070611e+17
19011.0	6.212181234985642e+17
19012.0	6.210894300184575e+17
19013.0	6.20988409717282e+17
19014.0	6.208664102065491e+17
19015.0	6.20752002805487e+17
19016.0	6.206342862383785e+17
19017.0	6.20524682224162e+17
19018.0	6.204067038625791e+17
19019.0	6.202913046484308e+17
19020.0	6.201735158693887e+17
19021.0	6.200595246131881e+17
19022.0	6.199430048907263e+17
19023.0	6.198232041040553e+17
19024.0	6.197091962803539e+17
19025.0	6.195951651782655e+17
19026.0	6.194760180039679e+17
19027.0	6.193556729364479e+17
19028.0	6.192470013160106e+17
19029.0	6.191297407396521e+17
19030.0	6.190163020130986e+17
19031.0	6.189002854673065e+17
19032.0	6.187837184890196e+17
19033.0	6.186581989785599e+17
19034.0	6.185505737670655e+17
19035.0	6.184305229998761e+17
19036.0	6.177248010130771e+17
19037.0	6.182017856525652e+17
19038.0	6.180856469127167e+17
19039.0	6.179725507209898e+17
19040.0	6.17856705302801e+17
19041.0	6.177399195216553e+17
19042.0	6.176124682545833e+17
19043.0	6.175091371715241e+17
19044.0	6.173919620890623e+17
19045.0	6.172774036231508e+17
19046.0	6.171558196980394e+17
19047.0	6.170441337711274e+17
19048.0	6.169051779476138e+17
19049.0	6.16802180591343e+17
19050.0	6.166926164230144e+17
19051.0	6.164873057315496e+17
19052.0	6.164524296743593e+17
19053.0	6.163510354509823e+17
19054.0	6.162354099541331e+17
19055.0	6.160909280651946e+17
19056.0	6.160005105451008e+17
19057.0	6.158874991482195e+17
19058.0	6.157691585385812e+17
19059.0	6.156556022317055e+17
19060.0	6.155387397647018e+17
19061.0	6.154258832075433e+17
19062.0	6.153097164357632e+17
19063.0	6.15194346791458e+17
19064.0	6.150648052929876e+17
19065.0	6.149443320894806e+17
19066.0	6.1484066420381e+17
19067.0	6.147309330322771e+17
19068.0	6.146168175547732e+17
19069.0	6.1450149181085e+17
19070.0	6.143832824829267e+17
19071.0	6.142705907619156e+17
19072.0	6.141542665639252e+17
19073.0	6.140391392105812e+17
19074.0	6.139243155248468e+17
19075.0	6.138089138640212e+17
19076.0	6.136912072933375e+17
19077.0	6.135765569721684e+17
19078.0	6.134589127568041e+17
19079.0	6.133473214114473e+17
19080.0	6.132304944562173e+17
19081.0	6.131120235435348e+17
19082.0	6.12996637401634e+17
19083.0	6.128751844786175e+17
19084.0	6.127465511168682e+17
19085.0	6.126550286772905e+17
19086.0	6.124994014041428e+17
19087.0	6.124080635838463e+17
19088.0	6.122998127220052e+17
19089.0	6.121674826405204e+17
19090.0	6.120763529975124e+17
19091.0	6.119616419288406e+17
19092.0	6.118393806236329e+17
19093.0	6.117344753483773e+17
19094.0	6.116194483088042e+17
19095.0	6.115043926081533e+17
19096.0	6.113875149018452e+17
19097.0	6.112741197261482e+17
19098.0	6.111583600814762e+17
19099.0	6.110431872199337e+17
19100.0	6.109274572150102e+17
19101.0	6.108142060437503e+17
19102.0	6.10686930587921e+17
19103.0	6.105841748235604e+17
19104.0	6.104696708136959e+17
19105.0	6.10352484126993e+17
19106.0	6.102370091357524e+17
19107.0	6.101226990425427e+17
19108.0	6.100089755227476e+17
19109.0	6.098527067308031e+17
19110.0	6.097785664656724e+17
19111.0	6.096650116967082e+17
19112.0	6.095502201673044e+17
19113.0	6.094359194413737e+17
19114.0	6.093213385359359e+17
19115.0	6.092008203135658e+17
19116.0	6.090896263785129e+17
19117.0	6.089751443188393e+17
19118.0	6.088513929172308e+17
19119.0	6.081143884130976e+17
19120.0	6.086266844086272e+17
19121.0	6.085150340633939e+17
19122.0	6.084042149593087e+17
19123.0	6.082896241273513e+17
19124.0	6.08172160127249e+17
19125.0	6.080601397045929e+17
19126.0	6.079447386729129e+17
19127.0	6.07634765136964e+17
19128.0	6.077103597071017e+17
19129.0	6.075933235260073e+17
19130.0	6.07486093627665e+17
19131.0	6.073732370705065e+17
19132.0	6.072586514115242e+17
19133.0	6.071351899062271e+17
19134.0	6.070269731580586e+17
19135.0	6.069152638129492e+17
19136.0	6.068015749660671e+17
19137.0	6.066692557897727e+17
19138.0	6.065712672014333e+17
19139.0	6.06458550034978e+17
19140.0	6.063444053371561e+17
19141.0	6.062301232758783e+17
19142.0	6.061130617192447e+17
19143.0	6.059953914292906e+17
19144.0	6.058833763194196e+17
19145.0	6.057731256134314e+17
19146.0	6.055923692164438e+17
19147.0	6.055340617498624e+17
19148.0	6.054295113826301e+17
19149.0	6.053145666912255e+17
19150.0	6.052013162889215e+17
19151.0	6.050880994410495e+17
19152.0	6.049730183648596e+17
19153.0	6.048559122786986e+17
19154.0	6.047315966732969e+17
19155.0	6.046315956578985e+17
19156.0	6.04517218455825e+17
19157.0	6.044014684580521e+17
19158.0	6.042600986028714e+17
19159.0	6.041727557872298e+17
19160.0	6.040597599791786e+17
19161.0	6.039463250974035e+17
19162.0	6.037666187444223e+17
19163.0	6.037167765716991e+17
19164.0	6.036054874958506e+17
19165.0	6.034878444688724e+17
19166.0	6.033629605352788e+17
19167.0	6.032576499504468e+17
19168.0	6.031488251680084e+17
19169.0	6.030340638375936e+17
19170.0	6.029221756054185e+17
19171.0	6.028044524672339e+17
19172.0	6.026945084347732e+17
19173.0	6.025807742894079e+17
19174.0	6.02460719747345e+17
19175.0	6.023530678321151e+17
19176.0	6.022396647571455e+17
19177.0	6.021090847490047e+17
19178.0	6.020101081923583e+17
19179.0	6.018924453822463e+17
19180.0	6.017830457704447e+17
19181.0	6.016564435703124e+17
19182.0	6.015553110015999e+17
19183.0	6.014433980230314e+17
19184.0	6.013286218028372e+17
19185.0	6.012147093995519e+17
19186.0	6.01102095552785e+17
19187.0	6.009811746073257e+17
19188.0	6.00874581893666e+17
19189.0	6.007612713730047e+17
19190.0	6.006472858490196e+17
19191.0	6.005302145056767e+17
19192.0	6.004205205236393e+17
19193.0	6.003066151108607e+17
19194.0	6.00191640010752e+17
19195.0	6.000792009965567e+17
19196.0	5.999633238414676e+17
19197.0	5.998499427865939e+17
19198.0	5.997331601511763e+17
19199.0	5.992207195220649e+17
19200.0	5.992305894883328e+17
19201.0	5.993932789208404e+17
19202.0	5.992833304144553e+17
19203.0	5.991695389469353e+17
19204.0	5.990545053362857e+17
19205.0	5.989427736215552e+17
19206.0	5.988291761405951e+17
19207.0	5.98705314149171e+17
19208.0	5.985781904572415e+17
19209.0	5.984888882724863e+17
19210.0	5.983758559739903e+17
19211.0	5.982633433497599e+17
19212.0	5.981498112300371e+17
19213.0	5.980245797284521e+17
19214.0	5.979080243544063e+17
19215.0	5.978076699688959e+17
19216.0	5.97695669469184e+17
19217.0	5.975819039364435e+17
19218.0	5.973790433476605e+17
19219.0	5.973385230854825e+17
19220.0	5.972391024918527e+17
19221.0	5.970923691704319e+17
19222.0	5.970138975174655e+17
19223.0	5.968988538404863e+17
19224.0	5.967827441112404e+17
19225.0	5.966578523482793e+17
19226.0	5.965582767751167e+17
19227.0	5.964446327373823e+17
19228.0	5.963340054527999e+17
19229.0	5.962203832254463e+17
19230.0	5.961064332831401e+17
19231.0	5.959918653101395e+17
19232.0	5.958789073906345e+17
19233.0	5.957585549131775e+17
19234.0	5.956499787830612e+17
19235.0	5.95535769772578e+17
19236.0	5.954254053310463e+17
19237.0	5.95310082593041e+17
19238.0	5.951877599810899e+17
19239.0	5.950848193178281e+17
19240.0	5.949692496052223e+17
19241.0	5.948545915245908e+17
19242.0	5.947420621930495e+17
19243.0	5.946124880489129e+17
19244.0	5.945166135295999e+17
19245.0	5.944022531746474e+17
19246.0	5.94287177900578e+17
19247.0	5.941753594336595e+17
19248.0	5.940616935156393e+17
19249.0	5.939476429799423e+17
19250.0	5.938314495743316e+17
19251.0	5.937078391013373e+17
19252.0	5.935754853919401e+17
19253.0	5.934897018787156e+17
19254.0	5.93378359185681e+17
19255.0	5.932442374373373e+17
19256.0	5.931473811013631e+17
19257.0	5.930368086922579e+17
19258.0	5.929227183106729e+17
19259.0	5.928008021267795e+17
19260.0	5.926817043054591e+17
19261.0	5.925790208928425e+17
19262.0	5.92459861065728e+17
19263.0	5.923451476901887e+17
19264.0	5.921769003155453e+17
19265.0	5.92101078344226e+17
19266.0	5.919828812496895e+17
19267.0	5.918950184102569e+17
19268.0	5.917798389077331e+17
19269.0	5.916657461493759e+17
19270.0	5.915512582875818e+17
19271.0	5.913086129078272e+17
19272.0	5.912233396316842e+17
19273.0	5.910356368381267e+17
19274.0	5.909329211293695e+17
19275.0	5.9088326112925e+17
19276.0	5.907663569988265e+17
19277.0	5.906520842349225e+17
19278.0	5.905375052868265e+17
19279.0	5.904207417354922e+17
19280.0	5.902987840978943e+17
19281.0	5.901915237209427e+17
19282.0	5.90078213689617e+17
19283.0	5.899572637335551e+17
19284.0	5.898432431871316e+17
19285.0	5.89712296317201e+17
19286.0	5.896124169366186e+17
19287.0	5.89500611961378e+17
19288.0	5.892262938542077e+17
19289.0	5.888731493957623e+17
19290.0	5.891532755653972e+17
19291.0	5.890098774846124e+17
19292.0	5.889217702570665e+17
19293.0	5.888048056587603e+17
19294.0	5.886881338228736e+17
19295.0	5.885729447433556e+17
19296.0	5.884546722911572e+17
19297.0	5.883382572864852e+17
19298.0	5.882199637928618e+17
19299.0	5.881049105388884e+17
19300.0	5.879884192677887e+17
19301.0	5.878711060529151e+17
19302.0	5.877529096574292e+17
19303.0	5.876285082086057e+17
19304.0	5.875154674515967e+17
19305.0	5.873993055731711e+17
19306.0	5.872822666657791e+17
19307.0	5.871593743275348e+17
19308.0	5.870434968229203e+17
19309.0	5.869092031780179e+17
19310.0	5.867655899294378e+17
19311.0	5.86663443038208e+17
19312.0	5.865482451506516e+17
19313.0	5.864302120534015e+17
19314.0	5.855872892097876e+17
19315.0	5.855257912060596e+17
19316.0	5.860681557475328e+17
19317.0	5.858207495531178e+17
19318.0	5.856992005805398e+17
19319.0	5.855806449429161e+17
19320.0	5.854592130613245e+17
19321.0	5.853375735616852e+17
19322.0	5.85208317485602e+17
19323.0	5.85088676921344e+17
19324.0	5.849727665613482e+17
19325.0	5.848377847010644e+17
19326.0	5.847277673381887e+17
19327.0	5.846034853571242e+17
19328.0	5.844800028104019e+17
19329.0	5.843583932301311e+17
19330.0	5.842299989437097e+17
19331.0	5.841048440580777e+17
19332.0	5.839848176877567e+17
19333.0	5.83859004436207e+17
19334.0	5.837340575181482e+17
19335.0	5.836042896670719e+17
19336.0	5.834812417201492e+17
19337.0	5.832509776461821e+17
19338.0	5.830308156233044e+17
19339.0	5.829252199656106e+17
19340.0	5.827826822763862e+17
19341.0	5.826623111342761e+17
19342.0	5.82495571751731e+17
19343.0	5.824066353801897e+17
19344.0	5.822739626240682e+17
19345.0	5.819180536998565e+17
19346.0	5.819201851053396e+17
19347.0	5.818698366801236e+17
19348.0	5.817459602183507e+17
19349.0	5.815285700711764e+17
19350.0	5.812499492372479e+17
19351.0	5.811129534818986e+17
19352.0	5.809698864715092e+17
19353.0	5.808420144458409e+17
19354.0	5.807032038850559e+17
19355.0	5.805526592694954e+17
19356.0	5.804220558431572e+17
19357.0	5.802803689684992e+17
19358.0	5.798707308003327e+17
19359.0	5.797078629001897e+17
19360.0	5.795618565215574e+17
19361.0	5.794166377633108e+17
19362.0	5.792726282229076e+17
19363.0	5.79122902475298e+17
19364.0	5.787175703194286e+17
19365.0	5.784771439362048e+17
19366.0	5.783220573787476e+17
19367.0	5.781657100135082e+17
19368.0	5.780078052332883e+17
19369.0	5.77481476145152e+17
19370.0	5.77220089356834e+17
19371.0	5.770570176135167e+17
19372.0	5.768954904226474e+17
19373.0	5.765143350738944e+17
19374.0	5.7631071510637216e+17
19375.0	5.7613634768295245e+17
19376.0	5.7595969695034016e+17
19377.0	5.7577912754940576e+17
19378.0	5.7559766769773216e+17
19379.0	5.754135376822271e+17
19380.0	5.7522658014658554e+17
19381.0	5.7503622585384954e+17
19382.0	5.748360298364926e+17
19383.0	5.7463665653186534e+17
19384.0	5.744497944166399e+17
19385.0	5.741681867489279e+17
19386.0	5.739621240187563e+17
19387.0	5.737533601568084e+17
19388.0	5.7354099478582605e+17
19389.0	5.733248419583316e+17
19390.0	5.731043111163219e+17
19391.0	5.723592057334434e+17
19392.0	5.7263354019839974e+17
19393.0	5.72292802421282e+17
19394.0	5.7205281028833274e+17
19395.0	5.718081640857599e+17
19396.0	5.7156054013706234e+17
19397.0	5.7129276724128435e+17
19398.0	5.70861683736576e+17
19399.0	5.7051645218215226e+17
19400.0	5.703154038822229e+17
19401.0	5.6993140465554765e+17
19402.0	5.695089944122708e+17
19403.0	5.692099212432724e+17
19404.0	5.6868567190077434e+17
19405.0	5.6826721339091616e+17
19406.0	5.677263183238486e+17
19407.0	5.671930131294889e+17
19408.0	5.663905844035582e+17
19409.0	5.658322071278933e+17
19410.0	5.649559457890303e+17
19411.0	5.6390159472175763e+17
19412.0	5.627615353591123e+17
19413.0	5.616715244590422e+17
19414.0	5.609377643189587e+17
19415.0	5.6031977955218765e+17
19416.0	5.596579634697556e+17
19417.0	5.5899201033557325e+17
19418.0	5.5827982233982285e+17
19419.0	5.575306580590592e+17
19420.0	5.567628786182825e+17
19421.0	5.55978057650449e+17
19422.0	5.551759330115583e+17
19423.0	5.543621031187796e+17
19424.0	5.535360667527849e+17
19425.0	5.5265790196886176e+17
19426.0	5.5174642623228576e+17
19427.0	5.5081307041955834e+17
19428.0	5.498628335818068e+17
19429.0	5.4889145199930003e+17
19430.0	5.4785940917671245e+17
19431.0	5.467550227890177e+17
19432.0	5.4580064861989536e+17
19433.0	5.4465815593178445e+17
19434.0	5.434812105315668e+17
19435.0	5.421522121741651e+17
19436.0	5.405582287350441e+17
19437.0	5.385069343189671e+17
19438.0	5.3478857686821536e+17
19439.0	5.311087637430266e+17
19440.0	5.2661320679423994e+17
19441.0	5.236217016745982e+17
19442.0	5.203453472494933e+17
19443.0	5.1680490832964256e+17
19444.0	5.128467184091133e+17
19445.0	5.077456566353916e+17
19446.0	4.994204270155079e+17
19447.0	4.882237078809251e+17
19448.0	4.772007007398578e+17
19449.0	4.585437008669356e+17
19450.0	4.165674656770771e+17
19451.0	3.97515652403475e+17
19452.0	4.412913718657023e+17
19453.0	4.693670636115299e+17
19454.0	4.82876734343304e+17
19455.0	4.931164907241469e+17
19456.0	5.033932496743083e+17
19457.0	5.095291938144255e+17
19458.0	5.119593286030704e+17
19459.0	5.1717874916174554e+17
19460.0	5.2040749131584845e+17
19461.0	5.233400592640681e+17
19462.0	5.2651409874616365e+17
19463.0	5.3148350509219725e+17
19464.0	5.347266905418412e+17
19465.0	5.369955865679191e+17
19466.0	5.38524735853909e+17
19467.0	5.397617011152211e+17
19468.0	5.408256087643477e+17
19469.0	5.4171280751984634e+17
19470.0	5.4263544297117e+17
19471.0	5.434571705985707e+17
19472.0	5.4428462058482336e+17
19473.0	5.4506730958793376e+17
19474.0	5.458255762074283e+17
19475.0	5.464779383985491e+17
19476.0	5.4726814939654816e+17
19477.0	5.479633799610367e+17
19478.0	5.486010548180308e+17
19479.0	5.4921274127810554e+17
19480.0	5.498064499026602e+17
19481.0	5.503868661486932e+17
19482.0	5.509523290019155e+17
19483.0	5.515004383417686e+17
19484.0	5.520230550514345e+17
19485.0	5.524990007618217e+17
19486.0	5.5294610937391776e+17
19487.0	5.5336986305276576e+17
19488.0	5.537637739790336e+17
19489.0	5.5447785018054e+17
19490.0	5.5536802787054835e+17
19491.0	5.563202258949462e+17
19492.0	5.5694717346993466e+17
19493.0	5.5753861528289274e+17
19494.0	5.5806039984264576e+17
19495.0	5.583179547847338e+17
19496.0	5.5876821171131706e+17
19497.0	5.5893737721910605e+17
19498.0	5.592268009723219e+17
19499.0	5.585920427644239e+17
19500.0	5.5951681710107296e+17
19501.0	5.598196726235135e+17
19502.0	5.5988803859032723e+17
19503.0	5.599470958586539e+17
19504.0	5.6004939849837216e+17
19505.0	5.6021790088669856e+17
19506.0	5.602566919771476e+17
19507.0	5.602873056428031e+17
19508.0	5.6031825030894925e+17
19509.0	5.6036049198339386e+17
19510.0	5.604572977780052e+17
19511.0	5.59221211852526e+17
19512.0	5.603768966053885e+17
19513.0	5.6023965128895104e+17
19514.0	5.6033567617406266e+17
19515.0	5.6044964981418675e+17
19516.0	5.6049643426938874e+17
19517.0	5.604813328875519e+17
19518.0	5.605473894006783e+17
19519.0	5.605353922232319e+17
19520.0	5.6051290523129165e+17
19521.0	5.604954428058281e+17
19522.0	5.604673746632703e+17
19523.0	5.604429768862379e+17
19524.0	5.604120588539221e+17
19525.0	5.6037921270005754e+17
19526.0	5.603454303775402e+17
19527.0	5.603075697235284e+17
19528.0	5.6026738081136634e+17
19529.0	5.6027949459046394e+17
19530.0	5.6041020602013e+17
19531.0	5.6036333879732896e+17
19532.0	5.603145807822847e+17
19533.0	5.603004580014766e+17
19534.0	5.60614092186146e+17
19535.0	5.60580175016755e+17
19536.0	5.6051954474461843e+17
19537.0	5.604650478032213e+17
19538.0	5.6039311702753286e+17
19539.0	5.60586550987981e+17
19540.0	5.6059269962792954e+17
19541.0	5.605299831089835e+17
19542.0	5.604628604736852e+17
19543.0	5.6039390031380474e+17
19544.0	5.603261975363583e+17
19545.0	5.6029895266577043e+17
19546.0	5.603412281742677e+17
19547.0	5.603697787316905e+17
19548.0	5.6029619854595405e+17
19549.0	5.6021118699438074e+17
19550.0	5.6014609258468685e+17
19551.0	5.600700566339583e+17
19552.0	5.599928227900074e+17
19553.0	5.599124779608747e+17
19554.0	5.59875723554543e+17
19555.0	5.5995875616358394e+17
19556.0	5.5987995015468365e+17
19557.0	5.597983292085588e+17
19558.0	5.597167613203796e+17
19559.0	5.596345408684031e+17
19560.0	5.5954817826160634e+17
19561.0	5.594650450591743e+17
19562.0	5.5938366193008634e+17
19563.0	5.592996407934975e+17
19564.0	5.5921459163299834e+17
19565.0	5.5912903817734816e+17
19566.0	5.590396237949609e+17
19567.0	5.5895648115534496e+17
19568.0	5.589315732810411e+17
19569.0	5.58935716274722e+17
19570.0	5.588502131507199e+17
19571.0	5.587614918071636e+17
19572.0	5.586698236155221e+17
19573.0	5.5858189779162445e+17
19574.0	5.5848450060014925e+17
19575.0	5.5840481917009914e+17
19576.0	5.5831430888598176e+17
19577.0	5.58221698863377e+17
19578.0	5.581290531192831e+17
19579.0	5.5803946439365965e+17
19580.0	5.579483915834708e+17
19581.0	5.578579115682474e+17
19582.0	5.577680611180543e+17
19583.0	5.576760093573119e+17
19584.0	5.5758333159669754e+17
19585.0	5.574788995088382e+17
19586.0	5.573830522525013e+17
19587.0	5.573027029494442e+17
19588.0	5.571606915055616e+17
19589.0	5.5711613422578336e+17
19590.0	5.5701376328881485e+17
19591.0	5.569305078923262e+17
19592.0	5.568370729899349e+17
19593.0	5.567706094895101e+17
19594.0	5.567434034162345e+17
19595.0	5.5667166404061856e+17
19596.0	5.5656451005917856e+17
19597.0	5.5648366422043296e+17
19598.0	5.5634430847003296e+17
19599.0	5.562942652503379e+17
19600.0	5.5619985803837434e+17
19601.0	5.5609681762058234e+17
19602.0	5.56003066327859e+17
19603.0	5.55861998252851e+17
19604.0	5.55811306943283e+17
19605.0	5.5568775008747514e+17
19606.0	5.5562387901644794e+17
19607.0	5.555285296239957e+17
19608.0	5.554301575364607e+17
19609.0	5.553297180764841e+17
19610.0	5.55238334468369e+17
19611.0	5.5514059593045325e+17
19612.0	5.550456453464062e+17
19613.0	5.549476199880021e+17
19614.0	5.548474131720874e+17
19615.0	5.547546577469439e+17
19616.0	5.546522410221567e+17
19617.0	5.54558273233442e+17
19618.0	5.5439920418433683e+17
19619.0	5.5428504347825485e+17
19620.0	5.541929799035561e+17
19621.0	5.5416918030417914e+17
19622.0	5.5407323070682445e+17
19623.0	5.539756358238207e+17
19624.0	5.5387689086266016e+17
19625.0	5.5378014029305146e+17
19626.0	5.536822859923455e+17
19627.0	5.53584161788177e+17
19628.0	5.534765153954475e+17
19629.0	5.53374295733043e+17
19630.0	5.532625501771092e+17
19631.0	5.527490458025983e+17
19632.0	5.530916961823402e+17
19633.0	5.5299118562891085e+17
19634.0	5.528976194448041e+17
19635.0	5.5279527779805856e+17
19636.0	5.5269896315644576e+17
19637.0	5.525765621110101e+17
19638.0	5.525220237858133e+17
19639.0	5.524233429275988e+17
19640.0	5.5231620893900794e+17
19641.0	5.521168080917848e+17
19642.0	5.5212816682625683e+17
19643.0	5.5202928932509e+17
19644.0	5.519249412631209e+17
19645.0	5.518024905850879e+17
19646.0	5.517330763218944e+17
19647.0	5.516361191828137e+17
19648.0	5.515374744655187e+17
19649.0	5.5143844820637005e+17
19650.0	5.5133998062851405e+17
19651.0	5.5124051606459725e+17
19652.0	5.511421245434538e+17
19653.0	5.5104335155036154e+17
19654.0	5.5094380344989005e+17
19655.0	5.50844553564433e+17
19656.0	5.507461815468031e+17
19657.0	5.506480580416852e+17
19658.0	5.5054913922662394e+17
19659.0	5.504500214617428e+17
19660.0	5.503512593738409e+17
19661.0	5.502522920446634e+17
19662.0	5.5015328500940794e+17
