# Flux units: erg / (cm m2 s)
# Wavelength units: Angstrom
wave	flux
19000.0	5.914521470937769e+17
19001.0	5.913326089404415e+17
19002.0	5.912317541045588e+17
19003.0	5.911213138160297e+17
19004.0	5.910109938341204e+17
19005.0	5.909010299486207e+17
19006.0	5.907907967888042e+17
19007.0	5.906793053377876e+17
19008.0	5.905646290119337e+17
19009.0	5.904490521690111e+17
19010.0	5.903067497103359e+17
19011.0	5.902398123933695e+17
19012.0	5.901204634730496e+17
19013.0	5.900220609069055e+17
19014.0	5.899068835015337e+17
19015.0	5.897982672459091e+17
19016.0	5.896865616057684e+17
19017.0	5.895816796788052e+17
19018.0	5.894704763065684e+17
19019.0	5.893606018296489e+17
19020.0	5.892490401240403e+17
19021.0	5.891407791259647e+17
19022.0	5.890310291499689e+17
19023.0	5.889172477487786e+17
19024.0	5.888090944744105e+17
19025.0	5.887003006599167e+17
19026.0	5.885879258185727e+17
19027.0	5.884741775523839e+17
19028.0	5.883704300448426e+17
19029.0	5.88260061688627e+17
19030.0	5.881514769601876e+17
19031.0	5.88041518317568e+17
19032.0	5.879310674034687e+17
19033.0	5.878130069733375e+17
19034.0	5.877103345358164e+17
19035.0	5.875976128954367e+17
19036.0	5.86967139029265e+17
19037.0	5.873804704219135e+17
19038.0	5.872696096544084e+17
19039.0	5.871619766135466e+17
19040.0	5.870521086377983e+17
19041.0	5.869420196921343e+17
19042.0	5.868230384025599e+17
19043.0	5.867225708407466e+17
19044.0	5.866116342262441e+17
19045.0	5.865029283523242e+17
19046.0	5.863881727541247e+17
19047.0	5.862809559979348e+17
19048.0	5.861540088162986e+17
19049.0	5.860557297025021e+17
19050.0	5.859501144014848e+17
19051.0	5.857687757651967e+17
19052.0	5.857181505159167e+17
19053.0	5.856249539198976e+17
19054.0	5.855150428127231e+17
19055.0	5.853817545424896e+17
19056.0	5.852933083452756e+17
19057.0	5.851855532501674e+17
19058.0	5.850748529846953e+17
19059.0	5.849666182709248e+17
19060.0	5.84855404552738e+17
19061.0	5.847480201641983e+17
19062.0	5.846379816899924e+17
19063.0	5.845286140947114e+17
19064.0	5.844074858807295e+17
19065.0	5.842937961250815e+17
19066.0	5.841952153010176e+17
19067.0	5.840905326034943e+17
19068.0	5.839813939473066e+17
19069.0	5.838719757407571e+17
19070.0	5.8376034189312e+17
19071.0	5.836532518049108e+17
19072.0	5.835435163691689e+17
19073.0	5.834339942137855e+17
19074.0	5.833251484598271e+17
19075.0	5.832158126014463e+17
19076.0	5.831046126545577e+17
19077.0	5.829955631972351e+17
19078.0	5.828853309461844e+17
19079.0	5.827784107971923e+17
19080.0	5.826677101122899e+17
19081.0	5.825564452934995e+17
19082.0	5.82446873575424e+17
19083.0	5.823321696370687e+17
19084.0	5.822118480576511e+17
19085.0	5.821233734789802e+17
19086.0	5.819810377454932e+17
19087.0	5.818893836746751e+17
19088.0	5.817882585858048e+17
19089.0	5.816640119067988e+17
19090.0	5.815752498784938e+17
19091.0	5.814659154881194e+17
19092.0	5.813520745977172e+17
19093.0	5.812506897416191e+17
19094.0	5.811415810048e+17
19095.0	5.810325603483647e+17
19096.0	5.809222071615487e+17
19097.0	5.808144401825791e+17
19098.0	5.807054613992788e+17
19099.0	5.805964620638889e+17
19100.0	5.80486383603985e+17
19101.0	5.803785314107391e+17
19102.0	5.802602322548052e+17
19103.0	5.801614475176618e+17
19104.0	5.800526175622484e+17
19105.0	5.799429271453695e+17
19106.0	5.798324040892413e+17
19107.0	5.797245741258068e+17
19108.0	5.796170539117225e+17
19109.0	5.794709620391935e+17
19110.0	5.793983145967615e+17
19111.0	5.792910112980991e+17
19112.0	5.791823039561727e+17
19113.0	5.790739353042943e+17
19114.0	5.789650394284031e+17
19115.0	5.788516469090988e+17
19116.0	5.787459387741524e+17
19117.0	5.78637229195264e+17
19118.0	5.785207941278378e+17
19119.0	5.778769335113038e+17
19120.0	5.783084999901183e+17
19121.0	5.782018524708863e+17
19122.0	5.780966753348265e+17
19123.0	5.779881364641108e+17
19124.0	5.778774707317418e+17
19125.0	5.7777077630621e+17
19126.0	5.776622324023295e+17
19127.0	5.773847612271273e+17
19128.0	5.774371990448809e+17
19129.0	5.773305383135914e+17
19130.0	5.772269545936212e+17
19131.0	5.771204224177491e+17
19132.0	5.770120143394132e+17
19133.0	5.768923940476244e+17
19134.0	5.767916677671593e+17
19135.0	5.766868996456448e+17
19136.0	5.76579294077474e+17
19137.0	5.7645576742065485e+17
19138.0	5.763609520330068e+17
19139.0	5.7625445704663034e+17
19140.0	5.761464181369513e+17
19141.0	5.7603817517438285e+17
19142.0	5.759277553680383e+17
19143.0	5.7581689788607136e+17
19144.0	5.757101101372758e+17
19145.0	5.7560557102475936e+17
19146.0	5.754436507577002e+17
19147.0	5.753782827395753e+17
19148.0	5.7528083759322445e+17
19149.0	5.7517280427595085e+17
19150.0	5.7506442450916685e+17
19151.0	5.749572498358271e+17
19152.0	5.748486378444116e+17
19153.0	5.747388722096809e+17
19154.0	5.746210419070291e+17
19155.0	5.74525287834146e+17
19156.0	5.744170806629716e+17
19157.0	5.7430844923794765e+17
19158.0	5.7417468030047565e+17
19159.0	5.7409174339147085e+17
19160.0	5.739842502306473e+17
19161.0	5.738767564406783e+17
19162.0	5.737107609179477e+17
19163.0	5.736597100167166e+17
19164.0	5.73554309603874e+17
19165.0	5.7344453809711776e+17
19166.0	5.733258722192041e+17
19167.0	5.7322539095599776e+17
19168.0	5.731213699099305e+17
19169.0	5.730130400553642e+17
19170.0	5.729075874234367e+17
19171.0	5.727962170479956e+17
19172.0	5.726922154355369e+17
19173.0	5.725845075263487e+17
19174.0	5.7247141287253325e+17
19175.0	5.723693458827947e+17
19176.0	5.722617331144021e+17
19177.0	5.721398414671871e+17
19178.0	5.7204469689658016e+17
19179.0	5.719335126783316e+17
19180.0	5.7182967583211494e+17
19181.0	5.717122172147028e+17
19182.0	5.716132671520768e+17
19183.0	5.715083553057449e+17
19184.0	5.7139930612804256e+17
19185.0	5.712927537496062e+17
19186.0	5.711855955039572e+17
19187.0	5.710720144506879e+17
19188.0	5.70970370806033e+17
19189.0	5.708630652704084e+17
19190.0	5.707552618009942e+17
19191.0	5.7064519228893856e+17
19192.0	5.705408811368447e+17
19193.0	5.704330940252158e+17
19194.0	5.703248686787242e+17
19195.0	5.702185123140947e+17
19196.0	5.701100253129386e+17
19197.0	5.7000260219699194e+17
19198.0	5.69895099179554e+17
19199.0	5.694416872975017e+17
19200.0	5.694367183754581e+17
19201.0	5.6957320990556154e+17
19202.0	5.694667124026026e+17
19203.0	5.693586173591552e+17
19204.0	5.692498516464981e+17
19205.0	5.69143754629666e+17
19206.0	5.6903600708430496e+17
19207.0	5.6891954251694074e+17
19208.0	5.688029580623871e+17
19209.0	5.6871462231517856e+17
19210.0	5.6860769321833805e+17
19211.0	5.685012232579753e+17
19212.0	5.683939519758335e+17
19213.0	5.682772315559252e+17
19214.0	5.681659810676736e+17
19215.0	5.6807069668693325e+17
19216.0	5.6796464972212896e+17
19217.0	5.678575210463231e+17
19218.0	5.676723796443134e+17
19219.0	5.6762949372477434e+17
19220.0	5.675336198346069e+17
19221.0	5.6739879351309645e+17
19222.0	5.673198242059604e+17
19223.0	5.6721199200556365e+17
19224.0	5.671022965555199e+17
19225.0	5.6698513377634963e+17
19226.0	5.668902786127189e+17
19227.0	5.667828614387028e+17
19228.0	5.666778641683796e+17
19229.0	5.665705956824404e+17
19230.0	5.6646300731091616e+17
19231.0	5.663549701488639e+17
19232.0	5.662478149091326e+17
19233.0	5.661351689060352e+17
19234.0	5.6603219538739194e+17
19235.0	5.659251310242474e+17
19236.0	5.6581980485058554e+17
19237.0	5.657110309590355e+17
19238.0	5.655964974492329e+17
19239.0	5.6549803951827616e+17
19240.0	5.6538770562525856e+17
19241.0	5.6528050886191776e+17
19242.0	5.651743106924543e+17
19243.0	5.6505441350669645e+17
19244.0	5.6496175245339296e+17
19245.0	5.648544249675775e+17
19246.0	5.647456372348243e+17
19247.0	5.6463963997252256e+17
19248.0	5.6453240161566714e+17
19249.0	5.6442468951217485e+17
19250.0	5.6431579971802445e+17
19251.0	5.6419757647899296e+17
19252.0	5.6407892206551034e+17
19253.0	5.639930508913321e+17
19254.0	5.6388745341610656e+17
19255.0	5.6376491032357536e+17
19256.0	5.6366833752255136e+17
19257.0	5.6356553317416954e+17
19258.0	5.63457943544354e+17
19259.0	5.633443999602004e+17
19260.0	5.632313188679678e+17
19261.0	5.631339651574442e+17
19262.0	5.630222955883177e+17
19263.0	5.629131318362111e+17
19264.0	5.627603947181396e+17
19265.0	5.626850285278549e+17
19266.0	5.625751574762836e+17
19267.0	5.624892224787796e+17
19268.0	5.623814352972458e+17
19269.0	5.6227361372241914e+17
19270.0	5.6216538383209805e+17
19271.0	5.620254754122411e+17
19272.0	5.619465251192832e+17
19273.0	5.617323343172947e+17
19274.0	5.61656534016546e+17
19275.0	5.616258405892096e+17
19276.0	5.615159106775721e+17
19277.0	5.614082600905386e+17
19278.0	5.613002110446249e+17
19279.0	5.611911985670826e+17
19280.0	5.6107680088282445e+17
19281.0	5.609748157519188e+17
19282.0	5.608682204517715e+17
19283.0	5.6075421269797536e+17
19284.0	5.606469831491583e+17
19285.0	5.6052524235707725e+17
19286.0	5.604306471703894e+17
19287.0	5.603252381592234e+17
19288.0	5.600545284816893e+17
19289.0	5.597808812534438e+17
19290.0	5.59998899917073e+17
19291.0	5.5986649056324256e+17
19292.0	5.5978085888382285e+17
19293.0	5.5967112883077114e+17
19294.0	5.595616711977641e+17
19295.0	5.594534148833279e+17
19296.0	5.5934356731985914e+17
19297.0	5.592332875333631e+17
19298.0	5.591224798937087e+17
19299.0	5.590148888657919e+17
19300.0	5.589049372835839e+17
19301.0	5.587950427439103e+17
19302.0	5.586837202534399e+17
19303.0	5.585687046782974e+17
19304.0	5.5846169945483936e+17
19305.0	5.583529757551273e+17
19306.0	5.582434415061673e+17
19307.0	5.581289124003838e+17
19308.0	5.580199077522091e+17
19309.0	5.5789805385373e+17
19310.0	5.5778293335108256e+17
19311.0	5.5768544696074234e+17
19312.0	5.5757757274740045e+17
19313.0	5.574669604924073e+17
19314.0	5.56745249678951e+17
19315.0	5.566663696405848e+17
19316.0	5.5713027238570643e+17
19317.0	5.5701915975024634e+17
19318.0	5.5690650256233805e+17
19319.0	5.567955626622975e+17
19320.0	5.566826705933653e+17
19321.0	5.565697825090217e+17
19322.0	5.5644889169264634e+17
19323.0	5.563384267276288e+17
19324.0	5.5623004926771194e+17
19325.0	5.56104294666513e+17
19326.0	5.5590849386031763e+17
19327.0	5.5577149153389216e+17
19328.0	5.556574287648083e+17
19329.0	5.555433898333524e+17
19330.0	5.554245891085653e+17
19331.0	5.553083827705172e+17
19332.0	5.5519619436598605e+17
19333.0	5.5508060249347405e+17
19334.0	5.549638659254954e+17
19335.0	5.548458602310313e+17
19336.0	5.54729778254097e+17
19337.0	5.546119164941653e+17
19338.0	5.544747569512446e+17
19339.0	5.543758249241258e+17
19340.0	5.5424698450356896e+17
19341.0	5.5413320722677754e+17
19342.0	5.539825072821589e+17
19343.0	5.538980281974783e+17
19344.0	5.5377717750661114e+17
19345.0	5.534768290594813e+17
19346.0	5.534421000126461e+17
19347.0	5.534062930296831e+17
19348.0	5.532913722458111e+17
19349.0	5.5316528147114643e+17
19350.0	5.530420045851306e+17
19351.0	5.5291765982931616e+17
19352.0	5.5278762410202445e+17
19353.0	5.5266947761875616e+17
19354.0	5.5254348296355834e+17
19355.0	5.524074695841108e+17
19356.0	5.522885691047935e+17
19357.0	5.5216024717011616e+17
19358.0	5.520299044197717e+17
19359.0	5.518938535013034e+17
19360.0	5.517651451314175e+17
19361.0	5.516345763080874e+17
19362.0	5.5138181538556576e+17
19363.0	5.512134295988906e+17
19364.0	5.5107773267968e+17
19365.0	5.5094124723131725e+17
19366.0	5.5080347035675296e+17
19367.0	5.506646112818515e+17
19368.0	5.505245968160084e+17
19369.0	5.503773650015572e+17
19370.0	5.502284786040831e+17
19371.0	5.50091606790417e+17
19372.0	5.4995076045428045e+17
19373.0	5.4980183987322874e+17
19374.0	5.4965536687827616e+17
19375.0	5.4950503512364365e+17
19376.0	5.492554436968447e+17
19377.0	5.4899184448307194e+17
19378.0	5.4883498737008634e+17
19379.0	5.486759220259497e+17
19380.0	5.4851473520285e+17
19381.0	5.4835139250749434e+17
19382.0	5.481790559660713e+17
19383.0	5.480070091112446e+17
19384.0	5.477798667179345e+17
19385.0	5.4741051246291616e+17
19386.0	5.472321161308842e+17
19387.0	5.470503593224873e+17
19388.0	5.468655332622335e+17
19389.0	5.466775008662867e+17
19390.0	5.4625792925805216e+17
19391.0	5.455082541110606e+17
19392.0	5.457436475391998e+17
19393.0	5.455523154143913e+17
19394.0	5.450839890766511e+17
19395.0	5.447272110926505e+17
19396.0	5.4449846843255456e+17
19397.0	5.440461271465981e+17
19398.0	5.435548515347113e+17
19399.0	5.4323467122988365e+17
19400.0	5.4251275035170125e+17
19401.0	5.4221241078251514e+17
19402.0	5.413899539753645e+17
19403.0	5.409615416830632e+17
19404.0	5.4029781285819725e+17
19405.0	5.399447777312768e+17
19406.0	5.3958132395322016e+17
19407.0	5.392053183010132e+17
19408.0	5.387449066848256e+17
19409.0	5.384072630457685e+17
19410.0	5.37988518064947e+17
19411.0	5.3755068669405856e+17
19412.0	5.3709517975715834e+17
19413.0	5.366209374235305e+17
19414.0	5.361241223943508e+17
19415.0	5.35612258062609e+17
19416.0	5.350669996610901e+17
19417.0	5.345231520137215e+17
19418.0	5.3395397293725005e+17
19419.0	5.333532206781779e+17
19420.0	5.3271008623547725e+17
19421.0	5.3206209982190925e+17
19422.0	5.313857169915903e+17
19423.0	5.3069412519553696e+17
19424.0	5.299819208420009e+17
19425.0	5.292446552424447e+17
19426.0	5.2848266673739085e+17
19427.0	5.2770117471873696e+17
19428.0	5.26872736694272e+17
19429.0	5.259870143337812e+17
19430.0	5.251150702619307e+17
19431.0	5.241422744999254e+17
19432.0	5.232631725686783e+17
19433.0	5.222530794476886e+17
19434.0	5.211127176757246e+17
19435.0	5.197675809647273e+17
19436.0	5.1799254431170605e+17
19437.0	5.1554995866173395e+17
19438.0	5.108985107578889e+17
19439.0	5.0745336355880966e+17
19440.0	5.049073228141908e+17
19441.0	5.020316703828649e+17
19442.0	4.9883672040789344e+17
19443.0	4.9555582061554336e+17
19444.0	4.918154914430975e+17
19445.0	4.864522092631373e+17
19446.0	4.760554794472798e+17
19447.0	4.673229154506065e+17
19448.0	4.567571821669044e+17
19449.0	4.3601771196579776e+17
19450.0	3.885865647822149e+17
19451.0	3.703884941186358e+17
19452.0	4.1666880544440365e+17
19453.0	4.47925480971742e+17
19454.0	4.6228749530344026e+17
19455.0	4.709577441760596e+17
19456.0	4.809951920783376e+17
19457.0	4.885503918735353e+17
19458.0	4.9114966714395475e+17
19459.0	4.957725380662619e+17
19460.0	4.9891343394843296e+17
19461.0	5.0177329042117965e+17
19462.0	5.043081223077888e+17
19463.0	5.070743990348454e+17
19464.0	5.11507150405632e+17
19465.0	5.1440746163951e+17
19466.0	5.1619170632772294e+17
19467.0	5.1750458192035795e+17
19468.0	5.1855641493722445e+17
19469.0	5.194112743505919e+17
19470.0	5.201734968279037e+17
19471.0	5.2095103019253754e+17
19472.0	5.2161765259782816e+17
19473.0	5.2228329192816614e+17
19474.0	5.2296731866781e+17
19475.0	5.234894472303956e+17
19476.0	5.241290891460607e+17
19477.0	5.2468504525974176e+17
19478.0	5.2521107319685114e+17
19479.0	5.257123838907732e+17
19480.0	5.26193454551313e+17
19481.0	5.266524525472426e+17
19482.0	5.270924998388394e+17
19483.0	5.275186226703019e+17
19484.0	5.279020508424875e+17
19485.0	5.2825820876854605e+17
19486.0	5.2859707357921274e+17
19487.0	5.2892063001914003e+17
19488.0	5.292215597968041e+17
19489.0	5.2948652677311136e+17
19490.0	5.2963970072794445e+17
19491.0	5.3000210718829216e+17
19492.0	5.302312094400511e+17
19493.0	5.3044050269306874e+17
19494.0	5.3063436482205005e+17
19495.0	5.308133717748394e+17
19496.0	5.309423246726483e+17
19497.0	5.311312169708202e+17
19498.0	5.313107555516418e+17
19499.0	5.3103475643733306e+17
19500.0	5.3216649164445005e+17
19501.0	5.325237721060691e+17
19502.0	5.327964425508182e+17
19503.0	5.3317306833087136e+17
19504.0	5.332228364042239e+17
19505.0	5.336056374580561e+17
19506.0	5.33733679702562e+17
19507.0	5.3375481584899405e+17
19508.0	5.339733053931519e+17
19509.0	5.341540431953919e+17
19510.0	5.341375142821887e+17
19511.0	5.330730292172113e+17
19512.0	5.341148020561237e+17
19513.0	5.342142898984273e+17
19514.0	5.3426719104696294e+17
19515.0	5.34365005292066e+17
19516.0	5.3438540463909536e+17
19517.0	5.343563349666473e+17
19518.0	5.3443946865841466e+17
19519.0	5.3454863094251514e+17
19520.0	5.345098323023189e+17
19521.0	5.344749444311722e+17
19522.0	5.344317296082943e+17
19523.0	5.343920781961898e+17
19524.0	5.3434735712884045e+17
19525.0	5.342999837933567e+17
19526.0	5.342529882947583e+17
19527.0	5.342965264285696e+17
19528.0	5.34342937870336e+17
19529.0	5.3428868321989965e+17
19530.0	5.342330211707562e+17
19531.0	5.341753714409471e+17
19532.0	5.3411633444509005e+17
19533.0	5.3405597987853645e+17
19534.0	5.3399399225972045e+17
19535.0	5.3393051454450336e+17
19536.0	5.3386364964918605e+17
19537.0	5.338023138951166e+17
19538.0	5.33722187309602e+17
19539.0	5.3361910564782074e+17
19540.0	5.3359789344467616e+17
19541.0	5.3353090230080845e+17
19542.0	5.3346049014278816e+17
19543.0	5.3338910951997434e+17
19544.0	5.3343904452662586e+17
19545.0	5.3334051326525414e+17
19546.0	5.332337471171242e+17
19547.0	5.332413328654335e+17
19548.0	5.331653314478079e+17
19549.0	5.3308114987909114e+17
19550.0	5.330127069467989e+17
19551.0	5.3293547345237325e+17
19552.0	5.328573096613204e+17
19553.0	5.3277618546059936e+17
19554.0	5.3269598959916365e+17
19555.0	5.3261841370972154e+17
19556.0	5.3253958022813005e+17
19557.0	5.324584145737044e+17
19558.0	5.3237732588475725e+17
19559.0	5.322955535242581e+17
19560.0	5.3221121865373e+17
19561.0	5.321284537111892e+17
19562.0	5.3204818263190176e+17
19563.0	5.319648009868628e+17
19564.0	5.3188105087221754e+17
19565.0	5.317969214526805e+17
19566.0	5.317095782875135e+17
19567.0	5.3162741236148896e+17
19568.0	5.31540207538449e+17
19569.0	5.3145602764745376e+17
19570.0	5.313711315790506e+17
19571.0	5.3128444915657376e+17
19572.0	5.3119606943907834e+17
19573.0	5.311096123905366e+17
19574.0	5.3101714280721056e+17
19575.0	5.3093772107448314e+17
19576.0	5.308504268428628e+17
19577.0	5.307606345536852e+17
19578.0	5.306706572257962e+17
19579.0	5.305840475045887e+17
19580.0	5.304955774697472e+17
19581.0	5.3040823793964365e+17
19582.0	5.303210181569194e+17
19583.0	5.302320553612628e+17
19584.0	5.3014187160371194e+17
19585.0	5.300437278960297e+17
19586.0	5.29951087464721e+17
19587.0	5.298720434989738e+17
19588.0	5.2973972830726816e+17
19589.0	5.296922828297556e+17
19590.0	5.2959470297634125e+17
19591.0	5.295140020507989e+17
19592.0	5.294233460845225e+17
19593.0	5.293310713965226e+17
19594.0	5.2922159377066656e+17
19595.0	5.291464101724159e+17
19596.0	5.29038805373201e+17
19597.0	5.289667791770964e+17
19598.0	5.288386315157502e+17
19599.0	5.28786142737203e+17
19600.0	5.286954679664639e+17
19601.0	5.285975418732543e+17
19602.0	5.2850643648730445e+17
19603.0	5.2840703728462483e+17
19604.0	5.284244322516991e+17
19605.0	5.2831123462772045e+17
19606.0	5.2824583088810656e+17
19607.0	5.2815400072642554e+17
19608.0	5.2805984538241696e+17
19609.0	5.2796441769629005e+17
19610.0	5.278765405263189e+17
19611.0	5.277832931792213e+17
19612.0	5.2769174221837645e+17
19613.0	5.275981411516415e+17
19614.0	5.275052715016191e+17
19615.0	5.274181220433919e+17
19616.0	5.2732124711266976e+17
19617.0	5.2723136660329805e+17
19618.0	5.270828644040702e+17
19619.0	5.269788116211028e+17
19620.0	5.2688919786946554e+17
19621.0	5.268598141135529e+17
19622.0	5.267671882224981e+17
19623.0	5.266739667402751e+17
19624.0	5.2657980405623443e+17
19625.0	5.2648734971221325e+17
19626.0	5.2639399170539514e+17
19627.0	5.263004757830313e+17
19628.0	5.261985101556394e+17
19629.0	5.2610399480053754e+17
19630.0	5.2598689186010445e+17
19631.0	5.2554459809928525e+17
19632.0	5.2583247226688845e+17
19633.0	5.257356637459796e+17
19634.0	5.256456023922004e+17
19635.0	5.2554852823203834e+17
19636.0	5.2545777887259296e+17
19637.0	5.2533181497562445e+17
19638.0	5.2526975318753274e+17
19639.0	5.2517546215778976e+17
19640.0	5.250685298453162e+17
19641.0	5.249004135426731e+17
19642.0	5.2489467699309216e+17
19643.0	5.248004481089535e+17
19644.0	5.247015011221503e+17
19645.0	5.245874150047743e+17
19646.0	5.245193496297471e+17
19647.0	5.24426002178594e+17
19648.0	5.243320868186793e+17
19649.0	5.2423784465257805e+17
19650.0	5.2414410720105805e+17
19651.0	5.2404957094434125e+17
19652.0	5.239557918993065e+17
19653.0	5.238618506046122e+17
19654.0	5.237679801936554e+17
19655.0	5.2367345833738234e+17
19656.0	5.2357919939406496e+17
19657.0	5.2348576316347725e+17
19658.0	5.2339166702906003e+17
