# Flux units: erg / (cm m2 s)
# Wavelength units: Angstrom
wave	flux
19000.0	8.737207151318356e+17
19001.0	8.735731818867372e+17
19002.0	8.734322869665791e+17
19003.0	8.732870094181715e+17
19004.0	8.731414223301289e+17
19005.0	8.72995601199923e+17
19006.0	8.728493321180498e+17
19007.0	8.727018037663059e+17
19008.0	8.725539681118889e+17
19009.0	8.724034728493056e+17
19010.0	8.722480582273705e+17
19011.0	8.721117093735081e+17
19012.0	8.719591453403817e+17
19013.0	8.71816780456482e+17
19014.0	8.716649354668713e+17
19015.0	8.71517103587328e+17
19016.0	8.713682324990632e+17
19017.0	8.712195469388458e+17
19018.0	8.710695519169194e+17
19019.0	8.709201218677418e+17
19020.0	8.707685324510548e+17
19021.0	8.7061905276928e+17
19022.0	8.704682314694655e+17
19023.0	8.70315097010995e+17
19024.0	8.701645294665728e+17
19025.0	8.700133459187028e+17
19026.0	8.69860716734054e+17
19027.0	8.697060793166505e+17
19028.0	8.695570298306557e+17
19029.0	8.694045350035455e+17
19030.0	8.692516249403391e+17
19031.0	8.690984047782569e+17
19032.0	8.689448569012224e+17
19033.0	8.68787360506402e+17
19034.0	8.686360258237779e+17
19035.0	8.684719419949055e+17
19036.0	8.680955039099561e+17
19037.0	8.681670274187264e+17
19038.0	8.680175551468884e+17
19039.0	8.678645995055786e+17
19040.0	8.677097588042412e+17
19041.0	8.675545373999103e+17
19042.0	8.6739578271389e+17
19043.0	8.672433101165907e+17
19044.0	8.670872814485503e+17
19045.0	8.669310678117033e+17
19046.0	8.667731606547114e+17
19047.0	8.666164768363858e+17
19048.0	8.664556440125437e+17
19049.0	8.663012052653395e+17
19050.0	8.661439619268607e+17
19051.0	8.659534808263336e+17
19052.0	8.658184443701928e+17
19053.0	8.656737341713066e+17
19054.0	8.655166742637225e+17
19055.0	8.653486391208617e+17
19056.0	8.651998172457642e+17
19057.0	8.6504191847738e+17
19058.0	8.64883201540096e+17
19059.0	8.647248131566249e+17
19060.0	8.646212728477011e+17
19061.0	8.644893748494333e+17
19062.0	8.643297027293181e+17
19063.0	8.641698909388797e+17
19064.0	8.64006692807202e+17
19065.0	8.638428680465064e+17
19066.0	8.636872339226624e+17
19067.0	8.635296929284092e+17
19068.0	8.633692107483818e+17
19069.0	8.63208537727522e+17
19070.0	8.630474700226557e+17
19071.0	8.628866906062845e+17
19072.0	8.627255211196416e+17
19073.0	8.625640981572268e+17
19074.0	8.624027316781053e+17
19075.0	8.62241072017135e+17
19076.0	8.620787478386006e+17
19077.0	8.619167731853992e+17
19078.0	8.617545447768063e+17
19079.0	8.615930580609708e+17
19080.0	8.6143048627869e+17
19081.0	8.612662657155071e+17
19082.0	8.611043061618004e+17
19083.0	8.609378613592063e+17
19084.0	8.607689087822505e+17
19085.0	8.60616101339682e+17
19086.0	8.604358802057896e+17
19087.0	8.602865366990847e+17
19088.0	8.601212795835732e+17
19089.0	8.599529133703167e+17
19090.0	8.597967060249258e+17
19091.0	8.596330913988607e+17
19092.0	8.594676406463146e+17
19093.0	8.59305973994837e+17
19094.0	8.591413744063828e+17
19095.0	8.589768292040703e+17
19096.0	8.588122059877032e+17
19097.0	8.586477106976084e+17
19098.0	8.584829155147773e+17
19099.0	8.583177793350313e+17
19100.0	8.581524820940115e+17
19101.0	8.579867220814505e+17
19102.0	8.578187906777085e+17
19103.0	8.576556470719827e+17
19104.0	8.574897318701737e+17
19105.0	8.573235088064511e+17
19106.0	8.571567491514364e+17
19107.0	8.569900213731327e+17
19108.0	8.56822352393011e+17
19109.0	8.56642976830805e+17
19110.0	8.564859381743613e+17
19111.0	8.563236209863336e+17
19112.0	8.561574551049558e+17
19113.0	8.559906193932285e+17
19114.0	8.558234024192681e+17
19115.0	8.55655047111202e+17
19116.0	8.554874512517801e+17
19117.0	8.553197828308991e+17
19118.0	8.551486322988372e+17
19119.0	8.549084858854056e+17
19120.0	8.54814240014336e+17
19121.0	8.546468910596095e+17
19122.0	8.544803243425791e+17
19123.0	8.543118110490624e+17
19124.0	8.541411360112637e+17
19125.0	8.539736111753897e+17
19126.0	8.538018815497555e+17
19127.0	8.53584321043934e+17
19128.0	8.534580719342932e+17
19129.0	8.532931010101248e+17
19130.0	8.531274036325034e+17
19131.0	8.529579225732436e+17
19132.0	8.527877238685695e+17
19133.0	8.526141418984788e+17
19134.0	8.524456449627475e+17
19135.0	8.522774231733588e+17
19136.0	8.521065974202365e+17
19137.0	8.519317686233769e+17
19138.0	8.517644748936532e+17
19139.0	8.515942538193577e+17
19140.0	8.514232075856553e+17
19141.0	8.512518597814952e+17
19142.0	8.510793111481e+17
19143.0	8.509071648882685e+17
19144.0	8.507361385076051e+17
19145.0	8.505646090900819e+17
19146.0	8.50369349698628e+17
19147.0	8.502176867418111e+17
19148.0	8.500472538551636e+17
19149.0	8.498745406652413e+17
19150.0	8.497015531678378e+17
19151.0	8.495284956255572e+17
19152.0	8.493550078874964e+17
19153.0	8.491804577322323e+17
19154.0	8.490043031158783e+17
19155.0	8.488334575097172e+17
19156.0	8.486593097280168e+17
19157.0	8.484833818836991e+17
19158.0	8.483048647557117e+17
19159.0	8.481344774471679e+17
19160.0	8.479608265506815e+17
19161.0	8.477832715960319e+17
19162.0	8.475885522911231e+17
19163.0	8.474290809383594e+17
19164.0	8.472603171050836e+17
19165.0	8.470854312656893e+17
19166.0	8.46906625709397e+17
19167.0	8.46731833123362e+17
19168.0	8.465568614405458e+17
19169.0	8.46380889276416e+17
19170.0	8.462046307811327e+17
19171.0	8.460137584918528e+17
19172.0	8.458170337503914e+17
19173.0	8.456397280772095e+17
19174.0	8.454606368888147e+17
19175.0	8.452842900335273e+17
19176.0	8.4510125326336e+17
19177.0	8.4490141578909e+17
19178.0	8.4472807583034e+17
19179.0	8.445490412650493e+17
19180.0	8.443704773006675e+17
19181.0	8.44188431364915e+17
19182.0	8.440107887493119e+17
19183.0	8.438315783028733e+17
19184.0	8.436509508807337e+17
19185.0	8.434705496713898e+17
19186.0	8.432898305338024e+17
19187.0	8.431058528414378e+17
19188.0	8.429271398394536e+17
19189.0	8.427452639128233e+17
19190.0	8.425629352809811e+17
19191.0	8.423806494310399e+17
19192.0	8.421978791389862e+17
19193.0	8.420143470215165e+17
19194.0	8.418302716018688e+17
19195.0	8.416450561703933e+17
19196.0	8.41457720238626e+17
19197.0	8.412664637510995e+17
19198.0	8.410600947668308e+17
19199.0	8.40752477381154e+17
19200.0	8.405869213515773e+17
19201.0	8.405085107956394e+17
19202.0	8.4034319314234e+17
19203.0	8.401644117732009e+17
19204.0	8.399808543500969e+17
19205.0	8.397966711368361e+17
19206.0	8.396106253729791e+17
19207.0	8.394212841444692e+17
19208.0	8.392317881461416e+17
19209.0	8.390270440352426e+17
19210.0	8.388150450367148e+17
19211.0	8.386265853110953e+17
19212.0	8.384375631293097e+17
19213.0	8.38244712386833e+17
19214.0	8.38054661202466e+17
19215.0	8.378681172951039e+17
19216.0	8.376786352777898e+17
19217.0	8.374869491537238e+17
19218.0	8.372751718940668e+17
19219.0	8.370975496907433e+17
19220.0	8.369137495572479e+17
19221.0	8.367151607272787e+17
19222.0	8.365292198210217e+17
19223.0	8.363381650795177e+17
19224.0	8.36143407326822e+17
19225.0	8.359476177753428e+17
19226.0	8.357571113691817e+17
19227.0	8.355616594591743e+17
19228.0	8.353676533257555e+17
19229.0	8.35171999110485e+17
19230.0	8.349758313725952e+17
19231.0	8.347793780026024e+17
19232.0	8.345819488976893e+17
19233.0	8.343820106203135e+17
19234.0	8.341421467631616e+17
19235.0	8.339246676268372e+17
19236.0	8.337262050454185e+17
19237.0	8.335256855773183e+17
19238.0	8.333219626396328e+17
19239.0	8.331241134052692e+17
19240.0	8.329215464177663e+17
19241.0	8.327184770924545e+17
19242.0	8.325159601569791e+17
19243.0	8.323056757899263e+17
19244.0	8.32108571463953e+17
19245.0	8.319034529415165e+17
19246.0	8.316973152032083e+17
19247.0	8.314911165076819e+17
19248.0	8.312485559926781e+17
19249.0	8.310326083365545e+17
19250.0	8.308238690112854e+17
19251.0	8.306104148688896e+17
19252.0	8.303923163736745e+17
19253.0	8.301439703755433e+17
19254.0	8.299031063166973e+17
19255.0	8.296831298917714e+17
19256.0	8.294771874682196e+17
19257.0	8.292645470208e+17
19258.0	8.290499537054376e+17
19259.0	8.288312893986132e+17
19260.0	8.286142200457898e+17
19261.0	8.28400859296563e+17
19262.0	8.281806581967528e+17
19263.0	8.279584256557055e+17
19264.0	8.277218473366868e+17
19265.0	8.275076242385578e+17
19266.0	8.272858583837353e+17
19267.0	8.270655085259433e+17
19268.0	8.268399754870784e+17
19269.0	8.265492951203837e+17
19270.0	8.262889018228735e+17
19271.0	8.260525010627242e+17
19272.0	8.258306193053011e+17
19273.0	8.25570681369395e+17
19274.0	8.253429923184637e+17
19275.0	8.251398925145425e+17
19276.0	8.249072664881833e+17
19277.0	8.246747977482237e+17
19278.0	8.244403926379177e+17
19279.0	8.242045925021012e+17
19280.0	8.239576247522643e+17
19281.0	8.236548362687827e+17
19282.0	8.233495483995478e+17
19283.0	8.230623581132114e+17
19284.0	8.228203175520937e+17
19285.0	8.225795482845181e+17
19286.0	8.223381456770387e+17
19287.0	8.220950572389715e+17
19288.0	8.217786024547666e+17
19289.0	8.214664917112147e+17
19290.0	8.213587152950611e+17
19291.0	8.211029067912531e+17
19292.0	8.208648980747604e+17
19293.0	8.206150533119999e+17
19294.0	8.203102728137385e+17
19295.0	8.200471347636905e+17
19296.0	8.197942351495165e+17
19297.0	8.195401187677523e+17
19298.0	8.192848643315028e+17
19299.0	8.190283732746241e+17
19300.0	8.187705698200234e+17
19301.0	8.18472247850871e+17
19302.0	8.181277531657556e+17
19303.0	8.178563723296767e+17
19304.0	8.175866195826004e+17
19305.0	8.173132959449085e+17
19306.0	8.170385969949352e+17
19307.0	8.167588166456659e+17
19308.0	8.164793189924863e+17
19309.0	8.161942886329002e+17
19310.0	8.15907325817651e+17
19311.0	8.156263735798441e+17
19312.0	8.153406226388306e+17
19313.0	8.150513802193578e+17
19314.0	8.146577334643369e+17
19315.0	8.143713237379754e+17
19316.0	8.141685777935018e+17
19317.0	8.138313916831063e+17
19318.0	8.134088514863101e+17
19319.0	8.131060813179561e+17
19320.0	8.127825364822698e+17
19321.0	8.1246842547514e+17
19322.0	8.121540600135679e+17
19323.0	8.118400271603028e+17
19324.0	8.115233401514664e+17
19325.0	8.112016525535914e+17
19326.0	8.108792614311251e+17
19327.0	8.105526093152253e+17
19328.0	8.102229816202578e+17
19329.0	8.098897089353043e+17
19330.0	8.094309187671382e+17
19331.0	8.090049090420736e+17
19332.0	8.086640063589033e+17
19333.0	8.0831665157789e+17
19334.0	8.079646363658921e+17
19335.0	8.076088822114986e+17
19336.0	8.072489886984873e+17
19337.0	8.068851463880705e+17
19338.0	8.065105115742208e+17
19339.0	8.061460248788991e+17
19340.0	8.057684660759209e+17
19341.0	8.053452139659268e+17
19342.0	8.047373529208146e+17
19343.0	8.043361804659369e+17
19344.0	8.039063247039145e+17
19345.0	8.034585450031785e+17
19346.0	8.030721869698387e+17
19347.0	8.026904333036202e+17
19348.0	8.022792335261693e+17
19349.0	8.018602102532777e+17
19350.0	8.014372946662739e+17
19351.0	8.009965222494207e+17
19352.0	8.002874527885994e+17
19353.0	7.998562726051839e+17
19354.0	7.994179679769939e+17
19355.0	7.989720238434985e+17
19356.0	7.985267870094675e+17
19357.0	7.980737571586045e+17
19358.0	7.975914586155688e+17
19359.0	7.970544923530579e+17
19360.0	7.965834576134144e+17
19361.0	7.960728684898985e+17
19362.0	7.953171041222655e+17
19363.0	7.948306782442836e+17
19364.0	7.943275071668224e+17
19365.0	7.938156899510953e+17
19366.0	7.932957156529491e+17
19367.0	7.927674748010496e+17
19368.0	7.922301530013693e+17
19369.0	7.916672463667199e+17
19370.0	7.9099000272541e+17
19371.0	7.904272455477928e+17
19372.0	7.895726898020351e+17
19373.0	7.889591920317782e+17
19374.0	7.883740544674472e+17
19375.0	7.877776342253565e+17
19376.0	7.871699763243689e+17
19377.0	7.865480190623744e+17
19378.0	7.859139469727059e+17
19379.0	7.851911705264124e+17
19380.0	7.844214600979796e+17
19381.0	7.837445230602922e+17
19382.0	7.83049258172416e+17
19383.0	7.823432038569299e+17
19384.0	7.816266826558122e+17
19385.0	7.806628373288278e+17
19386.0	7.798797417578496e+17
19387.0	7.791296197077673e+17
19388.0	7.78317225944678e+17
19389.0	7.77381423174997e+17
19390.0	7.76594006492228e+17
19391.0	7.756539511177212e+17
19392.0	7.749717419797162e+17
19393.0	7.741545148405076e+17
19394.0	7.732935042007037e+17
19395.0	7.724032753401855e+17
19396.0	7.714792210956287e+17
19397.0	7.705334307094527e+17
19398.0	7.695133255051949e+17
19399.0	7.683514352096594e+17
19400.0	7.67353938841873e+17
19401.0	7.663196933805395e+17
19402.0	7.652534353133564e+17
19403.0	7.641612191181481e+17
19404.0	7.630425063860905e+17
19405.0	7.618976430074538e+17
19406.0	7.607222726382932e+17
19407.0	7.595136039692969e+17
19408.0	7.582549941420032e+17
19409.0	7.569921038876672e+17
19410.0	7.556658451098281e+17
19411.0	7.543231043949906e+17
19412.0	7.529630075103913e+17
19413.0	7.5155674000698e+17
19414.0	7.500626630716072e+17
19415.0	7.485227485451604e+17
19416.0	7.469187843402408e+17
19417.0	7.452629978316799e+17
19418.0	7.435587300622336e+17
19419.0	7.418033899307005e+17
19420.0	7.399985737891837e+17
19421.0	7.381409988957526e+17
19422.0	7.361968970487126e+17
19423.0	7.341506152453459e+17
19424.0	7.320772821385215e+17
19425.0	7.298942075841194e+17
19426.0	7.276348319290708e+17
19427.0	7.252869178720256e+17
19428.0	7.228399923757056e+17
19429.0	7.202592450936828e+17
19430.0	7.175740509738326e+17
19431.0	7.147745232027647e+17
19432.0	7.118845796592297e+17
19433.0	7.088238780306774e+17
19434.0	7.056041012712787e+17
19435.0	7.022393645421906e+17
19436.0	6.9868888536733e+17
19437.0	6.949399314475689e+17
19438.0	6.908848602349565e+17
19439.0	6.868187738013697e+17
19440.0	6.823844218142719e+17
19441.0	6.776869315674108e+17
19442.0	6.726730474236588e+17
19443.0	6.6732621313693e+17
19444.0	6.615963564769276e+17
19445.0	6.554499169998167e+17
19446.0	6.488226458675882e+17
19447.0	6.416535807590396e+17
19448.0	6.33866285726652e+17
19449.0	6.253942551172436e+17
19450.0	6.159572990776655e+17
19451.0	6.107299587642708e+17
19452.0	6.207554882721108e+17
19453.0	6.293843883677016e+17
19454.0	6.372693909700603e+17
19455.0	6.444981238278825e+17
19456.0	6.511427941913943e+17
19457.0	6.572743673774075e+17
19458.0	6.628874152574975e+17
19459.0	6.682289245257729e+17
19460.0	6.731612373559976e+17
19461.0	6.777441905278973e+17
19462.0	6.820601871553879e+17
19463.0	6.860936155496445e+17
19464.0	6.898807282685268e+17
19465.0	6.934634695404202e+17
19466.0	6.968428383786323e+17
19467.0	7.000208673428819e+17
19468.0	7.030346115011926e+17
19469.0	7.059059417022461e+17
19470.0	7.0860422540602e+17
19471.0	7.111773749859668e+17
19472.0	7.136283579121661e+17
19473.0	7.159792372023293e+17
19474.0	7.182146242347008e+17
19475.0	7.203099995275263e+17
19476.0	7.223414926344191e+17
19477.0	7.24279928815616e+17
19478.0	7.261242787889151e+17
19479.0	7.278945123347113e+17
19480.0	7.296025124754772e+17
19481.0	7.312110494504275e+17
19482.0	7.327513210519551e+17
19483.0	7.342414195501738e+17
19484.0	7.356812272249513e+17
19485.0	7.37070267183923e+17
19486.0	7.384089490707795e+17
19487.0	7.39684597838643e+17
19488.0	7.409079725763242e+17
19489.0	7.420772386952532e+17
19490.0	7.431295976778408e+17
19491.0	7.442096071901183e+17
19492.0	7.452464812217683e+17
19493.0	7.462520201674751e+17
19494.0	7.472152868203178e+17
19495.0	7.481457854731603e+17
19496.0	7.490322744126121e+17
19497.0	7.498981293337257e+17
19498.0	7.50699838247185e+17
19499.0	7.513269531049983e+17
19500.0	7.523177531266387e+17
19501.0	7.53074353279249e+17
19502.0	7.537964661866493e+17
19503.0	7.546006403721897e+17
19504.0	7.553789092779348e+17
19505.0	7.560326800561491e+17
19506.0	7.56670312550673e+17
19507.0	7.572729926516735e+17
19508.0	7.578502268889769e+17
19509.0	7.583906215755773e+17
19510.0	7.589050828805459e+17
19511.0	7.592168682859176e+17
19512.0	7.598579792565586e+17
19513.0	7.604081442947067e+17
19514.0	7.609952087222953e+17
19515.0	7.614943710238034e+17
19516.0	7.620056364089344e+17
19517.0	7.626447980068861e+17
19518.0	7.630678232050348e+17
19519.0	7.63476194763298e+17
19520.0	7.638711625842684e+17
19521.0	7.642516978051752e+17
19522.0	7.646660273722706e+17
19523.0	7.651414402662399e+17
19524.0	7.654771845147306e+17
19525.0	7.658005878625619e+17
19526.0	7.661108396905812e+17
19527.0	7.664080570198697e+17
19528.0	7.666944522059775e+17
19529.0	7.669872357365076e+17
19530.0	7.675457545699327e+17
19531.0	7.678084063603368e+17
19532.0	7.681380720836608e+17
19533.0	7.684341849128956e+17
19534.0	7.686714285883391e+17
19535.0	7.688982334799871e+17
19536.0	7.691151997927424e+17
19537.0	7.693262181629951e+17
19538.0	7.695237545022803e+17
19539.0	7.69706147586594e+17
19540.0	7.701286373119315e+17
19541.0	7.703619386212351e+17
19542.0	7.70529200054818e+17
19543.0	7.70726092568439e+17
19544.0	7.709333108992681e+17
19545.0	7.710689904820224e+17
19546.0	7.712061460403539e+17
19547.0	7.713666841444351e+17
19548.0	7.715016156031658e+17
19549.0	7.716276752700755e+17
19550.0	7.719910992685736e+17
19551.0	7.72150535668804e+17
19552.0	7.722687055702697e+17
19553.0	7.723815692577449e+17
19554.0	7.724902199066621e+17
19555.0	7.725953888638292e+17
19556.0	7.72695135284975e+17
19557.0	7.727902555286185e+17
19558.0	7.728901992218621e+17
19559.0	7.730141399263914e+17
19560.0	7.732776732196863e+17
19561.0	7.734079094347091e+17
19562.0	7.734795940047528e+17
19563.0	7.735459554437802e+17
19564.0	7.736080365955753e+17
19565.0	7.736660482938195e+17
19566.0	7.737198620530004e+17
19567.0	7.737705523139923e+17
19568.0	7.738158825340925e+17
19569.0	7.738593914475859e+17
19570.0	7.738970828614314e+17
19571.0	7.739922072993791e+17
19572.0	7.741498829307903e+17
19573.0	7.74178323247923e+17
19574.0	7.741995728502783e+17
19575.0	7.742243953005906e+17
19576.0	7.742423621610154e+17
19577.0	7.742569921729875e+17
19578.0	7.742680373133311e+17
19579.0	7.742770201143978e+17
19580.0	7.742831928715945e+17
19581.0	7.742869962664617e+17
19582.0	7.742940137564841e+17
19583.0	7.743050144372051e+17
19584.0	7.743875437996713e+17
19585.0	7.744335630041087e+17
19586.0	7.744229969930922e+17
19587.0	7.744151825853098e+17
19588.0	7.743896053000872e+17
19589.0	7.743841169134932e+17
19590.0	7.743647037172393e+17
19591.0	7.743471003631615e+17
19592.0	7.74324912075571e+17
19593.0	7.742997230430889e+17
19594.0	7.74265317446997e+17
19595.0	7.7424443274909e+17
19596.0	7.742006219855187e+17
19597.0	7.741815500658003e+17
19598.0	7.741400611291136e+17
19599.0	7.741112002630995e+17
19600.0	7.741260595636905e+17
19601.0	7.741292135404883e+17
19602.0	7.740805748533926e+17
19603.0	7.740221093314557e+17
19604.0	7.739808158493353e+17
19605.0	7.739224701446825e+17
19606.0	7.738982144846508e+17
19607.0	7.7388446709405e+17
19608.0	7.738297414931795e+17
19609.0	7.737726964421972e+17
19610.0	7.737170244665343e+17
19611.0	7.736588805079039e+17
19612.0	7.735997928308735e+17
19613.0	7.735394026826409e+17
19614.0	7.734761745285117e+17
19615.0	7.734150087136595e+17
19616.0	7.73349723533039e+17
19617.0	7.73285870707234e+17
19618.0	7.732786393077076e+17
19619.0	7.732310803742719e+17
19620.0	7.731676995474772e+17
19621.0	7.731572659366568e+17
19622.0	7.731136455944872e+17
19623.0	7.730432643345066e+17
19624.0	7.729716906338985e+17
19625.0	7.728989746845012e+17
19626.0	7.728251248749225e+17
19627.0	7.727495654670335e+17
19628.0	7.726696326583634e+17
19629.0	7.725878177256787e+17
19630.0	7.724651720824147e+17
19631.0	7.723561299651242e+17
19632.0	7.72433293554483e+17
19633.0	7.72365181133346e+17
19634.0	7.722885924432554e+17
19635.0	7.722067217263273e+17
19636.0	7.721269250927273e+17
19637.0	7.720275034505215e+17
19638.0	7.719603306932905e+17
19639.0	7.718741418005844e+17
19640.0	7.717834218012673e+17
19641.0	7.71682642043426e+17
19642.0	7.716118293293738e+17
19643.0	7.715247339077632e+17
19644.0	7.714311238931796e+17
19645.0	7.713351076063913e+17
19646.0	7.712940580929533e+17
19647.0	7.712245920301053e+17
19648.0	7.711310548566015e+17
19649.0	7.71036674068753e+17
19650.0	7.70941666931507e+17
19651.0	7.708458859451732e+17
19652.0	7.707493771072851e+17
19653.0	7.706521358041088e+17
19654.0	7.705775424842408e+17
19655.0	7.704916445364221e+17
19656.0	7.70392413315618e+17
19657.0	7.702927777639081e+17
19658.0	7.701923067068416e+17
19659.0	7.700912097198079e+17
19660.0	7.69989564117811e+17
19661.0	7.698872783252136e+17
19662.0	7.697843183681536e+17
19663.0	7.696795854787923e+17
19664.0	7.695993892678314e+17
19665.0	7.69572886020096e+17
19666.0	7.694992962573654e+17
