# Flux units: erg / (cm m2 s)
# Wavelength units: Angstrom
wave	flux
19000.0	8.374587546228051e+17
19001.0	8.372913947628884e+17
19002.0	8.371472414277631e+17
19003.0	8.369907492891306e+17
19004.0	8.368338465281364e+17
19005.0	8.366783853494272e+17
19006.0	8.365224258874025e+17
19007.0	8.363150828459348e+17
19008.0	8.362018444673021e+17
19009.0	8.360501514513064e+17
19010.0	8.358438811729919e+17
19011.0	8.35737851544644e+17
19012.0	8.355285719930195e+17
19013.0	8.354271113598291e+17
19014.0	8.352629784575999e+17
19015.0	8.351099701078697e+17
19016.0	8.349527164234409e+17
19017.0	8.347784415543293e+17
19018.0	8.346398027502932e+17
19019.0	8.344863148518056e+17
19020.0	8.343230117227177e+17
19021.0	8.341700571998888e+17
19022.0	8.340168814974292e+17
19023.0	8.338549258584064e+17
19024.0	8.337007212931753e+17
19025.0	8.335403283120127e+17
19026.0	8.33381705187328e+17
19027.0	8.331900833759231e+17
19028.0	8.330754427016531e+17
19029.0	8.329156022501375e+17
19030.0	8.327621388184233e+17
19031.0	8.326057565705555e+17
19032.0	8.324485755873962e+17
19033.0	8.322808492851199e+17
19034.0	8.321314499941715e+17
19035.0	8.319709738259796e+17
19036.0	8.287374066144575e+17
19037.0	8.316598990755156e+17
19038.0	8.315017989805396e+17
19039.0	8.31347094594082e+17
19040.0	8.311904448894291e+17
19041.0	8.310320274254505e+17
19042.0	8.308647796932608e+17
19043.0	8.307185194194259e+17
19044.0	8.305593521537025e+17
19045.0	8.30401453245508e+17
19046.0	8.302383549382656e+17
19047.0	8.300880254905002e+17
19048.0	8.299067211076947e+17
19049.0	8.297649593647101e+17
19050.0	8.296099970285567e+17
19051.0	8.289756660105206e+17
19052.0	8.292609308317012e+17
19053.0	8.291304911929343e+17
19054.0	8.289858504796842e+17
19055.0	8.287982581361322e+17
19056.0	8.286671365035348e+17
19057.0	8.285110424043519e+17
19058.0	8.283410148272809e+17
19059.0	8.28197196477235e+17
19060.0	8.280366856361298e+17
19061.0	8.278824317179222e+17
19062.0	8.277242899595263e+17
19063.0	8.275668868180649e+17
19064.0	8.273939634935124e+17
19065.0	8.27229333566259e+17
19066.0	8.270858693552809e+17
19067.0	8.269344291160063e+17
19068.0	8.267783699693567e+17
19069.0	8.266207807406079e+17
19070.0	8.264591869302098e+17
19071.0	8.263025892349267e+17
19072.0	8.261471688807764e+17
19073.0	8.259886015403347e+17
19074.0	8.258320158687231e+17
19075.0	8.256742335621802e+17
19076.0	8.255138000360787e+17
19077.0	8.253577088729088e+17
19078.0	8.251927115246249e+17
19079.0	8.250426923155453e+17
19080.0	8.248834025761449e+17
19081.0	8.247216407139667e+17
19082.0	8.245620907879081e+17
19083.0	8.2439632336541e+17
19084.0	8.242226534547455e+17
19085.0	8.240938776963753e+17
19086.0	8.23884941099008e+17
19087.0	8.236860406322518e+17
19088.0	8.236048375087103e+17
19089.0	8.233905826736809e+17
19090.0	8.232994772178258e+17
19091.0	8.231442791617876e+17
19092.0	8.2296076004666e+17
19093.0	8.228323633135615e+17
19094.0	8.226726423997097e+17
19095.0	8.225139142776148e+17
19096.0	8.223545251332093e+17
19097.0	8.222004131222868e+17
19098.0	8.220430296940544e+17
19099.0	8.218847616871084e+17
19100.0	8.217225464206676e+17
19101.0	8.215684170732883e+17
19102.0	8.214028683138387e+17
19103.0	8.212541764621654e+17
19104.0	8.210967250862079e+17
19105.0	8.209383677405866e+17
19106.0	8.207626213698216e+17
19107.0	8.206198594251433e+17
19108.0	8.204634970303145e+17
19109.0	8.19941886813798e+17
19110.0	8.201406810248531e+17
19111.0	8.199895566166697e+17
19112.0	8.19833028686643e+17
19113.0	8.19675334320674e+17
19114.0	8.195168518449833e+17
19115.0	8.193485380605267e+17
19116.0	8.191986762776573e+17
19117.0	8.190405903035049e+17
19118.0	8.188597147183785e+17
19119.0	8.185089408805542e+17
19120.0	8.185423099243177e+17
19121.0	8.183952734246227e+17
19122.0	8.182539910905853e+17
19123.0	8.180940508146345e+17
19124.0	8.179187381349033e+17
19125.0	8.177763071208105e+17
19126.0	8.176161912433321e+17
19127.0	8.172778121330684e+17
19128.0	8.170032680927226e+17
19129.0	8.17136872194048e+17
19130.0	8.169886680001196e+17
19131.0	8.168214968838825e+17
19132.0	8.166739278473897e+17
19133.0	8.164190796993878e+17
19134.0	8.162107575675564e+17
19135.0	8.161988978933761e+17
19136.0	8.160423962476543e+17
19137.0	8.158646743597055e+17
19138.0	8.156959731613693e+17
19139.0	8.155664330610003e+17
19140.0	8.154104554236585e+17
19141.0	8.152527090483199e+17
19142.0	8.150904448483327e+17
19143.0	8.149297399507625e+17
19144.0	8.147732910134612e+17
19145.0	8.146156652942676e+17
19146.0	8.143723619680255e+17
19147.0	8.142826519571113e+17
19148.0	8.1413212747421e+17
19149.0	8.139739043463167e+17
19150.0	8.138155163822761e+17
19151.0	8.136592382929577e+17
19152.0	8.13496274063633e+17
19153.0	8.133412223888042e+17
19154.0	8.131709821605202e+17
19155.0	8.130259608840873e+17
19156.0	8.128674423373821e+17
19157.0	8.126985825943551e+17
19158.0	8.123077453239633e+17
19159.0	8.123864805190313e+17
19160.0	8.122262815943336e+17
19161.0	8.120428133700948e+17
19162.0	8.113585284710405e+17
19163.0	8.117491824503466e+17
19164.0	8.116019587448831e+17
19165.0	8.114354919920979e+17
19166.0	8.112652029700777e+17
19167.0	8.110744517563731e+17
19168.0	8.10951622682214e+17
19169.0	8.107952142898518e+17
19170.0	8.106519052681215e+17
19171.0	8.104680301963948e+17
19172.0	8.103322896564221e+17
19173.0	8.101764965684566e+17
19174.0	8.100134162967209e+17
19175.0	8.098610583437311e+17
19176.0	8.097015089769128e+17
19177.0	8.095258501272915e+17
19178.0	8.093731306252969e+17
19179.0	8.091869425347241e+17
19180.0	8.090132144630442e+17
19181.0	8.088940668693161e+17
19182.0	8.087385430556672e+17
19183.0	8.085854049621331e+17
19184.0	8.084118585038164e+17
19185.0	8.082717988093948e+17
19186.0	8.0811515735354e+17
19187.0	8.079449126513322e+17
19188.0	8.077934854144e+17
19189.0	8.076245817709906e+17
19190.0	8.074624236868948e+17
19191.0	8.073092843350697e+17
19192.0	8.071537697488893e+17
19193.0	8.069445954742952e+17
19194.0	8.068150774639273e+17
19195.0	8.066763894467241e+17
19196.0	8.065175157822804e+17
19197.0	8.06353793782033e+17
19198.0	8.061707775639551e+17
19199.0	8.027866274288972e+17
19200.0	8.036776501313549e+17
19201.0	8.056966365227689e+17
19202.0	8.055587433261736e+17
19203.0	8.053976538109267e+17
19204.0	8.052428213583871e+17
19205.0	8.050868268040191e+17
19206.0	8.049268320021161e+17
19207.0	8.047523207140692e+17
19208.0	8.04577947558434e+17
19209.0	8.044328130357928e+17
19210.0	8.042752155582463e+17
19211.0	8.041162514366463e+17
19212.0	8.039568597756585e+17
19213.0	8.03758120509986e+17
19214.0	8.035797554954237e+17
19215.0	8.034628770201599e+17
19216.0	8.033120649478143e+17
19217.0	8.031548417419944e+17
19218.0	8.029030290117969e+17
19219.0	8.028143268921343e+17
19220.0	8.026686529819987e+17
19221.0	8.024722184863744e+17
19222.0	8.023523937921705e+17
19223.0	8.021885905622356e+17
19224.0	8.020187111839059e+17
19225.0	8.018505955104084e+17
19226.0	8.017043574663849e+17
19227.0	8.015427843478868e+17
19228.0	8.01385494033203e+17
19229.0	8.012238598176765e+17
19230.0	8.010484987636392e+17
19231.0	8.008893386282323e+17
19232.0	8.007320924935506e+17
19233.0	8.005670878751402e+17
19234.0	8.00411445362688e+17
19235.0	8.002475195192659e+17
19236.0	8.000897449022803e+17
19237.0	7.999249737667924e+17
19238.0	7.997492197064703e+17
19239.0	7.996010838796969e+17
19240.0	7.994066987210067e+17
19241.0	7.992639272692394e+17
19242.0	7.991094587424767e+17
19243.0	7.989270913832276e+17
19244.0	7.987861791266132e+17
19245.0	7.98621911027985e+17
19246.0	7.98456976454451e+17
19247.0	7.982937419721388e+17
19248.0	7.981304950467244e+17
19249.0	7.979563555138217e+17
19250.0	7.977840445576531e+17
19251.0	7.976103942204072e+17
19252.0	7.974158151450621e+17
19253.0	7.972897240208723e+17
19254.0	7.97122234556962e+17
19255.0	7.969366277969234e+17
19256.0	7.967850491456169e+17
19257.0	7.966297340684969e+17
19258.0	7.96464205861137e+17
19259.0	7.962887862266538e+17
19260.0	7.960906770852521e+17
19261.0	7.959638153276073e+17
19262.0	7.957913716916221e+17
19263.0	7.956259912635731e+17
19264.0	7.954083498076841e+17
19265.0	7.952763008144722e+17
19266.0	7.951158280017238e+17
19267.0	7.949608711181651e+17
19268.0	7.947911543390207e+17
19269.0	7.946233909870591e+17
19270.0	7.944539452997632e+17
19271.0	7.94249268157918e+17
19272.0	7.941116496882348e+17
19273.0	7.931225145256607e+17
19274.0	7.933583120050853e+17
19275.0	7.936052677312511e+17
19276.0	7.934324789040468e+17
19277.0	7.932611614386858e+17
19278.0	7.930901005249192e+17
19279.0	7.929052441258666e+17
19280.0	7.927369953531222e+17
19281.0	7.925729673084927e+17
19282.0	7.924005640776361e+17
19283.0	7.921784616998227e+17
19284.0	7.919377936547839e+17
19285.0	7.9184456084794e+17
19286.0	7.916805708316671e+17
19287.0	7.915097194932905e+17
19288.0	7.906252740187474e+17
19289.0	7.890677372638508e+17
19290.0	7.909819938417322e+17
19291.0	7.90773626830848e+17
19292.0	7.906279941647017e+17
19293.0	7.904491202412543e+17
19294.0	7.902700563158356e+17
19295.0	7.900925226123261e+17
19296.0	7.899121202845012e+17
19297.0	7.897285026032297e+17
19298.0	7.895481213867347e+17
19299.0	7.893705872637952e+17
19300.0	7.891883962051242e+17
19301.0	7.890044211691519e+17
19302.0	7.888207137297748e+17
19303.0	7.88626106552593e+17
19304.0	7.884459294588928e+17
19305.0	7.882575764084051e+17
19306.0	7.880496011455142e+17
19307.0	7.878554992421545e+17
19308.0	7.876711095293266e+17
19309.0	7.873862536527871e+17
19310.0	7.871303242132136e+17
19311.0	7.8707996781882e+17
19312.0	7.869000669899434e+17
19313.0	7.866986774833833e+17
19314.0	7.855704824086513e+17
19315.0	7.854333413905768e+17
19316.0	7.861198803085994e+17
19317.0	7.859318988734464e+17
19318.0	7.857347092632915e+17
19319.0	7.855075398866259e+17
19320.0	7.85301596344593e+17
19321.0	7.851041227800573e+17
19322.0	7.848811851765075e+17
19323.0	7.84646162944273e+17
19324.0	7.844904411594751e+17
19325.0	7.842100673161897e+17
19326.0	7.840804595477161e+17
19327.0	7.838739567651497e+17
19328.0	7.83661717992243e+17
19329.0	7.834121192953174e+17
19330.0	7.831952911149738e+17
19331.0	7.829869118007978e+17
19332.0	7.827759408261802e+17
19333.0	7.825568593259177e+17
19334.0	7.823372917058217e+17
19335.0	7.821204214426284e+17
19336.0	7.818820109118122e+17
19337.0	7.816454314743123e+17
19338.0	7.813748016982697e+17
19339.0	7.811650258206719e+17
19340.0	7.809301942894591e+17
19341.0	7.807021624240809e+17
19342.0	7.804196922676563e+17
19343.0	7.802299082604543e+17
19344.0	7.799891757629441e+17
19345.0	7.795309086244858e+17
19346.0	7.79442420973568e+17
19347.0	7.792483403213481e+17
19348.0	7.790057856783699e+17
19349.0	7.787474275969706e+17
19350.0	7.78492936524049e+17
19351.0	7.782329597209257e+17
19352.0	7.779491490649427e+17
19353.0	7.776726921423528e+17
19354.0	7.774033802166271e+17
19355.0	7.771199895502848e+17
19356.0	7.768533730241194e+17
19357.0	7.765728829986131e+17
19358.0	7.762809625160361e+17
19359.0	7.759583275646973e+17
19360.0	7.757036063642964e+17
19361.0	7.753952309280765e+17
19362.0	7.750590841662122e+17
19363.0	7.747527316428114e+17
19364.0	7.744411925828947e+17
19365.0	7.741248639074301e+17
19366.0	7.737934395124394e+17
19367.0	7.734641804967933e+17
19368.0	7.730925254563155e+17
19369.0	7.727056673221288e+17
19370.0	7.722833037055315e+17
19371.0	7.72020761666082e+17
19372.0	7.716683633743187e+17
19373.0	7.712553178234879e+17
19374.0	7.708415947527508e+17
19375.0	7.704613757823657e+17
19376.0	7.700725854721366e+17
19377.0	7.696256412767572e+17
19378.0	7.691614580725075e+17
19379.0	7.687470753775616e+17
19380.0	7.683108030294697e+17
19381.0	7.677568368334164e+17
19382.0	7.673040000603476e+17
19383.0	7.668042063762772e+17
19384.0	7.662192184087891e+17
19385.0	7.657357239298728e+17
19386.0	7.650909640545618e+17
19387.0	7.64560709517312e+17
19388.0	7.639670780679508e+17
19389.0	7.634125196361728e+17
19390.0	7.628692430432936e+17
19391.0	7.599704148454021e+17
19392.0	7.617329192676008e+17
19393.0	7.611205290732202e+17
19394.0	7.605153087619072e+17
19395.0	7.598887636303872e+17
19396.0	7.592472712577024e+17
19397.0	7.585945352142847e+17
19398.0	7.578693926212947e+17
19399.0	7.570911723694761e+17
19400.0	7.564253382137172e+17
19401.0	7.556800120706386e+17
19402.0	7.548314829804884e+17
19403.0	7.540241145528317e+17
19404.0	7.531913557661012e+17
19405.0	7.522290856798889e+17
19406.0	7.513378541010943e+17
19407.0	7.503236918061736e+17
19408.0	7.492610416792915e+17
19409.0	7.481835585361238e+17
19410.0	7.470838082524502e+17
19411.0	7.45852145849685e+17
19412.0	7.445594415038463e+17
19413.0	7.432112068100096e+17
19414.0	7.417492678901761e+17
19415.0	7.40172934361907e+17
19416.0	7.385318863579817e+17
19417.0	7.370498968474964e+17
19418.0	7.35656792747759e+17
19419.0	7.341521556733951e+17
19420.0	7.325565277874857e+17
19421.0	7.309091209390761e+17
19422.0	7.291683560139433e+17
19423.0	7.273416439278248e+17
19424.0	7.254199003774975e+17
19425.0	7.234053247161684e+17
19426.0	7.212553036540585e+17
19427.0	7.189296975620778e+17
19428.0	7.16447236104738e+17
19429.0	7.13748939538432e+17
19430.0	7.10757572131772e+17
19431.0	7.071909279694857e+17
19432.0	7.041832960305833e+17
19433.0	7.010850666359466e+17
19434.0	6.97837301146146e+17
19435.0	6.943309507330045e+17
19436.0	6.905005964875091e+17
19437.0	6.86545668477201e+17
19438.0	6.80743652451942e+17
19439.0	6.77270507015373e+17
19440.0	6.720043796660221e+17
19441.0	6.665869811777532e+17
19442.0	6.609391962816515e+17
19443.0	6.54760146440465e+17
19444.0	6.480047266682194e+17
19445.0	6.407228538661549e+17
19446.0	6.329861595463679e+17
19447.0	6.245711323944273e+17
19448.0	6.153346452815873e+17
19449.0	6.04018486350097e+17
19450.0	5.814718391735565e+17
19451.0	5.709531938728629e+17
19452.0	5.944542911354204e+17
19453.0	6.099198510366724e+17
19454.0	6.195464374321147e+17
19455.0	6.280950038134783e+17
19456.0	6.359144112062467e+17
19457.0	6.431680065699835e+17
19458.0	6.495430814029148e+17
19459.0	6.561627418307244e+17
19460.0	6.617927751740072e+17
19461.0	6.670081985609727e+17
19462.0	6.721685855491412e+17
19463.0	6.769362028811602e+17
19464.0	6.812886614321834e+17
19465.0	6.852733615210497e+17
19466.0	6.888496185387686e+17
19467.0	6.922280025544019e+17
19468.0	6.953222533021696e+17
19469.0	6.981348642258941e+17
19470.0	7.010854170700456e+17
19471.0	7.042158248154458e+17
19472.0	7.070236654174205e+17
19473.0	7.095653143762262e+17
19474.0	7.118612526181037e+17
19475.0	7.139246508168531e+17
19476.0	7.1590489372317e+17
19477.0	7.17689016427042e+17
19478.0	7.19402081329698e+17
19479.0	7.209565520483667e+17
19480.0	7.224733163935062e+17
19481.0	7.23865235043123e+17
19482.0	7.252074216904019e+17
19483.0	7.264665279834794e+17
19484.0	7.276408394306899e+17
19485.0	7.287526420469076e+17
19486.0	7.300338995778899e+17
19487.0	7.313571528572925e+17
19488.0	7.325623064199168e+17
19489.0	7.337076433354753e+17
19490.0	7.346198826450941e+17
19491.0	7.356386593734653e+17
19492.0	7.365278484660223e+17
19493.0	7.373626182817108e+17
19494.0	7.381000447328255e+17
19495.0	7.388433310460586e+17
19496.0	7.394547484415316e+17
19497.0	7.401130015326207e+17
19498.0	7.40601245641387e+17
19499.0	7.376303822296367e+17
19500.0	7.417680464882345e+17
19501.0	7.422702222573565e+17
19502.0	7.427100944367616e+17
19503.0	7.431287705610921e+17
19504.0	7.435584256955732e+17
19505.0	7.439552971713194e+17
19506.0	7.4431054521303e+17
19507.0	7.446433591809364e+17
19508.0	7.449617833306793e+17
19509.0	7.452683011096575e+17
19510.0	7.455616999445844e+17
19511.0	7.431740040325784e+17
19512.0	7.456144301752301e+17
19513.0	7.452606067987779e+17
19514.0	7.459034101710838e+17
19515.0	7.467823429320705e+17
19516.0	7.471734777184253e+17
19517.0	7.474273841053693e+17
19518.0	7.476349712553299e+17
19519.0	7.479411249687209e+17
19520.0	7.480920206475264e+17
19521.0	7.482676452436649e+17
19522.0	7.484892935181651e+17
19523.0	7.486167296158377e+17
19524.0	7.487300590108671e+17
19525.0	7.489129643595094e+17
19526.0	7.490314045139625e+17
19527.0	7.491194935661908e+17
19528.0	7.491998084759552e+17
19529.0	7.493260409481896e+17
19530.0	7.494214373168467e+17
19531.0	7.494804598423552e+17
19532.0	7.495327870003881e+17
19533.0	7.495789099439444e+17
19534.0	7.496460950044671e+17
19535.0	7.497133471738538e+17
19536.0	7.497402479017983e+17
19537.0	7.497691014976851e+17
19538.0	7.497915538866175e+17
19539.0	7.497505424015363e+17
19540.0	7.498131235143679e+17
19541.0	7.498449581419177e+17
19542.0	7.498652229216938e+17
19543.0	7.498601272617641e+17
19544.0	7.498507427861846e+17
19545.0	7.49800550389077e+17
19546.0	7.497236817990995e+17
19547.0	7.497982073110525e+17
19548.0	7.497751129139881e+17
19549.0	7.497347778303314e+17
19550.0	7.497160860543657e+17
19551.0	7.497044263086761e+17
19552.0	7.496781418637994e+17
19553.0	7.496365449936893e+17
19554.0	7.49590847352559e+17
19555.0	7.495476973316777e+17
19556.0	7.495006239588351e+17
19557.0	7.494488094845609e+17
19558.0	7.493948764673363e+17
19559.0	7.493359532070228e+17
19560.0	7.49277144031778e+17
19561.0	7.492166370022739e+17
19562.0	7.491565249363965e+17
19563.0	7.490914027743914e+17
19564.0	7.490251422782803e+17
19565.0	7.489562575459667e+17
19566.0	7.488819502776317e+17
19567.0	7.488383956462249e+17
19568.0	7.487808003025578e+17
19569.0	7.487061661581311e+17
19570.0	7.486310651876691e+17
19571.0	7.485514977028777e+17
19572.0	7.484661026521087e+17
19573.0	7.483865284564308e+17
19574.0	7.482922785308671e+17
19575.0	7.482272423520938e+17
19576.0	7.48170613236258e+17
19577.0	7.480774385904298e+17
19578.0	7.479897163999914e+17
19579.0	7.479003110353578e+17
19580.0	7.478093399370409e+17
19581.0	7.477178048446464e+17
19582.0	7.476257500779859e+17
19583.0	7.475306463319382e+17
19584.0	7.4743300503197e+17
19585.0	7.473229993432403e+17
19586.0	7.472239198164308e+17
19587.0	7.471437296173056e+17
19588.0	7.470144962603689e+17
19589.0	7.46952437338385e+17
19590.0	7.468566243355305e+17
19591.0	7.467642821192361e+17
19592.0	7.466619560613203e+17
19593.0	7.465549072171005e+17
19594.0	7.464184948894377e+17
19595.0	7.46344650252834e+17
19596.0	7.455118278524933e+17
19597.0	7.461282914151081e+17
19598.0	7.459995721400319e+17
19599.0	7.459163340799999e+17
19600.0	7.458080547667965e+17
19601.0	7.45700582297873e+17
19602.0	7.456127049181864e+17
19603.0	7.454193844136616e+17
19604.0	7.45392674107119e+17
19605.0	7.452537988841471e+17
19606.0	7.451746660690602e+17
19607.0	7.450631528076628e+17
19608.0	7.449470905439572e+17
19609.0	7.448270868927828e+17
19610.0	7.447196683905705e+17
19611.0	7.446030317868374e+17
19612.0	7.444882759090175e+17
19613.0	7.443702718223702e+17
19614.0	7.442498849516202e+17
19615.0	7.441375138152447e+17
19616.0	7.439965083052714e+17
19617.0	7.439012616732671e+17
19618.0	7.437302407451987e+17
19619.0	7.435916128463529e+17
19620.0	7.434763321212925e+17
19621.0	7.434245032465748e+17
19622.0	7.433052714871464e+17
19623.0	7.431849202679807e+17
19624.0	7.430629005546836e+17
19625.0	7.429426453850794e+17
19626.0	7.428207372402688e+17
19627.0	7.426990820119894e+17
19628.0	7.425142591673686e+17
19629.0	7.424596637297321e+17
19630.0	7.422550602678273e+17
19631.0	7.388595904053233e+17
19632.0	7.420969940069034e+17
19633.0	7.419736771351892e+17
19634.0	7.418568811479039e+17
19635.0	7.417280968611156e+17
19636.0	7.416080962857642e+17
19637.0	7.414349534593025e+17
19638.0	7.413597651075071e+17
19639.0	7.412322582659071e+17
19640.0	7.411026056183808e+17
19641.0	7.409311496011775e+17
19642.0	7.408583234813951e+17
19643.0	7.407298195139241e+17
19644.0	7.406011115634687e+17
19645.0	7.404536399746387e+17
19646.0	7.403557552652287e+17
19647.0	7.402292630257661e+17
19648.0	7.401019981955071e+17
19649.0	7.399748105404415e+17
19650.0	7.398486662884009e+17
19651.0	7.397205683295572e+17
19652.0	7.39592964739345e+17
19653.0	7.39465067967283e+17
19654.0	7.393375612654932e+17
19655.0	7.392091114045437e+17
19656.0	7.390818556619433e+17
19657.0	7.389538717881684e+17
19658.0	7.388259297176233e+17
19659.0	7.386980107157503e+17
19660.0	7.385696689280339e+17
19661.0	7.384409534278313e+17
19662.0	7.383121326505983e+17
19663.0	7.381774004213076e+17
19664.0	7.38038478921182e+17
19665.0	7.379249757421565e+17
19666.0	7.377935091979604e+17
