# Flux units: erg / (cm m2 s)
# Wavelength units: Angstrom
wave	flux
19000.0	8.474024185866921e+17
19001.0	8.472166767700649e+17
19002.0	8.471144937379156e+17
19003.0	8.469679278391295e+17
19004.0	8.46822758224145e+17
19005.0	8.466759581433855e+17
19006.0	8.465294185289042e+17
19007.0	8.463736268390399e+17
19008.0	8.462149986811901e+17
19009.0	8.460421694488573e+17
19010.0	8.457838200356859e+17
19011.0	8.457819813926227e+17
19012.0	8.455804565498536e+17
19013.0	8.454987551429972e+17
19014.0	8.453240702107647e+17
19015.0	8.451882463439528e+17
19016.0	8.450420337453737e+17
19017.0	8.44898645311488e+17
19018.0	8.447537871934804e+17
19019.0	8.446052228486484e+17
19020.0	8.444511983588691e+17
19021.0	8.443113392919891e+17
19022.0	8.441618330462889e+17
19023.0	8.439942444569939e+17
19024.0	8.438551532273663e+17
19025.0	8.437064176151208e+17
19026.0	8.435493800771581e+17
19027.0	8.43374754144802e+17
19028.0	8.432592157496659e+17
19029.0	8.431031367499776e+17
19030.0	8.429637338835624e+17
19031.0	8.428149224942249e+17
19032.0	8.426620754853888e+17
19033.0	8.42469457666594e+17
19034.0	8.42342371513685e+17
19035.0	8.42128052925235e+17
19036.0	8.393463849200296e+17
19037.0	8.418497271605928e+17
19038.0	8.417326560269651e+17
19039.0	8.415945571696637e+17
19040.0	8.414854975761066e+17
19041.0	8.4134810615808e+17
19042.0	8.411583459186002e+17
19043.0	8.410449756990121e+17
19044.0	8.408879651444051e+17
19045.0	8.407376419880957e+17
19046.0	8.405612619978068e+17
19047.0	8.404175650029567e+17
19048.0	8.402041838414505e+17
19049.0	8.400874106432168e+17
19050.0	8.399375873081343e+17
19051.0	8.393703208342865e+17
19052.0	8.395253105732264e+17
19053.0	8.394977271524009e+17
19054.0	8.393494111103658e+17
19055.0	8.390871744162477e+17
19056.0	8.390317803831295e+17
19057.0	8.388854433535315e+17
19058.0	8.387237560101545e+17
19059.0	8.385761964807508e+17
19060.0	8.384590141980671e+17
19061.0	8.383319244100948e+17
19062.0	8.381732562665471e+17
19063.0	8.380181553785514e+17
19064.0	8.378128509086377e+17
19065.0	8.3762546226845e+17
19066.0	8.375219194429441e+17
19067.0	8.3738891400861e+17
19068.0	8.372373363359743e+17
19069.0	8.370815534541481e+17
19070.0	8.369131661295615e+17
19071.0	8.367644390457343e+17
19072.0	8.366108335669247e+17
19073.0	8.364517004148733e+17
19074.0	8.362981496018259e+17
19075.0	8.361406888585898e+17
19076.0	8.359764603262292e+17
19077.0	8.358197312094207e+17
19078.0	8.356517693270697e+17
19079.0	8.355084882673664e+17
19080.0	8.353448412053505e+17
19081.0	8.351731222052863e+17
19082.0	8.350202866608812e+17
19083.0	8.348182168382122e+17
19084.0	8.346043937368745e+17
19085.0	8.345496330436607e+17
19086.0	8.342111577440255e+17
19087.0	8.341912364777471e+17
19088.0	8.340247224691368e+17
19089.0	8.338099113295872e+17
19090.0	8.337391468500306e+17
19091.0	8.335881516264105e+17
19092.0	8.334082797382314e+17
19093.0	8.332836661275305e+17
19094.0	8.331281184063488e+17
19095.0	8.329704854170281e+17
19096.0	8.328064858936658e+17
19097.0	8.32651033522995e+17
19098.0	8.324905865751208e+17
19099.0	8.323304508446038e+17
19100.0	8.321671881206442e+17
19101.0	8.320092538404863e+17
19102.0	8.318194394944851e+17
19103.0	8.316890236234408e+17
19104.0	8.315316236976127e+17
19105.0	8.313665796527446e+17
19106.0	8.312000744521728e+17
19107.0	8.310358881424724e+17
19108.0	8.308694503303849e+17
19109.0	8.305206831874045e+17
19110.0	8.305131723074216e+17
19111.0	8.303973103916372e+17
19112.0	8.302432098451453e+17
19113.0	8.300831266832384e+17
19114.0	8.299201104445437e+17
19115.0	8.297376846446591e+17
19116.0	8.295883780478294e+17
19117.0	8.294245730003626e+17
19118.0	8.292302659955369e+17
19119.0	8.281981973779782e+17
19120.0	8.289152915210239e+17
19121.0	8.287699279893846e+17
19122.0	8.286285581342036e+17
19123.0	8.284652810098004e+17
19124.0	8.28283361182788e+17
19125.0	8.281355467795113e+17
19126.0	8.279565699558058e+17
19127.0	8.271927976831656e+17
19128.0	8.275480515969021e+17
19129.0	8.2744679872157e+17
19130.0	8.272927447318528e+17
19131.0	8.2710606395037e+17
19132.0	8.269425642482345e+17
19133.0	8.267305708421119e+17
19134.0	8.265798524425556e+17
19135.0	8.264535809632937e+17
19136.0	8.262907050939731e+17
19137.0	8.260735289262079e+17
19138.0	8.259564095580841e+17
19139.0	8.258005369181523e+17
19140.0	8.256382362277204e+17
19141.0	8.254742339081555e+17
19142.0	8.25297923543313e+17
19143.0	8.251246632763391e+17
19144.0	8.249609509229906e+17
19145.0	8.2481338412346e+17
19146.0	8.243947215607128e+17
19147.0	8.244555014995967e+17
19148.0	8.243178117267455e+17
19149.0	8.241513688814931e+17
19150.0	8.239871704083113e+17
19151.0	8.238209625838932e+17
19152.0	8.23653037191987e+17
19153.0	8.234800522111656e+17
19154.0	8.232797332307965e+17
19155.0	8.231518936410792e+17
19156.0	8.229828315927892e+17
19157.0	8.227918951306578e+17
19158.0	8.225524575546025e+17
19159.0	8.22460909879296e+17
19160.0	8.22303335330611e+17
19161.0	8.221178476888063e+17
19162.0	8.216627472498688e+17
19163.0	8.217417268330493e+17
19164.0	8.216440768648531e+17
19165.0	8.214776042400425e+17
19166.0	8.212771433523881e+17
19167.0	8.211214481315155e+17
19168.0	8.209711996338175e+17
19169.0	8.208090479809876e+17
19170.0	8.206484615026003e+17
19171.0	8.204712387368276e+17
19172.0	8.203078013900115e+17
19173.0	8.201451037786111e+17
19174.0	8.199569962347177e+17
19175.0	8.198082571272192e+17
19176.0	8.196372266920617e+17
19177.0	8.194052853159254e+17
19178.0	8.192901156001108e+17
19179.0	8.191143946747903e+17
19180.0	8.189516681226918e+17
19181.0	8.187546648794451e+17
19182.0	8.186103097982973e+17
19183.0	8.184492106361514e+17
19184.0	8.182719512401234e+17
19185.0	8.181011389087743e+17
19186.0	8.179358240516778e+17
19187.0	8.176959148960426e+17
19188.0	8.175122326224896e+17
19189.0	8.173386795930964e+17
19190.0	8.171630728926547e+17
19191.0	8.169771012281683e+17
19192.0	8.168175507428691e+17
19193.0	8.166360028108115e+17
19194.0	8.164452780212221e+17
19195.0	8.162490029091497e+17
19196.0	8.160450176876543e+17
19197.0	8.158190263511721e+17
19198.0	8.154484766496083e+17
19199.0	8.135089407219027e+17
19200.0	8.136591440609281e+17
19201.0	8.149547333888681e+17
19202.0	8.149575516815356e+17
19203.0	8.14830820786176e+17
19204.0	8.146763558944769e+17
19205.0	8.14516196675857e+17
19206.0	8.143472309567485e+17
19207.0	8.141348038595923e+17
19208.0	8.139427814921555e+17
19209.0	8.138291092826794e+17
19210.0	8.13655791973171e+17
19211.0	8.134862110894761e+17
19212.0	8.133063678623743e+17
19213.0	8.130833023325522e+17
19214.0	8.128961378080086e+17
19215.0	8.12766511444787e+17
19216.0	8.125958207482536e+17
19217.0	8.124051906101248e+17
19218.0	8.118685421360465e+17
19219.0	8.118680687389352e+17
19220.0	8.117640932010666e+17
19221.0	8.114914846922068e+17
19222.0	8.114047366987773e+17
19223.0	8.112295202084179e+17
19224.0	8.110359330859689e+17
19225.0	8.108284938551293e+17
19226.0	8.106850620801021e+17
19227.0	8.105039858674344e+17
19228.0	8.10335246361122e+17
19229.0	8.101523586285567e+17
19230.0	8.099639728624979e+17
19231.0	8.097782102141608e+17
19232.0	8.095977137941162e+17
19233.0	8.093863759577085e+17
19234.0	8.09223985648981e+17
19235.0	8.09030011392273e+17
19236.0	8.088614690182483e+17
19237.0	8.086685229252607e+17
19238.0	8.084498519075497e+17
19239.0	8.08207703273199e+17
19240.0	8.079672579457021e+17
19241.0	8.07776188524134e+17
19242.0	8.075951816572928e+17
19243.0	8.073344205193215e+17
19244.0	8.072258473252178e+17
19245.0	8.070329711372969e+17
19246.0	8.068392447639551e+17
19247.0	8.0664920602269e+17
19248.0	8.064631254461097e+17
19249.0	8.062691935518719e+17
19250.0	8.0606938557754e+17
19251.0	8.058352591088294e+17
19252.0	8.05558119633169e+17
19253.0	8.054878864321196e+17
19254.0	8.052540035126612e+17
19255.0	8.048503552999421e+17
19256.0	8.047267330828969e+17
19257.0	8.045425557416617e+17
19258.0	8.043462262434473e+17
19259.0	8.041144249570644e+17
19260.0	8.03897787757363e+17
19261.0	8.037152301165224e+17
19262.0	8.034750807670783e+17
19263.0	8.032682371274067e+17
19264.0	8.029135035869864e+17
19265.0	8.028276473025875e+17
19266.0	8.026452606495404e+17
19267.0	8.023591434059775e+17
19268.0	8.020788846264319e+17
19269.0	8.018739442221055e+17
19270.0	8.016641518469119e+17
19271.0	8.013480738510166e+17
19272.0	8.012346839181994e+17
19273.0	8.006282959126524e+17
19274.0	8.004969672212474e+17
19275.0	8.006287080729257e+17
19276.0	8.004166716052819e+17
19277.0	8.001823905065641e+17
19278.0	7.998752673497085e+17
19279.0	7.996485049603411e+17
19280.0	7.994206263268692e+17
19281.0	7.992302197451433e+17
19282.0	7.990199728472064e+17
19283.0	7.987895295366486e+17
19284.0	7.985419810155177e+17
19285.0	7.983213666369535e+17
19286.0	7.981299316118867e+17
19287.0	7.979213554450432e+17
19288.0	7.969159726672545e+17
19289.0	7.958259039556927e+17
19290.0	7.972100026051241e+17
19291.0	7.968494331101188e+17
19292.0	7.967385059327999e+17
19293.0	7.965130570596351e+17
19294.0	7.962832393994237e+17
19295.0	7.960604572647421e+17
19296.0	7.958278941529428e+17
19297.0	7.955872624585385e+17
19298.0	7.953537602420735e+17
19299.0	7.951324268199933e+17
19300.0	7.948966029164543e+17
19301.0	7.946587622517417e+17
19302.0	7.944147293962237e+17
19303.0	7.941524613846355e+17
19304.0	7.939285990768639e+17
19305.0	7.936884200876713e+17
19306.0	7.934454820853076e+17
19307.0	7.931817074797225e+17
19308.0	7.928681513790122e+17
19309.0	7.925026383375016e+17
19310.0	7.922110971598163e+17
19311.0	7.920359835697151e+17
19312.0	7.918052132432553e+17
19313.0	7.915509423712938e+17
19314.0	7.900597361573885e+17
19315.0	7.898877840938339e+17
19316.0	7.907607146659837e+17
19317.0	7.905027932116308e+17
19318.0	7.902358330321577e+17
19319.0	7.899713438569812e+17
19320.0	7.896941701278378e+17
19321.0	7.892720731291647e+17
19322.0	7.889184282902525e+17
19323.0	7.886426504254804e+17
19324.0	7.883760538921642e+17
19325.0	7.880714647939754e+17
19326.0	7.878046733653331e+17
19327.0	7.875150548566015e+17
19328.0	7.87224007348497e+17
19329.0	7.869268922204157e+17
19330.0	7.866132783781203e+17
19331.0	7.860990617408851e+17
19332.0	7.857596806113961e+17
19333.0	7.854432599408639e+17
19334.0	7.851371000758271e+17
19335.0	7.848197186300586e+17
19336.0	7.845014253426004e+17
19337.0	7.841804742645075e+17
19338.0	7.837770289162918e+17
19339.0	7.833020601991167e+17
19340.0	7.828578748770986e+17
19341.0	7.825260107792381e+17
19342.0	7.820808199427411e+17
19343.0	7.81858809839616e+17
19344.0	7.815045966725117e+17
19345.0	7.805733374525431e+17
19346.0	7.801984788026708e+17
19347.0	7.800509979863722e+17
19348.0	7.797214139121663e+17
19349.0	7.793503207686144e+17
19350.0	7.789927446085632e+17
19351.0	7.786170276642815e+17
19352.0	7.77857676048247e+17
19353.0	7.77362902946065e+17
19354.0	7.769700707248808e+17
19355.0	7.765354491150336e+17
19356.0	7.761682152904019e+17
19357.0	7.755361988291247e+17
19358.0	7.747911310551721e+17
19359.0	7.743605912021673e+17
19360.0	7.739431606463145e+17
19361.0	7.735230218283689e+17
19362.0	7.727781883762007e+17
19363.0	7.720368462626816e+17
19364.0	7.715946454056961e+17
19365.0	7.711442378336936e+17
19366.0	7.706889938097491e+17
19367.0	7.698668024321364e+17
19368.0	7.693529420311209e+17
19369.0	7.688564175273983e+17
19370.0	7.683636975370239e+17
19371.0	7.678930475548671e+17
19372.0	7.674175015616511e+17
19373.0	7.669033444835327e+17
19374.0	7.663940182649513e+17
19375.0	7.658725688300886e+17
19376.0	7.652995644085587e+17
19377.0	7.64681991033105e+17
19378.0	7.641235527303168e+17
19379.0	7.635555156230144e+17
19380.0	7.62977968071202e+17
19381.0	7.623876320864938e+17
19382.0	7.617641559272105e+17
19383.0	7.611335322544809e+17
19384.0	7.604105290361514e+17
19385.0	7.597846106734591e+17
19386.0	7.591468691270313e+17
19387.0	7.584965689955666e+17
19388.0	7.578354791568726e+17
19389.0	7.57092369703458e+17
19390.0	7.562469066495315e+17
19391.0	7.538094046358163e+17
19392.0	7.547380411574952e+17
19393.0	7.540706200169128e+17
19394.0	7.531767987350186e+17
19395.0	7.522305034944511e+17
19396.0	7.514165741966676e+17
19397.0	7.505832579869356e+17
19398.0	7.497147637301247e+17
19399.0	7.483612485473619e+17
19400.0	7.47576913559552e+17
19401.0	7.466698725305002e+17
19402.0	7.457079200929108e+17
19403.0	7.44409617329903e+17
19404.0	7.43299859157265e+17
19405.0	7.422322340265981e+17
19406.0	7.411332900279636e+17
19407.0	7.397119312789501e+17
19408.0	7.382948079381162e+17
19409.0	7.372869783431852e+17
19410.0	7.361094147724627e+17
19411.0	7.34721945160909e+17
19412.0	7.332189370144084e+17
19413.0	7.31899298526003e+17
19414.0	7.305143358499496e+17
19415.0	7.290486031821481e+17
19416.0	7.272672088730277e+17
19417.0	7.256375133121193e+17
19418.0	7.240692968805718e+17
19419.0	7.22425552638225e+17
19420.0	7.207267082436607e+17
19421.0	7.189003349174956e+17
19422.0	7.170513348591615e+17
19423.0	7.151592710427986e+17
19424.0	7.13167755944482e+17
19425.0	7.110535006912511e+17
19426.0	7.087868059757225e+17
19427.0	7.064318182249814e+17
19428.0	7.039835477551786e+17
19429.0	7.014215401340925e+17
19430.0	6.987011981661526e+17
19431.0	6.957145448076631e+17
19432.0	6.9290467276445e+17
19433.0	6.897522449230508e+17
19434.0	6.86404706378274e+17
19435.0	6.828428263161852e+17
19436.0	6.790038077571071e+17
19437.0	6.750876887329449e+17
19438.0	6.695269426353494e+17
19439.0	6.661872939259223e+17
19440.0	6.613812869682516e+17
19441.0	6.56149026526549e+17
19442.0	6.505002038897325e+17
19443.0	6.444156992531114e+17
19444.0	6.37809865488247e+17
19445.0	6.306371786681005e+17
19446.0	6.228052804982102e+17
19447.0	6.141987388391419e+17
19448.0	6.046427302068228e+17
19449.0	5.938323751873194e+17
19450.0	5.808641939952973e+17
19451.0	5.735791115720025e+17
19452.0	5.877018831530666e+17
19453.0	5.991557459083267e+17
19454.0	6.090473823972005e+17
19455.0	6.178620891114153e+17
19456.0	6.258232249723565e+17
19457.0	6.330755763754322e+17
19458.0	6.388754939904013e+17
19459.0	6.457720904002222e+17
19460.0	6.51398292456516e+17
19461.0	6.565927880840532e+17
19462.0	6.613772414222336e+17
19463.0	6.658497777238013e+17
19464.0	6.699941378392063e+17
19465.0	6.738570924523521e+17
19466.0	6.774745258612051e+17
19467.0	6.808629434908671e+17
19468.0	6.840271852186284e+17
19469.0	6.869592790706856e+17
19470.0	6.898460055131476e+17
19471.0	6.924894138793984e+17
19472.0	6.949454436018857e+17
19473.0	6.972784120255827e+17
19474.0	6.99514833862656e+17
19475.0	7.01488158823765e+17
19476.0	7.036681620990634e+17
19477.0	7.055784139554816e+17
19478.0	7.073611001102335e+17
19479.0	7.09015992672802e+17
19480.0	7.105986551261866e+17
19481.0	7.121608478381395e+17
19482.0	7.136399332125353e+17
19483.0	7.150349034979327e+17
19484.0	7.163640376109736e+17
19485.0	7.176297721626625e+17
19486.0	7.192309998638422e+17
19487.0	7.204249605068116e+17
19488.0	7.215664271982591e+17
19489.0	7.22587213697297e+17
19490.0	7.23425296873335e+17
19491.0	7.249720188949844e+17
19492.0	7.259052115492864e+17
19493.0	7.267951633061203e+17
19494.0	7.276567832384851e+17
19495.0	7.288573838841175e+17
19496.0	7.296377577712296e+17
19497.0	7.304925106492756e+17
19498.0	7.309736047280125e+17
19499.0	7.297421362419017e+17
19500.0	7.330316035992233e+17
19501.0	7.3370922123264e+17
19502.0	7.343410899146067e+17
19503.0	7.351567376187395e+17
19504.0	7.358423975504553e+17
19505.0	7.363998006990164e+17
19506.0	7.369387333910527e+17
19507.0	7.37489134149086e+17
19508.0	7.38205228090436e+17
19509.0	7.386729103228928e+17
19510.0	7.390653505164627e+17
19511.0	7.370970128624284e+17
19512.0	7.394960951913125e+17
19513.0	7.396414349552287e+17
19514.0	7.402700850681166e+17
19515.0	7.41137877897489e+17
19516.0	7.41625176470323e+17
19517.0	7.419598373300904e+17
19518.0	7.423787567240535e+17
19519.0	7.42772463317811e+17
19520.0	7.430741226946557e+17
19521.0	7.433828459784874e+17
19522.0	7.4365927437981e+17
19523.0	7.439521356447743e+17
19524.0	7.442215602574676e+17
19525.0	7.444979767749289e+17
19526.0	7.448291627936424e+17
19527.0	7.450604322422783e+17
19528.0	7.452843671115092e+17
19529.0	7.454999156097023e+17
19530.0	7.457107234258943e+17
19531.0	7.459099272806399e+17
19532.0	7.460975371004585e+17
19533.0	7.462813141652819e+17
19534.0	7.464548609032191e+17
19535.0	7.469392821835092e+17
19536.0	7.471624671111849e+17
19537.0	7.473296584998911e+17
19538.0	7.474370537936212e+17
19539.0	7.476182668804091e+17
19540.0	7.483466957105833e+17
19541.0	7.484921053795668e+17
19542.0	7.486184819960489e+17
19543.0	7.487393099677693e+17
19544.0	7.490234807746563e+17
19545.0	7.493249547632637e+17
19546.0	7.493331361726463e+17
19547.0	7.497009682448383e+17
19548.0	7.498041012868436e+17
19549.0	7.498647414155942e+17
19550.0	7.504382235683497e+17
19551.0	7.505363940496723e+17
19552.0	7.506049464532991e+17
19553.0	7.506616621116072e+17
19554.0	7.507177003898195e+17
19555.0	7.507830986768383e+17
19556.0	7.511815130972155e+17
19557.0	7.512596602508628e+17
19558.0	7.513066240125609e+17
19559.0	7.513516298731519e+17
19560.0	7.513825966992041e+17
19561.0	7.514209538889044e+17
19562.0	7.514651200498344e+17
19563.0	7.517929742532605e+17
19564.0	7.518225983427923e+17
19565.0	7.518478080671744e+17
19566.0	7.518599258308607e+17
19567.0	7.518904070963199e+17
19568.0	7.518942947966975e+17
19569.0	7.519125189077672e+17
19570.0	7.519325868348755e+17
19571.0	7.521330751253158e+17
19572.0	7.521613773100374e+17
19573.0	7.521749054783487e+17
19574.0	7.521420597439144e+17
19575.0	7.521789490670249e+17
19576.0	7.521739238714026e+17
19577.0	7.52156792656145e+17
19578.0	7.521373243746985e+17
19579.0	7.521228066302634e+17
19580.0	7.521050190064297e+17
19581.0	7.52224114450978e+17
19582.0	7.52241993790259e+17
19583.0	7.522157733784233e+17
19584.0	7.521887957549055e+17
19585.0	7.521163762029908e+17
19586.0	7.52071029485295e+17
19587.0	7.520816737899858e+17
19588.0	7.519042698302804e+17
19589.0	7.520033703286102e+17
19590.0	7.519478271180799e+17
19591.0	7.519323126672041e+17
19592.0	7.518911812250281e+17
19593.0	7.518361125300905e+17
19594.0	7.517978688662185e+17
19595.0	7.518506585161727e+17
19596.0	7.516398246952961e+17
19597.0	7.517498639384575e+17
19598.0	7.516036957995005e+17
19599.0	7.516432376004607e+17
19600.0	7.515881206710271e+17
19601.0	7.515032061476863e+17
19602.0	7.514387022260904e+17
19603.0	7.512482639074642e+17
19604.0	7.513078908321791e+17
19605.0	7.511587061497859e+17
19606.0	7.512091342667775e+17
19607.0	7.511429671638358e+17
19608.0	7.510710056299178e+17
19609.0	7.509862288195581e+17
19610.0	7.509355463879338e+17
19611.0	7.508606776421034e+17
19612.0	7.508184833632938e+17
19613.0	7.507877336623785e+17
19614.0	7.506988481118207e+17
19615.0	7.506382262981974e+17
19616.0	7.505424640464211e+17
19617.0	7.504782833658538e+17
19618.0	7.501973209219067e+17
19619.0	7.500685555094866e+17
19620.0	7.500151941758975e+17
19621.0	7.501509552679594e+17
19622.0	7.500760429013674e+17
19623.0	7.500236117245951e+17
19624.0	7.500125632288084e+17
19625.0	7.499303204771155e+17
19626.0	7.498363405249193e+17
19627.0	7.497438621335551e+17
19628.0	7.495956625533609e+17
19629.0	7.494813906982227e+17
19630.0	7.489516684181501e+17
19631.0	7.471999748145153e+17
19632.0	7.491946356408317e+17
19633.0	7.491697453826047e+17
19634.0	7.492878383884969e+17
19635.0	7.491915584197972e+17
19636.0	7.491146632658943e+17
19637.0	7.488477465673728e+17
19638.0	7.489299329755817e+17
19639.0	7.488333354980692e+17
19640.0	7.487045924552703e+17
19641.0	7.484448652132356e+17
19642.0	7.485558142009343e+17
19643.0	7.484872574631935e+17
19644.0	7.483654401949696e+17
19645.0	7.482048700743679e+17
19646.0	7.482733626392575e+17
19647.0	7.482432315981824e+17
19648.0	7.481408935165951e+17
19649.0	7.480387390057129e+17
19650.0	7.47939908480751e+17
19651.0	7.478346866753535e+17
19652.0	7.477306858318506e+17
19653.0	7.476297747922943e+17
19654.0	7.475219909662036e+17
19655.0	7.474161179252051e+17
19656.0	7.473150620423508e+17
19657.0	7.472088215803219e+17
19658.0	7.471057139837609e+17
19659.0	7.469989538474666e+17
19660.0	7.468938122930858e+17
19661.0	7.468277416591357e+17
19662.0	7.467907843883007e+17
19663.0	7.46663880687616e+17
19664.0	7.465633202918739e+17
19665.0	7.46502619205905e+17
19666.0	7.464122694238205e+17
