# Flux units: erg / (cm m2 s)
# Wavelength units: Angstrom
wave	flux
19000.0	5.310733661241343e+17
19001.0	5.309000293111123e+17
19002.0	5.308995055124479e+17
19003.0	5.30796387569937e+17
19004.0	5.306998909654355e+17
19005.0	5.3059614926001485e+17
19006.0	5.3050093520377165e+17
19007.0	5.304054642464083e+17
19008.0	5.3029202761700685e+17
19009.0	5.301440831903062e+17
19010.0	5.300466100819285e+17
19011.0	5.299843899588606e+17
19012.0	5.298437789231785e+17
19013.0	5.2985164743748256e+17
19014.0	5.2971480386546323e+17
19015.0	5.296277657660075e+17
19016.0	5.295823517996371e+17
19017.0	5.2948718087482016e+17
19018.0	5.293875975421951e+17
19019.0	5.2930280605177165e+17
19020.0	5.2920207844311046e+17
19021.0	5.2911991125879456e+17
19022.0	5.290271136109909e+17
19023.0	5.288896880093865e+17
19024.0	5.28796764812083e+17
19025.0	5.2872867832572576e+17
19026.0	5.28632835543313e+17
19027.0	5.2854645301357216e+17
19028.0	5.2843686004435616e+17
19029.0	5.2832763449617056e+17
19030.0	5.282458539567785e+17
19031.0	5.281406054476458e+17
19032.0	5.2803889329602554e+17
19033.0	5.278176931829074e+17
19034.0	5.2770079541384525e+17
19035.0	5.2733497255307936e+17
19036.0	5.267969819017215e+17
19037.0	5.271907909064019e+17
19038.0	5.2733025095516154e+17
19039.0	5.2734032595298976e+17
19040.0	5.272837926070953e+17
19041.0	5.272061278683135e+17
19042.0	5.263515626853706e+17
19043.0	5.2704190471864314e+17
19044.0	5.2694756692241056e+17
19045.0	5.268436092802387e+17
19046.0	5.2672503274100045e+17
19047.0	5.266296887312383e+17
19048.0	5.2641894368979616e+17
19049.0	5.248994565423085e+17
19050.0	5.2626351914134176e+17
19051.0	5.2610581484885325e+17
19052.0	5.2607478301108896e+17
19053.0	5.2605082878170445e+17
19054.0	5.259822117158911e+17
19055.0	5.254979021438985e+17
19056.0	5.257512393637886e+17
19057.0	5.257482941235198e+17
19058.0	5.2490054734096934e+17
19059.0	5.252747680372049e+17
19060.0	5.2547774998118394e+17
19061.0	5.253831055114239e+17
19062.0	5.2528157091867296e+17
19063.0	5.251991105525076e+17
19064.0	5.250817094669654e+17
19065.0	5.2491677048941216e+17
19066.0	5.2460860127313946e+17
19067.0	5.248077098472789e+17
19068.0	5.2474370043412474e+17
19069.0	5.2465220239141536e+17
19070.0	5.2453361893157536e+17
19071.0	5.2445258693563725e+17
19072.0	5.2409572324802515e+17
19073.0	5.2428363428877645e+17
19074.0	5.241804637776553e+17
19075.0	5.240953168199679e+17
19076.0	5.239952515618133e+17
19077.0	5.238987626468692e+17
19078.0	5.237885258519892e+17
19079.0	5.237151173530963e+17
19080.0	5.236193964152149e+17
19081.0	5.234928217576788e+17
19082.0	5.2344160762811725e+17
19083.0	5.232823722049534e+17
19084.0	5.2308229013285536e+17
19085.0	5.231452851535871e+17
19086.0	5.223813094572027e+17
19087.0	5.223431740063735e+17
19088.0	5.2244019168324186e+17
19089.0	5.226492284545711e+17
19090.0	5.226773831396009e+17
19091.0	5.2254980932894765e+17
19092.0	5.21880570656633e+17
19093.0	5.2241981414659405e+17
19094.0	5.2233007806109005e+17
19095.0	5.222315745520297e+17
19096.0	5.2214667170283514e+17
19097.0	5.220517044114772e+17
19098.0	5.216524309976401e+17
19099.0	5.214896743863641e+17
19100.0	5.217509235316051e+17
19101.0	5.216574886991189e+17
19102.0	5.2155836597097805e+17
19103.0	5.2147768524799994e+17
19104.0	5.214038738163028e+17
19105.0	5.206286885628606e+17
19106.0	5.212046262009856e+17
19107.0	5.2094736192416384e+17
19108.0	5.2075644272858464e+17
19109.0	5.2092111683583994e+17
19110.0	5.2082812625005216e+17
19111.0	5.2053402528863526e+17
19112.0	5.204039792153936e+17
19113.0	5.2054128388123296e+17
19114.0	5.202937242451965e+17
19115.0	5.20273472327953e+17
19116.0	5.201520744901289e+17
19117.0	5.1991457580100256e+17
19118.0	5.1894915761001824e+17
19119.0	5.1580485378593984e+17
19120.0	5.191447675753814e+17
19121.0	5.1958909962813434e+17
19122.0	5.1962004436418554e+17
19123.0	5.1956109300203514e+17
19124.0	5.194378900056746e+17
19125.0	5.193407938254164e+17
19126.0	5.19174152729395e+17
19127.0	5.1895729078490445e+17
19128.0	5.1897924936444576e+17
19129.0	5.1892499114885094e+17
19130.0	5.189339800316586e+17
19131.0	5.188772768863572e+17
19132.0	5.187942347702272e+17
19133.0	5.1868683556181325e+17
19134.0	5.1862182986164896e+17
19135.0	5.185335801675775e+17
19136.0	5.184299820471636e+17
19137.0	5.183386970051924e+17
19138.0	5.1826107658622285e+17
19139.0	5.181813753730388e+17
19140.0	5.1809489735297696e+17
19141.0	5.180013041156094e+17
19142.0	5.178790583293267e+17
19143.0	5.1780658648842234e+17
19144.0	5.176946351319722e+17
19145.0	5.1762835562168314e+17
19146.0	5.170305509796527e+17
19147.0	5.1743739035866445e+17
19148.0	5.1711700635047277e+17
19149.0	5.16975196442897e+17
19150.0	5.1718014243962874e+17
19151.0	5.170806176874496e+17
19152.0	5.1699027335796045e+17
19153.0	5.163681848142497e+17
19154.0	5.167581952475136e+17
19155.0	5.167121930300074e+17
19156.0	5.166210185778517e+17
19157.0	5.1636331543702234e+17
19158.0	5.160683078068911e+17
19159.0	5.163331200133803e+17
19160.0	5.1623692029569696e+17
19161.0	5.161501305689428e+17
19162.0	5.160532011122687e+17
19163.0	5.1596597154283514e+17
19164.0	5.1587602091868154e+17
19165.0	5.152136339914742e+17
19166.0	5.156722451327657e+17
19167.0	5.1560346882321056e+17
19168.0	5.1551854528211616e+17
19169.0	5.1543128145919994e+17
19170.0	5.15348393693457e+17
19171.0	5.152409067541845e+17
19172.0	5.1515779179697485e+17
19173.0	5.1507518015624525e+17
19174.0	5.1497436817216845e+17
19175.0	5.1488125574184954e+17
19176.0	5.1479655324057594e+17
19177.0	5.1457930863575014e+17
19178.0	5.146088116497066e+17
19179.0	5.145164466443605e+17
19180.0	5.1440557741834214e+17
19181.0	5.1429568518553594e+17
19182.0	5.142055932133375e+17
19183.0	5.141423135391743e+17
19184.0	5.140558332821503e+17
19185.0	5.13953186639599e+17
19186.0	5.1386833873578656e+17
19187.0	5.137184475228843e+17
19188.0	5.136771141249706e+17
19189.0	5.1357802054724256e+17
19190.0	5.134791993196542e+17
19191.0	5.133480092499967e+17
19192.0	5.132680247115775e+17
19193.0	5.130807968530432e+17
19194.0	5.1291270858233184e+17
19195.0	5.1292200183179936e+17
19196.0	5.127842318778366e+17
19197.0	5.126491198543187e+17
19198.0	5.1249794280762003e+17
19199.0	5.123085904642047e+17
19200.0	5.122398176499028e+17
19201.0	5.12227245363473e+17
19202.0	5.121980243465556e+17
19203.0	5.121456896387753e+17
19204.0	5.1210176010649594e+17
19205.0	5.120171122010795e+17
19206.0	5.119537156456447e+17
19207.0	5.117808408352083e+17
19208.0	5.117731645598378e+17
19209.0	5.117118573270356e+17
19210.0	5.116420536926206e+17
19211.0	5.115781923383978e+17
19212.0	5.114875321079125e+17
19213.0	5.1132390629703654e+17
19214.0	5.112900226820778e+17
19215.0	5.112129087253162e+17
19216.0	5.1111424254716576e+17
19217.0	5.109971373697706e+17
19218.0	5.1086565957085856e+17
19219.0	5.106921684773543e+17
19220.0	5.1072178536666445e+17
19221.0	5.106507572051966e+17
19222.0	5.105725165185706e+17
19223.0	5.10491434610415e+17
19224.0	5.1038959019840845e+17
19225.0	5.103398147151187e+17
19226.0	5.1024971729032525e+17
19227.0	5.1016623770828794e+17
19228.0	5.101003578452651e+17
19229.0	5.0999991314240845e+17
19230.0	5.099228084131156e+17
19231.0	5.098330335302996e+17
19232.0	5.0975286730861216e+17
19233.0	5.0961952136669843e+17
19234.0	5.0956520156474003e+17
19235.0	5.0945411458443936e+17
19236.0	5.0939371660683936e+17
19237.0	5.092929291594409e+17
19238.0	5.0916440114462694e+17
19239.0	5.091269153215828e+17
19240.0	5.0902434648337056e+17
19241.0	5.0893644051251194e+17
19242.0	5.088408663053653e+17
19243.0	5.08647041156164e+17
19244.0	5.0868175328597344e+17
19245.0	5.0858210340372474e+17
19246.0	5.085020048501419e+17
19247.0	5.0840798596082336e+17
19248.0	5.0832498438963194e+17
19249.0	5.082126853952853e+17
19250.0	5.080203209823574e+17
19251.0	5.0788193831048454e+17
19252.0	5.0771508008932685e+17
19253.0	5.07860695978257e+17
19254.0	5.0778598871313056e+17
19255.0	5.075312531122854e+17
19256.0	5.075919466485077e+17
19257.0	5.0750810663594656e+17
19258.0	5.0741229377290234e+17
19259.0	5.072495888913747e+17
19260.0	5.0716467017373005e+17
19261.0	5.0710761274955085e+17
19262.0	5.0695649617073485e+17
19263.0	5.068507049885694e+17
19264.0	5.067209804786346e+17
19265.0	5.066357941643946e+17
19266.0	5.0654020541699405e+17
19267.0	5.0656236210749434e+17
19268.0	5.0648304544208205e+17
19269.0	5.063988326258004e+17
19270.0	5.0629131457877325e+17
19271.0	5.061837185875968e+17
19272.0	5.0612909337040205e+17
19273.0	5.059335586228907e+17
19274.0	5.056573407756279e+17
19275.0	5.0589564379245216e+17
19276.0	5.0579278358992205e+17
19277.0	5.0570980138243405e+17
19278.0	5.056043411308542e+17
19279.0	5.055076272614057e+17
19280.0	5.054234699497472e+17
19281.0	5.0533847195975674e+17
19282.0	5.052564812857343e+17
19283.0	5.0515613654712314e+17
19284.0	5.050413757759488e+17
19285.0	5.049194502946815e+17
19286.0	5.0476597931322016e+17
19287.0	5.045776589783039e+17
19288.0	5.040961291113812e+17
19289.0	5.039390237655038e+17
19290.0	5.04291916845329e+17
19291.0	5.041443048871262e+17
19292.0	5.0432076785472845e+17
19293.0	5.042615195358549e+17
19294.0	5.0417616565917005e+17
19295.0	5.041046859808768e+17
19296.0	5.0367524147036256e+17
19297.0	5.038614039756803e+17
19298.0	5.038199163671893e+17
19299.0	5.033795894553262e+17
19300.0	5.0366343345602566e+17
19301.0	5.035756007456768e+17
19302.0	5.034807630583123e+17
19303.0	5.033506286250665e+17
19304.0	5.032991662626134e+17
19305.0	5.0318849326011725e+17
19306.0	5.0310090759427405e+17
19307.0	5.0297174861632845e+17
19308.0	5.0287357736605e+17
19309.0	5.027767627634004e+17
19310.0	5.026347487330303e+17
19311.0	5.024572344631294e+17
19312.0	5.021953247150079e+17
19313.0	5.0140382494720006e+17
19314.0	4.937785287551672e+17
19315.0	4.939602812294497e+17
19316.0	5.007338202551644e+17
19317.0	5.017398628668757e+17
19318.0	5.0187177016251725e+17
19319.0	5.01868135518481e+17
19320.0	5.016975175232167e+17
19321.0	5.014562028563115e+17
19322.0	5.016857482362879e+17
19323.0	5.0160217868642976e+17
19324.0	5.015214627312981e+17
19325.0	5.014446524421459e+17
19326.0	5.013554145001472e+17
19327.0	5.012731349084843e+17
19328.0	5.0057445571734246e+17
19329.0	5.011011731281236e+17
19330.0	5.010153684336639e+17
19331.0	5.008967960887295e+17
19332.0	5.008378266211669e+17
19333.0	5.0074192462916256e+17
19334.0	5.006388665952938e+17
19335.0	4.993294961126074e+17
19336.0	5.004642195516074e+17
19337.0	5.0038396580877645e+17
19338.0	5.0012420731917626e+17
19339.0	5.001677651662164e+17
19340.0	4.99972299694626e+17
19341.0	4.994450253501792e+17
19342.0	4.9967317829113216e+17
19343.0	4.997005933106517e+17
19344.0	4.990555097748828e+17
19345.0	4.990065840575835e+17
19346.0	4.991319599131306e+17
19347.0	4.987041279726932e+17
19348.0	4.992944035594239e+17
19349.0	4.9923174380339194e+17
19350.0	4.98935921569519e+17
19351.0	4.990892818213545e+17
19352.0	4.9839600265680115e+17
19353.0	4.9897366338491725e+17
19354.0	4.9889522423780685e+17
19355.0	4.987280043278341e+17
19356.0	4.98724567585041e+17
19357.0	4.986369698256213e+17
19358.0	4.985442455082325e+17
19359.0	4.9831742062373485e+17
19360.0	4.9786639257436134e+17
19361.0	4.982793958326272e+17
19362.0	4.981992853252777e+17
19363.0	4.981125018899796e+17
19364.0	4.980260978993834e+17
19365.0	4.9793099729906336e+17
19366.0	4.978388534733481e+17
19367.0	4.977545127307946e+17
19368.0	4.976679357950634e+17
19369.0	4.9756646551497376e+17
19370.0	4.974833558006442e+17
19371.0	4.9735193777056416e+17
19372.0	4.9730251985169056e+17
19373.0	4.9720088431602336e+17
19374.0	4.971233242950314e+17
19375.0	4.9704577916381856e+17
19376.0	4.9695511208263674e+17
19377.0	4.968614028727636e+17
19378.0	4.9677041115245216e+17
19379.0	4.9668178299234976e+17
19380.0	4.965767667777535e+17
19381.0	4.9648096565876045e+17
19382.0	4.963297698775039e+17
19383.0	4.962740321910782e+17
19384.0	4.961914205503487e+17
19385.0	4.961014779652778e+17
19386.0	4.9601308839116794e+17
19387.0	4.959013078127956e+17
19388.0	4.957727089841493e+17
19389.0	4.956154377535487e+17
19390.0	4.953407786494634e+17
19391.0	4.947497520026963e+17
19392.0	4.949541755988651e+17
19393.0	4.951730171150335e+17
19394.0	4.951858493085012e+17
19395.0	4.949564161261571e+17
19396.0	4.950137506540205e+17
19397.0	4.949524088881151e+17
19398.0	4.946530696604332e+17
19399.0	4.9446240631739725e+17
19400.0	4.944491279897941e+17
19401.0	4.945564231095636e+17
19402.0	4.944941007852885e+17
19403.0	4.9439503656768845e+17
19404.0	4.9430682979532794e+17
19405.0	4.941807490869929e+17
19406.0	4.9407932704139936e+17
19407.0	4.937426598363132e+17
19408.0	4.937859160429908e+17
19409.0	4.9371157130554016e+17
19410.0	4.93666982638387e+17
19411.0	4.935842325157204e+17
19412.0	4.93480319193361e+17
19413.0	4.931649245893973e+17
19414.0	4.932643787374591e+17
19415.0	4.9314038693232634e+17
19416.0	4.929201934521683e+17
19417.0	4.929231587551913e+17
19418.0	4.92797822116386e+17
19419.0	4.9267394132049914e+17
19420.0	4.925451028572842e+17
19421.0	4.924128980456789e+17
19422.0	4.922366086523561e+17
19423.0	4.921231084093438e+17
19424.0	4.919770065403904e+17
19425.0	4.9180460198133754e+17
19426.0	4.9163847881195514e+17
19427.0	4.914568429393236e+17
19428.0	4.9124891563130874e+17
19429.0	4.9103240677730976e+17
19430.0	4.907669295639211e+17
19431.0	4.904844101943297e+17
19432.0	4.9032031930504525e+17
19433.0	4.9007044518215674e+17
19434.0	4.897684308273834e+17
19435.0	4.893863228822868e+17
19436.0	4.888943626201771e+17
19437.0	4.8821905898427725e+17
19438.0	4.868218141278208e+17
19439.0	4.869950049790633e+17
19440.0	4.8717313154744314e+17
19441.0	4.8683016009373e+17
19442.0	4.8632444202516474e+17
19443.0	4.856394210956629e+17
19444.0	4.847988749544106e+17
19445.0	4.8379742664349005e+17
19446.0	4.825659027226624e+17
19447.0	4.810428522343082e+17
19448.0	4.790681428732587e+17
19449.0	4.7643569485250554e+17
19450.0	4.722865019901265e+17
19451.0	4.689996593583445e+17
19452.0	4.74538803532049e+17
19453.0	4.7748368323051514e+17
19454.0	4.7944844831621094e+17
19455.0	4.808202968716629e+17
19456.0	4.8148722825734835e+17
19457.0	4.8049730274809197e+17
19458.0	4.6173657326333286e+17
19459.0	4.7551215734620416e+17
19460.0	4.835629124812798e+17
19461.0	4.850173226254336e+17
19462.0	4.85694271127552e+17
19463.0	4.8612679216005114e+17
19464.0	4.864082772142761e+17
19465.0	4.866673864955221e+17
19466.0	4.868334339577172e+17
19467.0	4.870091605453482e+17
19468.0	4.871193255477247e+17
19469.0	4.867647311882916e+17
19470.0	4.8725614374420474e+17
19471.0	4.8733222394484045e+17
19472.0	4.873442026673492e+17
19473.0	4.8736641171674445e+17
19474.0	4.8690619842123014e+17
19475.0	4.871535621133653e+17
19476.0	4.87303527285828e+17
19477.0	4.8734854384189434e+17
19478.0	4.873750712767828e+17
19479.0	4.8693559986312454e+17
19480.0	4.873103877690708e+17
19481.0	4.872469041818282e+17
19482.0	4.872510718519978e+17
19483.0	4.8720811945274016e+17
19484.0	4.8714003646163616e+17
19485.0	4.87082432729361e+17
19486.0	4.8656091066313517e+17
19487.0	4.8692380925515085e+17
19488.0	4.868221390465707e+17
19489.0	4.866511323791359e+17
19490.0	4.865167680602111e+17
19491.0	4.865565582338729e+17
19492.0	4.8658414151488845e+17
19493.0	4.8652752749854726e+17
19494.0	4.864378258063359e+17
19495.0	4.863091070205951e+17
19496.0	4.860776518341972e+17
19497.0	4.8588205081668256e+17
19498.0	4.853065047867391e+17
19499.0	4.8484623256125446e+17
19500.0	4.855735441686527e+17
19501.0	4.8578265874431994e+17
19502.0	4.8581759596844365e+17
19503.0	4.857911033462783e+17
19504.0	4.8572373639277216e+17
19505.0	4.8563041235981645e+17
19506.0	4.855550992973823e+17
19507.0	4.854132698163882e+17
19508.0	4.852290110357504e+17
19509.0	4.8484580565101216e+17
19510.0	4.833801525351762e+17
19511.0	4.749368682872821e+17
19512.0	4.823928383995902e+17
19513.0	4.838000668180479e+17
19514.0	4.840959628017663e+17
19515.0	4.8450900541658445e+17
19516.0	4.8455792456280736e+17
19517.0	4.846394976239616e+17
19518.0	4.8449789931902266e+17
19519.0	4.8444542347291283e+17
19520.0	4.840666184024057e+17
19521.0	4.8447037021443405e+17
19522.0	4.842955435846313e+17
19523.0	4.842118393976152e+17
19524.0	4.839027565920265e+17
19525.0	4.841590265391785e+17
19526.0	4.840907989843968e+17
19527.0	4.840009285413546e+17
19528.0	4.838891453764948e+17
19529.0	4.837865110372352e+17
19530.0	4.8376862680459936e+17
19531.0	4.8368928679089485e+17
19532.0	4.836044112046762e+17
19533.0	4.8351685350085965e+17
19534.0	4.834384469295104e+17
19535.0	4.833307341968724e+17
19536.0	4.8321384341831674e+17
19537.0	4.831373614033578e+17
19538.0	4.825940586659845e+17
19539.0	4.829196917058219e+17
19540.0	4.828612223391061e+17
19541.0	4.8270854205385376e+17
19542.0	4.8268090816157e+17
19543.0	4.821743537487875e+17
19544.0	4.824724747408724e+17
19545.0	4.8232166448605856e+17
19546.0	4.822394849984511e+17
19547.0	4.8226555336676685e+17
19548.0	4.822297769323177e+17
19549.0	4.820868869914622e+17
19550.0	4.8209554543301965e+17
19551.0	4.820339951403007e+17
19552.0	4.819452066179753e+17
19553.0	4.818695858334378e+17
19554.0	4.8178165399770445e+17
19555.0	4.816343738089472e+17
19556.0	4.815882250704212e+17
19557.0	4.81544782287121e+17
19558.0	4.8146823050690554e+17
19559.0	4.8138519817748474e+17
19560.0	4.811225307283452e+17
19561.0	4.8120081363763194e+17
19562.0	4.809776292691966e+17
19563.0	4.810594481165653e+17
19564.0	4.8096498560969376e+17
19565.0	4.808872392916992e+17
19566.0	4.807923909787647e+17
19567.0	4.8072696780554234e+17
19568.0	4.8062476939427834e+17
19569.0	4.805492676580692e+17
19570.0	4.804733288753834e+17
19571.0	4.8038994639148365e+17
19572.0	4.802828143602348e+17
19573.0	4.801710346207232e+17
19574.0	4.800457351015081e+17
19575.0	4.800603434429098e+17
19576.0	4.799474388609706e+17
19577.0	4.7979182277263366e+17
19578.0	4.798055220685481e+17
19579.0	4.797046864565587e+17
19580.0	4.796228552359936e+17
19581.0	4.7955218114368845e+17
19582.0	4.7947596197178016e+17
19583.0	4.7939535891333114e+17
19584.0	4.7930197909613216e+17
19585.0	4.791200568923475e+17
19586.0	4.790137442882903e+17
19587.0	4.7901653014500685e+17
19588.0	4.7889415272748365e+17
19589.0	4.788210162991104e+17
19590.0	4.7872289048712525e+17
19591.0	4.7869649251642016e+17
19592.0	4.786283756912639e+17
19593.0	4.784966188313257e+17
19594.0	4.782209340101968e+17
19595.0	4.7836843321152845e+17
19596.0	4.7827988628111354e+17
19597.0	4.7816410426682016e+17
19598.0	4.7789948814404256e+17
19599.0	4.779783465118378e+17
19600.0	4.77935541752081e+17
19601.0	4.778295351924054e+17
19602.0	4.777460718283434e+17
19603.0	4.776419521462272e+17
19604.0	4.775626010176171e+17
19605.0	4.77381470209093e+17
19606.0	4.7744071244622496e+17
19607.0	4.773784519180288e+17
19608.0	4.772856012821844e+17
19609.0	4.7719688371350176e+17
19610.0	4.769315715459759e+17
19611.0	4.767355348101805e+17
19612.0	4.769722802023082e+17
19613.0	4.7686781001618765e+17
19614.0	4.767547364737023e+17
19615.0	4.766865499531946e+17
19616.0	4.7636780829463936e+17
19617.0	4.7610995408896006e+17
19618.0	4.762016796027562e+17
19619.0	4.7605112534029645e+17
19620.0	4.759723368076624e+17
19621.0	4.756394120402259e+17
19622.0	4.76070173282577e+17
19623.0	4.759901556790612e+17
19624.0	4.7586360856412166e+17
19625.0	4.7585516466121376e+17
19626.0	4.7575209753968634e+17
19627.0	4.756659091363155e+17
19628.0	4.755449993756672e+17
19629.0	4.7430492585547014e+17
19630.0	4.753002093783721e+17
19631.0	4.7513404328727885e+17
19632.0	4.7516130752157005e+17
19633.0	4.750957578900822e+17
19634.0	4.7508016088132256e+17
19635.0	4.74952978818662e+17
19636.0	4.7443557989307674e+17
19637.0	4.7412145679237126e+17
19638.0	4.7474827140792294e+17
19639.0	4.7465445258690554e+17
19640.0	4.743356968774314e+17
19641.0	4.7409540834699955e+17
19642.0	4.74349098307857e+17
19643.0	4.743198509367295e+17
19644.0	4.7426635692332365e+17
19645.0	4.742134878612138e+17
19646.0	4.736199383405901e+17
19647.0	4.740663253925887e+17
19648.0	4.740159095089833e+17
19649.0	4.7393025706775885e+17
19650.0	4.738610866334378e+17
19651.0	4.737783176364032e+17
19652.0	4.7369732269015034e+17
19653.0	4.7361866830533965e+17
19654.0	4.735359253129898e+17
19655.0	4.7344068944636576e+17
