# Flux units: erg / (cm m2 s)
# Wavelength units: Angstrom
wave	flux
19000.0	6.240738295676927e+17
19001.0	6.23946372288785e+17
19002.0	6.238409657942015e+17
19003.0	6.237237370246484e+17
19004.0	6.236068561726122e+17
19005.0	6.234904601821183e+17
19006.0	6.233749311542612e+17
19007.0	6.232540503343104e+17
19008.0	6.231344761798656e+17
19009.0	6.2301676240896e+17
19010.0	6.228534349529087e+17
19011.0	6.227876467354282e+17
19012.0	6.226318300894546e+17
19013.0	6.225581501491882e+17
19014.0	6.224358493476179e+17
19015.0	6.223211274436608e+17
19016.0	6.22203081204258e+17
19017.0	6.220925135486975e+17
19018.0	6.219735725943465e+17
19019.0	6.218591588319232e+17
19020.0	6.217410577869482e+17
19021.0	6.216267502802259e+17
19022.0	6.215099261911039e+17
19023.0	6.213897818210303e+17
19024.0	6.212752481714173e+17
19025.0	6.211586729443325e+17
19026.0	6.210382400061439e+17
19027.0	6.208949099429887e+17
19028.0	6.208118376278697e+17
19029.0	6.206933444154707e+17
19030.0	6.205805502136319e+17
19031.0	6.204642113355775e+17
19032.0	6.203472429623978e+17
19033.0	6.20221168755234e+17
19034.0	6.201126175812266e+17
19035.0	6.199870431952896e+17
19036.0	6.175453315683658e+17
19037.0	6.197591682667859e+17
19038.0	6.196465151333716e+17
19039.0	6.195336589956436e+17
19040.0	6.194176862104233e+17
19041.0	6.193006514274303e+17
19042.0	6.191661213635924e+17
19043.0	6.190693643627178e+17
19044.0	6.189517659351721e+17
19045.0	6.188356822805161e+17
19046.0	6.187150874421932e+17
19047.0	6.186032099054931e+17
19048.0	6.184620905201663e+17
19049.0	6.183462651647316e+17
19050.0	6.182496358804138e+17
19051.0	6.177781041856504e+17
19052.0	6.179713168965632e+17
19053.0	6.179064820443818e+17
19054.0	6.177920055072083e+17
19055.0	6.176453892068694e+17
19056.0	6.17555908764194e+17
19057.0	6.174432910726484e+17
19058.0	6.173166926473897e+17
19059.0	6.1720812336797e+17
19060.0	6.17093586223104e+17
19061.0	6.169804201962153e+17
19062.0	6.168639323504639e+17
19063.0	6.167482510693716e+17
19064.0	6.166183686438912e+17
19065.0	6.164975173937833e+17
19066.0	6.163910532355412e+17
19067.0	6.162835574882304e+17
19068.0	6.161691193289385e+17
19069.0	6.160534774043988e+17
19070.0	6.159342949979476e+17
19071.0	6.158200924886356e+17
19072.0	6.15702333628962e+17
19073.0	6.155898234514089e+17
19074.0	6.154746780625578e+17
19075.0	6.153589549083306e+17
19076.0	6.152409051736746e+17
19077.0	6.151259720166057e+17
19078.0	6.150079552072361e+17
19079.0	6.148960680935423e+17
19080.0	6.147789311792468e+17
19081.0	6.146600391584425e+17
19082.0	6.145443115302912e+17
19083.0	6.144225663341907e+17
19084.0	6.142934653774506e+17
19085.0	6.142014824032937e+17
19086.0	6.140388969895252e+17
19087.0	6.139029938503679e+17
19088.0	6.138373123080192e+17
19089.0	6.136883929153536e+17
19090.0	6.136197845876735e+17
19091.0	6.135051126658388e+17
19092.0	6.133671239789226e+17
19093.0	6.132782568833023e+17
19094.0	6.131632234124627e+17
19095.0	6.130478927052799e+17
19096.0	6.12930661978385e+17
19097.0	6.128170233932458e+17
19098.0	6.126978950234111e+17
19099.0	6.125818714871124e+17
19100.0	6.124667726550356e+17
19101.0	6.123545495775914e+17
19102.0	6.122281113747455e+17
19103.0	6.121251203798356e+17
19104.0	6.12010239931187e+17
19105.0	6.118859241859753e+17
19106.0	6.11768031318289e+17
19107.0	6.116600392450047e+17
19108.0	6.115446245119316e+17
19109.0	6.112639481894227e+17
19110.0	6.113114234464937e+17
19111.0	6.112001927413757e+17
19112.0	6.110857403913556e+17
19113.0	6.109735476527104e+17
19114.0	6.108568860928682e+17
19115.0	6.107334904381439e+17
19116.0	6.106263126190761e+17
19117.0	6.105112488793428e+17
19118.0	6.103794913203539e+17
19119.0	6.09649095081983e+17
19120.0	6.101472660597418e+17
19121.0	6.100397531157844e+17
19122.0	6.099389984538623e+17
19123.0	6.098241263938218e+17
19124.0	6.096975868985341e+17
19125.0	6.09593339220241e+17
19126.0	6.094781989344595e+17
19127.0	6.091675154426537e+17
19128.0	6.09222202036497e+17
19129.0	6.091258110585514e+17
19130.0	6.090184100326057e+17
19131.0	6.089051803921065e+17
19132.0	6.087902675774121e+17
19133.0	6.086638436351999e+17
19134.0	6.085481160070484e+17
19135.0	6.084453552794282e+17
19136.0	6.083318594404351e+17
19137.0	6.081991226512724e+17
19138.0	6.081004303985322e+17
19139.0	6.079878433953108e+17
19140.0	6.078734069137407e+17
19141.0	6.077588074834601e+17
19142.0	6.076407571196585e+17
19143.0	6.075230053203967e+17
19144.0	6.074108805993812e+17
19145.0	6.073003401368916e+17
19146.0	6.07118346420224e+17
19147.0	6.070608203524778e+17
19148.0	6.069527413871956e+17
19149.0	6.068373383282687e+17
19150.0	6.067270105868969e+17
19151.0	6.066128068891988e+17
19152.0	6.064963063906303e+17
19153.0	6.063759026727593e+17
19154.0	6.062552524696234e+17
19155.0	6.061547007421098e+17
19156.0	6.060402956479146e+17
19157.0	6.059185489139028e+17
19158.0	6.056973366373033e+17
19159.0	6.056930799779839e+17
19160.0	6.055794697743018e+17
19161.0	6.054646697164799e+17
19162.0	6.050908453819735e+17
19163.0	6.052294664301225e+17
19164.0	6.051255031955455e+17
19165.0	6.049987799897428e+17
19166.0	6.048777439106388e+17
19167.0	6.047584893621588e+17
19168.0	6.046674169714003e+17
19169.0	6.045495866687487e+17
19170.0	6.044406429078867e+17
19171.0	6.043109583137449e+17
19172.0	6.042105648513023e+17
19173.0	6.040978303483903e+17
19174.0	6.039784602468351e+17
19175.0	6.038704997007359e+17
19176.0	6.037560863577427e+17
19177.0	6.036255249443498e+17
19178.0	6.035208223937875e+17
19179.0	6.033914845986815e+17
19180.0	6.032975173692074e+17
19181.0	6.031715964638548e+17
19182.0	6.030699094081535e+17
19183.0	6.029581163866794e+17
19184.0	6.028430887179603e+17
19185.0	6.027288449646591e+17
19186.0	6.026158966221481e+17
19187.0	6.024940952922793e+17
19188.0	6.023875214529876e+17
19189.0	6.022731690672127e+17
19190.0	6.02157782016546e+17
19191.0	6.02039609598498e+17
19192.0	6.01931798159906e+17
19193.0	6.018155305151145e+17
19194.0	6.017002139986601e+17
19195.0	6.015885809199786e+17
19196.0	6.014712426790912e+17
19197.0	6.013546742327978e+17
19198.0	6.01225257165346e+17
19199.0	5.995455469759142e+17
19200.0	5.999129704529925e+17
19201.0	6.00886354256418e+17
19202.0	6.007867681974953e+17
19203.0	6.006718413318825e+17
19204.0	6.005601335945897e+17
19205.0	6.004494426963967e+17
19206.0	6.003358271100244e+17
19207.0	6.00211950997777e+17
19208.0	6.000841800548351e+17
19209.0	5.999949012882772e+17
19210.0	5.998809885354666e+17
19211.0	5.997687168040959e+17
19212.0	5.996547316296361e+17
19213.0	5.995186135323988e+17
19214.0	5.993981984899071e+17
19215.0	5.993068029280255e+17
19216.0	5.991994144849919e+17
19217.0	5.99084782129425e+17
19218.0	5.988810546479101e+17
19219.0	5.988412139328851e+17
19220.0	5.987409839783936e+17
19221.0	5.985945166457514e+17
19222.0	5.985159420925268e+17
19223.0	5.98400487793186e+17
19224.0	5.982840588075007e+17
19225.0	5.981588003924649e+17
19226.0	5.980589075901097e+17
19227.0	5.979449345092265e+17
19228.0	5.978339949587114e+17
19229.0	5.9772003432093e+17
19230.0	5.976047960981503e+17
19231.0	5.974901335435946e+17
19232.0	5.973773132671657e+17
19233.0	5.972564365716137e+17
19234.0	5.971479167150761e+17
19235.0	5.970333704825513e+17
19236.0	5.969226767182506e+17
19237.0	5.968069999110825e+17
19238.0	5.966824095787689e+17
19239.0	5.965810358375764e+17
19240.0	5.964651403673599e+17
19241.0	5.96350154711586e+17
19242.0	5.962372902551551e+17
19243.0	5.961073117801129e+17
19244.0	5.960111505102164e+17
19245.0	5.958964370647721e+17
19246.0	5.957810237997055e+17
19247.0	5.956683439625556e+17
19248.0	5.955548478439423e+17
19249.0	5.954394900834986e+17
19250.0	5.953227708519766e+17
19251.0	5.951985287167999e+17
19252.0	5.950668324645545e+17
19253.0	5.949811004014591e+17
19254.0	5.948694138454013e+17
19255.0	5.947346785402877e+17
19256.0	5.946372519886847e+17
19257.0	5.945267519313236e+17
19258.0	5.94412349493521e+17
19259.0	5.942899057360895e+17
19260.0	5.941360253206527e+17
19261.0	5.940674104918015e+17
19262.0	5.939480502468607e+17
19263.0	5.938330778031444e+17
19264.0	5.936033280207529e+17
19265.0	5.934936301939369e+17
19266.0	5.933750683347625e+17
19267.0	5.932869292305066e+17
19268.0	5.93171412226321e+17
19269.0	5.930569774923776e+17
19270.0	5.929421482841428e+17
19271.0	5.927898866603348e+17
19272.0	5.927086092976127e+17
19273.0	5.925201431407273e+17
19274.0	5.924163428548605e+17
19275.0	5.923674372003156e+17
19276.0	5.92250148032785e+17
19277.0	5.921354940066474e+17
19278.0	5.920205494550527e+17
19279.0	5.91901993607714e+17
19280.0	5.917803369114281e+17
19281.0	5.916732891856895e+17
19282.0	5.915590471800147e+17
19283.0	5.914215550986921e+17
19284.0	5.913158836639059e+17
19285.0	5.911922195038208e+17
19286.0	5.910918642095444e+17
19287.0	5.909786232444244e+17
19288.0	5.9025315650164e+17
19289.0	5.891830693145229e+17
19290.0	5.906297972413779e+17
19291.0	5.904873237250048e+17
19292.0	5.903954064616106e+17
19293.0	5.902601744110931e+17
19294.0	5.901431657725952e+17
19295.0	5.900276050078377e+17
19296.0	5.899057576804352e+17
19297.0	5.897895896503636e+17
19298.0	5.896734104354813e+17
19299.0	5.895542509578921e+17
19300.0	5.894409366623574e+17
19301.0	5.893232909090815e+17
19302.0	5.892047480640852e+17
19303.0	5.890797497658025e+17
19304.0	5.889663344574464e+17
19305.0	5.888496990420991e+17
19306.0	5.887316417576959e+17
19307.0	5.886073072779264e+17
19308.0	5.884907755317929e+17
19309.0	5.883185472034131e+17
19310.0	5.881788800259411e+17
19311.0	5.881277160882176e+17
19312.0	5.880170815335082e+17
19313.0	5.878976722152106e+17
19314.0	5.849470310110542e+17
19315.0	5.850122208411689e+17
19316.0	5.873958383517696e+17
19317.0	5.872870073477802e+17
19318.0	5.871663513425238e+17
19319.0	5.870475127291903e+17
19320.0	5.869242499639977e+17
19321.0	5.868006466213204e+17
19322.0	5.866708813567316e+17
19323.0	5.865354666442752e+17
19324.0	5.864344076855978e+17
19325.0	5.862617166555818e+17
19326.0	5.861895993731754e+17
19327.0	5.860663593970346e+17
19328.0	5.859369586174634e+17
19329.0	5.858206813257727e+17
19330.0	5.856917915522388e+17
19331.0	5.855661757125972e+17
19332.0	5.85445703487761e+17
19333.0	5.853182928355327e+17
19334.0	5.851936358836905e+17
19335.0	5.850098145689601e+17
19336.0	5.84766512570914e+17
19337.0	5.846395737079805e+17
19338.0	5.844888197966505e+17
19339.0	5.843822858032468e+17
19340.0	5.842395018384724e+17
19341.0	5.841147209449471e+17
19342.0	5.839476671294121e+17
19343.0	5.838619612807168e+17
19344.0	5.837245706316458e+17
19345.0	5.83367480871048e+17
19346.0	5.833756247414099e+17
19347.0	5.833173079774548e+17
19348.0	5.830684678903126e+17
19349.0	5.828362859708415e+17
19350.0	5.826983947315882e+17
19351.0	5.825633501664595e+17
19352.0	5.82413878174242e+17
19353.0	5.822912600735743e+17
19354.0	5.821518362356393e+17
19355.0	5.820006019366912e+17
19356.0	5.818693592984233e+17
19357.0	5.814722879640914e+17
19358.0	5.813030322787668e+17
19359.0	5.811512398577663e+17
19360.0	5.810016538503849e+17
19361.0	5.808601206270633e+17
19362.0	5.807154599908692e+17
19363.0	5.803756977389565e+17
19364.0	5.800711764486826e+17
19365.0	5.799169200837972e+17
19366.0	5.797509020516351e+17
19367.0	5.795581045768191e+17
19368.0	5.791755107216042e+17
19369.0	5.788207330710868e+17
19370.0	5.786537381855231e+17
19371.0	5.784908440709801e+17
19372.0	5.782157907023188e+17
19373.0	5.779129571999744e+17
19374.0	5.777413273987753e+17
19375.0	5.7756628301469e+17
19376.0	5.773889484008105e+17
19377.0	5.772076986837673e+17
19378.0	5.770255912315561e+17
19379.0	5.768407850942463e+17
19380.0	5.766531606642687e+17
19381.0	5.764621193445373e+17
19382.0	5.762611677932203e+17
19383.0	5.760050164749653e+17
19384.0	5.757920650199039e+17
19385.0	5.7558969754146125e+17
19386.0	5.7538416336349856e+17
19387.0	5.751746791997439e+17
19388.0	5.7496154228654074e+17
19389.0	5.7474439205355514e+17
19390.0	5.745212227846143e+17
19391.0	5.722353949125259e+17
19392.0	5.7391556927160294e+17
19393.0	5.737074857956692e+17
19394.0	5.734669749671252e+17
19395.0	5.732177866129407e+17
19396.0	5.729575139715753e+17
19397.0	5.7253871383565645e+17
19398.0	5.722692825819817e+17
19399.0	5.719239503642622e+17
19400.0	5.716440209074855e+17
19401.0	5.712025439174655e+17
19402.0	5.709124160804181e+17
19403.0	5.704516230621863e+17
19404.0	5.6998393327998285e+17
19405.0	5.695714002731006e+17
19406.0	5.6892542922260474e+17
19407.0	5.6837881731918464e+17
19408.0	5.676277901382997e+17
19409.0	5.668211671782745e+17
19410.0	5.659851098510677e+17
19411.0	5.6491448334636365e+17
19412.0	5.63717835482726e+17
19413.0	5.628000706669226e+17
19414.0	5.6219961459561805e+17
19415.0	5.615764627958442e+17
19416.0	5.6090198879327565e+17
19417.0	5.6021700260659174e+17
19418.0	5.5951682234395296e+17
19419.0	5.5876576237759136e+17
19420.0	5.579987338570409e+17
19421.0	5.5721504933587616e+17
19422.0	5.5641276335609165e+17
19423.0	5.555999777751038e+17
19424.0	5.5477517159847245e+17
19425.0	5.538920257989289e+17
19426.0	5.5298228832174074e+17
19427.0	5.5205076339261434e+17
19428.0	5.511044884245162e+17
19429.0	5.501344101520724e+17
19430.0	5.490719778493782e+17
19431.0	5.47751352371337e+17
19432.0	5.470387176822098e+17
19433.0	5.459238713993899e+17
19434.0	5.447182298994004e+17
19435.0	5.433513945858046e+17
19436.0	5.416026103611392e+17
19437.0	5.3962123618112794e+17
19438.0	5.335799346932394e+17
19439.0	5.31779099715174e+17
19440.0	5.277001720703657e+17
19441.0	5.2471102442919226e+17
19442.0	5.214339342532609e+17
19443.0	5.178920369040042e+17
19444.0	5.139303564137809e+17
19445.0	5.087510375956486e+17
19446.0	5.002822836464318e+17
19447.0	4.8915711444473075e+17
19448.0	4.781265003042139e+17
19449.0	4.593985689485311e+17
19450.0	4.173514226182866e+17
19451.0	3.9826749621534906e+17
19452.0	4.421151342198779e+17
19453.0	4.7024902724649024e+17
19454.0	4.83830501456827e+17
19455.0	4.9395434517080614e+17
19456.0	5.043485470097409e+17
19457.0	5.1058088583277235e+17
19458.0	5.08442459784271e+17
19459.0	5.181753573157561e+17
19460.0	5.214896372667732e+17
19461.0	5.2442998669748896e+17
19462.0	5.274224474193922e+17
19463.0	5.32345409817804e+17
19464.0	5.358192368986796e+17
19465.0	5.3813423293945165e+17
19466.0	5.397271115289938e+17
19467.0	5.409984077277865e+17
19468.0	5.420549247336447e+17
19469.0	5.429426300911614e+17
19470.0	5.4388494437799245e+17
19471.0	5.447013404158634e+17
19472.0	5.4550946130165754e+17
19473.0	5.4630113030963194e+17
19474.0	5.470517903491071e+17
19475.0	5.477038851533481e+17
19476.0	5.4849183031842125e+17
19477.0	5.4918564984913914e+17
19478.0	5.498321399447551e+17
19479.0	5.504301889748991e+17
19480.0	5.510306237251584e+17
19481.0	5.516091558199294e+17
19482.0	5.5217420958870176e+17
19483.0	5.5272266188281165e+17
19484.0	5.532480120203945e+17
19485.0	5.5373285308061e+17
19486.0	5.5418056909783034e+17
19487.0	5.5461265699853645e+17
19488.0	5.5501108260372474e+17
19489.0	5.555003763370666e+17
19490.0	5.5618988992539315e+17
19491.0	5.5724896615574214e+17
19492.0	5.5811184815418016e+17
19493.0	5.5870137435859584e+17
19494.0	5.5909813853006554e+17
19495.0	5.5967552138554016e+17
19496.0	5.598662958077265e+17
19497.0	5.603038692289194e+17
19498.0	5.6024351647989786e+17
19499.0	5.575308152056467e+17
19500.0	5.608886941777919e+17
19501.0	5.609846897726805e+17
19502.0	5.612670575880873e+17
19503.0	5.6132736580758176e+17
19504.0	5.6137987618679456e+17
19505.0	5.614731096926889e+17
19506.0	5.616400100666025e+17
19507.0	5.616702006667945e+17
19508.0	5.617008376807423e+17
19509.0	5.617235316615849e+17
19510.0	5.61716819796514e+17
19511.0	5.569190799518342e+17
19512.0	5.614064978537119e+17
19513.0	5.60957274892969e+17
19514.0	5.612331794257228e+17
19515.0	5.618142149607425e+17
19516.0	5.618805420763818e+17
19517.0	5.6186649612124154e+17
19518.0	5.618600179488084e+17
19519.0	5.618553947073194e+17
19520.0	5.618945887305726e+17
19521.0	5.618818840439466e+17
19522.0	5.618524860274004e+17
19523.0	5.618280949612543e+17
19524.0	5.617956228694015e+17
19525.0	5.617661304111103e+17
19526.0	5.617324587483135e+17
19527.0	5.6169469400405325e+17
19528.0	5.616541379504809e+17
19529.0	5.616119462581589e+17
19530.0	5.617084998352894e+17
19531.0	5.617519535237802e+17
19532.0	5.617033039314943e+17
19533.0	5.616528386250068e+17
19534.0	5.6174420182084256e+17
19535.0	5.619279001725611e+17
19536.0	5.618675811876862e+17
19537.0	5.6181916375012685e+17
19538.0	5.617804165600597e+17
19539.0	5.6171076350115846e+17
19540.0	5.6198454970067616e+17
19541.0	5.6192052707546445e+17
19542.0	5.6185423246568096e+17
19543.0	5.617814580756479e+17
19544.0	5.6171794226216954e+17
19545.0	5.615981617479677e+17
19546.0	5.6156460878397466e+17
19547.0	5.6176246430979386e+17
19548.0	5.616889536096937e+17
19549.0	5.616038953615358e+17
19550.0	5.615388913390931e+17
19551.0	5.6146286440611834e+17
19552.0	5.6138564650052256e+17
19553.0	5.613053408881321e+17
19554.0	5.6122473692091725e+17
19555.0	5.611475330662399e+17
19556.0	5.612569760191827e+17
19557.0	5.61191051207202e+17
19558.0	5.6110946465437005e+17
19559.0	5.610272085508096e+17
19560.0	5.609391840209577e+17
19561.0	5.6085762438157645e+17
19562.0	5.6077458848699725e+17
19563.0	5.606921153282047e+17
19564.0	5.606069997578921e+17
19565.0	5.6052137765546656e+17
19566.0	5.6043186904104954e+17
19567.0	5.603486657238356e+17
19568.0	5.6025892579355296e+17
19569.0	5.601718930068821e+17
19570.0	5.601680108290046e+17
19571.0	5.60152981868817e+17
19572.0	5.6006056520362643e+17
19573.0	5.5997239380322976e+17
19574.0	5.598752704299006e+17
19575.0	5.5979587113669965e+17
19576.0	5.597047913360041e+17
19577.0	5.596112817750015e+17
19578.0	5.595197266897577e+17
19579.0	5.594299984336211e+17
19580.0	5.5933882586890234e+17
19581.0	5.59248162632499e+17
19582.0	5.5915818831052794e+17
19583.0	5.5906598094110714e+17
19584.0	5.5897237924522656e+17
19585.0	5.588684178281813e+17
19586.0	5.587718433494356e+17
19587.0	5.586849473669802e+17
19588.0	5.585496038178816e+17
19589.0	5.585050452099071e+17
19590.0	5.584015827752276e+17
19591.0	5.5831902391282336e+17
19592.0	5.5822559579122336e+17
19593.0	5.581345679299924e+17
19594.0	5.5801520985210874e+17
19595.0	5.5794537287297696e+17
19596.0	5.577987126023509e+17
19597.0	5.5787030944153594e+17
19598.0	5.5773119528304634e+17
19599.0	5.576810706938537e+17
19600.0	5.5758649864574285e+17
19601.0	5.5748322621303456e+17
19602.0	5.57389300437265e+17
19603.0	5.5722832514689683e+17
19604.0	5.571950320899413e+17
19605.0	5.57073191473425e+17
19606.0	5.5700933207654394e+17
19607.0	5.569137970162345e+17
19608.0	5.5681522423125325e+17
19609.0	5.5671453709762554e+17
19610.0	5.5662080244230816e+17
19611.0	5.565215428400469e+17
19612.0	5.564298709434367e+17
19613.0	5.563316174148947e+17
19614.0	5.562311778151081e+17
19615.0	5.5613791655690234e+17
19616.0	5.560195563039403e+17
19617.0	5.5593839777983136e+17
19618.0	5.557819781327528e+17
19619.0	5.5566652110711443e+17
19620.0	5.5557392101102925e+17
19621.0	5.555472128016383e+17
19622.0	5.554551588738388e+17
19623.0	5.553569430241279e+17
19624.0	5.55257915576593e+17
19625.0	5.5516118087543456e+17
19626.0	5.550629135755945e+17
19627.0	5.54963838243089e+17
19628.0	5.5482690533239475e+17
19629.0	5.5474041710619296e+17
19630.0	5.54564425158929e+17
19631.0	5.5283348525110586e+17
19632.0	5.54463978988066e+17
19633.0	5.5436656166393165e+17
19634.0	5.5427596427810125e+17
19635.0	5.541731406359209e+17
19636.0	5.5407278429306874e+17
19637.0	5.5393698356483405e+17
19638.0	5.5388107097593165e+17
19639.0	5.537827497792853e+17
19640.0	5.536758751384915e+17
19641.0	5.5347506591389037e+17
19642.0	5.53486394728994e+17
19643.0	5.533868611687764e+17
19644.0	5.532832610211157e+17
19645.0	5.531605237323092e+17
19646.0	5.5308587497772365e+17
19647.0	5.52993620702003e+17
19648.0	5.5289490384267936e+17
19649.0	5.5279512365738656e+17
19650.0	5.526969550635007e+17
19651.0	5.5259724757947725e+17
19652.0	5.524979851111081e+17
19653.0	5.5239878366986234e+17
19654.0	5.5229985087378765e+17
19655.0	5.522003660374015e+17
19656.0	5.5210175718140576e+17
19657.0	5.5200340417795386e+17
19658.0	5.519040427240105e+17
19659.0	5.518048916144126e+17
19660.0	5.5170589401634125e+17
19661.0	5.5160668481563296e+17
