# Flux units: erg / (cm m2 s)
# Wavelength units: Angstrom
wave	flux
19000.0	7.239233209805481e+17
19001.0	7.237737505619968e+17
19002.0	7.236491054940157e+17
19003.0	7.235105600831487e+17
19004.0	7.233727837678249e+17
19005.0	7.232357396381693e+17
19006.0	7.230978172212563e+17
19007.0	7.228928187957249e+17
19008.0	7.228051728018089e+17
19009.0	7.226810468488531e+17
19010.0	7.224907818947923e+17
19011.0	7.224082065347923e+17
19012.0	7.222127972668755e+17
19013.0	7.221360961694378e+17
19014.0	7.219911982055423e+17
19015.0	7.21857405919778e+17
19016.0	7.217198492461738e+17
19017.0	7.2138019087319e+17
19018.0	7.214433605866836e+17
19019.0	7.213108984545279e+17
19020.0	7.21160301969408e+17
19021.0	7.210309454397439e+17
19022.0	7.209022005794131e+17
19023.0	7.207593945945428e+17
19024.0	7.206241832359251e+17
19025.0	7.20480780681216e+17
19026.0	7.203461886814889e+17
19027.0	7.201992457147731e+17
19028.0	7.200802689690281e+17
19029.0	7.199412445686442e+17
19030.0	7.198082742266536e+17
19031.0	7.196722252655274e+17
19032.0	7.19534978970419e+17
19033.0	7.193870158091603e+17
19034.0	7.192557802313044e+17
19035.0	7.191198784902483e+17
19036.0	7.15756529866067e+17
19037.0	7.188494097754794e+17
19038.0	7.187122061224617e+17
19039.0	7.185777132481194e+17
19040.0	7.184419550920704e+17
19041.0	7.18304095310097e+17
19042.0	7.181574870488403e+17
19043.0	7.18031725596945e+17
19044.0	7.178938996490237e+17
19045.0	7.177580404102484e+17
19046.0	7.175989998125056e+17
19047.0	7.174860017674921e+17
19048.0	7.173253891446099e+17
19049.0	7.172046963692883e+17
19050.0	7.170721274221908e+17
19051.0	7.167244217177423e+17
19052.0	7.167882784582314e+17
19053.0	7.166493747139923e+17
19054.0	7.16532402565939e+17
19055.0	7.163657144937132e+17
19056.0	7.16255129571601e+17
19057.0	7.161228017969834e+17
19058.0	7.159667444678655e+17
19059.0	7.158520310923263e+17
19060.0	7.157136102522879e+17
19061.0	7.155806269079552e+17
19062.0	7.154434521956352e+17
19063.0	7.153078138568701e+17
19064.0	7.151567425765375e+17
19065.0	7.150124557227347e+17
19066.0	7.14892770559044e+17
19067.0	7.147640872151721e+17
19068.0	7.14629312623411e+17
19069.0	7.144937453081939e+17
19070.0	7.143494563572393e+17
19071.0	7.142194228669097e+17
19072.0	7.1408700910906e+17
19073.0	7.139506568997545e+17
19074.0	7.138163210321919e+17
19075.0	7.136803217036627e+17
19076.0	7.135424209573204e+17
19077.0	7.134083420607828e+17
19078.0	7.132363579807059e+17
19079.0	7.131366455334228e+17
19080.0	7.130013424593577e+17
19081.0	7.128598917939199e+17
19082.0	7.127098503550292e+17
19083.0	7.125805719792297e+17
19084.0	7.124293204836351e+17
19085.0	7.12322945384448e+17
19086.0	7.121369653313535e+17
19087.0	7.120086502473727e+17
19088.0	7.119091697451007e+17
19089.0	7.117372607430655e+17
19090.0	7.116458685366271e+17
19091.0	7.115059609556308e+17
19092.0	7.113611316385108e+17
19093.0	7.112444423263572e+17
19094.0	7.110986206369108e+17
19095.0	7.1096138217117e+17
19096.0	7.108098390316372e+17
19097.0	7.107019545422505e+17
19098.0	7.10569144562483e+17
19099.0	7.104288490083668e+17
19100.0	7.102940650493267e+17
19101.0	7.101638902109526e+17
19102.0	7.100206979306836e+17
19103.0	7.098952478359552e+17
19104.0	7.097616277962751e+17
19105.0	7.096261278695423e+17
19106.0	7.094824064079187e+17
19107.0	7.093548263058089e+17
19108.0	7.092227545235453e+17
19109.0	7.086886068333219e+17
19110.0	7.089516491134292e+17
19111.0	7.08817118769971e+17
19112.0	7.086826607083517e+17
19113.0	7.085492067631101e+17
19114.0	7.084151060561919e+17
19115.0	7.082713304880468e+17
19116.0	7.081437784877738e+17
19117.0	7.08009657368576e+17
19118.0	7.078513243499177e+17
19119.0	7.075215202145618e+17
19120.0	7.075959391911935e+17
19121.0	7.074679911088127e+17
19122.0	7.07340584231458e+17
19123.0	7.071867918265002e+17
19124.0	7.070586586355028e+17
19125.0	7.069273133066921e+17
19126.0	7.067553721483263e+17
19127.0	7.064738542387196e+17
19128.0	7.061320323039224e+17
19129.0	7.063898893058047e+17
19130.0	7.062655734906879e+17
19131.0	7.06117455000371e+17
19132.0	7.059976216379391e+17
19133.0	7.057039914172419e+17
19134.0	7.055353989911898e+17
19135.0	7.055969891297961e+17
19136.0	7.054646845636607e+17
19137.0	7.053104511975423e+17
19138.0	7.050544107487232e+17
19139.0	7.050622827582803e+17
19140.0	7.049293771483817e+17
19141.0	7.047958843359232e+17
19142.0	7.046576094576637e+17
19143.0	7.045150064771071e+17
19144.0	7.043794373443583e+17
19145.0	7.042587012278953e+17
19146.0	7.040428373180416e+17
19147.0	7.039840521901395e+17
19148.0	7.038568153219071e+17
19149.0	7.037246362353663e+17
19150.0	7.035608746688513e+17
19151.0	7.034593742596778e+17
19152.0	7.033007934275583e+17
19153.0	7.031891500029268e+17
19154.0	7.030451594767017e+17
19155.0	7.029262280993449e+17
19156.0	7.027934376929961e+17
19157.0	7.026565507099306e+17
19158.0	7.02242144037546e+17
19159.0	7.02390948925713e+17
19160.0	7.022263054368767e+17
19161.0	7.020820300475052e+17
19162.0	7.013807661864283e+17
19163.0	7.018586786758655e+17
19164.0	7.017287930347519e+17
19165.0	7.015907316465664e+17
19166.0	7.014462157837651e+17
19167.0	7.012713915307348e+17
19168.0	7.011637898073427e+17
19169.0	7.010436327844521e+17
19170.0	7.009306570391551e+17
19171.0	7.007819703604564e+17
19172.0	7.006626958890323e+17
19173.0	7.005317541221715e+17
19174.0	7.00392893509359e+17
19175.0	7.002662736931497e+17
19176.0	7.001327543866708e+17
19177.0	6.999827799867391e+17
19178.0	6.998655917621248e+17
19179.0	6.997125197288788e+17
19180.0	6.993522897627823e+17
19181.0	6.994574196430163e+17
19182.0	6.992302504760663e+17
19183.0	6.991766376240468e+17
19184.0	6.990345457194323e+17
19185.0	6.989365070790655e+17
19186.0	6.988081109052073e+17
19187.0	6.986629203187027e+17
19188.0	6.985375343269204e+17
19189.0	6.983922568484179e+17
19190.0	6.982566921895935e+17
19191.0	6.981335381267796e+17
19192.0	6.979461617199786e+17
19193.0	6.971831654634833e+17
19194.0	6.974579571774803e+17
19195.0	6.975736457286995e+17
19196.0	6.974818290586963e+17
19197.0	6.973503985855146e+17
19198.0	6.972166960578559e+17
19199.0	6.935862258434039e+17
19200.0	6.947049784213518e+17
19201.0	6.968206096859136e+17
19202.0	6.966905058710867e+17
19203.0	6.965533823991807e+17
19204.0	6.96423229231377e+17
19205.0	6.962940145390931e+17
19206.0	6.961619143054676e+17
19207.0	6.960216517465428e+17
19208.0	6.958681231633065e+17
19209.0	6.957623203769002e+17
19210.0	6.956306563508906e+17
19211.0	6.954951848056148e+17
19212.0	6.953727273467903e+17
19213.0	6.951967100938921e+17
19214.0	6.950456174226092e+17
19215.0	6.949640449206953e+17
19216.0	6.947972292717226e+17
19217.0	6.947100687684948e+17
19218.0	6.944851966121299e+17
19219.0	6.94429556023842e+17
19220.0	6.943130850252116e+17
19221.0	6.941416496300032e+17
19222.0	6.940556364786345e+17
19223.0	6.939211016612521e+17
19224.0	6.937130941721256e+17
19225.0	6.936237099887274e+17
19226.0	6.935260499542015e+17
19227.0	6.933936982720511e+17
19228.0	6.932664156159997e+17
19229.0	6.931336067547135e+17
19230.0	6.929817648409257e+17
19231.0	6.928406798488916e+17
19232.0	6.926770597702312e+17
19233.0	6.925997880377343e+17
19234.0	6.924748962747732e+17
19235.0	6.92341978501393e+17
19236.0	6.922134467117055e+17
19237.0	6.920820044944724e+17
19238.0	6.919366123716607e+17
19239.0	6.918207574463828e+17
19240.0	6.916265816533673e+17
19241.0	6.915378985478826e+17
19242.0	6.914081992037716e+17
19243.0	6.912699801796605e+17
19244.0	6.911627307078995e+17
19245.0	6.910323002966015e+17
19246.0	6.909008418613929e+17
19247.0	6.907587571570003e+17
19248.0	6.906408758935551e+17
19249.0	6.905080366934697e+17
19250.0	6.903766794807978e+17
19251.0	6.902361122755923e+17
19252.0	6.900473269321727e+17
19253.0	6.89983480537634e+17
19254.0	6.898447961554943e+17
19255.0	6.896968947903144e+17
19256.0	6.895786037433684e+17
19257.0	6.894605583428265e+17
19258.0	6.893261071319039e+17
19259.0	6.891894042088788e+17
19260.0	6.890495631076008e+17
19261.0	6.889365548564479e+17
19262.0	6.887981217830228e+17
19263.0	6.886693493800959e+17
19264.0	6.884743235414697e+17
19265.0	6.883928588331689e+17
19266.0	6.882701404187305e+17
19267.0	6.881529972828841e+17
19268.0	6.880170239590399e+17
19269.0	6.878900172182868e+17
19270.0	6.877523498150568e+17
19271.0	6.875829390802944e+17
19272.0	6.874937009285801e+17
19273.0	6.857955787232575e+17
19274.0	6.86477955633424e+17
19275.0	6.8710583252637e+17
19276.0	6.869722295435261e+17
19277.0	6.868402196272467e+17
19278.0	6.867103699872426e+17
19279.0	6.865348573790205e+17
19280.0	6.864386941517823e+17
19281.0	6.863181529306452e+17
19282.0	6.861879690046122e+17
19283.0	6.859953830625279e+17
19284.0	6.857718893641724e+17
19285.0	6.857619106955263e+17
19286.0	6.856612888532308e+17
19287.0	6.855350890965674e+17
19288.0	6.846543088844795e+17
19289.0	6.83033520207731e+17
19290.0	6.851419626449578e+17
19291.0	6.849773339060908e+17
19292.0	6.848798628249597e+17
19293.0	6.847485698550442e+17
19294.0	6.846155307963732e+17
19295.0	6.84486502121472e+17
19296.0	6.843549442812586e+17
19297.0	6.842203713656147e+17
19298.0	6.840903758337364e+17
19299.0	6.839629170169171e+17
19300.0	6.838317508547923e+17
19301.0	6.836991412928511e+17
19302.0	6.835652467359743e+17
19303.0	6.834225170874367e+17
19304.0	6.832954091241472e+17
19305.0	6.83172872462882e+17
19306.0	6.830397223250602e+17
19307.0	6.82898459005201e+17
19308.0	6.82773224497698e+17
19309.0	6.825520228466685e+17
19310.0	6.823430396925267e+17
19311.0	6.82373094257459e+17
19312.0	6.822379257506473e+17
19313.0	6.819737319942833e+17
19314.0	6.815498608749217e+17
19315.0	6.814481976568499e+17
19316.0	6.817252624738985e+17
19317.0	6.815949875314687e+17
19318.0	6.814616473916755e+17
19319.0	6.813325342714538e+17
19320.0	6.811640419494569e+17
19321.0	6.810680855014057e+17
19322.0	6.80908357107712e+17
19323.0	6.807398449326765e+17
19324.0	6.806694547248468e+17
19325.0	6.804975169219242e+17
19326.0	6.804052780952233e+17
19327.0	6.80267704714308e+17
19328.0	6.801408356166314e+17
19329.0	6.800077465059327e+17
19330.0	6.798692568094035e+17
19331.0	6.797362293549737e+17
19332.0	6.796057010066772e+17
19333.0	6.794706537152511e+17
19334.0	6.792935791482195e+17
19335.0	6.792061351799465e+17
19336.0	6.790714220347391e+17
19337.0	6.789350933135359e+17
19338.0	6.787784084466346e+17
19339.0	6.786681713022291e+17
19340.0	6.785289328525311e+17
19341.0	6.783989000612521e+17
19342.0	6.781920905352532e+17
19343.0	6.781299300412074e+17
19344.0	6.779923642799444e+17
19345.0	6.77615951780249e+17
19346.0	6.776589275977044e+17
19347.0	6.775747237292714e+17
19348.0	6.774484587511807e+17
19349.0	6.773073709629439e+17
19350.0	6.771689018185043e+17
19351.0	6.770337019243177e+17
19352.0	6.768920496526675e+17
19353.0	6.7676385312768e+17
19354.0	6.766199543868074e+17
19355.0	6.76472467558673e+17
19356.0	6.763466544469332e+17
19357.0	6.762056382414847e+17
19358.0	6.76049831591936e+17
19359.0	6.758345460066988e+17
19360.0	6.757771518498131e+17
19361.0	6.756231595163647e+17
19362.0	6.755020051578879e+17
19363.0	6.753590093807615e+17
19364.0	6.752121601567402e+17
19365.0	6.75069474128964e+17
19366.0	6.749280159836842e+17
19367.0	6.747818534371327e+17
19368.0	6.746368009830399e+17
19369.0	6.744575179751424e+17
19370.0	6.741376472099497e+17
19371.0	6.741874396801705e+17
19372.0	6.740452034914985e+17
19373.0	6.738901357385044e+17
19374.0	6.737420133335039e+17
19375.0	6.735883179567786e+17
19376.0	6.734302588261718e+17
19377.0	6.732809704745641e+17
19378.0	6.731255697637375e+17
19379.0	6.729666991751167e+17
19380.0	6.72809308267042e+17
19381.0	6.726479300438697e+17
19382.0	6.724748899778559e+17
19383.0	6.7230921930397e+17
19384.0	6.721570471586474e+17
19385.0	6.719882236963497e+17
19386.0	6.718177833298601e+17
19387.0	6.716443807361706e+17
19388.0	6.714700232392703e+17
19389.0	6.71293026406673e+17
19390.0	6.710944295376214e+17
19391.0	6.680184602929788e+17
19392.0	6.707354213023741e+17
19393.0	6.70552133083682e+17
19394.0	6.703567025646249e+17
19395.0	6.70158373851409e+17
19396.0	6.699497055496874e+17
19397.0	6.697547343768234e+17
19398.0	6.695399119126528e+17
19399.0	6.692449771935058e+17
19400.0	6.690974806485674e+17
19401.0	6.688738172906154e+17
19402.0	6.686388196649642e+17
19403.0	6.683932732249428e+17
19404.0	6.681453949616127e+17
19405.0	6.678822706129577e+17
19406.0	6.676119739345578e+17
19407.0	6.673356104051368e+17
19408.0	6.669599026883244e+17
19409.0	6.667165795789481e+17
19410.0	6.664205144249684e+17
19411.0	6.660877407223807e+17
19412.0	6.657356777652223e+17
19413.0	6.653703982066346e+17
19414.0	6.649779286529364e+17
19415.0	6.645688082016936e+17
19416.0	6.640950354203987e+17
19417.0	6.636006142902272e+17
19418.0	6.631777519009791e+17
19419.0	6.626304966612308e+17
19420.0	6.620868277611176e+17
19421.0	6.614809657911977e+17
19422.0	6.608194920338772e+17
19423.0	6.601136089858047e+17
19424.0	6.593499899450707e+17
19425.0	6.585187877344596e+17
19426.0	6.575918297732435e+17
19427.0	6.565710344661673e+17
19428.0	6.555384619728895e+17
19429.0	6.54339382321698e+17
19430.0	6.529059717993812e+17
19431.0	6.508465011468986e+17
19432.0	6.499749200920573e+17
19433.0	6.482100460279126e+17
19434.0	6.462338808938495e+17
19435.0	6.440069722974889e+17
19436.0	6.41331584670105e+17
19437.0	6.389397360476159e+17
19438.0	6.320760287133699e+17
19439.0	6.325048923127809e+17
19440.0	6.286978314840745e+17
19441.0	6.244664287253842e+17
19442.0	6.196665629278209e+17
19443.0	6.141401093199188e+17
19444.0	6.081541292337833e+17
19445.0	6.011717388948823e+17
19446.0	5.932795032851796e+17
19447.0	5.840990048179537e+17
19448.0	5.732308125832537e+17
19449.0	5.571083820335106e+17
19450.0	5.170509910813328e+17
19451.0	5.023543175675901e+17
19452.0	5.4002644124958784e+17
19453.0	5.664588932579335e+17
19454.0	5.784198459686908e+17
19455.0	5.882558089439914e+17
19456.0	5.963206507189591e+17
19457.0	6.03639357269606e+17
19458.0	6.090988845356385e+17
19459.0	6.153061830142638e+17
19460.0	6.201996927303675e+17
19461.0	6.244522356899837e+17
19462.0	6.282377399631872e+17
19463.0	6.315554945455443e+17
19464.0	6.34502370173474e+17
19465.0	6.371165764670806e+17
19466.0	6.392413168511654e+17
19467.0	6.414543242657791e+17
19468.0	6.432655926449494e+17
19469.0	6.446116116976979e+17
19470.0	6.462861679263743e+17
19471.0	6.475507860941482e+17
19472.0	6.486760299167741e+17
19473.0	6.496711118334633e+17
19474.0	6.50557913178658e+17
19475.0	6.512316245868541e+17
19476.0	6.520167089569791e+17
19477.0	6.526292797161472e+17
19478.0	6.531696161718271e+17
19479.0	6.536507928084479e+17
19480.0	6.540772815929343e+17
19481.0	6.544581212504063e+17
19482.0	6.54787158876706e+17
19483.0	6.550807833651882e+17
19484.0	6.553350254362623e+17
19485.0	6.555517235931817e+17
19486.0	6.557510495720788e+17
19487.0	6.559238151908009e+17
19488.0	6.56071036309777e+17
19489.0	6.561945843575466e+17
19490.0	6.561447273649489e+17
19491.0	6.56385625956898e+17
19492.0	6.564643480098134e+17
19493.0	6.565206120813908e+17
19494.0	6.565684580450303e+17
19495.0	6.565407933246121e+17
19496.0	6.565464585011197e+17
19497.0	6.566337109295104e+17
19498.0	6.564915907133445e+17
19499.0	6.518776122048461e+17
19500.0	6.566242079648426e+17
19501.0	6.565899135178067e+17
19502.0	6.565769673091753e+17
19503.0	6.565473315454976e+17
19504.0	6.564884543526227e+17
19505.0	6.564712586149888e+17
19506.0	6.564250752035498e+17
19507.0	6.563720093586772e+17
19508.0	6.563202890465279e+17
19509.0	6.562607162982399e+17
19510.0	6.561753894748159e+17
19511.0	6.536332086083572e+17
19512.0	6.554783140457105e+17
19513.0	6.54673196910726e+17
19514.0	6.550280671155529e+17
19515.0	6.557295604050605e+17
19516.0	6.557621924397055e+17
19517.0	6.55667608367923e+17
19518.0	6.555995308294143e+17
19519.0	6.555149426229247e+17
19520.0	6.554259004850175e+17
19521.0	6.553411397528233e+17
19522.0	6.552446030927188e+17
19523.0	6.551603116332372e+17
19524.0	6.550669085376511e+17
19525.0	6.549612138244777e+17
19526.0	6.548755834732541e+17
19527.0	6.54778457793058e+17
19528.0	6.546820224953002e+17
19529.0	6.545823510822911e+17
19530.0	6.544851116665514e+17
19531.0	6.543870900131156e+17
19532.0	6.54284819669538e+17
19533.0	6.54183480111923e+17
19534.0	6.540806425586346e+17
19535.0	6.539739119921833e+17
19536.0	6.538675862459731e+17
19537.0	6.537673822961663e+17
19538.0	6.536574382637055e+17
19539.0	6.534900624654337e+17
19540.0	6.534450567446527e+17
19541.0	6.533411980181503e+17
19542.0	6.532326065788243e+17
19543.0	6.531238825994921e+17
19544.0	6.530156789235711e+17
19545.0	6.528672876636838e+17
19546.0	6.52688504057583e+17
19547.0	6.526665686166186e+17
19548.0	6.525758716160682e+17
19549.0	6.524515843222185e+17
19550.0	6.523544186563241e+17
19551.0	6.522444435860138e+17
19552.0	6.521321083808425e+17
19553.0	6.520183681537364e+17
19554.0	6.519033533475498e+17
19555.0	6.517938741837823e+17
19556.0	6.516820011909119e+17
19557.0	6.515667858270889e+17
19558.0	6.514555703612756e+17
19559.0	6.513336859841876e+17
19560.0	6.512253204780371e+17
19561.0	6.511101893498195e+17
19562.0	6.509977316709716e+17
19563.0	6.508751342622036e+17
19564.0	6.507698184344916e+17
19565.0	6.506553377729194e+17
19566.0	6.505387342342825e+17
19567.0	6.504204733164201e+17
19568.0	6.503071616772777e+17
19569.0	6.501917849026559e+17
19570.0	6.500817250374996e+17
19571.0	6.499654738203988e+17
19572.0	6.49845567267362e+17
19573.0	6.497330999416147e+17
19574.0	6.496016229116584e+17
19575.0	6.494982362540714e+17
19576.0	6.493823979661994e+17
19577.0	6.492286816878591e+17
19578.0	6.491479604898473e+17
19579.0	6.49034126520047e+17
19580.0	6.489176311944531e+17
19581.0	6.488027813642239e+17
19582.0	6.486884725992105e+17
19583.0	6.485715552567295e+17
19584.0	6.484531181081939e+17
19585.0	6.483200988326569e+17
19586.0	6.481122746346156e+17
19587.0	6.479455272129875e+17
19588.0	6.479162986463232e+17
19589.0	6.47656874722372e+17
19590.0	6.477362906529791e+17
19591.0	6.476340495996244e+17
19592.0	6.475158942384127e+17
19593.0	6.473895752237055e+17
19594.0	6.472437558411263e+17
19595.0	6.471627992727553e+17
19596.0	6.460540645102939e+17
19597.0	6.469256286481066e+17
19598.0	6.467866329787049e+17
19599.0	6.466960654423379e+17
19600.0	6.465789066477568e+17
19601.0	6.464539546266282e+17
19602.0	6.463396113285119e+17
19603.0	6.461240554902867e+17
19604.0	6.4609853636608e+17
19605.0	6.459537284399104e+17
19606.0	6.458628231921663e+17
19607.0	6.457553298915327e+17
19608.0	6.456354793324543e+17
19609.0	6.455119382052863e+17
19610.0	6.454025032215208e+17
19611.0	6.452841269602985e+17
19612.0	6.451678568688297e+17
19613.0	6.450466800009215e+17
19614.0	6.449268130840576e+17
19615.0	6.448140687245311e+17
19616.0	6.4467180205725e+17
19617.0	6.445752918911657e+17
19618.0	6.444045825998847e+17
19619.0	6.442660710230697e+17
19620.0	6.441520806057299e+17
19621.0	6.441057279541247e+17
19622.0	6.43988832981265e+17
19623.0	6.438715189974356e+17
19624.0	6.437524807352319e+17
19625.0	6.436341223697065e+17
19626.0	6.435162638254079e+17
19627.0	6.434000599340372e+17
19628.0	6.431988372908716e+17
19629.0	6.431531896318633e+17
19630.0	6.429936966085293e+17
19631.0	6.392994392091288e+17
19632.0	6.428080374895956e+17
19633.0	6.426857807282175e+17
19634.0	6.425744311844864e+17
19635.0	6.424518750896127e+17
19636.0	6.423378552422399e+17
19637.0	6.421679720890368e+17
19638.0	6.421017362694143e+17
19639.0	6.419782834323453e+17
19640.0	6.418599104566612e+17
19641.0	6.416945235274412e+17
19642.0	6.416304609165311e+17
19643.0	6.415083087331327e+17
19644.0	6.413897616938323e+17
19645.0	6.412498025228969e+17
19646.0	6.411618590130176e+17
19647.0	6.410439753028948e+17
19648.0	6.409259464698537e+17
19649.0	6.408077639155711e+17
19650.0	6.406910640477523e+17
19651.0	6.405722485729961e+17
19652.0	6.404542943286612e+17
19653.0	6.403365439974058e+17
19654.0	6.402188400132095e+17
19655.0	6.401001457538388e+17
19656.0	6.399808415727615e+17
19657.0	6.398654160743081e+17
19658.0	6.39745772364322e+17
19659.0	6.396316551391913e+17
19660.0	6.395147820466175e+17
19661.0	6.393966769471487e+17
19662.0	6.392797466722301e+17
19663.0	6.391561254338559e+17
19664.0	6.390251702452221e+17
19665.0	6.389271399235583e+17
