# Flux units: erg / (cm m2 s)
# Wavelength units: Angstrom
wave	flux
19000.0	5.787085014652244e+17
19001.0	5.785975555533482e+17
19002.0	5.784920541975892e+17
19003.0	5.783837967646719e+17
19004.0	5.78275522973969e+17
19005.0	5.781672253456383e+17
19006.0	5.780592404026708e+17
19007.0	5.77949697835008e+17
19008.0	5.778411701491028e+17
19009.0	5.777342256032425e+17
19010.0	5.776123194157737e+17
19011.0	5.775176818666154e+17
19012.0	5.774062931061418e+17
19013.0	5.773019681128447e+17
19014.0	5.771923469019817e+17
19015.0	5.77084873384482e+17
19016.0	5.769764801260202e+17
19017.0	5.768686195441664e+17
19018.0	5.767614459893076e+17
19019.0	5.766536911738196e+17
19020.0	5.765445496515241e+17
19021.0	5.7643726075330554e+17
19022.0	5.763299950635689e+17
19023.0	5.76220846760482e+17
19024.0	5.761134772617215e+17
19025.0	5.760062485517652e+17
19026.0	5.7589745145173325e+17
19027.0	5.757887753573715e+17
19028.0	5.7568250378758816e+17
19029.0	5.755743355535358e+17
19030.0	5.7546718213133645e+17
19031.0	5.753593737685674e+17
19032.0	5.752515041689599e+17
19033.0	5.7514135517484365e+17
19034.0	5.750356628384426e+17
19035.0	5.749273414423892e+17
19036.0	5.7468015335178214e+17
19037.0	5.747125953145513e+17
19038.0	5.746045426335742e+17
19039.0	5.7449756579157325e+17
19040.0	5.7438991198890656e+17
19041.0	5.74282031623919e+17
19042.0	5.7417211932835834e+17
19043.0	5.740670581648041e+17
19044.0	5.739591399112703e+17
19045.0	5.7385192126764365e+17
19046.0	5.737429852662442e+17
19047.0	5.73636809396497e+17
19048.0	5.735231238351529e+17
19049.0	5.734199726178303e+17
19050.0	5.7331321052419405e+17
19051.0	5.7318386294237843e+17
19052.0	5.7309829641448096e+17
19053.0	5.729917392125951e+17
19054.0	5.728847007143253e+17
19055.0	5.727703449032021e+17
19056.0	5.7266912984651085e+17
19057.0	5.7256239298860365e+17
19058.0	5.7245473834707616e+17
19059.0	5.7234800889910605e+17
19060.0	5.7224003709829114e+17
19061.0	5.7213346493672096e+17
19062.0	5.72026088796979e+17
19063.0	5.719189460702549e+17
19064.0	5.7180832235083085e+17
19065.0	5.7169972154422605e+17
19066.0	5.715957306971476e+17
19067.0	5.7149007841634976e+17
19068.0	5.7138312660036256e+17
19069.0	5.7127606007016096e+17
19070.0	5.7116827966941856e+17
19071.0	5.710619047100415e+17
19072.0	5.709548546774356e+17
19073.0	5.708476777671337e+17
19074.0	5.707408179462143e+17
19075.0	5.7063382537557325e+17
19076.0	5.705262148441428e+17
19077.0	5.7041963834845856e+17
19078.0	5.703118285176831e+17
19079.0	5.702060489397589e+17
19080.0	5.700988063186943e+17
19081.0	5.6999099935402656e+17
19082.0	5.6988382866527565e+17
19083.0	5.6977579415961594e+17
19084.0	5.6966538651675296e+17
19085.0	5.695650147248809e+17
19086.0	5.694479704347989e+17
19087.0	5.6934751000330234e+17
19088.0	5.692430155601237e+17
19089.0	5.6913094298828794e+17
19090.0	5.6903048947739296e+17
19091.0	5.689241038225407e+17
19092.0	5.688156986103124e+17
19093.0	5.6871140444514976e+17
19094.0	5.6860444969314976e+17
19095.0	5.6849776610290336e+17
19096.0	5.683910024014506e+17
19097.0	5.682850576378538e+17
19098.0	5.6817855335410336e+17
19099.0	5.68072006078737e+17
19100.0	5.679651826783572e+17
19101.0	5.678590851721898e+17
19102.0	5.677498209665023e+17
19103.0	5.6764610184041805e+17
19104.0	5.675398002114558e+17
19105.0	5.674334098729641e+17
19106.0	5.6732630866984954e+17
19107.0	5.6722027827254605e+17
19108.0	5.671143619603113e+17
19109.0	5.669956797246122e+17
19110.0	5.669017275247274e+17
19111.0	5.667954954513066e+17
19112.0	5.6668925212317005e+17
19113.0	5.6658302997626874e+17
19114.0	5.6647680657107616e+17
19115.0	5.663691799614804e+17
19116.0	5.662638507819007e+17
19117.0	5.661579515964074e+17
19118.0	5.6604945592702285e+17
19119.0	5.6584199334789094e+17
19120.0	5.6583849662655136e+17
19121.0	5.65733194080802e+17
19122.0	5.6562789782650874e+17
19123.0	5.655217528548009e+17
19124.0	5.6541514329402016e+17
19125.0	5.6530981516301645e+17
19126.0	5.652036020338687e+17
19127.0	5.650507037147134e+17
19128.0	5.649839217967102e+17
19129.0	5.6488366681620474e+17
19130.0	5.647798840765098e+17
19131.0	5.646743128855892e+17
19132.0	5.6456528852418554e+17
19133.0	5.64422233886993e+17
19134.0	5.643227115814911e+17
19135.0	5.642210797507924e+17
19136.0	5.6411551708829005e+17
19137.0	5.6400530657771514e+17
19138.0	5.6390307048762016e+17
19139.0	5.637983745081342e+17
19140.0	5.636927182427477e+17
19141.0	5.635870672202409e+17
19142.0	5.63480750142259e+17
19143.0	5.633741903538858e+17
19144.0	5.632693718308179e+17
19145.0	5.6316462838579194e+17
19146.0	5.6304292604149754e+17
19147.0	5.629510068207615e+17
19148.0	5.628479769586345e+17
19149.0	5.627423290119508e+17
19150.0	5.626368014417919e+17
19151.0	5.6253163632940365e+17
19152.0	5.6242593805107194e+17
19153.0	5.623201491757738e+17
19154.0	5.622118777618431e+17
19155.0	5.6211000545771514e+17
19156.0	5.6200456841461754e+17
19157.0	5.6189917387380045e+17
19158.0	5.617854407770111e+17
19159.0	5.616880837110441e+17
19160.0	5.615827273383935e+17
19161.0	5.614773055346004e+17
19162.0	5.6135354497542816e+17
19163.0	5.6126759809406285e+17
19164.0	5.611624484306943e+17
19165.0	5.610566991915689e+17
19166.0	5.6094867859701754e+17
19167.0	5.6084513325492896e+17
19168.0	5.607392944674132e+17
19169.0	5.606351000567807e+17
19170.0	5.605315498912426e+17
19171.0	5.6042534389241165e+17
19172.0	5.6032144895508474e+17
19173.0	5.602163640238079e+17
19174.0	5.601098169581566e+17
19175.0	5.6000638143692794e+17
19176.0	5.599013942329343e+17
19177.0	5.597923213574142e+17
19178.0	5.596912470196223e+17
19179.0	5.595847503555242e+17
19180.0	5.594800597587283e+17
19181.0	5.5937342999538336e+17
19182.0	5.592706162098175e+17
19183.0	5.5916680208274765e+17
19184.0	5.590598834716671e+17
19185.0	5.589570301198336e+17
19186.0	5.5885237363671034e+17
19187.0	5.5874558539857914e+17
19188.0	5.586427458879488e+17
19189.0	5.585378006269952e+17
19190.0	5.584329097521834e+17
19191.0	5.5832755799326714e+17
19192.0	5.5822386843702605e+17
19193.0	5.58118597698082e+17
19194.0	5.580138504781823e+17
19195.0	5.579097028340394e+17
19196.0	5.5780464866099194e+17
19197.0	5.577002571180713e+17
19198.0	5.575958376830291e+17
19199.0	5.5737536688947194e+17
19200.0	5.5731504322095776e+17
19201.0	5.5728209472607565e+17
19202.0	5.5717760587530234e+17
19203.0	5.5707280783441914e+17
19204.0	5.569678128709631e+17
19205.0	5.5686371171368954e+17
19206.0	5.5675920755370656e+17
19207.0	5.5665267230201165e+17
19208.0	5.5654416488857594e+17
19209.0	5.564457591767039e+17
19210.0	5.563414092972032e+17
19211.0	5.562371802136575e+17
19212.0	5.5613283117301754e+17
19213.0	5.5602518792601594e+17
19214.0	5.5592049872732154e+17
19215.0	5.558192656351231e+17
19216.0	5.55714838999859e+17
19217.0	5.556109150519294e+17
19218.0	5.554842701398015e+17
19219.0	5.5539802455408634e+17
19220.0	5.552972635308031e+17
19221.0	5.5518465702406816e+17
19222.0	5.550893341955411e+17
19223.0	5.549843706893653e+17
19224.0	5.548788562613589e+17
19225.0	5.547721850443092e+17
19226.0	5.5467154244020896e+17
19227.0	5.545672256258047e+17
19228.0	5.544637946484052e+17
19229.0	5.5435955822482765e+17
19230.0	5.542548924443306e+17
19231.0	5.5415073606205434e+17
19232.0	5.5404619841754445e+17
19233.0	5.539407597666303e+17
19234.0	5.538146392124073e+17
19235.0	5.5367170704889165e+17
19236.0	5.535684073532073e+17
19237.0	5.5346383657369594e+17
19238.0	5.533575648641023e+17
19239.0	5.53256080183569e+17
19240.0	5.531470379963732e+17
19241.0	5.5304599714310816e+17
19242.0	5.529432336192852e+17
19243.0	5.528349457776638e+17
19244.0	5.527354640870057e+17
19245.0	5.526312582818473e+17
19246.0	5.5252686415243936e+17
19247.0	5.524232101079721e+17
19248.0	5.5231920066614605e+17
19249.0	5.5221507504209914e+17
19250.0	5.5211045386103456e+17
19251.0	5.520048270256809e+17
19252.0	5.5189387426310803e+17
19253.0	5.5179813612858016e+17
19254.0	5.5169400155668474e+17
19255.0	5.5158495650338125e+17
19256.0	5.514862115422206e+17
19257.0	5.5138249989597856e+17
19258.0	5.5127837154563405e+17
19259.0	5.5117217064987296e+17
19260.0	5.510677730252117e+17
19261.0	5.509657965625343e+17
19262.0	5.508603935632041e+17
19263.0	5.507565272869547e+17
19264.0	5.5063959910918816e+17
19265.0	5.5054421427486726e+17
19266.0	5.5044055589628576e+17
19267.0	5.503414617593172e+17
19268.0	5.5023732341254816e+17
19269.0	5.5013316507293e+17
19270.0	5.500289830354943e+17
19271.0	5.4991580526455456e+17
19272.0	5.498196709081087e+17
19273.0	5.495811514651986e+17
19274.0	5.495458777180841e+17
19275.0	5.4950798350964045e+17
19276.0	5.494031924592639e+17
19277.0	5.492990450248362e+17
19278.0	5.4919487724803405e+17
19279.0	5.4908991129518074e+17
19280.0	5.4898406006456326e+17
19281.0	5.488817517625343e+17
19282.0	5.4877786304675834e+17
19283.0	5.486716772504915e+17
19284.0	5.485659501712726e+17
19285.0	5.484588882548052e+17
19286.0	5.4836010470604794e+17
19287.0	5.4825654482370534e+17
19288.0	5.481220441899007e+17
19289.0	5.47947199874116e+17
19290.0	5.479429337077077e+17
19291.0	5.478311952121855e+17
19292.0	5.477336338836138e+17
19293.0	5.476286965219328e+17
19294.0	5.475238585652564e+17
19295.0	5.474193929928703e+17
19296.0	5.4731456090821965e+17
19297.0	5.4720933141326496e+17
19298.0	5.47103968329728e+17
19299.0	5.469997748977664e+17
19300.0	5.4689466668810234e+17
19301.0	5.4678941503324154e+17
19302.0	5.4668429724658336e+17
19303.0	5.465766809130324e+17
19304.0	5.4647254613142176e+17
19305.0	5.4636811830777165e+17
19306.0	5.462629162156031e+17
19307.0	5.4615618103541754e+17
19308.0	5.460514445808979e+17
19309.0	5.459425276635817e+17
19310.0	5.4583481982429856e+17
19311.0	5.4573399483787936e+17
19312.0	5.456288172124841e+17
19313.0	5.455220321899862e+17
19314.0	5.453169997206866e+17
19315.0	5.452209770026326e+17
19316.0	5.45204884996096e+17
19317.0	5.4509843642668365e+17
19318.0	5.4499189935745696e+17
19319.0	5.448859156567381e+17
19320.0	5.447789058195455e+17
19321.0	5.4467248989579936e+17
19322.0	5.44562478125329e+17
19323.0	5.4445665031290874e+17
19324.0	5.443513981687124e+17
19325.0	5.4424060786551456e+17
19326.0	5.4413664861552634e+17
19327.0	5.4402860809803085e+17
19328.0	5.439213288467113e+17
19329.0	5.4381341513700685e+17
19330.0	5.436956448129023e+17
19331.0	5.435731470188543e+17
19332.0	5.4346590432788474e+17
19333.0	5.433570497658879e+17
19334.0	5.432479995396094e+17
19335.0	5.431393995718655e+17
19336.0	5.430300578414592e+17
19337.0	5.4292043145762125e+17
19338.0	5.428051188558506e+17
19339.0	5.427007695355903e+17
19340.0	5.425881100408149e+17
19341.0	5.4247993104138234e+17
19342.0	5.423585223682729e+17
19343.0	5.4225823236532896e+17
19344.0	5.421468173205503e+17
19345.0	5.419739039225171e+17
19346.0	5.419090873854634e+17
19347.0	5.4180905302534816e+17
19348.0	5.416983141722794e+17
19349.0	5.4158434304873805e+17
19350.0	5.414710178480126e+17
19351.0	5.4135664386157216e+17
19352.0	5.412415553754451e+17
19353.0	5.411288563843071e+17
19354.0	5.410136508770985e+17
19355.0	5.408953262058154e+17
19356.0	5.407308383256574e+17
19357.0	5.4058840136963405e+17
19358.0	5.404701899445589e+17
19359.0	5.4034604427837434e+17
19360.0	5.4023365671430816e+17
19361.0	5.4011421244347725e+17
19362.0	5.3999572880807245e+17
19363.0	5.398751295657301e+17
19364.0	5.397536475622058e+17
19365.0	5.396317982075562e+17
19366.0	5.395089369770666e+17
19367.0	5.393852425480873e+17
19368.0	5.3926067311738874e+17
19369.0	5.391323030181204e+17
19370.0	5.389928459053738e+17
19371.0	5.3887949875445754e+17
19372.0	5.387523833812308e+17
19373.0	5.386218794997077e+17
19374.0	5.384915937219924e+17
19375.0	5.383592489604436e+17
19376.0	5.382257222440276e+17
19377.0	5.380903875029674e+17
19378.0	5.3791242290462714e+17
19379.0	5.3772034153731405e+17
19380.0	5.3758038019932154e+17
19381.0	5.374384238406313e+17
19382.0	5.3729262514995194e+17
19383.0	5.371465305511252e+17
19384.0	5.3700185803106976e+17
19385.0	5.368519851332949e+17
19386.0	5.3669996125661856e+17
19387.0	5.365453538983935e+17
19388.0	5.363881334887763e+17
19389.0	5.3611532707867296e+17
19390.0	5.359477664514047e+17
19391.0	5.356541591595687e+17
19392.0	5.356111859985066e+17
19393.0	5.35437897699601e+17
19394.0	5.3526040433131514e+17
19395.0	5.3499874379475616e+17
19396.0	5.3475342950946125e+17
19397.0	5.34562788745762e+17
19398.0	5.343662368795306e+17
19399.0	5.341236420411391e+17
19400.0	5.3379308803413325e+17
19401.0	5.3358023339758925e+17
19402.0	5.333600255169876e+17
19403.0	5.329788555580756e+17
19404.0	5.327058731969194e+17
19405.0	5.324184039194624e+17
19406.0	5.319893436071935e+17
19407.0	5.3170877633658854e+17
19408.0	5.311824088006656e+17
19409.0	5.3083112004212045e+17
19410.0	5.3033463839020365e+17
19411.0	5.2989777918907725e+17
19412.0	5.295289711722494e+17
19413.0	5.291400056799232e+17
19414.0	5.2875680441958394e+17
19415.0	5.2837598566372685e+17
19416.0	5.2797225615141536e+17
19417.0	5.275552571195391e+17
19418.0	5.271199053512702e+17
19419.0	5.2665892463793485e+17
19420.0	5.261718257838761e+17
19421.0	5.255749684953087e+17
19422.0	5.250193485550932e+17
19423.0	5.244439887522474e+17
19424.0	5.238010515816447e+17
19425.0	5.230605891534847e+17
19426.0	5.223679229165568e+17
19427.0	5.2147249472689485e+17
19428.0	5.205987497607167e+17
19429.0	5.195839679670952e+17
19430.0	5.1840385265172474e+17
19431.0	5.1704064114687974e+17
19432.0	5.154204903538679e+17
19433.0	5.134447766667264e+17
19434.0	5.108317019264334e+17
19435.0	5.085704814766761e+17
19436.0	5.0680995334062074e+17
19437.0	5.048872652330324e+17
19438.0	5.0260357421902483e+17
19439.0	5.0049021221273594e+17
19440.0	4.979080954904574e+17
19441.0	4.949261070368766e+17
19442.0	4.911804696231934e+17
19443.0	4.8586933746182803e+17
19444.0	4.7902289667904826e+17
19445.0	4.735057565930839e+17
19446.0	4.669011640625834e+17
19447.0	4.575143101726713e+17
19448.0	4.448233291339099e+17
19449.0	4.270617080976723e+17
19450.0	3.891449052878152e+17
19451.0	3.7856283309288006e+17
19452.0	4.0954400499302515e+17
19453.0	4.3762421610141094e+17
19454.0	4.5095860665931046e+17
19455.0	4.622770691724628e+17
19456.0	4.696732985546071e+17
19457.0	4.754073316229117e+17
19458.0	4.810187943357101e+17
19459.0	4.8751619010286944e+17
19460.0	4.916767026227883e+17
19461.0	4.947546738087253e+17
19462.0	4.973243716861952e+17
19463.0	4.995934507936425e+17
19464.0	5.0155046662307834e+17
19465.0	5.033955555628373e+17
19466.0	5.050242334457855e+17
19467.0	5.066718584679086e+17
19468.0	5.0915228268188966e+17
19469.0	5.1118488112769626e+17
19470.0	5.1276146414714874e+17
19471.0	5.140792443491671e+17
19472.0	5.1510866859786214e+17
19473.0	5.15978031005696e+17
19474.0	5.167785239904255e+17
19475.0	5.1739497965376845e+17
19476.0	5.1801176317187405e+17
19477.0	5.1850731494659405e+17
19478.0	5.190368454770686e+17
19479.0	5.1943083938065056e+17
19480.0	5.1979169094260045e+17
19481.0	5.201687605499221e+17
19482.0	5.2051475532786336e+17
19483.0	5.207917156368384e+17
19484.0	5.210388368282964e+17
19485.0	5.2126809643636045e+17
19486.0	5.214789914940756e+17
19487.0	5.216710348330325e+17
19488.0	5.2184506160906234e+17
19489.0	5.220300902541993e+17
19490.0	5.2216184061296634e+17
19491.0	5.224204613277013e+17
19492.0	5.226074458466988e+17
19493.0	5.2295337274682016e+17
19494.0	5.230962886923601e+17
19495.0	5.233465572196351e+17
19496.0	5.2340941683425274e+17
19497.0	5.2366789871752525e+17
19498.0	5.2370654978812576e+17
19499.0	5.2359559590707155e+17
19500.0	5.239525346727253e+17
19501.0	5.239709832489642e+17
19502.0	5.239831222637909e+17
19503.0	5.241268997892778e+17
19504.0	5.2414622833049594e+17
19505.0	5.2414153693156685e+17
19506.0	5.2413179314394445e+17
19507.0	5.241387917595989e+17
19508.0	5.2423167056718496e+17
19509.0	5.242087726033577e+17
19510.0	5.2417681473317536e+17
19511.0	5.239364216247634e+17
19512.0	5.240959256231934e+17
19513.0	5.240167399598761e+17
19514.0	5.240253850495657e+17
19515.0	5.240976786325504e+17
19516.0	5.2406757813998925e+17
19517.0	5.240188455004841e+17
19518.0	5.239715884870313e+17
19519.0	5.23920220426513e+17
19520.0	5.2386612641792e+17
19521.0	5.2381181353656314e+17
19522.0	5.2375391326699514e+17
19523.0	5.2369630988424525e+17
19524.0	5.2363611994412365e+17
19525.0	5.2357340356498765e+17
19526.0	5.2352140775697043e+17
19527.0	5.235358307101353e+17
19528.0	5.2346974043286176e+17
19529.0	5.2340277116927994e+17
19530.0	5.2333455465949856e+17
19531.0	5.232651173975381e+17
19532.0	5.2319465274081274e+17
19533.0	5.2312320927334394e+17
19534.0	5.2305079000104954e+17
19535.0	5.229771657751209e+17
19536.0	5.2290231408612685e+17
19537.0	5.2282850698854394e+17
19538.0	5.2275205069864954e+17
19539.0	5.2265978370020704e+17
19540.0	5.2259845262977696e+17
19541.0	5.2252137481393485e+17
19542.0	5.224427777512789e+17
19543.0	5.2236382543107405e+17
19544.0	5.222842485790037e+17
19545.0	5.2219519945058976e+17
19546.0	5.2209606742507514e+17
19547.0	5.220421940368724e+17
19548.0	5.219606631284735e+17
19549.0	5.218757876820649e+17
19550.0	5.2179595637555194e+17
19551.0	5.217130299523071e+17
19552.0	5.216296027291647e+17
19553.0	5.215453382530388e+17
19554.0	5.214605620718251e+17
19555.0	5.213768659238911e+17
19556.0	5.21292462826018e+17
19557.0	5.212071775262037e+17
19558.0	5.2114574963725645e+17
19559.0	5.211050994914644e+17
19560.0	5.21018620912162e+17
19561.0	5.209321890993492e+17
19562.0	5.2084633582086816e+17
19563.0	5.207593588184405e+17
19564.0	5.206722650046464e+17
19565.0	5.205848834615977e+17
19566.0	5.2049641859973114e+17
19567.0	5.204093944812885e+17
19568.0	5.203206627218773e+17
19569.0	5.20232588489523e+17
19570.0	5.201448175053483e+17
19571.0	5.200562026272085e+17
19572.0	5.199665778305706e+17
19573.0	5.198781494591487e+17
19574.0	5.1978667853960525e+17
19575.0	5.1970019751362554e+17
19576.0	5.1961083374250656e+17
19577.0	5.1951920078301856e+17
19578.0	5.194305148813311e+17
19579.0	5.193410079446357e+17
19580.0	5.1925125459258016e+17
19581.0	5.1916138596706976e+17
19582.0	5.1907174865742496e+17
19583.0	5.1898148038464845e+17
19584.0	5.1889109369268896e+17
19585.0	5.1879752142684154e+17
19586.0	5.1870611544910496e+17
19587.0	5.1861835837603834e+17
19588.0	5.1851548482164045e+17
19589.0	5.1843698625522336e+17
19590.0	5.183443367362559e+17
19591.0	5.1825559484061005e+17
19592.0	5.181646461119146e+17
19593.0	5.180729512165375e+17
19594.0	5.1797548328113485e+17
19595.0	5.1789040650813434e+17
19596.0	5.177802882023423e+17
19597.0	5.177076663451648e+17
19598.0	5.176076096154281e+17
19599.0	5.175248852877311e+17
19600.0	5.174335108371798e+17
19601.0	5.173399941458602e+17
19602.0	5.1724899858077e+17
19603.0	5.1714567197163514e+17
19604.0	5.1706533783797754e+17
19605.0	5.1696628578385914e+17
19606.0	5.1688239550955514e+17
19607.0	5.16790797991936e+17
19608.0	5.166983312747178e+17
19609.0	5.1660523897705805e+17
19610.0	5.165147035271167e+17
19611.0	5.164224233865215e+17
19612.0	5.163304634810367e+17
19613.0	5.162379084038143e+17
19614.0	5.1614495850277536e+17
19615.0	5.1605386500068685e+17
19616.0	5.1596051076874234e+17
19617.0	5.1586919175290874e+17
19618.0	5.1576318784962554e+17
19619.0	5.1566490566000634e+17
19620.0	5.1557444899307514e+17
19621.0	5.154999380213759e+17
19622.0	5.1540754127912954e+17
19623.0	5.1531512293621754e+17
19624.0	5.152224132988928e+17
19625.0	5.151302034128894e+17
19626.0	5.1503775584965965e+17
19627.0	5.14945264455953e+17
19628.0	5.1485012030477645e+17
19629.0	5.147578751167145e+17
19630.0	5.1466659105341434e+17
19631.0	5.144490350215166e+17
19632.0	5.1448256764313594e+17
19633.0	5.143889889460224e+17
19634.0	5.1429747342704634e+17
19635.0	5.142038263627775e+17
19636.0	5.141121076297727e+17
19637.0	5.1400952711741434e+17
19638.0	5.139268791959551e+17
19639.0	5.1383424925040634e+17
19640.0	5.1374021491206816e+17
19641.0	5.136278866974037e+17
19642.0	5.135563562680319e+17
19643.0	5.134634018930687e+17
19644.0	5.1336969589882874e+17
19645.0	5.1327133548543994e+17
19646.0	5.1318611205160954e+17
19647.0	5.1309347616413e+17
19648.0	5.130008360823465e+17
19649.0	5.1290811945451514e+17
19650.0	5.128155578761215e+17
19651.0	5.127227213611007e+17
19652.0	5.126302312955903e+17
19653.0	5.125375866699775e+17
19654.0	5.1244475896299514e+17
19655.0	5.1235205729484794e+17
