# Flux units: erg / (cm m2 s)
# Wavelength units: Angstrom
wave	flux
19000.0	6.475883906859008e+17
19001.0	6.474582236768938e+17
19002.0	6.47347155640866e+17
19003.0	6.472258862186495e+17
19004.0	6.47104809734417e+17
19005.0	6.46984331497745e+17
19006.0	6.468643022613162e+17
19007.0	6.467452863687338e+17
19008.0	6.466245273234089e+17
19009.0	6.465021429852842e+17
19010.0	6.463422422056959e+17
19011.0	6.462637352506708e+17
19012.0	6.461100852423337e+17
19013.0	6.460252650908329e+17
19014.0	6.458992731619327e+17
19015.0	6.457802282587475e+17
19016.0	6.45658099843072e+17
19017.0	6.455425831884116e+17
19018.0	6.454192559008425e+17
19019.0	6.453001602465791e+17
19020.0	6.451777810115242e+17
19021.0	6.45058909053474e+17
19022.0	6.449384874399062e+17
19023.0	6.448136722229929e+17
19024.0	6.446946575187967e+17
19025.0	6.445735883745961e+17
19026.0	6.444494993315156e+17
19027.0	6.443054816821247e+17
19028.0	6.442132034988714e+17
19029.0	6.440913663077034e+17
19030.0	6.439728470207146e+17
19031.0	6.438520279269373e+17
19032.0	6.437307711575379e+17
19033.0	6.436015263361706e+17
19034.0	6.434876126745939e+17
19035.0	6.433602380933802e+17
19036.0	6.412613286100986e+17
19037.0	6.431223799524009e+17
19038.0	6.4300360138752e+17
19039.0	6.428856312747348e+17
19040.0	6.427650418191018e+17
19041.0	6.426435440170323e+17
19042.0	6.425108696530944e+17
19043.0	6.424030357749759e+17
19044.0	6.422810329787049e+17
19045.0	6.421604650538324e+17
19046.0	6.420359201598121e+17
19047.0	6.419187331934889e+17
19048.0	6.417780530916009e+17
19049.0	6.416643903892137e+17
19050.0	6.415532074292564e+17
19051.0	6.41130252835225e+17
19052.0	6.412684643095892e+17
19053.0	6.4119444092573e+17
19054.0	6.410753501648212e+17
19055.0	6.409292610185898e+17
19056.0	6.408309514960895e+17
19057.0	6.40712816337442e+17
19058.0	6.405869705800361e+17
19059.0	6.404708338674346e+17
19060.0	6.403495958325929e+17
19061.0	6.402313089100457e+17
19062.0	6.401102576615423e+17
19063.0	6.399898909234515e+17
19064.0	6.398576592683007e+17
19065.0	6.397322617421823e+17
19066.0	6.396213987377151e+17
19067.0	6.395072705374889e+17
19068.0	6.393873936242004e+17
19069.0	6.392670482071551e+17
19070.0	6.391442008877737e+17
19071.0	6.390251595497472e+17
19072.0	6.38903872791074e+17
19073.0	6.387847179971242e+17
19074.0	6.386647954358271e+17
19075.0	6.385443682997588e+17
19076.0	6.384219278278655e+17
19077.0	6.383022082009769e+17
19078.0	6.381798283367764e+17
19079.0	6.380626135482367e+17
19080.0	6.379408865274538e+17
19081.0	6.378178827605332e+17
19082.0	6.37697363349777e+17
19083.0	6.375713032634368e+17
19084.0	6.374391901672788e+17
19085.0	6.373404222073513e+17
19086.0	6.371804924870655e+17
19087.0	6.370430830335316e+17
19088.0	6.369665348883796e+17
19089.0	6.368138044811946e+17
19090.0	6.367349431074815e+17
19091.0	6.366155513353556e+17
19092.0	6.364784670102867e+17
19093.0	6.363783829476692e+17
19094.0	6.362584117324457e+17
19095.0	6.361382630981631e+17
19096.0	6.360165900440916e+17
19097.0	6.358979024956074e+17
19098.0	6.357762594308095e+17
19099.0	6.356558406833492e+17
19100.0	6.355340457847466e+17
19101.0	6.354164217719465e+17
19102.0	6.352874502793897e+17
19103.0	6.35177563988514e+17
19104.0	6.350574712083796e+17
19105.0	6.349333445563732e+17
19106.0	6.348074398689961e+17
19107.0	6.346944219709439e+17
19108.0	6.345747917526356e+17
19109.0	6.343043095461884e+17
19110.0	6.343309094027263e+17
19111.0	6.342152839757823e+17
19112.0	6.340960334817961e+17
19113.0	6.339775927681023e+17
19114.0	6.338567311021398e+17
19115.0	6.337291295391741e+17
19116.0	6.336157196135081e+17
19117.0	6.334957575558484e+17
19118.0	6.333614374868308e+17
19119.0	6.327800131398307e+17
19120.0	6.331201988067327e+17
19121.0	6.330064139801939e+17
19122.0	6.328988294534484e+17
19123.0	6.327790239831379e+17
19124.0	6.326492199911423e+17
19125.0	6.325384163360767e+17
19126.0	6.324187115290623e+17
19127.0	6.321310821690025e+17
19128.0	6.321484619666772e+17
19129.0	6.320525397721087e+17
19130.0	6.3193904854685e+17
19131.0	6.318202180425044e+17
19132.0	6.317010064856404e+17
19133.0	6.315686843034282e+17
19134.0	6.314473453955753e+17
19135.0	6.313413423311529e+17
19136.0	6.312227950821373e+17
19137.0	6.310875958170963e+17
19138.0	6.309814733548202e+17
19139.0	6.308638722009769e+17
19140.0	6.307444674265087e+17
19141.0	6.306248971867476e+17
19142.0	6.305029217932627e+17
19143.0	6.303804750299135e+17
19144.0	6.302627229510314e+17
19145.0	6.301464795632982e+17
19146.0	6.29969657073937e+17
19147.0	6.298983540457471e+17
19148.0	6.297858189819904e+17
19149.0	6.296657449364137e+17
19150.0	6.295483055428947e+17
19151.0	6.294296231673855e+17
19152.0	6.293078111420415e+17
19153.0	6.291860173619199e+17
19154.0	6.290586585792511e+17
19155.0	6.289509737387347e+17
19156.0	6.288315215686314e+17
19157.0	6.287068025410899e+17
19158.0	6.28491146179379e+17
19159.0	6.284698914040489e+17
19160.0	6.283508868360874e+17
19161.0	6.282306891284479e+17
19162.0	6.27879210577647e+17
19163.0	6.279870250221565e+17
19164.0	6.278763687968767e+17
19165.0	6.277492862091263e+17
19166.0	6.27621171962402e+17
19167.0	6.274964220368212e+17
19168.0	6.273976000402771e+17
19169.0	6.27275163902498e+17
19170.0	6.2716069820061e+17
19171.0	6.270275974157652e+17
19172.0	6.269206716044628e+17
19173.0	6.268025214861311e+17
19174.0	6.266787663096489e+17
19175.0	6.265650830551721e+17
19176.0	6.264457964202666e+17
19177.0	6.263118051846825e+17
19178.0	6.262004782901929e+17
19179.0	6.260677020745727e+17
19180.0	6.25965838298863e+17
19181.0	6.258375250324137e+17
19182.0	6.257285171686057e+17
19183.0	6.256108646345386e+17
19184.0	6.254905675218943e+17
19185.0	6.253719778405033e+17
19186.0	6.252530746348884e+17
19187.0	6.251272873181183e+17
19188.0	6.250144007017812e+17
19189.0	6.248944187910825e+17
19190.0	6.247738785486163e+17
19191.0	6.2465131413504e+17
19192.0	6.245375137196714e+17
19193.0	6.24416909304354e+17
19194.0	6.242964484740436e+17
19195.0	6.241787271533907e+17
19196.0	6.240566708098388e+17
19197.0	6.239354441695231e+17
19198.0	6.238042009021098e+17
19199.0	6.222864046183761e+17
19200.0	6.225956599496708e+17
19201.0	6.234486713526953e+17
19202.0	6.233405717654185e+17
19203.0	6.232201479148884e+17
19204.0	6.231026567217151e+17
19205.0	6.2298599732893e+17
19206.0	6.228668786059946e+17
19207.0	6.22738823918387e+17
19208.0	6.226086508975444e+17
19209.0	6.2250956633757e+17
19210.0	6.223907167491412e+17
19211.0	6.222722837949097e+17
19212.0	6.221528361686356e+17
19213.0	6.220147301810176e+17
19214.0	6.218886366800553e+17
19215.0	6.217890787928746e+17
19216.0	6.216754360134314e+17
19217.0	6.215560684983636e+17
19218.0	6.213582679878313e+17
19219.0	6.21302686888755e+17
19220.0	6.211952930630314e+17
19221.0	6.210481056382976e+17
19222.0	6.20958619673122e+17
19223.0	6.208377354977279e+17
19224.0	6.207159175304532e+17
19225.0	6.204797311691433e+17
19226.0	6.202757098067284e+17
19227.0	6.201560559605076e+17
19228.0	6.200260887401811e+17
19229.0	6.198615324928682e+17
19230.0	6.197405184338602e+17
19231.0	6.196203264584361e+17
19232.0	6.195019816544938e+17
19233.0	6.193764761949524e+17
19234.0	6.192611882696703e+17
19235.0	6.191409159733248e+17
19236.0	6.190240251248639e+17
19237.0	6.189027604561919e+17
19238.0	6.187737844897108e+17
19239.0	6.186648277964116e+17
19240.0	6.185426233939284e+17
19241.0	6.184223026533716e+17
19242.0	6.183035812708351e+17
19243.0	6.181696257567402e+17
19244.0	6.180653218747732e+17
19245.0	6.179447089310378e+17
19246.0	6.178234402078719e+17
19247.0	6.177049990048426e+17
19248.0	6.175849097199615e+17
19249.0	6.174636552574292e+17
19250.0	6.173417805971455e+17
19251.0	6.172125419973289e+17
19252.0	6.17076912955938e+17
19253.0	6.16980897927441e+17
19254.0	6.168624710549503e+17
19255.0	6.167246073582931e+17
19256.0	6.166177471878484e+17
19257.0	6.165010069149012e+17
19258.0	6.163802963137876e+17
19259.0	6.162526537165482e+17
19260.0	6.161002304722259e+17
19261.0	6.160164610637823e+17
19262.0	6.158911831452329e+17
19263.0	6.157698534648489e+17
19264.0	6.156027110795944e+17
19265.0	6.155143593241257e+17
19266.0	6.15391375270434e+17
19267.0	6.152908198379519e+17
19268.0	6.151693855096831e+17
19269.0	6.150478312243199e+17
19270.0	6.149259038556159e+17
19271.0	6.147722855841791e+17
19272.0	6.146791197463892e+17
19273.0	6.144747079641769e+17
19274.0	6.141569314848765e+17
19275.0	6.140671164765524e+17
19276.0	6.139431076145834e+17
19277.0	6.138212738487636e+17
19278.0	6.136991334094164e+17
19279.0	6.135736819864916e+17
19280.0	6.134464583303167e+17
19281.0	6.13330370830882e+17
19282.0	6.132086703041194e+17
19283.0	6.130658360076969e+17
19284.0	6.129498106538666e+17
19285.0	6.128218350987945e+17
19286.0	6.127123049043284e+17
19287.0	6.125914028332372e+17
19288.0	6.119363569866063e+17
19289.0	6.11042359264322e+17
19290.0	6.12219530388002e+17
19291.0	6.120721633771519e+17
19292.0	6.119723267784703e+17
19293.0	6.118471430220457e+17
19294.0	6.117220949513555e+17
19295.0	6.115982685416106e+17
19296.0	6.114712892735487e+17
19297.0	6.113452694525267e+17
19298.0	6.111848409595904e+17
19299.0	6.107918327873535e+17
19300.0	6.106673697521663e+17
19301.0	6.105409691582463e+17
19302.0	6.104136655306751e+17
19303.0	6.102810531725311e+17
19304.0	6.101578536714237e+17
19305.0	6.10032044544273e+17
19306.0	6.099048347293011e+17
19307.0	6.097721066782719e+17
19308.0	6.09645931668002e+17
19309.0	6.094705526483625e+17
19310.0	6.093241362066089e+17
19311.0	6.092550939082751e+17
19312.0	6.091337331201364e+17
19313.0	6.090047339451731e+17
19314.0	6.067396916456109e+17
19315.0	6.067040133578778e+17
19316.0	6.084254251352063e+17
19317.0	6.083018021492052e+17
19318.0	6.081704704518825e+17
19319.0	6.08040644579601e+17
19320.0	6.079076565516287e+17
19321.0	6.077743470302548e+17
19322.0	6.076327817904127e+17
19323.0	6.074881636564991e+17
19324.0	6.073731883466751e+17
19325.0	6.07170892520926e+17
19326.0	6.07014089794082e+17
19327.0	6.068787153469439e+17
19328.0	6.067411363736234e+17
19329.0	6.066080942391295e+17
19330.0	6.064673299715412e+17
19331.0	6.06329127514931e+17
19332.0	6.061949571825663e+17
19333.0	6.060547892051967e+17
19334.0	6.059167322909353e+17
19335.0	6.057703762471593e+17
19336.0	6.056350740818602e+17
19337.0	6.054942685702825e+17
19338.0	6.053328909063508e+17
19339.0	6.052095107006463e+17
19340.0	6.050558641176576e+17
19341.0	6.049166943147348e+17
19342.0	6.047383604079273e+17
19343.0	6.046304466283177e+17
19344.0	6.04481263833361e+17
19345.0	6.041466722495142e+17
19346.0	6.041096829621588e+17
19347.0	6.040296256525652e+17
19348.0	6.038894190875988e+17
19349.0	6.037351365083135e+17
19350.0	6.035287795477161e+17
19351.0	6.032940183410003e+17
19352.0	6.031320228560895e+17
19353.0	6.029862142388906e+17
19354.0	6.028288599610708e+17
19355.0	6.0266100307613e+17
19356.0	6.025098246313299e+17
19357.0	6.023486895379795e+17
19358.0	6.021847285323092e+17
19359.0	6.020154306942292e+17
19360.0	6.01849883402786e+17
19361.0	6.016858483676502e+17
19362.0	6.0152111693824e+17
19363.0	6.012244970875562e+17
19364.0	6.009902009592489e+17
19365.0	6.008148971574612e+17
19366.0	6.006377363275775e+17
19367.0	6.004591839674368e+17
19368.0	6.00278923616802e+17
19369.0	6.000914635336361e+17
19370.0	5.999023922784938e+17
19371.0	5.995775923672402e+17
19372.0	5.992855145283583e+17
19373.0	5.990895176384511e+17
19374.0	5.988944889337172e+17
19375.0	5.98694870192401e+17
19376.0	5.984931975004159e+17
19377.0	5.980270683488253e+17
19378.0	5.977561353945087e+17
19379.0	5.975409692071252e+17
19380.0	5.973218881961983e+17
19381.0	5.969025539156654e+17
19382.0	5.964644352349524e+17
19383.0	5.96223907209762e+17
19384.0	5.959855486883159e+17
19385.0	5.952631182721023e+17
19386.0	5.950038769401856e+17
19387.0	5.946448631824378e+17
19388.0	5.938892794494976e+17
19389.0	5.936000820488874e+17
19390.0	5.92785712069564e+17
19391.0	5.9065692327335e+17
19392.0	5.91675995420535e+17
19393.0	5.912473794248703e+17
19394.0	5.908915139117055e+17
19395.0	5.905229304299519e+17
19396.0	5.901493351743487e+17
19397.0	5.897682658088276e+17
19398.0	5.893718485762047e+17
19399.0	5.889084418075305e+17
19400.0	5.885530401843882e+17
19401.0	5.881334069198847e+17
19402.0	5.876900636742995e+17
19403.0	5.872357834315092e+17
19404.0	5.867738132119551e+17
19405.0	5.862949372209833e+17
19406.0	5.858044293065386e+17
19407.0	5.85297977933824e+17
19408.0	5.84712079942178e+17
19409.0	5.842315901927423e+17
19410.0	5.836721999926612e+17
19411.0	5.831014218377897e+17
19412.0	5.825217783922687e+17
19413.0	5.819333106903722e+17
19414.0	5.813376541611347e+17
19415.0	5.807399306788863e+17
19416.0	5.80116730225186e+17
19417.0	5.794997044161193e+17
19418.0	5.78867533254929e+17
19419.0	5.781732972997289e+17
19420.0	5.774982614002346e+17
19421.0	5.768098519624361e+17
19422.0	5.761067635791188e+17
19423.0	5.753743377170431e+17
19424.0	5.745899421215402e+17
19425.0	5.738460209304916e+17
19426.0	5.7300376197529594e+17
19427.0	5.72161216619042e+17
19428.0	5.71183659832661e+17
19429.0	5.701661990671703e+17
19430.0	5.6892911196132685e+17
19431.0	5.67237215151719e+17
19432.0	5.655809223207581e+17
19433.0	5.62926857066906e+17
19434.0	5.5909329117293114e+17
19435.0	5.5626489274914106e+17
19436.0	5.541798445318142e+17
19437.0	5.520929403349673e+17
19438.0	5.472996151350617e+17
19439.0	5.472107348972886e+17
19440.0	5.446113191176874e+17
19441.0	5.41671797712486e+17
19442.0	5.3823689621940864e+17
19443.0	5.3352664962607795e+17
19444.0	5.2596702064585376e+17
19445.0	5.180964414859948e+17
19446.0	5.112284732282198e+17
19447.0	5.022742835363833e+17
19448.0	4.88600338064999e+17
19449.0	4.676027073342123e+17
19450.0	4.266571343418726e+17
19451.0	4.0951505101345875e+17
19452.0	4.5033180721315706e+17
19453.0	4.79173658978987e+17
19454.0	4.9589986371392806e+17
19455.0	5.0659405070335974e+17
19456.0	5.139993337703085e+17
19457.0	5.206573719399092e+17
19458.0	5.2479512420898906e+17
19459.0	5.3457916652421235e+17
19460.0	5.383766041515346e+17
19461.0	5.4132471814772045e+17
19462.0	5.438814062728533e+17
19463.0	5.4624211386586426e+17
19464.0	5.4842759853725005e+17
19465.0	5.505164145677652e+17
19466.0	5.523922846657193e+17
19467.0	5.542889545968299e+17
19468.0	5.578189064284844e+17
19469.0	5.6076358074586355e+17
19470.0	5.627942259742033e+17
19471.0	5.642216333989208e+17
19472.0	5.653179918887592e+17
19473.0	5.662368097544873e+17
19474.0	5.6698992555895443e+17
19475.0	5.6757215863767014e+17
19476.0	5.683128172194473e+17
19477.0	5.68868146913826e+17
19478.0	5.694096535104171e+17
19479.0	5.6997182432433485e+17
19480.0	5.704617983737855e+17
19481.0	5.709403137245182e+17
19482.0	5.714061463388158e+17
19483.0	5.7187057910415354e+17
19484.0	5.7233384760060576e+17
19485.0	5.7274268179060045e+17
19486.0	5.731290116521984e+17
19487.0	5.735161942857043e+17
19488.0	5.738936002762068e+17
19489.0	5.742561215206741e+17
19490.0	5.745041783215442e+17
19491.0	5.7497582689757856e+17
19492.0	5.753230025818111e+17
19493.0	5.7565511980591776e+17
19494.0	5.7596292768290125e+17
19495.0	5.7625279442452474e+17
19496.0	5.764932282875901e+17
19497.0	5.767853411489108e+17
19498.0	5.7687126559075e+17
19499.0	5.7465550811081216e+17
19500.0	5.774885985626794e+17
19501.0	5.777045959912105e+17
19502.0	5.778991476637695e+17
19503.0	5.780851617606314e+17
19504.0	5.782579497489747e+17
19505.0	5.784235570189652e+17
19506.0	5.785792272138239e+17
19507.0	5.787226882091689e+17
19508.0	5.788604467686057e+17
19509.0	5.789865702588415e+17
19510.0	5.793549022221655e+17
19511.0	5.759538496711316e+17
19512.0	5.796876334224722e+17
19513.0	5.796152400150515e+17
19514.0	5.800040633903779e+17
19515.0	5.809657217373526e+17
19516.0	5.810655659556863e+17
19517.0	5.812296139232596e+17
19518.0	5.81579297661474e+17
19519.0	5.815939181663574e+17
19520.0	5.816033265494697e+17
19521.0	5.818972857434115e+17
19522.0	5.819841522259284e+17
19523.0	5.819810041211562e+17
19524.0	5.819707931579732e+17
19525.0	5.820357036474369e+17
19526.0	5.822417724593492e+17
19527.0	5.822191129417044e+17
19528.0	5.821936791016788e+17
19529.0	5.821668326899711e+17
19530.0	5.821375099611818e+17
19531.0	5.821645408523607e+17
19532.0	5.823012084733267e+17
19533.0	5.822617148369577e+17
19534.0	5.822199466295295e+17
19535.0	5.821756770790057e+17
19536.0	5.821280190201855e+17
19537.0	5.820851619714388e+17
19538.0	5.820254231986175e+17
19539.0	5.819343428386816e+17
19540.0	5.820436717764608e+17
19541.0	5.820526638049961e+17
19542.0	5.819957279457279e+17
19543.0	5.819355727484244e+17
19544.0	5.818784093481641e+17
19545.0	5.817746849092947e+17
19546.0	5.816709908791295e+17
19547.0	5.816928798332243e+17
19548.0	5.816283852090025e+17
19549.0	5.815537001037823e+17
19550.0	5.814958258388991e+17
19551.0	5.814280862214825e+17
19552.0	5.813589339624788e+17
19553.0	5.812867267821567e+17
19554.0	5.812882781853011e+17
19555.0	5.812663324682921e+17
19556.0	5.811939989695146e+17
19557.0	5.81118932881681e+17
19558.0	5.810436514163369e+17
19559.0	5.809675102584831e+17
19560.0	5.808870965728595e+17
19561.0	5.808101327022762e+17
19562.0	5.807334106333183e+17
19563.0	5.806550778118143e+17
19564.0	5.805751117283328e+17
19565.0	5.804944491107668e+17
19566.0	5.804101939320148e+17
19567.0	5.803310646121811e+17
19568.0	5.802459992337066e+17
19569.0	5.80163241910818e+17
19570.0	5.800815537160191e+17
19571.0	5.799968531021823e+17
19572.0	5.799094607937535e+17
19573.0	5.798249310978047e+17
19574.0	5.797322148194985e+17
19575.0	5.796544072646655e+17
19576.0	5.795675054101844e+17
19577.0	5.794778334276265e+17
19578.0	5.79388311740962e+17
19579.0	5.793011489308671e+17
19580.0	5.792125583097855e+17
19581.0	5.79124389356066e+17
19582.0	5.790364697537193e+17
19583.0	5.789465189198505e+17
19584.0	5.78855101267968e+17
19585.0	5.78831013519906e+17
19586.0	5.787409237147648e+17
19587.0	5.786544855405908e+17
19588.0	5.78527217914129e+17
19589.0	5.784764692824064e+17
19590.0	5.783763116796585e+17
19591.0	5.782925544346964e+17
19592.0	5.782000459142484e+17
19593.0	5.782504319483901e+17
19594.0	5.781506302323369e+17
19595.0	5.780762551560873e+17
19596.0	5.779177432503638e+17
19597.0	5.778878861672448e+17
19598.0	5.777589034199722e+17
19599.0	5.776996564991999e+17
19600.0	5.776051050730835e+17
19601.0	5.775030104009386e+17
19602.0	5.774088301008212e+17
19603.0	5.772571108704255e+17
19604.0	5.772143321852586e+17
19605.0	5.770963884266838e+17
19606.0	5.770274918105087e+17
19607.0	5.769314788092586e+17
19608.0	5.768327232225279e+17
19609.0	5.767321670210899e+17
19610.0	5.766432103071744e+17
19611.0	5.766852606514515e+17
19612.0	5.767180545862314e+17
19613.0	5.766189578627753e+17
19614.0	5.765178660487167e+17
19615.0	5.764229297952084e+17
19616.0	5.763080643761492e+17
19617.0	5.7622359046444365e+17
19618.0	5.7607307346138445e+17
19619.0	5.7596034874518163e+17
19620.0	5.758647702039209e+17
19621.0	5.7582759692642976e+17
19622.0	5.7573082363767456e+17
19623.0	5.7563143219445754e+17
19624.0	5.7553096491226445e+17
19625.0	5.754321409583786e+17
19626.0	5.753322763976703e+17
19627.0	5.752317512340819e+17
19628.0	5.7509760935307936e+17
19629.0	5.750149976424447e+17
19630.0	5.748385620776277e+17
19631.0	5.732945599223124e+17
19632.0	5.747253276835839e+17
19633.0	5.7462486515493536e+17
19634.0	5.745306506013353e+17
19635.0	5.7442654476042234e+17
19636.0	5.7432678316987725e+17
19637.0	5.7419300570398714e+17
19638.0	5.741276508979199e+17
19639.0	5.740266933714943e+17
19640.0	5.739183340868949e+17
19641.0	5.7373967323409075e+17
19642.0	5.7372423456030714e+17
19643.0	5.736228742408873e+17
19644.0	5.7351687306390176e+17
19645.0	5.733953877748393e+17
19646.0	5.733672967034197e+17
19647.0	5.734306571878399e+17
19648.0	5.733292664597162e+17
19649.0	5.732274469339135e+17
19650.0	5.731260892009813e+17
19651.0	5.7302383262870176e+17
19652.0	5.729224738471935e+17
19653.0	5.728200577515519e+17
19654.0	5.727183469281279e+17
19655.0	5.7261618395873274e+17
19656.0	5.7251476883374074e+17
19657.0	5.7241351477002234e+17
19658.0	5.7231155725161805e+17
19659.0	5.7220939770757114e+17
19660.0	5.721075395242666e+17
19661.0	5.720054607205716e+17
19662.0	5.7190333011722234e+17
19663.0	5.7179634565556896e+17
19664.0	5.716927703242069e+17
