# Flux units: erg / (cm m2 s)
# Wavelength units: Angstrom
wave	flux
19000.0	7.134259180120744e+17
19001.0	7.132867382826323e+17
19002.0	7.131634669890217e+17
19003.0	7.130319719235583e+17
19004.0	7.129005196399956e+17
19005.0	7.127692843417599e+17
19006.0	7.126378263259817e+17
19007.0	7.125047086241108e+17
19008.0	7.123702523800233e+17
19009.0	7.122354178097152e+17
19010.0	7.120767579149651e+17
19011.0	7.119766958025386e+17
19012.0	7.118292242137087e+17
19013.0	7.117154435115689e+17
19014.0	7.115929648016041e+17
19015.0	7.114696157735594e+17
19016.0	7.113573185967444e+17
19017.0	7.112290327330815e+17
19018.0	7.110958118513322e+17
19019.0	7.109646038160723e+17
19020.0	7.10831406841856e+17
19021.0	7.107010724801193e+17
19022.0	7.105693158298964e+17
19023.0	7.104337096474623e+17
19024.0	7.10303487693073e+17
19025.0	7.101722465228116e+17
19026.0	7.100374842343423e+17
19027.0	7.098949368982186e+17
19028.0	7.097760378869076e+17
19029.0	7.096437733064701e+17
19030.0	7.095129205287594e+17
19031.0	7.09380631621359e+17
19032.0	7.092482068185087e+17
19033.0	7.091082800835241e+17
19034.0	7.089806762136916e+17
19035.0	7.088346730506922e+17
19036.0	7.077940126810107e+17
19037.0	7.085754689781759e+17
19038.0	7.084508936754516e+17
19039.0	7.083218497612458e+17
19040.0	7.081899446326611e+17
19041.0	7.08057105432576e+17
19042.0	7.07916215685393e+17
19043.0	7.077932438650879e+17
19044.0	7.07659845284659e+17
19045.0	7.075277855260671e+17
19046.0	7.073922047890772e+17
19047.0	7.072615706744148e+17
19048.0	7.071157158499667e+17
19049.0	7.069888749240319e+17
19050.0	7.068607857732266e+17
19051.0	7.065859349894483e+17
19052.0	7.065670972517033e+17
19053.0	7.06467183477828e+17
19054.0	7.063361651649194e+17
19055.0	7.061829536710655e+17
19056.0	7.060689596186623e+17
19057.0	7.059384253284352e+17
19058.0	7.058037458075647e+17
19059.0	7.056732502447444e+17
19060.0	7.055400476781225e+17
19061.0	7.054091584099667e+17
19062.0	7.052762856554493e+17
19063.0	7.051437941631658e+17
19064.0	7.050024512913407e+17
19065.0	7.048644860925268e+17
19066.0	7.047407580392105e+17
19067.0	7.046139538833407e+17
19068.0	7.044814261802323e+17
19069.0	7.043489420978858e+17
19070.0	7.042145191286099e+17
19071.0	7.04083326472465e+17
19072.0	7.039504820994047e+17
19073.0	7.03818411156002e+17
19074.0	7.036862314403156e+17
19075.0	7.035536580891987e+17
19076.0	7.034196436451325e+17
19077.0	7.032873589320362e+17
19078.0	7.031540453561684e+17
19079.0	7.030232950592852e+17
19080.0	7.028896183965011e+17
19081.0	7.027547824280916e+17
19082.0	7.026225233701545e+17
19083.0	7.024837283282943e+17
19084.0	7.02341199307298e+17
19085.0	7.022272260166996e+17
19086.0	7.020607678622378e+17
19087.0	7.019404673941503e+17
19088.0	7.018170281186644e+17
19089.0	7.016708160094207e+17
19090.0	7.01559716516113e+17
19091.0	7.014290307416063e+17
19092.0	7.012892849908393e+17
19093.0	7.011666668901716e+17
19094.0	7.010346466978473e+17
19095.0	7.009022137860093e+17
19096.0	7.007686578492755e+17
19097.0	7.006370591845034e+17
19098.0	7.005039650406399e+17
19099.0	7.00371271033378e+17
19100.0	7.00237680283921e+17
19101.0	7.001068122669055e+17
19102.0	6.999671928345939e+17
19103.0	6.998419785296553e+17
19104.0	6.997093549167955e+17
19105.0	6.995744854638591e+17
19106.0	6.994402199207935e+17
19107.0	6.99309005873698e+17
19108.0	6.991754692307626e+17
19109.0	6.989800338183507e+17
19110.0	6.989033474708819e+17
19111.0	6.987799523054931e+17
19112.0	6.986481739147946e+17
19113.0	6.98516536103185e+17
19114.0	6.983839015152297e+17
19115.0	6.98246173434402e+17
19116.0	6.981169769174355e+17
19117.0	6.979842114671955e+17
19118.0	6.978429128452777e+17
19119.0	6.974190210340175e+17
19120.0	6.975785392930815e+17
19121.0	6.974498976126292e+17
19122.0	6.973238405322068e+17
19123.0	6.971914179663187e+17
19124.0	6.970531272196095e+17
19125.0	6.969256782594045e+17
19126.0	6.967910243237887e+17
19127.0	6.965323541861715e+17
19128.0	6.965153920712703e+17
19129.0	6.963889095486121e+17
19130.0	6.962625083255465e+17
19131.0	6.961311875334143e+17
19132.0	6.959984794752339e+17
19133.0	6.958591117011625e+17
19134.0	6.957278019540308e+17
19135.0	6.956007662026751e+17
19136.0	6.954686219288575e+17
19137.0	6.953247290600106e+17
19138.0	6.952023861056852e+17
19139.0	6.950712446200489e+17
19140.0	6.949389343916032e+17
19141.0	6.948064335320403e+17
19142.0	6.946625844237652e+17
19143.0	6.945133399725396e+17
19144.0	6.943815016731987e+17
19145.0	6.942521563982506e+17
19146.0	6.940721924450985e+17
19147.0	6.939806515505833e+17
19148.0	6.9385345578653e+17
19149.0	6.9372091053725e+17
19150.0	6.93588917887522e+17
19151.0	6.934567817226922e+17
19152.0	6.933229704926548e+17
19153.0	6.931883661197311e+17
19154.0	6.930495364049578e+17
19155.0	6.929255971684351e+17
19156.0	6.927921804825939e+17
19157.0	6.926532926767103e+17
19158.0	6.924882074577577e+17
19159.0	6.923897183491411e+17
19160.0	6.922595892985855e+17
19161.0	6.921246672071338e+17
19162.0	6.918939650381142e+17
19163.0	6.918493456127316e+17
19164.0	6.917307007762432e+17
19165.0	6.915960706083497e+17
19166.0	6.914563755387562e+17
19167.0	6.913243996662441e+17
19168.0	6.911998179322538e+17
19169.0	6.910672243086676e+17
19170.0	6.90936072966417e+17
19171.0	6.907991685070847e+17
19172.0	6.906698086918826e+17
19173.0	6.905383624900607e+17
19174.0	6.90402101436962e+17
19175.0	6.902734639508138e+17
19176.0	6.901407330336767e+17
19177.0	6.8999555069597e+17
19178.0	6.89871020761634e+17
19179.0	6.897349616642729e+17
19180.0	6.896076002951165e+17
19181.0	6.894679403178665e+17
19182.0	6.893425067906387e+17
19183.0	6.892109588070399e+17
19184.0	6.890775134601215e+17
19185.0	6.889447495477929e+17
19186.0	6.88812018770466e+17
19187.0	6.886731643092991e+17
19188.0	6.885457701546665e+17
19189.0	6.884125631141204e+17
19190.0	6.88278640665122e+17
19191.0	6.881428560849578e+17
19192.0	6.880129714225151e+17
19193.0	6.878790875611136e+17
19194.0	6.877441293287423e+17
19195.0	6.876104407121919e+17
19196.0	6.874732579607892e+17
19197.0	6.873323148760404e+17
19198.0	6.871667919115603e+17
19199.0	6.864100350317907e+17
19200.0	6.86416665387554e+17
19201.0	6.867720728827219e+17
19202.0	6.866674303107071e+17
19203.0	6.865395130564607e+17
19204.0	6.864093094871039e+17
19205.0	6.862781389908649e+17
19206.0	6.861456845482665e+17
19207.0	6.860053259397801e+17
19208.0	6.858646594693802e+17
19209.0	6.857459647905791e+17
19210.0	6.856128815519059e+17
19211.0	6.854799846801407e+17
19212.0	6.853459252172116e+17
19213.0	6.852010748586665e+17
19214.0	6.850647571125588e+17
19215.0	6.849415351719252e+17
19216.0	6.848105799832916e+17
19217.0	6.846757050777599e+17
19218.0	6.844841470197759e+17
19219.0	6.843945036283901e+17
19220.0	6.842726588175699e+17
19221.0	6.84118463549713e+17
19222.0	6.840046969683965e+17
19223.0	6.838706552613546e+17
19224.0	6.837341469540351e+17
19225.0	6.835937618515284e+17
19226.0	6.834674060667562e+17
19227.0	6.833328284674729e+17
19228.0	6.832006351202985e+17
19229.0	6.830658842962601e+17
19230.0	6.82930941722624e+17
19231.0	6.827952605320532e+17
19232.0	6.826608296635049e+17
19233.0	6.825208841240575e+17
19234.0	6.823899095717203e+17
19235.0	6.822545939147433e+17
19236.0	6.821211545796607e+17
19237.0	6.819605179094356e+17
19238.0	6.818067746477396e+17
19239.0	6.816793333071871e+17
19240.0	6.815427913755305e+17
19241.0	6.814060904797523e+17
19242.0	6.81271248359697e+17
19243.0	6.811232468205565e+17
19244.0	6.810010426976937e+17
19245.0	6.808645132790442e+17
19246.0	6.807276690778793e+17
19247.0	6.805926114405034e+17
19248.0	6.804564462272511e+17
19249.0	6.803198752150867e+17
19250.0	6.801817896397481e+17
19251.0	6.800388266480979e+17
19252.0	6.798856912109567e+17
19253.0	6.797712090114729e+17
19254.0	6.796359388626943e+17
19255.0	6.794829991597396e+17
19256.0	6.793597823221759e+17
19257.0	6.792242426194601e+17
19258.0	6.790866145727828e+17
19259.0	6.789426204114943e+17
19260.0	6.787928221024255e+17
19261.0	6.786718669733887e+17
19262.0	6.785299967377405e+17
19263.0	6.783906984493055e+17
19264.0	6.782185707143165e+17
19265.0	6.781045073859923e+17
19266.0	6.779664689266687e+17
19267.0	6.778417985530538e+17
19268.0	6.777027034087423e+17
19269.0	6.775632911750484e+17
19270.0	6.774227693382314e+17
19271.0	6.77244349448192e+17
19272.0	6.770890687643647e+17
19273.0	6.769036608143359e+17
19274.0	6.767652129909417e+17
19275.0	6.766711301384873e+17
19276.0	6.765291703544489e+17
19277.0	6.76388630761745e+17
19278.0	6.762477360513024e+17
19279.0	6.761051627803987e+17
19280.0	6.759591788412927e+17
19281.0	6.758216520171519e+17
19282.0	6.756696485527551e+17
19283.0	6.75508458234402e+17
19284.0	6.753652592432467e+17
19285.0	6.752175356466516e+17
19286.0	6.750824587853824e+17
19287.0	6.749399949858131e+17
19288.0	6.745402039249576e+17
19289.0	6.740465142814025e+17
19290.0	6.745070678048767e+17
19291.0	6.743372652522156e+17
19292.0	6.741499514104489e+17
19293.0	6.740043808899071e+17
19294.0	6.738582623835476e+17
19295.0	6.73713177493504e+17
19296.0	6.735657947540138e+17
19297.0	6.734187012117844e+17
19298.0	6.732703969837055e+17
19299.0	6.731240424079359e+17
19300.0	6.729769051750399e+17
19301.0	6.728282061231443e+17
19302.0	6.726786712163667e+17
19303.0	6.725245141865812e+17
19304.0	6.723782453843284e+17
19305.0	6.721830033992361e+17
19306.0	6.719840511328255e+17
19307.0	6.718289805137236e+17
19308.0	6.716780549854547e+17
19309.0	6.715059784209748e+17
19310.0	6.713429902841171e+17
19311.0	6.712159641796608e+17
19312.0	6.710679208372905e+17
19313.0	6.709132212742825e+17
19314.0	6.699691969697103e+17
19315.0	6.697955924901898e+17
19316.0	6.703198302284458e+17
19317.0	6.701683137227433e+17
19318.0	6.700108830386858e+17
19319.0	6.698544039723007e+17
19320.0	6.696950061596671e+17
19321.0	6.695345627070464e+17
19322.0	6.693542384631808e+17
19323.0	6.690521931404627e+17
19324.0	6.688963199412906e+17
19325.0	6.687197326824788e+17
19326.0	6.685705085037226e+17
19327.0	6.683830006054911e+17
19328.0	6.681954859963732e+17
19329.0	6.679832157661866e+17
19330.0	6.677685086453759e+17
19331.0	6.675997385905492e+17
19332.0	6.674350363115519e+17
19333.0	6.672652662647466e+17
19334.0	6.670955905897812e+17
19335.0	6.669213197751636e+17
19336.0	6.667520049501523e+17
19337.0	6.665784414349993e+17
19338.0	6.663881120284671e+17
19339.0	6.662285189010772e+17
19340.0	6.660454843678719e+17
19341.0	6.658689014431743e+17
19342.0	6.656652098928639e+17
19343.0	6.655108447556948e+17
19344.0	6.653262281310207e+17
19345.0	6.650029962603174e+17
19346.0	6.648396903350272e+17
19347.0	6.646837898728788e+17
19348.0	6.645022877985449e+17
19349.0	6.643096083234815e+17
19350.0	6.641181319845204e+17
19351.0	6.639236787382953e+17
19352.0	6.637236333663572e+17
19353.0	6.635335574355965e+17
19354.0	6.633343884634793e+17
19355.0	6.631254148863316e+17
19356.0	6.629294502226601e+17
19357.0	6.626192916479997e+17
19358.0	6.623890347043497e+17
19359.0	6.621759668573523e+17
19360.0	6.619633257807872e+17
19361.0	6.61750985925154e+17
19362.0	6.615369741500415e+17
19363.0	6.613176284785321e+17
19364.0	6.610242072040788e+17
19365.0	6.606847046494889e+17
19366.0	6.604556943228925e+17
19367.0	6.602236515844095e+17
19368.0	6.599883498717181e+17
19369.0	6.597457437786111e+17
19370.0	6.594111002553002e+17
19371.0	6.58994557493794e+17
19372.0	6.587475552108543e+17
19373.0	6.584907283300351e+17
19374.0	6.582322715426815e+17
19375.0	6.578352366288899e+17
19376.0	6.573717159149565e+17
19377.0	6.570977485215062e+17
19378.0	6.568192898673321e+17
19379.0	6.562782334593706e+17
19380.0	6.558320400444073e+17
19381.0	6.555333313604265e+17
19382.0	6.550297065990826e+17
19383.0	6.544057081790463e+17
19384.0	6.54092325233186e+17
19385.0	6.534248379624102e+17
19386.0	6.528252940823209e+17
19387.0	6.524479138867881e+17
19388.0	6.514181940794708e+17
19389.0	6.510487667736576e+17
19390.0	6.503179406191272e+17
19391.0	6.49114128744447e+17
19392.0	6.494315666036051e+17
19393.0	6.490545355139753e+17
19394.0	6.486460350507689e+17
19395.0	6.482298504828244e+17
19396.0	6.478077030825983e+17
19397.0	6.473766206963711e+17
19398.0	6.468703202486953e+17
19399.0	6.46381843915298e+17
19400.0	6.459707320784212e+17
19401.0	6.455196121038847e+17
19402.0	6.450570114804393e+17
19403.0	6.445071863906303e+17
19404.0	6.439610785027412e+17
19405.0	6.434492737301161e+17
19406.0	6.429279528506708e+17
19407.0	6.422135541071872e+17
19408.0	6.415999174355626e+17
19409.0	6.410464778343766e+17
19410.0	6.402237884530687e+17
19411.0	6.396151539083946e+17
19412.0	6.387035777182376e+17
19413.0	6.379765168603136e+17
19414.0	6.368897829000531e+17
19415.0	6.360021238895956e+17
19416.0	6.347858749248852e+17
19417.0	6.334965930612049e+17
19418.0	6.321490152652792e+17
19419.0	6.306102792683523e+17
19420.0	6.288440159109117e+17
19421.0	6.268237776595629e+17
19422.0	6.251477911732225e+17
19423.0	6.239896531719508e+17
19424.0	6.228065868141908e+17
19425.0	6.215961073243476e+17
19426.0	6.20326969025058e+17
19427.0	6.189876829487104e+17
19428.0	6.175684962899284e+17
19429.0	6.161185660119721e+17
19430.0	6.14583444176896e+17
19431.0	6.128172773583532e+17
19432.0	6.112142333138259e+17
19433.0	6.092722716104022e+17
19434.0	6.072592009352532e+17
19435.0	6.049719614002514e+17
19436.0	6.025114839678976e+17
19437.0	5.997811415908351e+17
19438.0	5.956955277361151e+17
19439.0	5.930212466360321e+17
19440.0	5.890535696891908e+17
19441.0	5.846765542572028e+17
19442.0	5.797310300684289e+17
19443.0	5.741058900099073e+17
19444.0	5.6789139277742086e+17
19445.0	5.605655095629144e+17
19446.0	5.519398645268479e+17
19447.0	5.412765509003941e+17
19448.0	5.2759825726395795e+17
19449.0	5.088642076770303e+17
19450.0	4.799643844782741e+17
19451.0	4.6311051295894317e+17
19452.0	4.962807774707715e+17
19453.0	5.190070281000284e+17
19454.0	5.3456298168374554e+17
19455.0	5.462930743099392e+17
19456.0	5.556261781940911e+17
19457.0	5.632725922174288e+17
19458.0	5.684779182369473e+17
19459.0	5.754658224078848e+17
19460.0	5.804926862447956e+17
19461.0	5.849114103250943e+17
19462.0	5.888652329265837e+17
19463.0	5.924458921459707e+17
19464.0	5.955435153937748e+17
19465.0	5.982811662756524e+17
19466.0	6.006784869968553e+17
19467.0	6.02734741037602e+17
19468.0	6.046159619489792e+17
19469.0	6.063927403566419e+17
19470.0	6.07976577634577e+17
19471.0	6.094435131588607e+17
19472.0	6.107895110303741e+17
19473.0	6.120344507820714e+17
19474.0	6.132318860563798e+17
19475.0	6.143343264268287e+17
19476.0	6.154444876021759e+17
19477.0	6.164443085930496e+17
19478.0	6.174045384998912e+17
19479.0	6.183349299882666e+17
19480.0	6.195401043826007e+17
19481.0	6.211624215336275e+17
19482.0	6.227295464674643e+17
19483.0	6.24103243312879e+17
19484.0	6.254048007858857e+17
19485.0	6.265217350631425e+17
19486.0	6.27371373057366e+17
19487.0	6.282272884566697e+17
19488.0	6.289842449853101e+17
19489.0	6.295507494939306e+17
19490.0	6.301304109749585e+17
19491.0	6.306757947861674e+17
19492.0	6.311504737468413e+17
19493.0	6.316320964476927e+17
19494.0	6.319505358367402e+17
19495.0	6.323659313861971e+17
19496.0	6.326959790708051e+17
19497.0	6.329890418720767e+17
19498.0	6.331529096243882e+17
19499.0	6.324283094248099e+17
19500.0	6.338355969829546e+17
19501.0	6.340580572048042e+17
19502.0	6.342690241249279e+17
19503.0	6.344741021024255e+17
19504.0	6.346980173283327e+17
19505.0	6.349270833692672e+17
19506.0	6.351080134803455e+17
19507.0	6.352804400594941e+17
19508.0	6.354489097322495e+17
19509.0	6.356082441409876e+17
19510.0	6.357438624869033e+17
19511.0	6.344626243196234e+17
19512.0	6.361481663392425e+17
19513.0	6.362301462478843e+17
19514.0	6.367687758315519e+17
19515.0	6.374409898033151e+17
19516.0	6.375752163393536e+17
19517.0	6.382087904253267e+17
19518.0	6.383168177307645e+17
19519.0	6.384517793884842e+17
19520.0	6.389259174237524e+17
19521.0	6.389836965478399e+17
19522.0	6.390301887998634e+17
19523.0	6.394114966814717e+17
19524.0	6.3949809123328e+17
19525.0	6.395279016198143e+17
19526.0	6.39570672545519e+17
19527.0	6.398825419767808e+17
19528.0	6.398976006466218e+17
19529.0	6.39909095416354e+17
19530.0	6.399162104938495e+17
19531.0	6.399224416217769e+17
19532.0	6.401567314586282e+17
19533.0	6.401563821430099e+17
19534.0	6.401466367475711e+17
19535.0	6.401328953688063e+17
19536.0	6.401147637421395e+17
19537.0	6.400986386705066e+17
19538.0	6.402206712463359e+17
19539.0	6.401844860769622e+17
19540.0	6.401919462058666e+17
19541.0	6.401632238217897e+17
19542.0	6.401294759624704e+17
19543.0	6.400927201580371e+17
19544.0	6.400554940323156e+17
19545.0	6.400130288713725e+17
19546.0	6.400277429791402e+17
19547.0	6.400472458635946e+17
19548.0	6.400017919115263e+17
19549.0	6.399459859977556e+17
19550.0	6.399038279996756e+17
19551.0	6.398522596611411e+17
19552.0	6.39798668829218e+17
19553.0	6.397418325846698e+17
19554.0	6.396840414369108e+17
19555.0	6.396272948805631e+17
19556.0	6.395686120237737e+17
19557.0	6.395783811170303e+17
19558.0	6.39518023754274e+17
19559.0	6.394537362587645e+17
19560.0	6.39385300107264e+17
19561.0	6.393186708619263e+17
19562.0	6.392521259920041e+17
19563.0	6.39182623089186e+17
19564.0	6.391113877291008e+17
19565.0	6.390390513642153e+17
19566.0	6.38963408839202e+17
19567.0	6.388911626518527e+17
19568.0	6.388137772537172e+17
19569.0	6.387389354213375e+17
19570.0	6.386623024114346e+17
19571.0	6.385841293929129e+17
19572.0	6.385028579022164e+17
19573.0	6.384612643176447e+17
19574.0	6.384220224793257e+17
19575.0	6.38348400070929e+17
19576.0	6.382662688877225e+17
19577.0	6.382105421064874e+17
19578.0	6.381379966555476e+17
19579.0	6.380539223212031e+17
19580.0	6.380624542345897e+17
19581.0	6.380204463226879e+17
19582.0	6.379348405081427e+17
19583.0	6.378473419440127e+17
19584.0	6.37759027028514e+17
19585.0	6.376613223246506e+17
19586.0	6.37569153892352e+17
19587.0	6.374869140067668e+17
19588.0	6.37449176944913e+17
19589.0	6.374140871180285e+17
19590.0	6.373174607697236e+17
19591.0	6.372321800137385e+17
19592.0	6.371391023961428e+17
19593.0	6.370439722958847e+17
19594.0	6.369323000703657e+17
19595.0	6.368548500799487e+17
19596.0	6.367351239518889e+17
19597.0	6.366648270673236e+17
19598.0	6.365712689222998e+17
19599.0	6.365555938994857e+17
19600.0	6.364594232623103e+17
19601.0	6.363567399195988e+17
19602.0	6.362589620950356e+17
19603.0	6.361279643342163e+17
19604.0	6.360611657788073e+17
19605.0	6.359453353203028e+17
19606.0	6.358689631961087e+17
19607.0	6.357702375986516e+17
19608.0	6.356689899661993e+17
19609.0	6.355660874711039e+17
19610.0	6.354689069853353e+17
19611.0	6.353674497774932e+17
19612.0	6.352676033921023e+17
19613.0	6.351978827350015e+17
19614.0	6.35121992606242e+17
19615.0	6.350228211542697e+17
19616.0	6.349130214757716e+17
19617.0	6.348218584181417e+17
19618.0	6.346890356457471e+17
19619.0	6.345744603327144e+17
19620.0	6.344764008606378e+17
19621.0	6.344196785613482e+17
19622.0	6.343175390101503e+17
19623.0	6.342134121278121e+17
19624.0	6.341081116792148e+17
19625.0	6.34004045824e+17
19626.0	6.3389871650461e+17
19627.0	6.337918485047978e+17
19628.0	6.336702040418986e+17
19629.0	6.335637567307775e+17
19630.0	6.333626991334739e+17
19631.0	6.326871093761363e+17
19632.0	6.332658414693033e+17
19633.0	6.331704482463744e+17
19634.0	6.330705954297172e+17
19635.0	6.330034716060329e+17
19636.0	6.329008253829119e+17
19637.0	6.327640255714644e+17
19638.0	6.326878415618047e+17
19639.0	6.325804097776297e+17
19640.0	6.324667457470464e+17
19641.0	6.323074618796716e+17
19642.0	6.322580788434259e+17
19643.0	6.321502332911616e+17
19644.0	6.320377419879764e+17
19645.0	6.319154620181161e+17
19646.0	6.318256174399487e+17
19647.0	6.31718972227584e+17
19648.0	6.316106465673215e+17
19649.0	6.315019604066304e+17
19650.0	6.313935156980393e+17
19651.0	6.312842252080468e+17
19652.0	6.311757203111933e+17
19653.0	6.310667931877375e+17
19654.0	6.309571186393087e+17
19655.0	6.308483095855101e+17
19656.0	6.307388749512703e+17
19657.0	6.306300021440511e+17
19658.0	6.305205280134484e+17
19659.0	6.30410849620241e+17
19660.0	6.303013081710591e+17
19661.0	6.301915461014867e+17
19662.0	6.300816000417791e+17
19663.0	6.299679873215146e+17
19664.0	6.298587212283903e+17
19665.0	6.297516433036628e+17
