# Flux units: erg / (cm m2 s)
# Wavelength units: Angstrom
wave	flux
19000.0	5.629336327553023e+17
19001.0	5.628292361093119e+17
19002.0	5.627248281387007e+17
19003.0	5.626204126183423e+17
19004.0	5.625160071643136e+17
19005.0	5.62411648267059e+17
19006.0	5.6230726357483514e+17
19007.0	5.622028881100799e+17
19008.0	5.6209803253732685e+17
19009.0	5.619929840265898e+17
19010.0	5.618862105384277e+17
19011.0	5.6178516080721914e+17
19012.0	5.616804658064042e+17
19013.0	5.6157679246813856e+17
19014.0	5.6147247097009485e+17
19015.0	5.61368157860659e+17
19016.0	5.6126336457332045e+17
19017.0	5.611594556549802e+17
19018.0	5.6105523950387194e+17
19019.0	5.609509988859903e+17
19020.0	5.608466729839273e+17
19021.0	5.6074242362791245e+17
19022.0	5.606382309649066e+17
19023.0	5.605339891586389e+17
19024.0	5.6042967206461434e+17
19025.0	5.603255235117055e+17
19026.0	5.6022108576153594e+17
19027.0	5.601165259571198e+17
19028.0	5.600142533066752e+17
19029.0	5.599123733129898e+17
19030.0	5.5980821497337165e+17
19031.0	5.597040564240383e+17
19032.0	5.595999038865407e+17
19033.0	5.594957689651199e+17
19034.0	5.5939164515860474e+17
19035.0	5.5928734658942285e+17
19036.0	5.5913732004031136e+17
19037.0	5.590793112780799e+17
19038.0	5.5897528065501856e+17
19039.0	5.5887122276898125e+17
19040.0	5.587671790037674e+17
19041.0	5.586631452349781e+17
19042.0	5.585591248879616e+17
19043.0	5.5845512061911034e+17
19044.0	5.5835110991899296e+17
19045.0	5.582471480825172e+17
19046.0	5.5814275136662176e+17
19047.0	5.5803893863765325e+17
19048.0	5.5793370928250854e+17
19049.0	5.578313687542442e+17
19050.0	5.577274608145747e+17
19051.0	5.5761781590589434e+17
19052.0	5.5751796273971194e+17
19053.0	5.574158180854442e+17
19054.0	5.5731195313739085e+17
19055.0	5.5720670434863776e+17
19056.0	5.5710431334891514e+17
19057.0	5.5700050425501005e+17
19058.0	5.568967096314537e+17
19059.0	5.5679290801739085e+17
19060.0	5.566889858170879e+17
19061.0	5.565854219501567e+17
19062.0	5.56481647808785e+17
19063.0	5.5637794266371405e+17
19064.0	5.562734953365503e+17
19065.0	5.5616998333917856e+17
19066.0	5.5606691153401165e+17
19067.0	5.559632488213161e+17
19068.0	5.5585960645099514e+17
19069.0	5.557559867299157e+17
19070.0	5.5565230451370656e+17
19071.0	5.555487909085183e+17
19072.0	5.554452118721876e+17
19073.0	5.553416062020266e+17
19074.0	5.552381085351935e+17
19075.0	5.5513457878193485e+17
19076.0	5.5503090775053645e+17
19077.0	5.5492740798655136e+17
19078.0	5.5482386963496954e+17
19079.0	5.547206313159337e+17
19080.0	5.546171799961599e+17
19081.0	5.5451373748442445e+17
19082.0	5.544099924934656e+17
19083.0	5.543067604658858e+17
19084.0	5.542017521505621e+17
19085.0	5.5410016771549856e+17
19086.0	5.539944574834005e+17
19087.0	5.538886096781311e+17
19088.0	5.5374239924660896e+17
19089.0	5.5363758575670605e+17
19090.0	5.535360849281024e+17
19091.0	5.534327964871337e+17
19092.0	5.5332933950504954e+17
19093.0	5.5322641478014285e+17
19094.0	5.531228755897002e+17
19095.0	5.530196247576575e+17
19096.0	5.5291673505518925e+17
19097.0	5.528136826836308e+17
19098.0	5.527105930526719e+17
19099.0	5.52607475110161e+17
19100.0	5.525043782789802e+17
19101.0	5.5240120483184634e+17
19102.0	5.5229738839790925e+17
19103.0	5.5219518243689805e+17
19104.0	5.5209215040771405e+17
19105.0	5.5198914627065165e+17
19106.0	5.518859617785173e+17
19107.0	5.51783084589056e+17
19108.0	5.5168023634029216e+17
19109.0	5.515740720048809e+17
19110.0	5.51474133274897e+17
19111.0	5.5137144119405216e+17
19112.0	5.5126854261364045e+17
19113.0	5.511656618590207e+17
19114.0	5.5106279620389536e+17
19115.0	5.5095968119739725e+17
19116.0	5.508571030618111e+17
19117.0	5.507542455855785e+17
19118.0	5.506507569364991e+17
19119.0	5.5050116316965536e+17
19120.0	5.5044559500301645e+17
19121.0	5.5034290606789965e+17
19122.0	5.502404644569087e+17
19123.0	5.5013774035954336e+17
19124.0	5.50035043455249e+17
19125.0	5.499323559182335e+17
19126.0	5.498296394405205e+17
19127.0	5.4971228952548685e+17
19128.0	5.496243284694357e+17
19129.0	5.495217393587541e+17
19130.0	5.494191841520298e+17
19131.0	5.4931657029495456e+17
19132.0	5.492139782482602e+17
19133.0	5.4911069756675405e+17
19134.0	5.490089338950997e+17
19135.0	5.4890639847150925e+17
19136.0	5.4880389988788896e+17
19137.0	5.487001148413268e+17
19138.0	5.485987402612734e+17
19139.0	5.484964658632021e+17
19140.0	5.4839404012066125e+17
19141.0	5.482916120712532e+17
19142.0	5.4818918800643405e+17
19143.0	5.480864046994772e+17
19144.0	5.479842903840084e+17
19145.0	5.4788206093489485e+17
19146.0	5.4777518671353165e+17
19147.0	5.4767630410929485e+17
19148.0	5.4757504032877235e+17
19149.0	5.474727347530409e+17
19150.0	5.473703956228777e+17
19151.0	5.472681928774996e+17
19152.0	5.4716592281354234e+17
19153.0	5.4706369678977696e+17
19154.0	5.469604170170367e+17
19155.0	5.4685924865693e+17
19156.0	5.467570273168042e+17
19157.0	5.4665480520772256e+17
19158.0	5.465503804598953e+17
19159.0	5.4645039601199776e+17
19160.0	5.4634834656843085e+17
19161.0	5.462462492398932e+17
19162.0	5.461391309100373e+17
19163.0	5.4604174567232845e+17
19164.0	5.459399961214975e+17
19165.0	5.4583779861899936e+17
19166.0	5.457347466668713e+17
19167.0	5.4563333419827194e+17
19168.0	5.4553157318301005e+17
19169.0	5.454295364621653e+17
19170.0	5.453277598580735e+17
19171.0	5.4522546420886176e+17
19172.0	5.4512380043154765e+17
19173.0	5.450218340351999e+17
19174.0	5.4491942346205856e+17
19175.0	5.4481796478621005e+17
19176.0	5.447160487215104e+17
19177.0	5.446129095977643e+17
19178.0	5.4451207090995194e+17
19179.0	5.444099309393237e+17
19180.0	5.443083731380906e+17
19181.0	5.442056688937642e+17
19182.0	5.441044523690666e+17
19183.0	5.440029047040681e+17
19184.0	5.4390091363123194e+17
19185.0	5.43799217627682e+17
19186.0	5.4369744696552083e+17
19187.0	5.4359563219326285e+17
19188.0	5.4349386062233594e+17
19189.0	5.433921337207467e+17
19190.0	5.432903483086164e+17
19191.0	5.431885618479104e+17
19192.0	5.4308687479220896e+17
19193.0	5.429851225150804e+17
19194.0	5.428834112023209e+17
19195.0	5.4278169716326394e+17
19196.0	5.426799055994879e+17
19197.0	5.425782190331221e+17
19198.0	5.42476564762897e+17
19199.0	5.423454134905515e+17
19200.0	5.4225157313877325e+17
19201.0	5.4217157545820154e+17
19202.0	5.420699687933268e+17
19203.0	5.4196833353728e+17
19204.0	5.418664944380585e+17
19205.0	5.417650502325587e+17
19206.0	5.416633526910975e+17
19207.0	5.4156136637180576e+17
19208.0	5.414585705518421e+17
19209.0	5.4135863545692154e+17
19210.0	5.4125704004676256e+17
19211.0	5.411554494600533e+17
19212.0	5.410538660036607e+17
19213.0	5.4095202711415456e+17
19214.0	5.4084975040921594e+17
19215.0	5.4074901532071245e+17
19216.0	5.4064755252046496e+17
19217.0	5.405460097488213e+17
19218.0	5.4043766206846285e+17
19219.0	5.403417465148756e+17
19220.0	5.402413529825279e+17
19221.0	5.401372994306047e+17
19222.0	5.4003803053096954e+17
19223.0	5.399366797186388e+17
19224.0	5.3983510409161363e+17
19225.0	5.3973243857469434e+17
19226.0	5.3963207013826554e+17
19227.0	5.395305430253567e+17
19228.0	5.3942900018380794e+17
19229.0	5.3932744259229005e+17
19230.0	5.392258775908351e+17
19231.0	5.39124367954193e+17
19232.0	5.3902270669346125e+17
19233.0	5.389210747229525e+17
19234.0	5.388195310425428e+17
19235.0	5.387181494719827e+17
19236.0	5.386165811150847e+17
19237.0	5.385148850416297e+17
19238.0	5.384131005382655e+17
19239.0	5.383118905147391e+17
19240.0	5.3820995508633594e+17
19241.0	5.381085749138772e+17
19242.0	5.3800702221571405e+17
19243.0	5.3790436368930125e+17
19244.0	5.378039141629951e+17
19245.0	5.377022953346389e+17
19246.0	5.376005414496938e+17
19247.0	5.374990131483988e+17
19248.0	5.373973735582378e+17
19249.0	5.3729569852620794e+17
19250.0	5.371939758888277e+17
19251.0	5.370911630819326e+17
19252.0	5.369886717684394e+17
19253.0	5.368888243344723e+17
19254.0	5.367871321057962e+17
19255.0	5.366841731973119e+17
19256.0	5.365832011306325e+17
19257.0	5.3648189659545594e+17
19258.0	5.363800906312362e+17
19259.0	5.36278268449041e+17
19260.0	5.3617559258617165e+17
19261.0	5.360745640361983e+17
19262.0	5.35972674675234e+17
19263.0	5.3587030261978445e+17
19264.0	5.357645138842964e+17
19265.0	5.3566510566386336e+17
19266.0	5.3556304405681485e+17
19267.0	5.354628700962815e+17
19268.0	5.353608087688533e+17
19269.0	5.352587473715199e+17
19270.0	5.3515657335712403e+17
19271.0	5.350517256836437e+17
19272.0	5.349520421770581e+17
19273.0	5.348381861172564e+17
19274.0	5.34739619553826e+17
19275.0	5.346455946526719e+17
19276.0	5.3454328264567456e+17
19277.0	5.344409236624725e+17
19278.0	5.3433851959050234e+17
19279.0	5.3423603058387616e+17
19280.0	5.3413297268981754e+17
19281.0	5.340309992330581e+17
19282.0	5.339284522052265e+17
19283.0	5.338253499913556e+17
19284.0	5.337230295258453e+17
19285.0	5.336190005106005e+17
19286.0	5.3351757608823456e+17
19287.0	5.3341472168782496e+17
19288.0	5.3329660148886176e+17
19289.0	5.331810979064489e+17
19290.0	5.3310579211414176e+17
19291.0	5.3300068537248403e+17
19292.0	5.328994728323754e+17
19293.0	5.327962060619775e+17
19294.0	5.3269295250363725e+17
19295.0	5.32589561581841e+17
19296.0	5.3248608991969274e+17
19297.0	5.323825251439956e+17
19298.0	5.3227890493358074e+17
19299.0	5.321751815432874e+17
19300.0	5.3207135224681805e+17
19301.0	5.319674177432234e+17
19302.0	5.318634253582335e+17
19303.0	5.31759080022562e+17
19304.0	5.3165485904800403e+17
19305.0	5.315508693194068e+17
19306.0	5.3144647966392314e+17
19307.0	5.313417678159872e+17
19308.0	5.312373181120511e+17
19309.0	5.311314194857983e+17
19310.0	5.3102632721448954e+17
19311.0	5.309225497875796e+17
19312.0	5.308175948098219e+17
19313.0	5.307122566823935e+17
19314.0	5.305533026970283e+17
19315.0	5.3045016504128845e+17
19316.0	5.3039559819482445e+17
19317.0	5.302898619580415e+17
19318.0	5.3018385078463136e+17
19319.0	5.300777021778602e+17
19320.0	5.2997133917224934e+17
19321.0	5.2986484907922765e+17
19322.0	5.297574147085653e+17
19323.0	5.296508452732926e+17
19324.0	5.295442204732074e+17
19325.0	5.2943590662690125e+17
19326.0	5.293294841320789e+17
19327.0	5.2922170163418445e+17
19328.0	5.2911390669318816e+17
19329.0	5.2900581018173434e+17
19330.0	5.2889716128044365e+17
19331.0	5.287887569070762e+17
19332.0	5.286800254479017e+17
19333.0	5.2857092132481696e+17
19334.0	5.284615425447251e+17
19335.0	5.2835192699617274e+17
19336.0	5.282419868084906e+17
19337.0	5.281317414851924e+17
19338.0	5.280195701374975e+17
19339.0	5.2791046650374816e+17
19340.0	5.277984722954921e+17
19341.0	5.2768739328436896e+17
19342.0	5.2757319601793696e+17
19343.0	5.274639517351936e+17
19344.0	5.273514315612159e+17
19345.0	5.2722341427281914e+17
19346.0	5.2711657046016e+17
19347.0	5.270109638972756e+17
19348.0	5.2689737809046163e+17
19349.0	5.267828461884757e+17
19350.0	5.2666781572355405e+17
19351.0	5.2655233562924365e+17
19352.0	5.264362196085419e+17
19353.0	5.2631985395684685e+17
19354.0	5.262028946014207e+17
19355.0	5.2608536810618874e+17
19356.0	5.259672576939349e+17
19357.0	5.2584861649250976e+17
19358.0	5.257292242310485e+17
19359.0	5.256088998554283e+17
19360.0	5.254887193444351e+17
19361.0	5.253675603722239e+17
19362.0	5.252460265690451e+17
19363.0	5.251234800511657e+17
19364.0	5.2500030508673696e+17
19365.0	5.248764461711359e+17
19366.0	5.2475178761147725e+17
19367.0	5.2462632619212794e+17
19368.0	5.2450003898422605e+17
19369.0	5.243723754154665e+17
19370.0	5.2424363523877536e+17
19371.0	5.241158304617813e+17
19372.0	5.239858773622783e+17
19373.0	5.238549369935187e+17
19374.0	5.2372296762217805e+17
19375.0	5.2358989431002445e+17
19376.0	5.2345576529155405e+17
19377.0	5.233204290125823e+17
19378.0	5.2318394957605536e+17
19379.0	5.23046217720354e+17
19380.0	5.228582825623551e+17
19381.0	5.226963971779241e+17
19382.0	5.2255421642397005e+17
19383.0	5.224108525267626e+17
19384.0	5.222672336158719e+17
19385.0	5.221212180796757e+17
19386.0	5.2197357780992e+17
19387.0	5.218242105354922e+17
19388.0	5.2167307738917536e+17
19389.0	5.2152010224435194e+17
19390.0	5.213652038014292e+17
19391.0	5.21168472838417e+17
19392.0	5.2104672288877216e+17
19393.0	5.208881022806697e+17
19394.0	5.207245158263466e+17
19395.0	5.2055859398355616e+17
19396.0	5.203904699214506e+17
19397.0	5.2022005562955085e+17
19398.0	5.199615936692223e+17
19399.0	5.197597900450473e+17
19400.0	5.195846842144085e+17
19401.0	5.194020582064126e+17
19402.0	5.192150640405161e+17
19403.0	5.190241347786069e+17
19404.0	5.188291497645396e+17
19405.0	5.186146589300053e+17
19406.0	5.182816711081983e+17
19407.0	5.180710700711935e+17
19408.0	5.178253268484096e+17
19409.0	5.176058995976874e+17
19410.0	5.172810738215595e+17
19411.0	5.169535003568809e+17
19412.0	5.1670882444465485e+17
19413.0	5.163703325076138e+17
19414.0	5.159570676645887e+17
19415.0	5.156752135116117e+17
19416.0	5.1510648182756685e+17
19417.0	5.1475601291564365e+17
19418.0	5.141392033928531e+17
19419.0	5.1354314623767866e+17
19420.0	5.1284419630421376e+17
19421.0	5.120047549426343e+17
19422.0	5.109882205590865e+17
19423.0	5.099669696806914e+17
19424.0	5.09298711986176e+17
19425.0	5.087061542786387e+17
19426.0	5.081292599896746e+17
19427.0	5.075177397638486e+17
19428.0	5.068552607017642e+17
19429.0	5.0606015753748474e+17
19430.0	5.0532873544226125e+17
19431.0	5.0439059658506234e+17
19432.0	5.034513718225577e+17
19433.0	5.0230612641273184e+17
19434.0	5.00946075525666e+17
19435.0	4.990957379736917e+17
19436.0	4.96503517242983e+17
19437.0	4.9264525955126515e+17
19438.0	4.896280590068393e+17
19439.0	4.873764815415979e+17
19440.0	4.848467269997908e+17
19441.0	4.8211080102543334e+17
19442.0	4.791362255148373e+17
19443.0	4.75965977334033e+17
19444.0	4.7246285807288275e+17
19445.0	4.6765101432176666e+17
19446.0	4.581357248315409e+17
19447.0	4.494145164935164e+17
19448.0	4.3947752552748474e+17
19449.0	4.188207493851817e+17
19450.0	3.69471634748209e+17
19451.0	3.5249721564637715e+17
19452.0	3.982271923093521e+17
19453.0	4.30938661410134e+17
19454.0	4.446150871831889e+17
19455.0	4.529770277983575e+17
19456.0	4.628290301416805e+17
19457.0	4.694524385995431e+17
19458.0	4.73013338243072e+17
19459.0	4.762680534848854e+17
19460.0	4.791768458810708e+17
19461.0	4.818321283219454e+17
19462.0	4.842905177598635e+17
19463.0	4.865221232776532e+17
19464.0	4.886527851801254e+17
19465.0	4.9234499065610285e+17
19466.0	4.9533053196479155e+17
19467.0	4.9724725926734496e+17
19468.0	4.9860856026671814e+17
19469.0	4.9965975917472403e+17
19470.0	5.0055569683251194e+17
19471.0	5.012601238279509e+17
19472.0	5.018962443457876e+17
19473.0	5.024608231096319e+17
19474.0	5.0301459441035936e+17
19475.0	5.034472838441641e+17
19476.0	5.038573876499796e+17
19477.0	5.0423931160494074e+17
19478.0	5.046333438864042e+17
19479.0	5.0531048665470266e+17
19480.0	5.061825490059268e+17
19481.0	5.068712396019024e+17
19482.0	5.074733615109459e+17
19483.0	5.079598428935511e+17
19484.0	5.082787900030978e+17
19485.0	5.08625531437056e+17
19486.0	5.088457523199996e+17
19487.0	5.0910255382527994e+17
19488.0	5.09183509065455e+17
19489.0	5.094754434591402e+17
19490.0	5.0952499992985594e+17
19491.0	5.0958636811987616e+17
19492.0	5.0977281653691725e+17
19493.0	5.098449282269183e+17
19494.0	5.098740823446868e+17
19495.0	5.0991731506326176e+17
19496.0	5.099427867219285e+17
19497.0	5.100878009379497e+17
19498.0	5.1008413085204474e+17
19499.0	5.100340230400681e+17
19500.0	5.1009460305046176e+17
19501.0	5.100889432566442e+17
19502.0	5.1007964378562554e+17
19503.0	5.100670798178985e+17
19504.0	5.1005142716470605e+17
19505.0	5.101247083664724e+17
19506.0	5.1011027688488954e+17
19507.0	5.100861578193579e+17
19508.0	5.100598076637183e+17
19509.0	5.100309620370089e+17
19510.0	5.099982324847957e+17
19511.0	5.0987073780667725e+17
19512.0	5.0991835133597005e+17
19513.0	5.098734699763028e+17
19514.0	5.0983962222264314e+17
19515.0	5.098097357094911e+17
19516.0	5.097704900263936e+17
19517.0	5.0972572946268154e+17
19518.0	5.0968015534380365e+17
19519.0	5.096325228702379e+17
19520.0	5.095832699273215e+17
19521.0	5.0953309423752525e+17
19522.0	5.094814685768362e+17
19523.0	5.0942853618073594e+17
19524.0	5.0937432850650445e+17
19525.0	5.093493951867562e+17
19526.0	5.0932805519714976e+17
19527.0	5.0927020700685645e+17
19528.0	5.092112580214783e+17
19529.0	5.091512579435177e+17
19530.0	5.0909024347313485e+17
19531.0	5.0902825277849594e+17
19532.0	5.089653230490964e+17
19533.0	5.089014846936405e+17
19534.0	5.0883676385662285e+17
19535.0	5.0877120989102074e+17
19536.0	5.0870477379338234e+17
19537.0	5.08637673947136e+17
19538.0	5.0856835517426336e+17
19539.0	5.084970689232894e+17
19540.0	5.084319388620117e+17
19541.0	5.0836204630835194e+17
19542.0	5.082914693840896e+17
19543.0	5.082202589102079e+17
19544.0	5.0814842362484045e+17
19545.0	5.0807141075080525e+17
19546.0	5.0799602505700685e+17
19547.0	5.0792943558765216e+17
19548.0	5.0785532782837754e+17
19549.0	5.077807356269908e+17
19550.0	5.07705637942067e+17
19551.0	5.076300745495892e+17
19552.0	5.0755401497094816e+17
19553.0	5.074772826259455e+17
19554.0	5.0740028981466445e+17
19555.0	5.0732323304024736e+17
19556.0	5.072454790326954e+17
19557.0	5.071672939905023e+17
19558.0	5.070887710971221e+17
19559.0	5.070098713455274e+17
19560.0	5.0693065401521485e+17
19561.0	5.068510493409279e+17
19562.0	5.0677112331304954e+17
19563.0	5.066909066199039e+17
19564.0	5.066103879368703e+17
19565.0	5.0652957474379085e+17
19566.0	5.0644830521043616e+17
19567.0	5.0636706000404474e+17
19568.0	5.0628542759348896e+17
19569.0	5.062034402050047e+17
19570.0	5.061213578155347e+17
19571.0	5.0603894323718816e+17
19572.0	5.059562951759189e+17
19573.0	5.0587337742090234e+17
19574.0	5.0579035606657696e+17
19575.0	5.0570705621046605e+17
19576.0	5.0562355083345914e+17
19577.0	5.055396815306751e+17
19578.0	5.0545556749025274e+17
19579.0	5.053718636527615e+17
19580.0	5.0528756121818445e+17
19581.0	5.052030343883434e+17
19582.0	5.051185545347072e+17
19583.0	5.0503378380608845e+17
19584.0	5.049488571891711e+17
19585.0	5.0486374371601056e+17
19586.0	5.0477742703684256e+17
19587.0	5.0469296815472634e+17
19588.0	5.0460373720323405e+17
19589.0	5.0452197679650125e+17
19590.0	5.0443561132359674e+17
19591.0	5.04350336160017e+17
19592.0	5.042642953262421e+17
19593.0	5.0417818165138765e+17
19594.0	5.040902235313493e+17
19595.0	5.040051866741419e+17
19596.0	5.03916925026304e+17
19597.0	5.038323130520915e+17
19598.0	5.03742821634321e+17
19599.0	5.036590648087893e+17
19600.0	5.0357221720063994e+17
19601.0	5.034849400957609e+17
19602.0	5.033975908488532e+17
19603.0	5.0330753208156154e+17
19604.0	5.032235196132011e+17
19605.0	5.0313443392443725e+17
19606.0	5.030492057370623e+17
19607.0	5.0296180783622816e+17
19608.0	5.0287426439304525e+17
19609.0	5.027865198329854e+17
19610.0	5.026990692237311e+17
19611.0	5.026113114516138e+17
19612.0	5.025236019139924e+17
19613.0	5.0243577199984634e+17
19614.0	5.023478818275328e+17
19615.0	5.0225989917081594e+17
19616.0	5.0217159292354554e+17
19617.0	5.020838843645951e+17
19618.0	5.0199075068313594e+17
19619.0	5.0190168743389856e+17
19620.0	5.0181393930868045e+17
19621.0	5.0173117611376614e+17
19622.0	5.016428887408639e+17
19623.0	5.015545558597632e+17
19624.0	5.01466182713344e+17
19625.0	5.013777659461632e+17
19626.0	5.012893168828415e+17
19627.0	5.0120081497128954e+17
19628.0	5.0111156241913165e+17
19629.0	5.010237184540671e+17
19630.0	5.009310841744041e+17
19631.0	5.0081450258595834e+17
19632.0	5.007589458837503e+17
19633.0	5.0067311784099834e+17
19634.0	5.0058441327465805e+17
19635.0	5.004956731965439e+17
19636.0	5.0040689474054816e+17
19637.0	5.003153493721087e+17
19638.0	5.0022917732652365e+17
19639.0	5.00140446126353e+17
19640.0	5.0005021546250234e+17
19641.0	4.9995527026114554e+17
19642.0	4.998737944379391e+17
19643.0	4.9978484932826445e+17
19644.0	4.996955806280362e+17
19645.0	4.996047073968127e+17
19646.0	4.995179928879103e+17
19647.0	4.99429003108898e+17
19648.0	4.99340000956689e+17
19649.0	4.992509557429589e+17
19650.0	4.99161944293376e+17
19651.0	4.990728982407849e+17
19652.0	4.9898383841689594e+17
19653.0	4.988947544757588e+17
19654.0	4.988056889895594e+17
19655.0	4.987165589110784e+17
