# Flux units: erg / (cm m2 s)
# Wavelength units: Angstrom
wave	flux
19000.0	5.4915215924046496e+17
19001.0	5.4904196865283405e+17
19002.0	5.489552665870335e+17
19003.0	5.4885636853377696e+17
19004.0	5.4875805404801696e+17
19005.0	5.486570693984255e+17
19006.0	5.4855917511202125e+17
19007.0	5.4846153702768634e+17
19008.0	5.483588565510826e+17
19009.0	5.4824461846009165e+17
19010.0	5.481385615687679e+17
19011.0	5.480605359101269e+17
19012.0	5.4794840447822496e+17
19013.0	5.478716154402133e+17
19014.0	5.477693019652094e+17
19015.0	5.476712641637035e+17
19016.0	5.475759140022954e+17
19017.0	5.4747982396566176e+17
19018.0	5.4738104789674656e+17
19019.0	5.472833507426303e+17
19020.0	5.4718453706478925e+17
19021.0	5.470880036203179e+17
19022.0	5.469893081519444e+17
19023.0	5.4688595672651085e+17
19024.0	5.46786201707042e+17
19025.0	5.4669211591857485e+17
19026.0	5.4659054301784723e+17
19027.0	5.464883093045247e+17
19028.0	5.4639783460208634e+17
19029.0	5.4629942574448634e+17
19030.0	5.462040789385215e+17
19031.0	5.461055853559807e+17
19032.0	5.460047160497492e+17
19033.0	5.4589305710619296e+17
19034.0	5.4578770870272e+17
19035.0	5.455868034285566e+17
19036.0	5.4480020575354874e+17
19037.0	5.454172913314474e+17
19038.0	5.4539769526353914e+17
19039.0	5.453153016567124e+17
19040.0	5.45222166716962e+17
19041.0	5.4512585235496954e+17
19042.0	5.448835491605161e+17
19043.0	5.449338854921556e+17
19044.0	5.448352934133758e+17
19045.0	5.447361709648554e+17
19046.0	5.4463592744878074e+17
19047.0	5.4453591433980576e+17
19048.0	5.4441131778594125e+17
19049.0	5.440468169697958e+17
19050.0	5.442240630139562e+17
19051.0	5.440372166273705e+17
19052.0	5.4398239532646394e+17
19053.0	5.4394455005156685e+17
19054.0	5.438569068538538e+17
19055.0	5.43696553578769e+17
19056.0	5.4365066181126816e+17
19057.0	5.4356891168058016e+17
19058.0	5.433249584469329e+17
19059.0	5.433191422754815e+17
19060.0	5.432773968571051e+17
19061.0	5.431802378321919e+17
19062.0	5.430831027847166e+17
19063.0	5.42985251140403e+17
19064.0	5.4288151509729274e+17
19065.0	5.4277657899390285e+17
19066.0	5.426359202130602e+17
19067.0	5.4259590075077965e+17
19068.0	5.425007744953002e+17
19069.0	5.424036813209599e+17
19070.0	5.423039388844032e+17
19071.0	5.4220811455692794e+17
19072.0	5.420578106245118e+17
19073.0	5.4201528115090765e+17
19074.0	5.419183321907199e+17
19075.0	5.4182114981751456e+17
19076.0	5.417232809066496e+17
19077.0	5.4162501745158816e+17
19078.0	5.4152628696077645e+17
19079.0	5.4143268316774394e+17
19080.0	5.413346422205097e+17
19081.0	5.412334572229972e+17
19082.0	5.4114005147101856e+17
19083.0	5.4103537527466656e+17
19084.0	5.4092571163142816e+17
19085.0	5.4084722711592954e+17
19086.0	5.406384816390142e+17
19087.0	5.4052496930242534e+17
19088.0	5.4047147319186746e+17
19089.0	5.4043958445779616e+17
19090.0	5.403598408122368e+17
19091.0	5.402564340219904e+17
19092.0	5.40052016717278e+17
19093.0	5.40075831206434e+17
19094.0	5.399800711916202e+17
19095.0	5.398835378869588e+17
19096.0	5.3978682988953594e+17
19097.0	5.39690640937233e+17
19098.0	5.3953377774250656e+17
19099.0	5.394246098660011e+17
19100.0	5.3939737338402125e+17
19101.0	5.393011975738709e+17
19102.0	5.39199793144354e+17
19103.0	5.3911017897328634e+17
19104.0	5.3901455156838394e+17
19105.0	5.3878525966417946e+17
19106.0	5.3881787764790605e+17
19107.0	5.386880407306239e+17
19108.0	5.3856929942514336e+17
19109.0	5.3851009486684154e+17
19110.0	5.384223700899156e+17
19111.0	5.382968571505321e+17
19112.0	5.38195785888563e+17
19113.0	5.381456385802239e+17
19114.0	5.380224518717438e+17
19115.0	5.3794298616872954e+17
19116.0	5.3785269853224954e+17
19117.0	5.3775198532403194e+17
19118.0	5.376093497677141e+17
19119.0	5.368180149059576e+17
19120.0	5.374372804733609e+17
19121.0	5.373641813742932e+17
19122.0	5.372778244298068e+17
19123.0	5.371834561549653e+17
19124.0	5.37079658385681e+17
19125.0	5.369875855835135e+17
19126.0	5.368744489866579e+17
19127.0	5.3669781475164154e+17
19128.0	5.366782732096852e+17
19129.0	5.365960381475498e+17
19130.0	5.365107140504235e+17
19131.0	5.3641733933629434e+17
19132.0	5.36321789665826e+17
19133.0	5.362225401997995e+17
19134.0	5.361298172106068e+17
19135.0	5.3603438973419514e+17
19136.0	5.3593763895487136e+17
19137.0	5.3583567968884045e+17
19138.0	5.3574452369162234e+17
19139.0	5.3565168452020896e+17
19140.0	5.355565783274837e+17
19141.0	5.354608287285247e+17
19142.0	5.35362558492672e+17
19143.0	5.352663807251796e+17
19144.0	5.351692474952361e+17
19145.0	5.3507731170699936e+17
19146.0	5.349182762123264e+17
19147.0	5.348819511629141e+17
19148.0	5.347435690502827e+17
19149.0	5.346393891099988e+17
19150.0	5.3459988491796474e+17
19151.0	5.345036786292054e+17
19152.0	5.344066564784126e+17
19153.0	5.3420953474607763e+17
19154.0	5.342025589194751e+17
19155.0	5.341178413187072e+17
19156.0	5.3402242446786554e+17
19157.0	5.338918763364352e+17
19158.0	5.3375281586503686e+17
19159.0	5.337308689596415e+17
19160.0	5.3363531446572365e+17
19161.0	5.3353375016331936e+17
19162.0	5.334164840644607e+17
19163.0	5.333356728986281e+17
19164.0	5.332539063402494e+17
19165.0	5.3305393590654266e+17
19166.0	5.330599599057577e+17
19167.0	5.3297098844187296e+17
19168.0	5.328791396854441e+17
19169.0	5.327853699377834e+17
19170.0	5.3269083319173114e+17
19171.0	5.3259476070126925e+17
19172.0	5.325000629638485e+17
19173.0	5.324058258309118e+17
19174.0	5.3230833098205856e+17
19175.0	5.3221546489719456e+17
19176.0	5.321208967637673e+17
19177.0	5.3201054819068576e+17
19178.0	5.319286355307178e+17
19179.0	5.3183383244636154e+17
19180.0	5.317388714464596e+17
19181.0	5.316364199089492e+17
19182.0	5.315461500283562e+17
19183.0	5.3145614858321914e+17
19184.0	5.313614686016853e+17
19185.0	5.3126537479017805e+17
19186.0	5.311712623678802e+17
19187.0	5.310698278791849e+17
19188.0	5.309802082555221e+17
19189.0	5.3088431248506874e+17
19190.0	5.307886107710805e+17
19191.0	5.3068923421764256e+17
19192.0	5.305946798555136e+17
19193.0	5.304826881638398e+17
19194.0	5.3037355286309536e+17
19195.0	5.302918537631062e+17
19196.0	5.30179060609843e+17
19197.0	5.300506864560809e+17
19198.0	5.298743938471251e+17
19199.0	5.2958401281392634e+17
19200.0	5.2951166687204685e+17
19201.0	5.2959867931634336e+17
19202.0	5.295816879112191e+17
19203.0	5.295175525291349e+17
19204.0	5.294405293091498e+17
19205.0	5.293547741074772e+17
19206.0	5.292660977128788e+17
19207.0	5.2916022697874765e+17
19208.0	5.2906991172976634e+17
19209.0	5.289891755021653e+17
19210.0	5.2889699092179616e+17
19211.0	5.2880491951773005e+17
19212.0	5.2870998557108896e+17
19213.0	5.28605475189555e+17
19214.0	5.285139150012415e+17
19215.0	5.2842595408500045e+17
19216.0	5.2833208066812576e+17
19217.0	5.282303404845738e+17
19218.0	5.281078696039764e+17
19219.0	5.280259832283134e+17
19220.0	5.279508774344019e+17
19221.0	5.278502785908735e+17
19222.0	5.2776442754935456e+17
19223.0	5.276741678749013e+17
19224.0	5.275770498842623e+17
19225.0	5.2748356520946323e+17
19226.0	5.2739289407378765e+17
19227.0	5.2730049173913594e+17
19228.0	5.2720930617207456e+17
19229.0	5.27115172778257e+17
19230.0	5.270210078572543e+17
19231.0	5.2692623832733e+17
19232.0	5.2683292526946976e+17
19233.0	5.2673361114125645e+17
19234.0	5.266449895522303e+17
19235.0	5.2654858822833485e+17
19236.0	5.264579770013012e+17
19237.0	5.2636290659997005e+17
19238.0	5.262623403322025e+17
19239.0	5.2617673773329056e+17
19240.0	5.260830044760745e+17
19241.0	5.2598763404219725e+17
19242.0	5.2589430092158285e+17
19243.0	5.2578655617242445e+17
19244.0	5.25708583641634e+17
19245.0	5.256141554581503e+17
19246.0	5.2552044764637856e+17
19247.0	5.25426352071202e+17
19248.0	5.253334824211796e+17
19249.0	5.25236244193826e+17
19250.0	5.25123298787328e+17
19251.0	5.2502340675392826e+17
19252.0	5.2492917094918816e+17
19253.0	5.248634941603839e+17
19254.0	5.2477215158654285e+17
19255.0	5.2465886965705363e+17
19256.0	5.245837182850388e+17
19257.0	5.2449105282771616e+17
19258.0	5.243973566201856e+17
19259.0	5.242936093223593e+17
19260.0	5.24181703823633e+17
19261.0	5.2411271842802336e+17
19262.0	5.2401328888654496e+17
19263.0	5.2391314372689914e+17
19264.0	5.2379872010786125e+17
19265.0	5.237204518087338e+17
19266.0	5.23623053009442e+17
19267.0	5.2355474799984634e+17
19268.0	5.2346189309979296e+17
19269.0	5.2336837046654285e+17
19270.0	5.2327023640575994e+17
19271.0	5.2316304817083725e+17
19272.0	5.230848778786132e+17
19273.0	5.2297667678917965e+17
19274.0	5.228628839235582e+17
19275.0	5.2281011181977594e+17
19276.0	5.2271515487436794e+17
19277.0	5.2262250472625485e+17
19278.0	5.225262186059092e+17
19279.0	5.224327412012372e+17
19280.0	5.2233820683195725e+17
19281.0	5.222467203235839e+17
19282.0	5.2215507401222816e+17
19283.0	5.220598538742441e+17
19284.0	5.219618650062846e+17
19285.0	5.2186499790493e+17
19286.0	5.217662696510804e+17
19287.0	5.216518050676735e+17
19288.0	5.2122019951192723e+17
19289.0	5.209649124999165e+17
19290.0	5.213657961769642e+17
19291.0	5.2128064705221965e+17
19292.0	5.2122074400249165e+17
19293.0	5.2113091836859725e+17
19294.0	5.2103730611705165e+17
19295.0	5.2094758576018765e+17
19296.0	5.2078914173228384e+17
19297.0	5.207492377531732e+17
19298.0	5.2066650342905165e+17
19299.0	5.205028761501696e+17
19300.0	5.204819630009003e+17
19301.0	5.2039049180173645e+17
19302.0	5.202958606838442e+17
19303.0	5.2019761113989114e+17
19304.0	5.201097572483071e+17
19305.0	5.200155319992319e+17
19306.0	5.199223605690367e+17
19307.0	5.1982377597009914e+17
19308.0	5.197294652970324e+17
19309.0	5.1962787184421536e+17
19310.0	5.195290388026709e+17
19311.0	5.1943813474331296e+17
19312.0	5.193394699632639e+17
19313.0	5.1919750423729485e+17
19314.0	5.1646913730751136e+17
19315.0	5.165611720114198e+17
19316.0	5.1883555530560864e+17
19317.0	5.188759331012607e+17
19318.0	5.187972249594538e+17
19319.0	5.1871124445375136e+17
19320.0	5.1859516205738656e+17
19321.0	5.1846949693467296e+17
19322.0	5.184329845396821e+17
19323.0	5.183404354742954e+17
19324.0	5.1824789123235834e+17
19325.0	5.18154948321826e+17
19326.0	5.180652158014804e+17
19327.0	5.179734563837268e+17
19328.0	5.177644005283157e+17
19329.0	5.1779061143306234e+17
19330.0	5.176968499341994e+17
19331.0	5.1760080987968845e+17
19332.0	5.175132109318826e+17
19333.0	5.1741874465013754e+17
19334.0	5.173253314183168e+17
19335.0	5.169949337190403e+17
19336.0	5.171395761799168e+17
19337.0	5.170483669150377e+17
19338.0	5.169350239584255e+17
19339.0	5.168605735245141e+17
19340.0	5.1675037741438285e+17
19341.0	5.165735820481878e+17
19342.0	5.165359136331094e+17
19343.0	5.1648022718709754e+17
19344.0	5.1628877398671366e+17
19345.0	5.1613543191019514e+17
19346.0	5.1610524270810445e+17
19347.0	5.159872992990549e+17
19348.0	5.1601874986816845e+17
19349.0	5.1592560430284794e+17
19350.0	5.157907621827925e+17
19351.0	5.157392663358121e+17
19352.0	5.1552585567436774e+17
19353.0	5.155585838284798e+17
19354.0	5.154655149490175e+17
19355.0	5.153615833814358e+17
19356.0	5.1527783829995514e+17
19357.0	5.15184233877777e+17
19358.0	5.150896091212457e+17
19359.0	5.14967964169011e+17
19360.0	5.1480538637489485e+17
19361.0	5.1480699600896e+17
19362.0	5.147146589656404e+17
19363.0	5.146208820177578e+17
19364.0	5.145266968242858e+17
19365.0	5.1443234225083725e+17
19366.0	5.143376544399359e+17
19367.0	5.1424331182025376e+17
19368.0	5.141484392502613e+17
19369.0	5.1405049917603834e+17
19370.0	5.139560832958464e+17
19371.0	5.1385678265931085e+17
19372.0	5.1376597821467296e+17
19373.0	5.136694576327338e+17
19374.0	5.135746667118591e+17
19375.0	5.134792145589589e+17
19376.0	5.133833693298687e+17
19377.0	5.132862056213163e+17
19378.0	5.1318976459134285e+17
19379.0	5.130932495319039e+17
19380.0	5.129957046310228e+17
19381.0	5.1289734016314016e+17
19382.0	5.127912710384298e+17
19383.0	5.126952557303124e+17
19384.0	5.1260069899141114e+17
19385.0	5.125031586343593e+17
19386.0	5.124039950816596e+17
19387.0	5.123028744667135e+17
19388.0	5.121992357314559e+17
19389.0	5.1208861655586125e+17
19390.0	5.1193834065537696e+17
19391.0	5.111894042651303e+17
19392.0	5.116042253347497e+17
19393.0	5.1166928716868256e+17
19394.0	5.11583698620689e+17
19395.0	5.1144966285557754e+17
19396.0	5.1137371232884045e+17
19397.0	5.1127632100939085e+17
19398.0	5.1113220500357114e+17
19399.0	5.1098169121614496e+17
19400.0	5.1090612719452154e+17
19401.0	5.1084153749940896e+17
19402.0	5.107339303933268e+17
19403.0	5.106199938028885e+17
19404.0	5.105071219365203e+17
19405.0	5.1038737560589645e+17
19406.0	5.102698026237951e+17
19407.0	5.1010517024986445e+17
19408.0	5.0998463238417056e+17
19409.0	5.098905760956415e+17
19410.0	5.0977809381021005e+17
19411.0	5.096470374689451e+17
19412.0	5.0951324336564896e+17
19413.0	5.0933429107862176e+17
19414.0	5.0923312803130016e+17
19415.0	5.090853107619157e+17
19416.0	5.0891698152843936e+17
19417.0	5.0877661257400314e+17
19418.0	5.0861944955644576e+17
19419.0	5.084514589431125e+17
19420.0	5.0827769990348794e+17
19421.0	5.080961874832041e+17
19422.0	5.07896313029154e+17
19423.0	5.076930244116479e+17
19424.0	5.074786048103764e+17
19425.0	5.0724004328461645e+17
19426.0	5.0699618770834765e+17
19427.0	5.067391601999871e+17
19428.0	5.064587065251156e+17
19429.0	5.061490116307625e+17
19430.0	5.057726176559103e+17
19431.0	5.053758910933674e+17
19432.0	5.0507401619920205e+17
19433.0	5.046573945148756e+17
19434.0	5.0418427863149216e+17
19435.0	5.0362970831585274e+17
19436.0	5.0300317590705485e+17
19437.0	5.023021026071892e+17
19438.0	5.0027307176645984e+17
19439.0	5.0038358902046694e+17
19440.0	4.998011525879124e+17
19441.0	4.9872671066466976e+17
19442.0	4.97418552405743e+17
19443.0	4.9583679508316154e+17
19444.0	4.939620509461161e+17
19445.0	4.9166403288869555e+17
19446.0	4.887695357990228e+17
19447.0	4.8510162142494694e+17
19448.0	4.800233742183085e+17
19449.0	4.72361529839889e+17
19450.0	4.570782676724385e+17
19451.0	4.434432807840438e+17
19452.0	4.6641847516965504e+17
19453.0	4.764316109286061e+17
19454.0	4.8231253138909843e+17
19455.0	4.8640366676541434e+17
19456.0	4.894142804350294e+17
19457.0	4.916739485029715e+17
19458.0	4.854333081736623e+17
19459.0	4.941218005210471e+17
19460.0	4.964525063274496e+17
19461.0	4.975380048554666e+17
19462.0	4.9842447925466445e+17
19463.0	4.991690447607124e+17
19464.0	4.9979487776931834e+17
19465.0	5.00307875402001e+17
19466.0	5.007435081886378e+17
19467.0	5.0111470842675194e+17
19468.0	5.0142035924309325e+17
19469.0	5.015925952610302e+17
19470.0	5.0191390390353914e+17
19471.0	5.021040004562943e+17
19472.0	5.0225627738931194e+17
19473.0	5.023843062819497e+17
19474.0	5.023989981599058e+17
19475.0	5.025147252987222e+17
19476.0	5.0262736270349645e+17
19477.0	5.027022037669205e+17
19478.0	5.0275194255005e+17
19479.0	5.026979841572862e+17
19480.0	5.0280129769417376e+17
19481.0	5.028062376056148e+17
19482.0	5.028067923023189e+17
19483.0	5.028007908824405e+17
19484.0	5.0278353502644896e+17
19485.0	5.0275707742672205e+17
19486.0	5.0264244591001606e+17
19487.0	5.0270121286260045e+17
19488.0	5.026608330397012e+17
19489.0	5.025829846603091e+17
19490.0	5.0249533349341856e+17
19491.0	5.025184158668117e+17
19492.0	5.0248115394969594e+17
19493.0	5.0242753417707514e+17
19494.0	5.023678023248554e+17
19495.0	5.023000694183251e+17
19496.0	5.021989077691049e+17
19497.0	5.0212247909171194e+17
19498.0	5.016892940309844e+17
19499.0	5.009362364574377e+17
19500.0	5.018893086446932e+17
19501.0	5.018947852173311e+17
19502.0	5.0184115069474125e+17
19503.0	5.0177652381013325e+17
19504.0	5.017061354198357e+17
19505.0	5.0163122731745274e+17
19506.0	5.0155875407844685e+17
19507.0	5.014784538487467e+17
19508.0	5.013967597819221e+17
19509.0	5.01295010161186e+17
19510.0	5.010684344882515e+17
19511.0	4.9720487715361926e+17
19512.0	5.005742297841662e+17
19513.0	5.0057181183781523e+17
19514.0	5.0057560754312506e+17
19515.0	5.007983289303039e+17
19516.0	5.007527549512361e+17
19517.0	5.006932918839978e+17
19518.0	5.0059775759264403e+17
19519.0	5.0051945979357856e+17
19520.0	5.0037865728791866e+17
19521.0	5.003872871383039e+17
19522.0	5.0029008589073056e+17
19523.0	5.002027028097707e+17
19524.0	5.0007680378470406e+17
19525.0	5.000580268643669e+17
19526.0	4.999783496286207e+17
19527.0	4.9989438965896525e+17
19528.0	4.998042265234089e+17
19529.0	4.9971663869050874e+17
19530.0	4.996449754415103e+17
19531.0	4.995610885226495e+17
19532.0	4.9947681544820045e+17
19533.0	4.993934808492715e+17
19534.0	4.9930997365473274e+17
19535.0	4.9922320580826445e+17
19536.0	4.9913596603269114e+17
19537.0	4.9905144605354656e+17
19538.0	4.988693761403563e+17
19539.0	4.988538368032768e+17
19540.0	4.987936293868883e+17
19541.0	4.986942424175957e+17
19542.0	4.986202309875028e+17
19543.0	4.9845489991243085e+17
19544.0	4.9844597569181e+17
19545.0	4.9832266511155194e+17
19546.0	4.9823032044858016e+17
19547.0	4.9819516057681914e+17
19548.0	4.981160975269887e+17
19549.0	4.980221457465342e+17
19550.0	4.9794695851322016e+17
19551.0	4.9786183574268576e+17
19552.0	4.9777598169524896e+17
19553.0	4.976892843130879e+17
19554.0	4.976024541812051e+17
19555.0	4.9750802418018976e+17
19556.0	4.9742643560011085e+17
19557.0	4.9734668468442445e+17
19558.0	4.9726170577851725e+17
19559.0	4.971761805645141e+17
19560.0	4.970566270320639e+17
19561.0	4.9700150870452896e+17
19562.0	4.968864487396691e+17
19563.0	4.9683224477040634e+17
19564.0	4.967455120861866e+17
19565.0	4.966595319999146e+17
19566.0	4.9657151970344954e+17
19567.0	4.964871382062421e+17
19568.0	4.9639899854274554e+17
19569.0	4.96313314644241e+17
19570.0	4.962278891148628e+17
19571.0	4.961418388439039e+17
19572.0	4.9605283871894176e+17
19573.0	4.959584887592276e+17
19574.0	4.9587052099229e+17
19575.0	4.957975038219604e+17
19576.0	4.957052280853844e+17
19577.0	4.956065966500522e+17
19578.0	4.955362583816874e+17
19579.0	4.954492821482153e+17
19580.0	4.95363231387921e+17
19581.0	4.9527875349162656e+17
19582.0	4.9519359213349536e+17
19583.0	4.9510726748514976e+17
19584.0	4.950199146031785e+17
19585.0	4.94922122727697e+17
19586.0	4.948325820967594e+17
19587.0	4.9475481865202336e+17
19588.0	4.946476701231787e+17
19589.0	4.9458009247580154e+17
19590.0	4.944900807546196e+17
19591.0	4.944148591979178e+17
19592.0	4.9433015690635936e+17
19593.0	4.942339655772842e+17
19594.0	4.941245355567785e+17
19595.0	4.9406942442946554e+17
19596.0	4.939808563877204e+17
19597.0	4.9389559219923616e+17
19598.0	4.9376815477336723e+17
19599.0	4.9372199897442976e+17
19600.0	4.9363894231804576e+17
19601.0	4.9354681457049594e+17
19602.0	4.9345445522746016e+17
19603.0	4.9335499262088525e+17
19604.0	4.9328327260897274e+17
19605.0	4.931836627823275e+17
19606.0	4.93120657695266e+17
19607.0	4.9303684599425696e+17
19608.0	4.9294936036256416e+17
19609.0	4.92861272428817e+17
19610.0	4.9273765028167686e+17
19611.0	4.926316068820309e+17
19612.0	4.9260670082525856e+17
19613.0	4.925191266937515e+17
19614.0	4.924298812719103e+17
19615.0	4.9234536262096205e+17
19616.0	4.922129666189994e+17
19617.0	4.9210473169551366e+17
19618.0	4.920311551448404e+17
19619.0	4.919247739639124e+17
19620.0	4.918488063803391e+17
19621.0	4.917343608810153e+17
19622.0	4.9174160339544736e+17
19623.0	4.916519031013374e+17
19624.0	4.9155586982761805e+17
19625.0	4.9148279610408954e+17
19626.0	4.913930728112127e+17
19627.0	4.9130064482140154e+17
19628.0	4.9119851806283085e+17
19629.0	4.908702855331837e+17
19630.0	4.9087634008091296e+17
19631.0	4.9067458546018976e+17
19632.0	4.9079754113242445e+17
19633.0	4.907619240116223e+17
19634.0	4.906992518823934e+17
19635.0	4.906080630996991e+17
19636.0	4.904405029617662e+17
19637.0	4.903274232676351e+17
19638.0	4.9036231575251616e+17
19639.0	4.9028225809339725e+17
19640.0	4.901687430305108e+17
19641.0	4.900144005425835e+17
19642.0	4.9001751096852474e+17
19643.0	4.899339035301203e+17
19644.0	4.898483038672212e+17
19645.0	4.89757563036194e+17
19646.0	4.89581866927172e+17
19647.0	4.896002596492628e+17
19648.0	4.895169165918208e+17
19649.0	4.894315047638357e+17
19650.0	4.8934649384140794e+17
19651.0	4.8926060840659616e+17
19652.0	4.8917508326249805e+17
19653.0	4.890898982764543e+17
19654.0	4.890040759659178e+17
19655.0	4.889181636875605e+17
