# Flux units: erg / (cm m2 s)
# Wavelength units: Angstrom
wave	flux
19000.0	8.722047053419859e+17
19001.0	8.720557816851113e+17
19002.0	8.719140911054847e+17
19003.0	8.717681575679315e+17
19004.0	8.716210490660182e+17
19005.0	8.714754558263293e+17
19006.0	8.713285451557545e+17
19007.0	8.711679484712278e+17
19008.0	8.710317629156008e+17
19009.0	8.708819781681148e+17
19010.0	8.707234470384979e+17
19011.0	8.705855198680403e+17
19012.0	8.704030714189139e+17
19013.0	8.702913892668755e+17
19014.0	8.701391965694632e+17
19015.0	8.699907300917248e+17
19016.0	8.698408867637928e+17
19017.0	8.696912978903037e+17
19018.0	8.695408898692436e+17
19019.0	8.693911119724543e+17
19020.0	8.692389826090323e+17
19021.0	8.690889453644456e+17
19022.0	8.689376699613184e+17
19023.0	8.687840078594047e+17
19024.0	8.686325012103164e+17
19025.0	8.684757814607871e+17
19026.0	8.6832156011834e+17
19027.0	8.681372421281107e+17
19028.0	8.680218020194985e+17
19029.0	8.679671658971135e+17
19030.0	8.678204857734483e+17
19031.0	8.67666477781265e+17
19032.0	8.67511886221585e+17
19033.0	8.67352751391812e+17
19034.0	8.671968816878931e+17
19035.0	8.669997450657791e+17
19036.0	8.644931181259429e+17
19037.0	8.667031600977236e+17
19038.0	8.665770878479017e+17
19039.0	8.664270543781885e+17
19040.0	8.662728812702377e+17
19041.0	8.661176984535039e+17
19042.0	8.659588678505812e+17
19043.0	8.658060957799764e+17
19044.0	8.656495240893778e+17
19045.0	8.654913438831956e+17
19046.0	8.65334517178914e+17
19047.0	8.651778389529939e+17
19048.0	8.650149720315219e+17
19049.0	8.648598145204224e+17
19050.0	8.646969023004671e+17
19051.0	8.641738105159674e+17
19052.0	8.642787866749609e+17
19053.0	8.642242906423295e+17
19054.0	8.640734497690961e+17
19055.0	8.639062449586175e+17
19056.0	8.637570644705279e+17
19057.0	8.635986808406016e+17
19058.0	8.634366604694866e+17
19059.0	8.632812764659711e+17
19060.0	8.631214381116073e+17
19061.0	8.629626669279914e+17
19062.0	8.628028826801494e+17
19063.0	8.626430464229373e+17
19064.0	8.624794147400362e+17
19065.0	8.623158505854292e+17
19066.0	8.621601100660735e+17
19067.0	8.6200230636858e+17
19068.0	8.618416941651284e+17
19069.0	8.616809255141372e+17
19070.0	8.615196799707817e+17
19071.0	8.61357357469969e+17
19072.0	8.612520976362153e+17
19073.0	8.611539267354621e+17
19074.0	8.60992232821009e+17
19075.0	8.608302008456531e+17
19076.0	8.606674110993748e+17
19077.0	8.605051901007188e+17
19078.0	8.603423445701972e+17
19079.0	8.601804781300392e+17
19080.0	8.60017395201911e+17
19081.0	8.59852678172945e+17
19082.0	8.596897163203923e+17
19083.0	8.595227661041663e+17
19084.0	8.593527758564012e+17
19085.0	8.591972405783208e+17
19086.0	8.590089178666323e+17
19087.0	8.58829979071283e+17
19088.0	8.586834212814845e+17
19089.0	8.585104611868672e+17
19090.0	8.583693748666365e+17
19091.0	8.582098366846291e+17
19092.0	8.580391993955667e+17
19093.0	8.578853888152915e+17
19094.0	8.577223788680531e+17
19095.0	8.575583123756372e+17
19096.0	8.573941913572689e+17
19097.0	8.572298019034451e+17
19098.0	8.570649000454825e+17
19099.0	8.568996160864255e+17
19100.0	8.56711085896499e+17
19101.0	8.565275656628905e+17
19102.0	8.563606326433106e+17
19103.0	8.56197267857954e+17
19104.0	8.56030563288132e+17
19105.0	8.558624460767231e+17
19106.0	8.556892074803197e+17
19107.0	8.555250345923924e+17
19108.0	8.553480141318825e+17
19109.0	8.550056968497833e+17
19110.0	8.549834675978237e+17
19111.0	8.548563748738388e+17
19112.0	8.546953937114454e+17
19113.0	8.545298237008553e+17
19114.0	8.543628133662717e+17
19115.0	8.541894201398611e+17
19116.0	8.540266446542164e+17
19117.0	8.538574577554772e+17
19118.0	8.53681953116433e+17
19119.0	8.534469289268562e+17
19120.0	8.533332904116221e+17
19121.0	8.531701936422911e+17
19122.0	8.530190984544255e+17
19123.0	8.528508301082621e+17
19124.0	8.526642178337449e+17
19125.0	8.525116230423892e+17
19126.0	8.5234231017472e+17
19127.0	8.521191601995773e+17
19128.0	8.519226433557843e+17
19129.0	8.518319710317225e+17
19130.0	8.516657893517992e+17
19131.0	8.514934530899967e+17
19132.0	8.513256806503764e+17
19133.0	8.511410791251967e+17
19134.0	8.509476838222506e+17
19135.0	8.508144113505619e+17
19136.0	8.50643854172706e+17
19137.0	8.50415977496576e+17
19138.0	8.501996972321446e+17
19139.0	8.500298107234985e+17
19140.0	8.498588286626473e+17
19141.0	8.496874556926632e+17
19142.0	8.495138584832682e+17
19143.0	8.493423824732157e+17
19144.0	8.491716299806036e+17
19145.0	8.489993559343101e+17
19146.0	8.488026433563306e+17
19147.0	8.486523495601492e+17
19148.0	8.484809412182015e+17
19149.0	8.483081901397332e+17
19150.0	8.481358979181226e+17
19151.0	8.479626660326058e+17
19152.0	8.477858628370431e+17
19153.0	8.476138461812054e+17
19154.0	8.474358916491945e+17
19155.0	8.472626020220925e+17
19156.0	8.470840552543572e+17
19157.0	8.468881605656575e+17
19158.0	8.466487926150484e+17
19159.0	8.465446741912232e+17
19160.0	8.463782130308438e+17
19161.0	8.461826621352618e+17
19162.0	8.457411434119167e+17
19163.0	8.457964820802217e+17
19164.0	8.456811324287656e+17
19165.0	8.455099603659433e+17
19166.0	8.453309561394515e+17
19167.0	8.451358947191466e+17
19168.0	8.449820515631103e+17
19169.0	8.448097470382079e+17
19170.0	8.446350324662268e+17
19171.0	8.444520370798591e+17
19172.0	8.442795145909587e+17
19173.0	8.441057837230761e+17
19174.0	8.439286219145215e+17
19175.0	8.437527462193834e+17
19176.0	8.434963103875072e+17
19177.0	8.4325999589021e+17
19178.0	8.430797287587841e+17
19179.0	8.428969077156522e+17
19180.0	8.427277320017236e+17
19181.0	8.425490266892968e+17
19182.0	8.423731883234646e+17
19183.0	8.42194470567936e+17
19184.0	8.420132085476008e+17
19185.0	8.418349050494975e+17
19186.0	8.416545832523091e+17
19187.0	8.414702494635348e+17
19188.0	8.412910522990591e+17
19189.0	8.411062683216553e+17
19190.0	8.409216454055251e+17
19191.0	8.407407624104617e+17
19192.0	8.405583522693117e+17
19193.0	8.403702649978879e+17
19194.0	8.401825557730646e+17
19195.0	8.399893448796841e+17
19196.0	8.397841456868009e+17
19197.0	8.395492983570431e+17
19198.0	8.391918305498451e+17
19199.0	8.37406554412373e+17
19200.0	8.375137527136257e+17
19201.0	8.386638303111849e+17
19202.0	8.385735065337853e+17
19203.0	8.38332923772928e+17
19204.0	8.38172643898163e+17
19205.0	8.379998568884904e+17
19206.0	8.378200477750611e+17
19207.0	8.376355271999488e+17
19208.0	8.374481944838143e+17
19209.0	8.372690477907967e+17
19210.0	8.370828156600319e+17
19211.0	8.368954408610476e+17
19212.0	8.36706108440576e+17
19213.0	8.365030832952659e+17
19214.0	8.362941409656831e+17
19215.0	8.360644176773119e+17
19216.0	8.358833864835071e+17
19217.0	8.356944403584339e+17
19218.0	8.354796685055314e+17
19219.0	8.353077322405203e+17
19220.0	8.350683863799122e+17
19221.0	8.348271472104788e+17
19222.0	8.346446295553364e+17
19223.0	8.344536891785215e+17
19224.0	8.342597894406144e+17
19225.0	8.340639204769791e+17
19226.0	8.338747816935421e+17
19227.0	8.336800028295165e+17
19228.0	8.334866798084093e+17
19229.0	8.332917816863402e+17
19230.0	8.330931777568767e+17
19231.0	8.328986066507091e+17
19232.0	8.327036029719892e+17
19233.0	8.325042962169855e+17
19234.0	8.32309627523345e+17
19235.0	8.321116205831508e+17
19236.0	8.319141823905791e+17
19237.0	8.31714709541137e+17
19238.0	8.315055660247724e+17
19239.0	8.313100477049514e+17
19240.0	8.311087227906728e+17
19241.0	8.309075859210237e+17
19242.0	8.307068677827242e+17
19243.0	8.304984656794962e+17
19244.0	8.303027688221353e+17
19245.0	8.300994093907965e+17
19246.0	8.298950068360531e+17
19247.0	8.296907798828374e+17
19248.0	8.29485645701666e+17
19249.0	8.292638563587411e+17
19250.0	8.289624951969106e+17
19251.0	8.287511786116434e+17
19252.0	8.285355217605974e+17
19253.0	8.283383415177215e+17
19254.0	8.281290461675519e+17
19255.0	8.279114322542591e+17
19256.0	8.277048801187158e+17
19257.0	8.27496419435042e+17
19258.0	8.272841218020692e+17
19259.0	8.270674497896447e+17
19260.0	8.268191100829696e+17
19261.0	8.266418235637756e+17
19262.0	8.264246268439209e+17
19263.0	8.262074320814079e+17
19264.0	8.259772127466836e+17
19265.0	8.257685413691391e+17
19266.0	8.255517759635453e+17
19267.0	8.253369911083004e+17
19268.0	8.25116781060642e+17
19269.0	8.248953451577343e+17
19270.0	8.246723011586726e+17
19271.0	8.244392403227987e+17
19272.0	8.242228423382355e+17
19273.0	8.238149156558164e+17
19274.0	8.235746692781395e+17
19275.0	8.233834991932756e+17
19276.0	8.231544402826578e+17
19277.0	8.229252777727315e+17
19278.0	8.226942457217024e+17
19279.0	8.224589329640105e+17
19280.0	8.222260032700415e+17
19281.0	8.219925699799721e+17
19282.0	8.217538988430676e+17
19283.0	8.215054155513855e+17
19284.0	8.21248436417331e+17
19285.0	8.210368753041407e+17
19286.0	8.207969932716714e+17
19287.0	8.20548896555008e+17
19288.0	8.195564048307537e+17
19289.0	8.184071577053846e+17
19290.0	8.195902764919468e+17
19291.0	8.193420479343273e+17
19292.0	8.191043468001279e+17
19293.0	8.188536108875773e+17
19294.0	8.18601088201523e+17
19295.0	8.183465939129684e+17
19296.0	8.180902769197055e+17
19297.0	8.178310167833257e+17
19298.0	8.175722271080447e+17
19299.0	8.173104667470505e+17
19300.0	8.169385371194706e+17
19301.0	8.164924320645119e+17
19302.0	8.16224322785553e+17
19303.0	8.1595251832477e+17
19304.0	8.15681144619008e+17
19305.0	8.154051030723241e+17
19306.0	8.151254217086291e+17
19307.0	8.148403959627775e+17
19308.0	8.145538731300182e+17
19309.0	8.14216137425988e+17
19310.0	8.137062427394045e+17
19311.0	8.133044552597501e+17
19312.0	8.130255097167871e+17
19313.0	8.12731288518656e+17
19314.0	8.114783580585981e+17
19315.0	8.112549929156618e+17
19316.0	8.118354650158419e+17
19317.0	8.115450498689705e+17
19318.0	8.111066638712828e+17
19319.0	8.105023411410259e+17
19320.0	8.101953660431017e+17
19321.0	8.098850405351424e+17
19322.0	8.095624671002621e+17
19323.0	8.09237593928499e+17
19324.0	8.089337065373693e+17
19325.0	8.085058320247469e+17
19326.0	8.077776240945833e+17
19327.0	8.074616378141353e+17
19328.0	8.071392264191997e+17
19329.0	8.068129463380649e+17
19330.0	8.064827206751572e+17
19331.0	8.061502774837247e+17
19332.0	8.053045074067446e+17
19333.0	8.04872355263283e+17
19334.0	8.045294622430548e+17
19335.0	8.041795307612841e+17
19336.0	8.037847957241855e+17
19337.0	8.033855663505409e+17
19338.0	8.027001842215594e+17
19339.0	8.023424627987796e+17
19340.0	8.019730508720809e+17
19341.0	8.01601347736917e+17
19342.0	8.012156758917117e+17
19343.0	8.008513580870313e+17
19344.0	8.004701735878655e+17
19345.0	8.000343087863122e+17
19346.0	7.996702981444948e+17
19347.0	7.993015798158676e+17
19348.0	7.989063929124178e+17
19349.0	7.985035325298003e+17
19350.0	7.9802017017146e+17
19351.0	7.97591025483776e+17
19352.0	7.971726945506644e+17
19353.0	7.967531682409128e+17
19354.0	7.963260020064253e+17
19355.0	7.958906834430634e+17
19356.0	7.954548984730964e+17
19357.0	7.950107001487357e+17
19358.0	7.945588851081215e+17
19359.0	7.940990878875645e+17
19360.0	7.934888367882237e+17
19361.0	7.930153928403625e+17
19362.0	7.925366707803475e+17
19363.0	7.920498902040575e+17
19364.0	7.915530748952575e+17
19365.0	7.910433966347604e+17
19366.0	7.905253062781608e+17
19367.0	7.899009610590888e+17
19368.0	7.892599292209834e+17
19369.0	7.887176434625192e+17
19370.0	7.881662559245654e+17
19371.0	7.87612884341009e+17
19372.0	7.870501917556735e+17
19373.0	7.864298506988204e+17
19374.0	7.856261135597567e+17
19375.0	7.85035902145877e+17
19376.0	7.844372784960854e+17
19377.0	7.838297191612415e+17
19378.0	7.8321193872698e+17
19379.0	7.822805677987156e+17
19380.0	7.816087815061503e+17
19381.0	7.809646461627049e+17
19382.0	7.802905749531306e+17
19383.0	7.794589097612631e+17
19384.0	7.784810143547391e+17
19385.0	7.777578253287421e+17
19386.0	7.770191886811135e+17
19387.0	7.76257179274445e+17
19388.0	7.750194398844246e+17
19389.0	7.742321950283092e+17
19390.0	7.734197147227475e+17
19391.0	7.711456721458497e+17
19392.0	7.71223419302707e+17
19393.0	7.703600200067754e+17
19394.0	7.694820390731775e+17
19395.0	7.685502249467905e+17
19396.0	7.670592677347327e+17
19397.0	7.661146620996266e+17
19398.0	7.65145884271138e+17
19399.0	7.640796010381311e+17
19400.0	7.625402530223446e+17
19401.0	7.615261933480616e+17
19402.0	7.604677629706237e+17
19403.0	7.593996733906943e+17
19404.0	7.580493906182145e+17
19405.0	7.569327033155583e+17
19406.0	7.558049981355348e+17
19407.0	7.546229184178857e+17
19408.0	7.533875265798143e+17
19409.0	7.520981442625535e+17
19410.0	7.507706600488957e+17
19411.0	7.494276548132861e+17
19412.0	7.480288506544128e+17
19413.0	7.4657920216378e+17
19414.0	7.45082111481173e+17
19415.0	7.434556518258004e+17
19416.0	7.418389072969727e+17
19417.0	7.401852042390185e+17
19418.0	7.385040097553066e+17
19419.0	7.367559916202666e+17
19420.0	7.348137063262889e+17
19421.0	7.328801327415297e+17
19422.0	7.308607069268649e+17
19423.0	7.287459508737363e+17
19424.0	7.26532827906048e+17
19425.0	7.241596093333504e+17
19426.0	7.217475749937148e+17
19427.0	7.192810791545514e+17
19428.0	7.166930750275583e+17
19429.0	7.139286609909075e+17
19430.0	7.10999584730863e+17
19431.0	7.078433028833281e+17
19432.0	7.048542278036136e+17
19433.0	7.015350474375168e+17
19434.0	6.98001069842978e+17
19435.0	6.942649693678248e+17
19436.0	6.903265381143894e+17
19437.0	6.862376437547007e+17
19438.0	6.809158171667113e+17
19439.0	6.771658833876311e+17
19440.0	6.722501695154858e+17
19441.0	6.669947570749436e+17
19442.0	6.613837295910915e+17
19443.0	6.553776812982271e+17
19444.0	6.489569197293564e+17
19445.0	6.420735165726721e+17
19446.0	6.346653399252991e+17
19447.0	6.266589043228668e+17
19448.0	6.179135410580142e+17
19449.0	6.0815628056221e+17
19450.0	5.964728249614327e+17
19451.0	5.897489155271341e+17
19452.0	6.026170767594836e+17
19453.0	6.128898439905284e+17
19454.0	6.218540644302843e+17
19455.0	6.299701532601002e+17
19456.0	6.374222699255126e+17
19457.0	6.443158240668326e+17
19458.0	6.502201026063026e+17
19459.0	6.566537031494317e+17
19460.0	6.622269541449724e+17
19461.0	6.673955704973994e+17
19462.0	6.722465454970199e+17
19463.0	6.767808339072339e+17
19464.0	6.810226155410772e+17
19465.0	6.850369128060246e+17
19466.0	6.88765939307861e+17
19467.0	6.923058175890771e+17
19468.0	6.956601862083926e+17
19469.0	6.988076338730322e+17
19470.0	7.017741613531136e+17
19471.0	7.045831155428012e+17
19472.0	7.072603752977747e+17
19473.0	7.098119538518697e+17
19474.0	7.122078029316096e+17
19475.0	7.14431255491379e+17
19476.0	7.165876811158867e+17
19477.0	7.187236427311786e+17
19478.0	7.207149736995497e+17
19479.0	7.225933924663293e+17
19480.0	7.243734065698132e+17
19481.0	7.260590095466493e+17
19482.0	7.277213208543232e+17
19483.0	7.292643675471871e+17
19484.0	7.306980768437587e+17
19485.0	7.320817693447506e+17
19486.0	7.334152644154708e+17
19487.0	7.347494086246399e+17
19488.0	7.360110308010666e+17
19489.0	7.37188827295471e+17
19490.0	7.383016405991423e+17
19491.0	7.394002670889642e+17
19492.0	7.404294564566358e+17
19493.0	7.414804931149823e+17
19494.0	7.424316021582505e+17
19495.0	7.433375779738964e+17
19496.0	7.441929239265276e+17
19497.0	7.450006835429375e+17
19498.0	7.458126068449279e+17
19499.0	7.447396092302666e+17
19500.0	7.476283225844394e+17
19501.0	7.483736065048575e+17
19502.0	7.494230209462272e+17
19503.0	7.503833859795625e+17
19504.0	7.51063848329762e+17
19505.0	7.517244403045715e+17
19506.0	7.527209838662999e+17
19507.0	7.53547857764898e+17
19508.0	7.541416316807849e+17
19509.0	7.547091057726803e+17
19510.0	7.556542479990783e+17
19511.0	7.543774252455244e+17
19512.0	7.564167909212154e+17
19513.0	7.566480462490272e+17
19514.0	7.575808231079923e+17
19515.0	7.58675656548898e+17
19516.0	7.591542263556778e+17
19517.0	7.5958432315037e+17
19518.0	7.601309995062606e+17
19519.0	7.607894268007763e+17
19520.0	7.61172584440354e+17
19521.0	7.615258456402602e+17
19522.0	7.618629143101437e+17
19523.0	7.624435483104595e+17
19524.0	7.628364077946196e+17
19525.0	7.631454734734676e+17
19526.0	7.634455513180841e+17
19527.0	7.637366156034047e+17
19528.0	7.641380710339923e+17
19529.0	7.645480663471442e+17
19530.0	7.648125109228883e+17
19531.0	7.650687371793747e+17
19532.0	7.653167716805289e+17
19533.0	7.655568017719296e+17
19534.0	7.658268244923731e+17
19535.0	7.662069225269928e+17
19536.0	7.664235619636564e+17
19537.0	7.666338340274173e+17
19538.0	7.668293913542655e+17
19539.0	7.670057053541715e+17
19540.0	7.671965534562986e+17
19541.0	7.673696230222506e+17
19542.0	7.676175627321343e+17
19543.0	7.67828319937058e+17
19544.0	7.679774561053357e+17
19545.0	7.681063186857983e+17
19546.0	7.68233336611362e+17
19547.0	7.683868681306113e+17
19548.0	7.685121894602068e+17
19549.0	7.686285047802538e+17
19550.0	7.6874631872512e+17
19551.0	7.68855795372305e+17
19552.0	7.6902124500637e+17
19553.0	7.691453114002089e+17
19554.0	7.69239540773683e+17
19555.0	7.693305979950419e+17
19556.0	7.694163659194365e+17
19557.0	7.694978177652054e+17
19558.0	7.695753357732522e+17
19559.0	7.696489054033239e+17
19560.0	7.697176662638591e+17
19561.0	7.697859967888042e+17
19562.0	7.69850267087667e+17
19563.0	7.699108721240744e+17
19564.0	7.702331883083094e+17
19565.0	7.703437437304832e+17
19566.0	7.704189941579773e+17
19567.0	7.704867577528317e+17
19568.0	7.705271790993407e+17
19569.0	7.706155563002542e+17
19570.0	7.711523222148436e+17
19571.0	7.71179490958814e+17
19572.0	7.712031707409066e+17
19573.0	7.712260569606825e+17
19574.0	7.712429998516906e+17
19575.0	7.712638779785216e+17
19576.0	7.716439416198482e+17
19577.0	7.717684345744042e+17
19578.0	7.717777256568147e+17
19579.0	7.717857416708093e+17
19580.0	7.717913344955735e+17
19581.0	7.717949141942271e+17
19582.0	7.717962843335336e+17
19583.0	7.720442356476582e+17
19584.0	7.721889936616105e+17
19585.0	7.721798291073705e+17
19586.0	7.721686027730943e+17
19587.0	7.721586965260969e+17
19588.0	7.721393623225684e+17
19589.0	7.721383032608084e+17
19590.0	7.721208900485119e+17
19591.0	7.722282187926185e+17
19592.0	7.724279073690964e+17
19593.0	7.724082724339711e+17
19594.0	7.723751133850281e+17
19595.0	7.723579258262867e+17
19596.0	7.72151766417408e+17
19597.0	7.72298343780625e+17
19598.0	7.722608798378666e+17
19599.0	7.72232036028689e+17
19600.0	7.721934459153066e+17
19601.0	7.722802484346883e+17
19602.0	7.723637873661268e+17
19603.0	7.722831364926122e+17
19604.0	7.722656030436009e+17
19605.0	7.722177205895167e+17
19606.0	7.721788676330836e+17
19607.0	7.721278532922025e+17
19608.0	7.72074800939008e+17
19609.0	7.720189400798548e+17
19610.0	7.719642388059475e+17
19611.0	7.719065278393e+17
19612.0	7.718475451596799e+17
19613.0	7.718674774709591e+17
19614.0	7.719171047555071e+17
19615.0	7.718538519947944e+17
19616.0	7.717727239492946e+17
19617.0	7.717227404285267e+17
19618.0	7.716374475789654e+17
19619.0	7.715638235627519e+17
19620.0	7.714958186556072e+17
19621.0	7.714436321465683e+17
19622.0	7.713710063747071e+17
19623.0	7.712967588052991e+17
19624.0	7.712210302271488e+17
19625.0	7.711437517138598e+17
19626.0	7.710641927574867e+17
19627.0	7.709774321811455e+17
19628.0	7.708483326225068e+17
19629.0	7.708925531695786e+17
19630.0	7.704219707157161e+17
19631.0	7.687885701862742e+17
19632.0	7.706254649240233e+17
19633.0	7.706112438566911e+17
19634.0	7.705433365370195e+17
19635.0	7.704610649844393e+17
19636.0	7.703783760986111e+17
19637.0	7.702764770208426e+17
19638.0	7.702050389360637e+17
19639.0	7.701162364327254e+17
19640.0	7.70024045351185e+17
19641.0	7.699199610410323e+17
19642.0	7.698458701987837e+17
19643.0	7.697537771241471e+17
19644.0	7.696584450681512e+17
19645.0	7.695593247167827e+17
19646.0	7.69473163366673e+17
19647.0	7.693782950608893e+17
19648.0	7.692825987994963e+17
19649.0	7.69186129527876e+17
19650.0	7.690891467336362e+17
19651.0	7.689914156755625e+17
19652.0	7.689286753189887e+17
19653.0	7.688854161063935e+17
19654.0	7.687866951925757e+17
19655.0	7.686861292044288e+17
19656.0	7.685850557054975e+17
19657.0	7.684836839915519e+17
19658.0	7.683815131228841e+17
19659.0	7.682787343597567e+17
19660.0	7.681754837374292e+17
19661.0	7.680716004742484e+17
19662.0	7.679669792931839e+17
19663.0	7.678585253571241e+17
19664.0	7.677501386697386e+17
19665.0	7.676507177265833e+17
19666.0	7.675443174615724e+17
