# Flux units: erg / (cm m2 s)
# Wavelength units: Angstrom
wave	flux
19000.0	7.655195054615208e+17
19001.0	7.653757505852755e+17
19002.0	7.652440158852436e+17
19003.0	7.651059943429459e+17
19004.0	7.649679536466604e+17
19005.0	7.648299585284778e+17
19006.0	7.647015746579113e+17
19007.0	7.645647525467475e+17
19008.0	7.644239852732415e+17
19009.0	7.642801905511081e+17
19010.0	7.641285568146088e+17
19011.0	7.640090624917501e+17
19012.0	7.638651875186003e+17
19013.0	7.637331018951338e+17
19014.0	7.635907195349672e+17
19015.0	7.634533996997289e+17
19016.0	7.633148319192404e+17
19017.0	7.631776709083136e+17
19018.0	7.630379832486569e+17
19019.0	7.628990420353024e+17
19020.0	7.627588525970772e+17
19021.0	7.62621425946897e+17
19022.0	7.624821484901715e+17
19023.0	7.623399249543168e+17
19024.0	7.622150029224616e+17
19025.0	7.620885559814825e+17
19026.0	7.619478992977919e+17
19027.0	7.618060799530326e+17
19028.0	7.616690180674902e+17
19029.0	7.615290780505428e+17
19030.0	7.613902008702292e+17
19031.0	7.612501562753021e+17
19032.0	7.611099701925203e+17
19033.0	7.609640534321833e+17
19034.0	7.608274126547626e+17
19035.0	7.606768800628736e+17
19036.0	7.603087423657299e+17
19037.0	7.604010701815807e+17
19038.0	7.602659105527123e+17
19039.0	7.601280955099817e+17
19040.0	7.599880056165715e+17
19041.0	7.598476895103657e+17
19042.0	7.597022613864445e+17
19043.0	7.595667582440787e+17
19044.0	7.594260618543101e+17
19045.0	7.592853679811241e+17
19046.0	7.591422544139602e+17
19047.0	7.590014284201983e+17
19048.0	7.588541310347944e+17
19049.0	7.587179733013844e+17
19050.0	7.585775242357417e+17
19051.0	7.584021278097408e+17
19052.0	7.582858301057706e+17
19053.0	7.581581173238441e+17
19054.0	7.580179516533417e+17
19055.0	7.578615744386391e+17
19056.0	7.577348652138493e+17
19057.0	7.575946557827752e+17
19058.0	7.574533808586752e+17
19059.0	7.573127511583402e+17
19060.0	7.571709315339603e+17
19061.0	7.57030637797376e+17
19062.0	7.56889190347571e+17
19063.0	7.567477819047936e+17
19064.0	7.566014246027263e+17
19065.0	7.56454516728354e+17
19066.0	7.56320151081233e+17
19067.0	7.561829026889727e+17
19068.0	7.56041553106261e+17
19069.0	7.559001603222185e+17
19070.0	7.557574452139348e+17
19071.0	7.556172637448872e+17
19072.0	7.55475777847296e+17
19073.0	7.553340847510868e+17
19074.0	7.551927418792617e+17
19075.0	7.550511364440061e+17
19076.0	7.549087120009897e+17
19077.0	7.547669515162963e+17
19078.0	7.546250685579263e+17
19079.0	7.544845047081642e+17
19080.0	7.543419418531156e+17
19081.0	7.541983656542207e+17
19082.0	7.54057549726788e+17
19083.0	7.539099853040297e+17
19084.0	7.537605527382697e+17
19085.0	7.536336059760637e+17
19086.0	7.53467352014302e+17
19087.0	7.533463541732692e+17
19088.0	7.532020380991488e+17
19089.0	7.530524303512915e+17
19090.0	7.529215732394666e+17
19091.0	7.52780705861905e+17
19092.0	7.526366751402666e+17
19093.0	7.524984682097321e+17
19094.0	7.523566316683263e+17
19095.0	7.522146720940032e+17
19096.0	7.520720959569919e+17
19097.0	7.519304828321791e+17
19098.0	7.517886935465983e+17
19099.0	7.516466010128384e+17
19100.0	7.515044510171135e+17
19101.0	7.513617398235135e+17
19102.0	7.512155016396799e+17
19103.0	7.510778697482241e+17
19104.0	7.509356635488253e+17
19105.0	7.507932396650496e+17
19106.0	7.506502822658047e+17
19107.0	7.505076255981565e+17
19108.0	7.503646128340991e+17
19109.0	7.502097796825087e+17
19110.0	7.500770863043926e+17
19111.0	7.499388786748074e+17
19112.0	7.497971335692287e+17
19113.0	7.496549189812224e+17
19114.0	7.49512460284723e+17
19115.0	7.49367877313058e+17
19116.0	7.49225980793105e+17
19117.0	7.490834328977407e+17
19118.0	7.489348004653736e+17
19119.0	7.486250010629458e+17
19120.0	7.4865292911575e+17
19121.0	7.48512952188928e+17
19122.0	7.48372407493154e+17
19123.0	7.482298969270956e+17
19124.0	7.480853054270121e+17
19125.0	7.479437050249215e+17
19126.0	7.477966436390228e+17
19127.0	7.475757591472808e+17
19128.0	7.475082564381353e+17
19129.0	7.473675367000745e+17
19130.0	7.472299589151402e+17
19131.0	7.470882990937427e+17
19132.0	7.46945323938611e+17
19133.0	7.467987602767872e+17
19134.0	7.46658423199061e+17
19135.0	7.465169016498857e+17
19136.0	7.463738979734868e+17
19137.0	7.462243411165183e+17
19138.0	7.460871796861612e+17
19139.0	7.459454941396991e+17
19140.0	7.458027225481215e+17
19141.0	7.456597282390015e+17
19142.0	7.455151195422717e+17
19143.0	7.453712163274752e+17
19144.0	7.452277270904832e+17
19145.0	7.450872497831936e+17
19146.0	7.44908021441058e+17
19147.0	7.447973242514088e+17
19148.0	7.446575278194687e+17
19149.0	7.445143464443901e+17
19150.0	7.443709297688573e+17
19151.0	7.442277416828927e+17
19152.0	7.440842247634943e+17
19153.0	7.439392293519357e+17
19154.0	7.437917948127914e+17
19155.0	7.436531385324884e+17
19156.0	7.435096336367615e+17
19157.0	7.433642762567679e+17
19158.0	7.432156783575037e+17
19159.0	7.430768322150399e+17
19160.0	7.429347010936832e+17
19161.0	7.427892965976745e+17
19162.0	7.426256963720531e+17
19163.0	7.424976660813138e+17
19164.0	7.423496844651177e+17
19165.0	7.422056001961983e+17
19166.0	7.420566582241961e+17
19167.0	7.419163039498239e+17
19168.0	7.417739288597844e+17
19169.0	7.416303509831679e+17
19170.0	7.414868532177578e+17
19171.0	7.41342317781538e+17
19172.0	7.411988039379625e+17
19173.0	7.410548111048703e+17
19174.0	7.40908245066274e+17
19175.0	7.407664726977194e+17
19176.0	7.406224347059539e+17
19177.0	7.404689716936703e+17
19178.0	7.403328540857684e+17
19179.0	7.401881539532116e+17
19180.0	7.400444109608275e+17
19181.0	7.398950968142505e+17
19182.0	7.397545203815764e+17
19183.0	7.396111828385791e+17
19184.0	7.3946622867101e+17
19185.0	7.393215341308585e+17
19186.0	7.391768588845055e+17
19187.0	7.390272680536744e+17
19188.0	7.388868449927165e+17
19189.0	7.3874201917085e+17
19190.0	7.385966890538326e+17
19191.0	7.38449366782225e+17
19192.0	7.383059770900479e+17
19193.0	7.381601889550335e+17
19194.0	7.380133217654099e+17
19195.0	7.378673286687402e+17
19196.0	7.37718908747776e+17
19197.0	7.375677265980074e+17
19198.0	7.374025765770578e+17
19199.0	7.371256652715347e+17
19200.0	7.370017863630847e+17
19201.0	7.369681319668394e+17
19202.0	7.368399059419135e+17
19203.0	7.366994150730408e+17
19204.0	7.365546086847827e+17
19205.0	7.364098050927274e+17
19206.0	7.362645947929939e+17
19207.0	7.361121514160127e+17
19208.0	7.359635630238378e+17
19209.0	7.358258690566825e+17
19210.0	7.356803766201002e+17
19211.0	7.355336752452947e+17
19212.0	7.353866563616765e+17
19213.0	7.352343337806506e+17
19214.0	7.350869383883433e+17
19215.0	7.349446927624872e+17
19216.0	7.347978824755881e+17
19217.0	7.346482761258323e+17
19218.0	7.344667962813097e+17
19219.0	7.343421173792765e+17
19220.0	7.342057727197183e+17
19221.0	7.340471311400957e+17
19222.0	7.339096590516223e+17
19223.0	7.337644213491028e+17
19224.0	7.336065649431892e+17
19225.0	7.334445393990996e+17
19226.0	7.333004988907519e+17
19227.0	7.331520550622548e+17
19228.0	7.330053346732713e+17
19229.0	7.328564215021568e+17
19230.0	7.327073727152127e+17
19231.0	7.32557514847027e+17
19232.0	7.324086721402195e+17
19233.0	7.322555656437757e+17
19234.0	7.321093935901353e+17
19235.0	7.319592243647828e+17
19236.0	7.31810718880017e+17
19237.0	7.316600583618557e+17
19238.0	7.314993207487145e+17
19239.0	7.313538160088403e+17
19240.0	7.312028146335743e+17
19241.0	7.310510236106752e+17
19242.0	7.309007317718355e+17
19243.0	7.307400888101545e+17
19244.0	7.305995646664703e+17
19245.0	7.304480718585856e+17
19246.0	7.302958077181951e+17
19247.0	7.301443832774653e+17
19248.0	7.299924664254463e+17
19249.0	7.298400739393535e+17
19250.0	7.296863799607293e+17
19251.0	7.295288035945129e+17
19252.0	7.293629342504275e+17
19253.0	7.292273216367274e+17
19254.0	7.290751574605823e+17
19255.0	7.289000143705428e+17
19256.0	7.287397509933738e+17
19257.0	7.285869752877055e+17
19258.0	7.284324920808787e+17
19259.0	7.282728648398164e+17
19260.0	7.281175359214931e+17
19261.0	7.279670245807444e+17
19262.0	7.278085148420778e+17
19263.0	7.276501556789247e+17
19264.0	7.274740621595986e+17
19265.0	7.273329737422164e+17
19266.0	7.271781165432832e+17
19267.0	7.270298968304297e+17
19268.0	7.268726709682173e+17
19269.0	7.267148510527487e+17
19270.0	7.265551399256063e+17
19271.0	7.26382825054754e+17
19272.0	7.262366132950355e+17
19273.0	7.26049802350319e+17
19274.0	7.258871296251219e+17
19275.0	7.257537311845034e+17
19276.0	7.255624039530493e+17
19277.0	7.25401920934161e+17
19278.0	7.252409288665769e+17
19279.0	7.250785732307625e+17
19280.0	7.249145331624617e+17
19281.0	7.247536951656447e+17
19282.0	7.245917888795987e+17
19283.0	7.244271115567101e+17
19284.0	7.242608624883028e+17
19285.0	7.240936114006697e+17
19286.0	7.239319149696339e+17
19287.0	7.237677445982889e+17
19288.0	7.23524143756083e+17
19289.0	7.232861643997181e+17
19290.0	7.23246072026453e+17
19291.0	7.230382238509738e+17
19292.0	7.228869840994301e+17
19293.0	7.227187786678271e+17
19294.0	7.225495301128191e+17
19295.0	7.223809520872106e+17
19296.0	7.221965001588735e+17
19297.0	7.220248513434964e+17
19298.0	7.218526551714474e+17
19299.0	7.216820528349181e+17
19300.0	7.215095316043092e+17
19301.0	7.213366553957716e+17
19302.0	7.211100525297663e+17
19303.0	7.209211090610858e+17
19304.0	7.20749390200832e+17
19305.0	7.205743470750377e+17
19306.0	7.203988249597268e+17
19307.0	7.202197354490538e+17
19308.0	7.200428809431721e+17
19309.0	7.198610352155305e+17
19310.0	7.196794124850516e+17
19311.0	7.19469549645551e+17
19312.0	7.192442987435348e+17
19313.0	7.19062395973359e+17
19314.0	7.187044702879743e+17
19315.0	7.185340325079724e+17
19316.0	7.185098407411711e+17
19317.0	7.183250039155369e+17
19318.0	7.181379252344148e+17
19319.0	7.179395027785044e+17
19320.0	7.177125962448893e+17
19321.0	7.17520691597585e+17
19322.0	7.172932614750207e+17
19323.0	7.171019764662271e+17
19324.0	7.169093463441405e+17
19325.0	7.167126979390122e+17
19326.0	7.165183531854505e+17
19327.0	7.163208178248361e+17
19328.0	7.161224560465236e+17
19329.0	7.159222557649577e+17
19330.0	7.157191718993919e+17
19331.0	7.155145599090684e+17
19332.0	7.153114756240723e+17
19333.0	7.151038698793642e+17
19334.0	7.148945381785599e+17
19335.0	7.146837180590762e+17
19336.0	7.144710977443155e+17
19337.0	7.142365890347005e+17
19338.0	7.139805695574015e+17
19339.0	7.137752164335615e+17
19340.0	7.135525476848982e+17
19341.0	7.133311644904106e+17
19342.0	7.130956863373311e+17
19343.0	7.128851912764074e+17
19344.0	7.1265681421981e+17
19345.0	7.123442381881343e+17
19346.0	7.121468423580329e+17
19347.0	7.119632958401194e+17
19348.0	7.117082372778665e+17
19349.0	7.114230690654889e+17
19350.0	7.111843812911786e+17
19351.0	7.109430842403497e+17
19352.0	7.10697207009553e+17
19353.0	7.104554657819305e+17
19354.0	7.102076549769897e+17
19355.0	7.099523194508628e+17
19356.0	7.097022119848617e+17
19357.0	7.093737951854591e+17
19358.0	7.090771110920191e+17
19359.0	7.088083322623316e+17
19360.0	7.085376655764138e+17
19361.0	7.08263439044881e+17
19362.0	7.079686071560874e+17
19363.0	7.076869160217258e+17
19364.0	7.07354324771362e+17
19365.0	7.069798314453674e+17
19366.0	7.066857722871807e+17
19367.0	7.063871743328255e+17
19368.0	7.060838175211519e+17
19369.0	7.057729977843711e+17
19370.0	7.054209990699688e+17
19371.0	7.049775922107732e+17
19372.0	7.04657905156096e+17
19373.0	7.043282269896701e+17
19374.0	7.039937021651625e+17
19375.0	7.036478606890323e+17
19376.0	7.031732278657023e+17
19377.0	7.027397769560061e+17
19378.0	7.023338127884287e+17
19379.0	7.019654832717823e+17
19380.0	7.015894182701737e+17
19381.0	7.011245497865556e+17
19382.0	7.005939329313449e+17
19383.0	7.002035295617024e+17
19384.0	6.998113381602642e+17
19385.0	6.99409101890082e+17
19386.0	6.988166122700797e+17
19387.0	6.983214326000297e+17
19388.0	6.978341756207103e+17
19389.0	6.974100808750419e+17
19390.0	6.969414604466856e+17
19391.0	6.961855848600915e+17
19392.0	6.958813633926484e+17
19393.0	6.954147703510355e+17
19394.0	6.949223357131434e+17
19395.0	6.943051893178365e+17
19396.0	6.937701722182996e+17
19397.0	6.932369102951764e+17
19398.0	6.926864365562538e+17
19399.0	6.920959621595135e+17
19400.0	6.915347844169728e+17
19401.0	6.907836378382337e+17
19402.0	6.901505529479167e+17
19403.0	6.89509445542434e+17
19404.0	6.888384226831017e+17
19405.0	6.881428774060031e+17
19406.0	6.872751209272662e+17
19407.0	6.864657929906857e+17
19408.0	6.856748925190143e+17
19409.0	6.849139754489171e+17
19410.0	6.841065613033471e+17
19411.0	6.8308363144506e+17
19412.0	6.821623116769962e+17
19413.0	6.812789265924095e+17
19414.0	6.803238931486036e+17
19415.0	6.793610202010966e+17
19416.0	6.781241175048191e+17
19417.0	6.770236808932008e+17
19418.0	6.75935071380002e+17
19419.0	6.74797105324578e+17
19420.0	6.735412124276051e+17
19421.0	6.722708587588266e+17
19422.0	6.707809709544787e+17
19423.0	6.693041909792765e+17
19424.0	6.678565059821567e+17
19425.0	6.662745408318121e+17
19426.0	6.646619480347987e+17
19427.0	6.630137014168234e+17
19428.0	6.612497575794004e+17
19429.0	6.593594852900863e+17
19430.0	6.573155501998079e+17
19431.0	6.550724890591232e+17
19432.0	6.52836677563187e+17
19433.0	6.50424456646929e+17
19434.0	6.478597181145087e+17
19435.0	6.451514871993684e+17
19436.0	6.421868086383958e+17
19437.0	6.389695774020948e+17
19438.0	6.352854423262547e+17
19439.0	6.31744417042705e+17
19440.0	6.276427601849002e+17
19441.0	6.231765201627816e+17
19442.0	6.182209843800746e+17
19443.0	6.127069016621055e+17
19444.0	6.065267682923858e+17
19445.0	5.995237820334083e+17
19446.0	5.914813065942356e+17
19447.0	5.820633750088357e+17
19448.0	5.7075880794521645e+17
19449.0	5.5664080556741965e+17
19450.0	5.37588942311696e+17
19451.0	5.263835191574531e+17
19452.0	5.480504572772351e+17
19453.0	5.6395259151646765e+17
19454.0	5.76254705629047e+17
19455.0	5.862862793386665e+17
19456.0	5.947219413478061e+17
19457.0	6.019721354805243e+17
19458.0	6.080502278651908e+17
19459.0	6.13874771427328e+17
19460.0	6.188717938398546e+17
19461.0	6.233226459392682e+17
19462.0	6.273689647579136e+17
19463.0	6.310463802791252e+17
19464.0	6.343897447224659e+17
19465.0	6.374973043463508e+17
19466.0	6.403361566534312e+17
19467.0	6.428994601746431e+17
19468.0	6.452785460893014e+17
19469.0	6.475118869304659e+17
19470.0	6.4959856785053e+17
19471.0	6.515765225542998e+17
19472.0	6.534733151688019e+17
19473.0	6.551674275495933e+17
19474.0	6.567356183259818e+17
19475.0	6.581538472154452e+17
19476.0	6.595291994827433e+17
19477.0	6.609167525609472e+17
19478.0	6.621489549803517e+17
19479.0	6.633066625761279e+17
19480.0	6.646463832522753e+17
19481.0	6.656863013699583e+17
19482.0	6.667044061708287e+17
19483.0	6.676299384881151e+17
19484.0	6.684836668375037e+17
19485.0	6.69289239753523e+17
19486.0	6.702731200823295e+17
19487.0	6.710615617830911e+17
19488.0	6.717513985425407e+17
19489.0	6.724009045524479e+17
19490.0	6.729650332674729e+17
19491.0	6.738066065937751e+17
19492.0	6.744097163313151e+17
19493.0	6.749461342584831e+17
19494.0	6.754578173962921e+17
19495.0	6.759450215273812e+17
19496.0	6.765868586718548e+17
19497.0	6.770585004670975e+17
19498.0	6.774411194182314e+17
19499.0	6.775928826888191e+17
19500.0	6.782386047374676e+17
19501.0	6.786971480009386e+17
19502.0	6.790850384931497e+17
19503.0	6.793949168883028e+17
19504.0	6.796878777679871e+17
19505.0	6.799656865846611e+17
19506.0	6.802284591011156e+17
19507.0	6.8055520523933e+17
19508.0	6.808348601789097e+17
19509.0	6.810579297632255e+17
19510.0	6.812591629620564e+17
19511.0	6.812079698739196e+17
19512.0	6.817327463705257e+17
19513.0	6.818611382801748e+17
19514.0	6.820711814048426e+17
19515.0	6.823290480536234e+17
19516.0	6.827092417882794e+17
19517.0	6.828783869536937e+17
19518.0	6.830165733321385e+17
19519.0	6.831454783449769e+17
19520.0	6.833111378340521e+17
19521.0	6.836014444882602e+17
19522.0	6.837120103262889e+17
19523.0	6.838215264698367e+17
19524.0	6.839366980730879e+17
19525.0	6.840597811822591e+17
19526.0	6.843212324929533e+17
19527.0	6.844190133933395e+17
19528.0	6.844939250608809e+17
19529.0	6.845607149480617e+17
19530.0	6.846215884199252e+17
19531.0	6.847252351942656e+17
19532.0	6.848812800802815e+17
19533.0	6.849267282302292e+17
19534.0	6.84967032066321e+17
19535.0	6.850019792169642e+17
19536.0	6.850315155057322e+17
19537.0	6.85080212214033e+17
19538.0	6.851970530104659e+17
19539.0	6.852015054738772e+17
19540.0	6.852365081990484e+17
19541.0	6.852669724076713e+17
19542.0	6.852739136312659e+17
19543.0	6.852773230411775e+17
19544.0	6.852764105703423e+17
19545.0	6.853179036314282e+17
19546.0	6.853213728101715e+17
19547.0	6.85347193295121e+17
19548.0	6.853321876832255e+17
19549.0	6.85308550193698e+17
19550.0	6.852942740411732e+17
19551.0	6.852717760042323e+17
19552.0	6.852468024890708e+17
19553.0	6.852186345919827e+17
19554.0	6.852548979851263e+17
19555.0	6.852248443988649e+17
19556.0	6.8519237007005e+17
19557.0	6.851567836375721e+17
19558.0	6.851194360168447e+17
19559.0	6.850802399663444e+17
19560.0	6.850373323063295e+17
19561.0	6.849942673599145e+17
19562.0	6.849511102087167e+17
19563.0	6.849043806988969e+17
19564.0	6.848559308952916e+17
19565.0	6.848345714021716e+17
19566.0	6.847964790128639e+17
19567.0	6.847445001218729e+17
19568.0	6.846880391277225e+17
19569.0	6.846329888178175e+17
19570.0	6.84575443316463e+17
19571.0	6.845150304490835e+17
19572.0	6.844507338659155e+17
19573.0	6.843882431403348e+17
19574.0	6.843182147611305e+17
19575.0	6.842578228652713e+17
19576.0	6.841901471410857e+17
19577.0	6.841207815318185e+17
19578.0	6.84049101365794e+17
19579.0	6.839778014134271e+17
19580.0	6.839052934316032e+17
19581.0	6.838479927377919e+17
19582.0	6.837926562365439e+17
19583.0	6.837523438720339e+17
19584.0	6.836778112297642e+17
19585.0	6.835947370971135e+17
19586.0	6.835139740259668e+17
19587.0	6.834405490294783e+17
19588.0	6.833401689189033e+17
19589.0	6.83277069390097e+17
19590.0	6.831922470715391e+17
19591.0	6.831765860996436e+17
19592.0	6.831000104818004e+17
19593.0	6.830130132768084e+17
19594.0	6.829133968790867e+17
19595.0	6.828388513742847e+17
19596.0	6.82744461009442e+17
19597.0	6.826624367110826e+17
19598.0	6.825576254581417e+17
19599.0	6.824837035065343e+17
19600.0	6.824124736689492e+17
19601.0	6.823542675647146e+17
19602.0	6.822610221050537e+17
19603.0	6.821545215961769e+17
19604.0	6.820763963228159e+17
19605.0	6.819713750750548e+17
19606.0	6.818937168374441e+17
19607.0	6.817996293013503e+17
19608.0	6.817049949678249e+17
19609.0	6.816193395905875e+17
19610.0	6.815257558603091e+17
19611.0	6.814289325894313e+17
19612.0	6.813506972155904e+17
19613.0	6.812765902951763e+17
19614.0	6.811764928806911e+17
19615.0	6.810801187498666e+17
19616.0	6.809791859698345e+17
19617.0	6.808802505872723e+17
19618.0	6.807506288377855e+17
19619.0	6.806424021630975e+17
19620.0	6.805485492284074e+17
19621.0	6.804771987346772e+17
19622.0	6.803767470413139e+17
19623.0	6.802748336330068e+17
19624.0	6.80172305130018e+17
19625.0	6.800692354919081e+17
19626.0	6.799655693538644e+17
19627.0	6.79868512600064e+17
19628.0	6.798004962284884e+17
19629.0	6.797007496675327e+17
19630.0	6.795541084809897e+17
19631.0	6.793386635122004e+17
19632.0	6.793834505699327e+17
19633.0	6.792858563160746e+17
19634.0	6.79184053567488e+17
19635.0	6.790757943170387e+17
19636.0	6.789718235327145e+17
19637.0	6.788406868705279e+17
19638.0	6.787569669548714e+17
19639.0	6.78648649753122e+17
19640.0	6.785342880699734e+17
19641.0	6.78398144806912e+17
19642.0	6.783243718929065e+17
19643.0	6.782150073035434e+17
19644.0	6.781018507837437e+17
19645.0	6.779849319732564e+17
19646.0	6.778875172356095e+17
19647.0	6.777912910938111e+17
19648.0	6.776899153952765e+17
19649.0	6.7757959296669e+17
19650.0	6.774692360050004e+17
19651.0	6.773585502098772e+17
19652.0	6.772476366640468e+17
19653.0	6.771364389541204e+17
19654.0	6.770251791684948e+17
19655.0	6.76913415716864e+17
19656.0	6.768016268896937e+17
19657.0	6.766900366628179e+17
19658.0	6.765779494808234e+17
19659.0	6.764656171417599e+17
19660.0	6.763532319544659e+17
19661.0	6.762405826658303e+17
19662.0	6.761276245366099e+17
19663.0	6.76012694245649e+17
19664.0	6.759010340438016e+17
19665.0	6.757883469365247e+17
