# Flux units: erg / (cm m2 s)
# Wavelength units: Angstrom
wave	flux
19000.0	5.2523790933251405e+17
19001.0	5.2512972914469536e+17
19002.0	5.250494597431294e+17
19003.0	5.2495492698166605e+17
19004.0	5.2486078680705696e+17
19005.0	5.247640372161193e+17
19006.0	5.246707854650025e+17
19007.0	5.245777389551615e+17
19008.0	5.24476792054306e+17
19009.0	5.2436699580115616e+17
19010.0	5.242423888314366e+17
19011.0	5.241952587655849e+17
19012.0	5.24082486583842e+17
19013.0	5.240129917900115e+17
19014.0	5.239132731211775e+17
19015.0	5.238190248733353e+17
19016.0	5.2372572936164685e+17
19017.0	5.2363699711290016e+17
19018.0	5.235419474034688e+17
19019.0	5.234490990744917e+17
19020.0	5.233543577862143e+17
19021.0	5.232624174541483e+17
19022.0	5.2316794851601056e+17
19023.0	5.230685665099775e+17
19024.0	5.2297328464581965e+17
19025.0	5.2288473135404365e+17
19026.0	5.2278789689835514e+17
19027.0	5.2268660117121696e+17
19028.0	5.2260456149374285e+17
19029.0	5.2250924789268474e+17
19030.0	5.2241855284947616e+17
19031.0	5.223249873644202e+17
19032.0	5.2222977114111994e+17
19033.0	5.22123748712994e+17
19034.0	5.2203553124515834e+17
19035.0	5.219031135027198e+17
19036.0	5.209040558751742e+17
19037.0	5.217285883734697e+17
19038.0	5.2166096305083725e+17
19039.0	5.215737148866559e+17
19040.0	5.2148164054657696e+17
19041.0	5.2138792560448845e+17
19042.0	5.211510487908349e+17
19043.0	5.212033988777301e+17
19044.0	5.2110864570559136e+17
19045.0	5.210147309748223e+17
19046.0	5.2091526004954445e+17
19047.0	5.2082304967420576e+17
19048.0	5.206938994343935e+17
19049.0	5.2035447272680064e+17
19050.0	5.2053564338121376e+17
19051.0	5.2031952536644243e+17
19052.0	5.2030940514003616e+17
19053.0	5.2026635557273594e+17
19054.0	5.2017571931968845e+17
19055.0	5.200120705799511e+17
19056.0	5.1997455336953165e+17
19057.0	5.198969824433492e+17
19058.0	5.1966135776924986e+17
19059.0	5.1965629825023994e+17
19060.0	5.196166004910762e+17
19061.0	5.19525275673122e+17
19062.0	5.194319308783615e+17
19063.0	5.193386156534442e+17
19064.0	5.192333965743445e+17
19065.0	5.191322888918356e+17
19066.0	5.1900160528438605e+17
19067.0	5.1896603625826976e+17
19068.0	5.1887468837164365e+17
19069.0	5.1878184647393274e+17
19070.0	5.186855243524777e+17
19071.0	5.185947899527167e+17
19072.0	5.1844959608067405e+17
19073.0	5.1840967728168954e+17
19074.0	5.1831768256348154e+17
19075.0	5.182248133328896e+17
19076.0	5.1813023310588576e+17
19077.0	5.1803638094015136e+17
19078.0	5.179409154353834e+17
19079.0	5.1785344944701434e+17
19080.0	5.1775945921877325e+17
19081.0	5.176617415125673e+17
19082.0	5.1757186561693e+17
19083.0	5.174713597471403e+17
19084.0	5.1736442065387514e+17
19085.0	5.172947576684543e+17
19086.0	5.170869763222185e+17
19087.0	5.169796466693459e+17
19088.0	5.169328630530046e+17
19089.0	5.1689740608471046e+17
19090.0	5.168279695917055e+17
19091.0	5.167291051627862e+17
19092.0	5.165303709302786e+17
19093.0	5.1655661161458336e+17
19094.0	5.164647009222656e+17
19095.0	5.1637276597288954e+17
19096.0	5.16278947361587e+17
19097.0	5.161875373293567e+17
19098.0	5.1603728302953805e+17
19099.0	5.15932826964241e+17
19100.0	5.159067236433919e+17
19101.0	5.158157988921343e+17
19102.0	5.157114896973823e+17
19103.0	5.1563304341995514e+17
19104.0	5.155417801883647e+17
19105.0	5.1532202025943066e+17
19106.0	5.1535338973866656e+17
19107.0	5.152305166243156e+17
19108.0	5.151200938819583e+17
19109.0	5.150433769160704e+17
19110.0	5.1497634977109325e+17
19111.0	5.1485883578886816e+17
19112.0	5.147604567108265e+17
19113.0	5.147114367614975e+17
19114.0	5.1459445335872845e+17
19115.0	5.145156200169471e+17
19116.0	5.1443196448385696e+17
19117.0	5.1433731630912845e+17
19118.0	5.1421627358904314e+17
19119.0	5.128961083659588e+17
19120.0	5.1404490760956576e+17
19121.0	5.139666312713557e+17
19122.0	5.138832032093526e+17
19123.0	5.137920557405524e+17
19124.0	5.1369459654328314e+17
19125.0	5.1360654558931616e+17
19126.0	5.1350419772101965e+17
19127.0	5.132254199502164e+17
19128.0	5.133166873062058e+17
19129.0	5.1322967660953594e+17
19130.0	5.1314814737885856e+17
19131.0	5.1305823170723834e+17
19132.0	5.129665556862293e+17
19133.0	5.128700859951785e+17
19134.0	5.127830722226857e+17
19135.0	5.126916460423849e+17
19136.0	5.125994971835051e+17
19137.0	5.124928692376917e+17
19138.0	5.1241438255513594e+17
19139.0	5.1232590692788896e+17
19140.0	5.122348578854228e+17
19141.0	5.121432629542911e+17
19142.0	5.1204848189003085e+17
19143.0	5.119543570945364e+17
19144.0	5.1186331846792525e+17
19145.0	5.117768232512171e+17
19146.0	5.116053909318315e+17
19147.0	5.115851804682921e+17
19148.0	5.114566012130646e+17
19149.0	5.113568751342932e+17
19150.0	5.113200764081492e+17
19151.0	5.112283636170751e+17
19152.0	5.1113634275437216e+17
19153.0	5.109457993684307e+17
19154.0	5.109342237185366e+17
19155.0	5.1086148106540365e+17
19156.0	5.1077051793626445e+17
19157.0	5.1064310043333965e+17
19158.0	5.105002169237504e+17
19159.0	5.104913917586089e+17
19160.0	5.104030997020672e+17
19161.0	5.1030828501346976e+17
19162.0	5.101648623261012e+17
19163.0	5.101143159996415e+17
19164.0	5.1003883579419296e+17
19165.0	5.0984295138153786e+17
19166.0	5.098424484844885e+17
19167.0	5.0976240767249056e+17
19168.0	5.096759311204352e+17
19169.0	5.095859305141588e+17
19170.0	5.094957156488532e+17
19171.0	5.0940201175176525e+17
19172.0	5.093130479075327e+17
19173.0	5.092234080114004e+17
19174.0	5.091265960651434e+17
19175.0	5.0904131558877875e+17
19176.0	5.089509345591294e+17
19177.0	5.088406026933588e+17
19178.0	5.0876558351182496e+17
19179.0	5.086740644276906e+17
19180.0	5.085860790446762e+17
19181.0	5.0847969646564685e+17
19182.0	5.084020954103807e+17
19183.0	5.0831602290961056e+17
19184.0	5.0822534492323834e+17
19185.0	5.0813332475958605e+17
19186.0	5.080439459588778e+17
19187.0	5.079459792508244e+17
19188.0	5.078621125345279e+17
19189.0	5.077715454175913e+17
19190.0	5.0768063730373965e+17
19191.0	5.0758591502964045e+17
19192.0	5.0749848539190605e+17
19193.0	5.073940477116415e+17
19194.0	5.0729313289721165e+17
19195.0	5.0722158680910496e+17
19196.0	5.071240637186047e+17
19197.0	5.0702238106692256e+17
19198.0	5.068823587018068e+17
19199.0	5.06393032532514e+17
19200.0	5.0636658779531936e+17
19201.0	5.0661763758161914e+17
19202.0	5.065724441657343e+17
19203.0	5.0649215288388256e+17
19204.0	5.0640600530507085e+17
19205.0	5.063193998480724e+17
19206.0	5.0623014953287674e+17
19207.0	5.0612467606923936e+17
19208.0	5.0602588608921594e+17
19209.0	5.0596128597824845e+17
19210.0	5.058719568800426e+17
19211.0	5.0578379260996256e+17
19212.0	5.056927045604693e+17
19213.0	5.0558890483384314e+17
19214.0	5.0549811485955405e+17
19215.0	5.054201965051902e+17
19216.0	5.05331956388113e+17
19217.0	5.052362253839019e+17
19218.0	5.050706676766035e+17
19219.0	5.050369847590911e+17
19220.0	5.049672473946794e+17
19221.0	5.0485265642291194e+17
19222.0	5.0478645429753165e+17
19223.0	5.0470013006861645e+17
19224.0	5.046066542717609e+17
19225.0	5.045097469050879e+17
19226.0	5.044306458269013e+17
19227.0	5.043420394771796e+17
19228.0	5.042552131900756e+17
19229.0	5.041652363515219e+17
19230.0	5.0407468531275085e+17
19231.0	5.0398413322540365e+17
19232.0	5.038947850431147e+17
19233.0	5.0379782874289485e+17
19234.0	5.037143835541502e+17
19235.0	5.036225516448426e+17
19236.0	5.035367069646847e+17
19237.0	5.034450917610836e+17
19238.0	5.033456425063764e+17
19239.0	5.0326804501626874e+17
19240.0	5.0317825153870496e+17
19241.0	5.0308649764345165e+17
19242.0	5.0299746438348794e+17
19243.0	5.02890798059793e+17
19244.0	5.0282039002617165e+17
19245.0	5.0272986436293965e+17
19246.0	5.026396515947861e+17
19247.0	5.025503287181311e+17
19248.0	5.024622549751125e+17
19249.0	5.0236945404177056e+17
19250.0	5.022608380657662e+17
19251.0	5.021631381853523e+17
19252.0	5.020680343693994e+17
19253.0	5.020114463577427e+17
19254.0	5.0192562069176314e+17
19255.0	5.018121975540393e+17
19256.0	5.0174491574490445e+17
19257.0	5.016571483258879e+17
19258.0	5.0156795840866976e+17
19259.0	5.0146873998049254e+17
19260.0	5.0135993651909965e+17
19261.0	5.0129754848406176e+17
19262.0	5.012010289506987e+17
19263.0	5.011052422321493e+17
19264.0	5.009669990907902e+17
19265.0	5.0091412967915514e+17
19266.0	5.0081056224706554e+17
19267.0	5.007638488154111e+17
19268.0	5.006744314271061e+17
19269.0	5.005854339585364e+17
19270.0	5.00492746760738e+17
19271.0	5.0036936592588794e+17
19272.0	5.0031370863028896e+17
19273.0	5.002015356048725e+17
19274.0	5.000890842873855e+17
19275.0	5.000517671452671e+17
19276.0	4.999603755679743e+17
19277.0	4.9987216474111994e+17
19278.0	4.997809449205759e+17
19279.0	4.9969114004848634e+17
19280.0	4.9959696541067936e+17
19281.0	4.995140958202538e+17
19282.0	4.9942725925710496e+17
19283.0	4.9933504014363296e+17
19284.0	4.9924212176977914e+17
19285.0	4.9914586766595405e+17
19286.0	4.990629503303679e+17
19287.0	4.98971939246353e+17
19288.0	4.9857310273918266e+17
19289.0	4.981813688664056e+17
19290.0	4.987033279791104e+17
19291.0	4.985941678620673e+17
19292.0	4.985385186055509e+17
19293.0	4.9845032175970976e+17
19294.0	4.98360129683456e+17
19295.0	4.9827402292920314e+17
19296.0	4.981229124321281e+17
19297.0	4.980836671684608e+17
19298.0	4.9800410660427085e+17
19299.0	4.978495160232619e+17
19300.0	4.9782819399925754e+17
19301.0	4.977413205262336e+17
19302.0	4.976510283459242e+17
19303.0	4.975546477139285e+17
19304.0	4.974724433401172e+17
19305.0	4.9738414233572685e+17
19306.0	4.972961171068244e+17
19307.0	4.9720122132834976e+17
19308.0	4.9711405047917216e+17
19309.0	4.970119850273449e+17
19310.0	4.969165984453973e+17
19311.0	4.9684120883691514e+17
19312.0	4.9675615869774496e+17
19313.0	4.966531978319189e+17
19314.0	4.938463468060649e+17
19315.0	4.940136494836436e+17
19316.0	4.963056094281728e+17
19317.0	4.963129462445396e+17
19318.0	4.9622966365498016e+17
19319.0	4.9614483525468154e+17
19320.0	4.960327450667689e+17
19321.0	4.959129287611732e+17
19322.0	4.958722695277226e+17
19323.0	4.9578597787456845e+17
19324.0	4.956990321197054e+17
19325.0	4.95604564230144e+17
19326.0	4.955241053858474e+17
19327.0	4.9543664394130765e+17
19328.0	4.9523680828456966e+17
19329.0	4.9526266798626125e+17
19330.0	4.951708581669546e+17
19331.0	4.9507931391699616e+17
19332.0	4.9499758727441056e+17
19333.0	4.9490725182286496e+17
19334.0	4.948183341858816e+17
19335.0	4.945011096769879e+17
19336.0	4.946414245948075e+17
19337.0	4.945544807972864e+17
19338.0	4.944402682216447e+17
19339.0	4.943766339190783e+17
19340.0	4.942579711868927e+17
19341.0	4.941022383570945e+17
19342.0	4.9404901788221434e+17
19343.0	4.940186023275178e+17
19344.0	4.9384046576271366e+17
19345.0	4.935794367485267e+17
19346.0	4.936154501611519e+17
19347.0	4.9354832570832205e+17
19348.0	4.9357686997428896e+17
19349.0	4.934859152337578e+17
19350.0	4.933580489403051e+17
19351.0	4.933071030364842e+17
19352.0	4.931023357870076e+17
19353.0	4.931364279287808e+17
19354.0	4.930484331085824e+17
19355.0	4.929473168277502e+17
19356.0	4.9287063062009165e+17
19357.0	4.927820028095146e+17
19358.0	4.9269240709338445e+17
19359.0	4.925751417634814e+17
19360.0	4.924198074624681e+17
19361.0	4.9242235585167354e+17
19362.0	4.9233706237296634e+17
19363.0	4.9224812865781754e+17
19364.0	4.921588858224639e+17
19365.0	4.920689512764756e+17
19366.0	4.919801179450025e+17
19367.0	4.918909083145556e+17
19368.0	4.9180144821425485e+17
19369.0	4.917068022764883e+17
19370.0	4.916187650239145e+17
19371.0	4.9152559555106125e+17
19372.0	4.914413997916159e+17
19373.0	4.9134939829261645e+17
19374.0	4.9126078900688205e+17
19375.0	4.911709266728276e+17
19376.0	4.910810709797545e+17
19377.0	4.9098939202273274e+17
19378.0	4.9089907768251725e+17
19379.0	4.90808746704896e+17
19380.0	4.907175579921066e+17
19381.0	4.906259028727125e+17
19382.0	4.905255521921706e+17
19383.0	4.904332401049598e+17
19384.0	4.9034792663340365e+17
19385.0	4.9025733379140256e+17
19386.0	4.901654420433577e+17
19387.0	4.900724276898474e+17
19388.0	4.899785349791743e+17
19389.0	4.8988219936604154e+17
19390.0	4.897726240129023e+17
19391.0	4.888365612662773e+17
19392.0	4.895163616854014e+17
19393.0	4.895005862789119e+17
19394.0	4.8941000056722765e+17
19395.0	4.892823339925504e+17
19396.0	4.892123393075882e+17
19397.0	4.891243952384682e+17
19398.0	4.8899231220148896e+17
19399.0	4.8880766446906016e+17
19400.0	4.8878406277092685e+17
19401.0	4.887288953001302e+17
19402.0	4.8863100401964365e+17
19403.0	4.8852788558779725e+17
19404.0	4.884277372824234e+17
19405.0	4.883215703605247e+17
19406.0	4.8821742208723616e+17
19407.0	4.880682890646868e+17
19408.0	4.8791144229765114e+17
19409.0	4.878815926943743e+17
19410.0	4.877821070191274e+17
19411.0	4.876697764975956e+17
19412.0	4.87552652865263e+17
19413.0	4.873920295469056e+17
19414.0	4.8730801036765856e+17
19415.0	4.8718542798847994e+17
19416.0	4.87035657990963e+17
19417.0	4.8691679540019194e+17
19418.0	4.867883596600661e+17
19419.0	4.866447155833515e+17
19420.0	4.8649538382069754e+17
19421.0	4.863405328433151e+17
19422.0	4.8616771116072954e+17
19423.0	4.8599773384540154e+17
19424.0	4.858164056948736e+17
19425.0	4.856105693872128e+17
19426.0	4.854058655416319e+17
19427.0	4.8519200063706445e+17
19428.0	4.8496384769611085e+17
19429.0	4.8470956088579405e+17
19430.0	4.8439358592996685e+17
19431.0	4.839946447050069e+17
19432.0	4.838160921351509e+17
19433.0	4.834605976780798e+17
19434.0	4.8305050631536634e+17
19435.0	4.825434629865471e+17
19436.0	4.8195866418216954e+17
19437.0	4.8136899690932896e+17
19438.0	4.7891499674064224e+17
19439.0	4.796313861008042e+17
19440.0	4.789226073751552e+17
19441.0	4.778510708462932e+17
19442.0	4.76541173698833e+17
19443.0	4.74958564233489e+17
19444.0	4.729408619981481e+17
19445.0	4.7036441646421344e+17
19446.0	4.670961241205417e+17
19447.0	4.62650533425971e+17
19448.0	4.563422064672771e+17
19449.0	4.459164928922965e+17
19450.0	4.217730555882137e+17
19451.0	4.0216288552113754e+17
19452.0	4.369562383766867e+17
19453.0	4.517215314728282e+17
19454.0	4.594143092626769e+17
19455.0	4.6444986348776115e+17
19456.0	4.680428910804992e+17
19457.0	4.706909833658364e+17
19458.0	4.6384528881965786e+17
19459.0	4.739987764062906e+17
19460.0	4.756943181359785e+17
19461.0	4.7673588804048205e+17
19462.0	4.775553169096704e+17
19463.0	4.7827023441865376e+17
19464.0	4.7885774651828896e+17
19465.0	4.793649467140778e+17
19466.0	4.7976836563817805e+17
19467.0	4.801058352835242e+17
19468.0	4.803666980634623e+17
19469.0	4.80464229053235e+17
19470.0	4.807337799843839e+17
19471.0	4.8087695003484154e+17
19472.0	4.8098243733968205e+17
19473.0	4.810660799403348e+17
19474.0	4.810522246862163e+17
19475.0	4.810707038808746e+17
19476.0	4.812076450403668e+17
19477.0	4.812500340047872e+17
19478.0	4.8127222921297914e+17
19479.0	4.812052119945214e+17
19480.0	4.8127435320852474e+17
19481.0	4.8126245529627296e+17
19482.0	4.8124542131896314e+17
19483.0	4.812256845321557e+17
19484.0	4.8119106481684474e+17
19485.0	4.811461758375253e+17
19486.0	4.8102525293472454e+17
19487.0	4.810663662714879e+17
19488.0	4.8101631326508365e+17
19489.0	4.809249620929193e+17
19490.0	4.807472483139583e+17
19491.0	4.808470355596628e+17
19492.0	4.8079687434021536e+17
19493.0	4.8073603456259405e+17
19494.0	4.8067154049761274e+17
19495.0	4.806036207348393e+17
19496.0	4.804802754816682e+17
19497.0	4.804518554370047e+17
19498.0	4.8016445893072205e+17
19499.0	4.789583671721979e+17
19500.0	4.8023441202216954e+17
19501.0	4.801871680110591e+17
19502.0	4.8011934604547405e+17
19503.0	4.8004879142092794e+17
19504.0	4.7997539683314336e+17
19505.0	4.7989932236472314e+17
19506.0	4.798265650315263e+17
19507.0	4.797469040836606e+17
19508.0	4.7967206854273696e+17
19509.0	4.7958663937829536e+17
19510.0	4.794364130405033e+17
19511.0	4.7522634789464384e+17
19512.0	4.790329870559911e+17
19513.0	4.7883178167937645e+17
19514.0	4.788668980701863e+17
19515.0	4.7907056438476806e+17
19516.0	4.7903608399025485e+17
19517.0	4.7896555383248205e+17
19518.0	4.7887375589703674e+17
19519.0	4.7879421623446176e+17
19520.0	4.786569430958079e+17
19521.0	4.7866223987261434e+17
19522.0	4.785659692711934e+17
19523.0	4.7848122930080416e+17
19524.0	4.783593210860885e+17
19525.0	4.783382833659904e+17
19526.0	4.782607608141141e+17
19527.0	4.7817760489253536e+17
19528.0	4.780912973709311e+17
19529.0	4.7800632384771405e+17
19530.0	4.7793596195143674e+17
19531.0	4.778548888513194e+17
19532.0	4.7777334787659085e+17
19533.0	4.7769240563875834e+17
19534.0	4.776109254814378e+17
19535.0	4.775266949092692e+17
19536.0	4.7744179898067616e+17
19537.0	4.7736251167539194e+17
19538.0	4.7718250619863046e+17
19539.0	4.771399085675862e+17
19540.0	4.7711331535202976e+17
19541.0	4.770181025540778e+17
19542.0	4.7694564427475616e+17
19543.0	4.767885480864426e+17
19544.0	4.7678096939854496e+17
19545.0	4.766339369533439e+17
19546.0	4.765213974156628e+17
19547.0	4.7653899783372794e+17
19548.0	4.764598573290837e+17
19549.0	4.763657918130857e+17
19550.0	4.762956415194453e+17
19551.0	4.762136093218132e+17
19552.0	4.761309192475989e+17
19553.0	4.760453630656511e+17
19554.0	4.7596077164352845e+17
19555.0	4.7587246784293536e+17
19556.0	4.7579408385092256e+17
19557.0	4.757168895732394e+17
19558.0	4.75635014242577e+17
19559.0	4.755529325521578e+17
19560.0	4.754383623421951e+17
19561.0	4.753843203429716e+17
19562.0	4.752753572883113e+17
19563.0	4.752225754677247e+17
19564.0	4.7513962863220045e+17
19565.0	4.750567390489258e+17
19566.0	4.749711179950761e+17
19567.0	4.7489128864590496e+17
19568.0	4.74806262903603e+17
19569.0	4.7472355717065376e+17
19570.0	4.7464268770399565e+17
19571.0	4.7455986886464845e+17
19572.0	4.7447352030877005e+17
19573.0	4.743848013419861e+17
19574.0	4.742981653364734e+17
19575.0	4.742303575616169e+17
19576.0	4.7414229989676365e+17
19577.0	4.740480670280362e+17
19578.0	4.7397750017010336e+17
19579.0	4.7389602875091616e+17
19580.0	4.738135469238953e+17
19581.0	4.7373255043973114e+17
19582.0	4.7365164958569805e+17
19583.0	4.735689571347113e+17
19584.0	4.7348566308072096e+17
19585.0	4.7338854460074656e+17
19586.0	4.733020132431187e+17
19587.0	4.732325705285632e+17
19588.0	4.731019371129513e+17
19589.0	4.7306605959577594e+17
19590.0	4.729720649635157e+17
19591.0	4.7290585549810336e+17
19592.0	4.728242584595114e+17
19593.0	4.727322027840851e+17
19594.0	4.726198781345791e+17
19595.0	4.725739176503978e+17
19596.0	4.7248943010720416e+17
19597.0	4.724089141504681e+17
19598.0	4.722567248784042e+17
19599.0	4.722436455006207e+17
19600.0	4.7216318274164045e+17
19601.0	4.7207271293255674e+17
19602.0	4.7198573124648954e+17
19603.0	4.718668298584063e+17
19604.0	4.718234666270719e+17
19605.0	4.717154663748949e+17
19606.0	4.716672213232297e+17
19607.0	4.715861803794432e+17
19608.0	4.71502211392034e+17
19609.0	4.714155655998121e+17
19610.0	4.712999922521429e+17
19611.0	4.71198174543872e+17
19612.0	4.711745709583017e+17
19613.0	4.710908311896063e+17
19614.0	4.7100472758108154e+17
19615.0	4.7092606173183994e+17
19616.0	4.707980813533184e+17
19617.0	4.70698428465152e+17
19618.0	4.7059649429503994e+17
19619.0	4.7048906768383994e+17
19620.0	4.704154691130708e+17
19621.0	4.7034566638742176e+17
19622.0	4.703494974646955e+17
19623.0	4.702636244729855e+17
19624.0	4.701725333476692e+17
19625.0	4.7010289496883194e+17
19626.0	4.700185652712789e+17
19627.0	4.6993447171304096e+17
19628.0	4.69839150911761e+17
19629.0	4.695465021581993e+17
19630.0	4.695465763973801e+17
19631.0	4.6917054054618445e+17
19632.0	4.6949170672216723e+17
19633.0	4.694298136150014e+17
19634.0	4.693603200794623e+17
19635.0	4.6926747790213094e+17
19636.0	4.691056096444414e+17
19637.0	4.689884505003348e+17
19638.0	4.690282250851668e+17
19639.0	4.68952375501346e+17
19640.0	4.688479020296875e+17
19641.0	4.686118577853785e+17
19642.0	4.6869933488865274e+17
19643.0	4.6861808248203936e+17
19644.0	4.6853329211009696e+17
19645.0	4.684319820524201e+17
19646.0	4.682807945898665e+17
19647.0	4.682976600260607e+17
19648.0	4.6821717650527565e+17
19649.0	4.681351190020095e+17
19650.0	4.6805391783581005e+17
19651.0	4.679715907087017e+17
19652.0	4.678897051019945e+17
19653.0	4.678082952691711e+17
19654.0	4.677260801299796e+17
19655.0	4.676435304251391e+17
