# Flux units: erg / (cm m2 s)
# Wavelength units: Angstrom
wave	flux
19000.0	7.261798092767232e+17
19001.0	7.260391679721471e+17
19002.0	7.259135545791828e+17
19003.0	7.257801594940074e+17
19004.0	7.256467736363007e+17
19005.0	7.255136007094271e+17
19006.0	7.253801446670335e+17
19007.0	7.252449345667071e+17
19008.0	7.251088359729833e+17
19009.0	7.249723565364563e+17
19010.0	7.248130623231316e+17
19011.0	7.247092369413462e+17
19012.0	7.245606109402451e+17
19013.0	7.24443722818082e+17
19014.0	7.243056166906536e+17
19015.0	7.241734677331968e+17
19016.0	7.240392177090557e+17
19017.0	7.23908648046865e+17
19018.0	7.237734872995156e+17
19019.0	7.236401663137108e+17
19020.0	7.235049311873705e+17
19021.0	7.23383275959091e+17
19022.0	7.232567669424127e+17
19023.0	7.231192814321661e+17
19024.0	7.229861357682688e+17
19025.0	7.228526470103037e+17
19026.0	7.227158791454719e+17
19027.0	7.225716647133183e+17
19028.0	7.224498667388927e+17
19029.0	7.223153727460691e+17
19030.0	7.221822272219817e+17
19031.0	7.220477156130815e+17
19032.0	7.219130875423402e+17
19033.0	7.217713694201172e+17
19034.0	7.216414063940948e+17
19035.0	7.214951141037395e+17
19036.0	7.205027841398097e+17
19037.0	7.212307404117331e+17
19038.0	7.211025261308585e+17
19039.0	7.20970875876147e+17
19040.0	7.20836573003776e+17
19041.0	7.207020552432297e+17
19042.0	7.205590897349972e+17
19043.0	7.204328137818111e+17
19044.0	7.20297154052096e+17
19045.0	7.201632697712637e+17
19046.0	7.200249252675583e+17
19047.0	7.198919086484138e+17
19048.0	7.197442975290708e+17
19049.0	7.196157155475455e+17
19050.0	7.194842764061353e+17
19051.0	7.192142192923986e+17
19052.0	7.191879730156884e+17
19053.0	7.190830815816361e+17
19054.0	7.189495292100607e+17
19055.0	7.187950908822867e+17
19056.0	7.186781819284138e+17
19057.0	7.185444349411327e+17
19058.0	7.184079097866921e+17
19059.0	7.182745567843667e+17
19060.0	7.181387119460351e+17
19061.0	7.180052922542761e+17
19062.0	7.178699532490068e+17
19063.0	7.177349913116671e+17
19064.0	7.175914929870163e+17
19065.0	7.174514277001898e+17
19066.0	7.173248869466111e+17
19067.0	7.171950954676224e+17
19068.0	7.170600573337599e+17
19069.0	7.169250431074304e+17
19070.0	7.167881812901887e+17
19071.0	7.166549022474239e+17
19072.0	7.165193142403071e+17
19073.0	7.163843755114496e+17
19074.0	7.162496182561449e+17
19075.0	7.161144814163283e+17
19076.0	7.159779674466986e+17
19077.0	7.158431370706943e+17
19078.0	7.157072572798291e+17
19079.0	7.155738100454739e+17
19080.0	7.15437569544465e+17
19081.0	7.153002938892288e+17
19082.0	7.151653740347391e+17
19083.0	7.150242197667839e+17
19084.0	7.1487957499904e+17
19085.0	7.147621516836863e+17
19086.0	7.145950026574505e+17
19087.0	7.144712864879956e+17
19088.0	7.143450475844948e+17
19089.0	7.141963519579475e+17
19090.0	7.1408175560349e+17
19091.0	7.139482521654612e+17
19092.0	7.138065248157696e+17
19093.0	7.136804304759465e+17
19094.0	7.135456433012735e+17
19095.0	7.134105166675968e+17
19096.0	7.132743683014655e+17
19097.0	7.131400444575744e+17
19098.0	7.130044841328639e+17
19099.0	7.128691301679104e+17
19100.0	7.127326907170815e+17
19101.0	7.125990058054998e+17
19102.0	7.124571239656105e+17
19103.0	7.123286949363711e+17
19104.0	7.121933426491391e+17
19105.0	7.120563243843583e+17
19106.0	7.119188917223423e+17
19107.0	7.117850717541716e+17
19108.0	7.116490028001961e+17
19109.0	7.114518302468778e+17
19110.0	7.113717182016169e+17
19111.0	7.112449403300521e+17
19112.0	7.111103388232361e+17
19113.0	7.109757086553428e+17
19114.0	7.108402878611455e+17
19115.0	7.1070006654621e+17
19116.0	7.105678873897642e+17
19117.0	7.104323376906239e+17
19118.0	7.102888922142036e+17
19119.0	7.098943668923045e+17
19120.0	7.100188254535679e+17
19121.0	7.098870356683433e+17
19122.0	7.097577586906454e+17
19123.0	7.096224767279104e+17
19124.0	7.094816750611113e+17
19125.0	7.093510838681599e+17
19126.0	7.092139508192595e+17
19127.0	7.089589038612479e+17
19128.0	7.089318619250687e+17
19129.0	7.088032557563901e+17
19130.0	7.086735544549375e+17
19131.0	7.08539329876241e+17
19132.0	7.084037203383635e+17
19133.0	7.082612008244564e+17
19134.0	7.081268571275263e+17
19135.0	7.079973201029802e+17
19136.0	7.078622762369023e+17
19137.0	7.077159783541416e+17
19138.0	7.075902325609811e+17
19139.0	7.074560750911487e+17
19140.0	7.073208121425919e+17
19141.0	7.071853604503551e+17
19142.0	7.070479680536573e+17
19143.0	7.0691068065437e+17
19144.0	7.067758439869097e+17
19145.0	7.066433452244991e+17
19146.0	7.064631466000383e+17
19147.0	7.063665274519551e+17
19148.0	7.06235854749696e+17
19149.0	7.061003249035945e+17
19150.0	7.05965093691938e+17
19151.0	7.058299382573738e+17
19152.0	7.056931449470975e+17
19153.0	7.055559854740819e+17
19154.0	7.054140470110889e+17
19155.0	7.052866841739263e+17
19156.0	7.051502326994259e+17
19157.0	7.050087715482281e+17
19158.0	7.048410730681684e+17
19159.0	7.047388707422207e+17
19160.0	7.046061482835968e+17
19161.0	7.0446760357178e+17
19162.0	7.042358475838803e+17
19163.0	7.041870007194964e+17
19164.0	7.040641161407145e+17
19165.0	7.039267289169919e+17
19166.0	7.037839950741504e+17
19167.0	7.036484866889044e+17
19168.0	7.035205282605738e+17
19169.0	7.033847318664532e+17
19170.0	7.032504317203795e+17
19171.0	7.031104518575444e+17
19172.0	7.029784176842067e+17
19173.0	7.028432198172671e+17
19174.0	7.027038205160106e+17
19175.0	7.025717757171027e+17
19176.0	7.024358089643348e+17
19177.0	7.022880736236884e+17
19178.0	7.0215982921373e+17
19179.0	7.020205495899476e+17
19180.0	7.018897428796756e+17
19181.0	7.0174737198394e+17
19182.0	7.016180820738047e+17
19183.0	7.01483178926626e+17
19184.0	7.01346377437457e+17
19185.0	7.012103838411433e+17
19186.0	7.010743422200489e+17
19187.0	7.009323857215487e+17
19188.0	7.008014538812074e+17
19189.0	7.006648475669844e+17
19190.0	7.005237491531775e+17
19191.0	7.003433219391487e+17
19192.0	7.002099485245437e+17
19193.0	7.000727024391508e+17
19194.0	6.999345487063722e+17
19195.0	6.997975687495679e+17
19196.0	6.996573117830484e+17
19197.0	6.995136593177258e+17
19198.0	6.993476681990141e+17
19199.0	6.98606020740164e+17
19200.0	6.986078110089216e+17
19201.0	6.989421173101908e+17
19202.0	6.988313856573439e+17
19203.0	6.986994221580287e+17
19204.0	6.985654120480767e+17
19205.0	6.984305488865961e+17
19206.0	6.982944506423977e+17
19207.0	6.981509937015465e+17
19208.0	6.980072242850473e+17
19209.0	6.978839573954559e+17
19210.0	6.977472374854995e+17
19211.0	6.976106852777983e+17
19212.0	6.974730333934931e+17
19213.0	6.973251052546729e+17
19214.0	6.971850828895572e+17
19215.0	6.970577975072084e+17
19216.0	6.969230324225363e+17
19217.0	6.967846226974036e+17
19218.0	6.96591952519714e+17
19219.0	6.964966308795731e+17
19220.0	6.96370307600657e+17
19221.0	6.962131808638292e+17
19222.0	6.960948449378301e+17
19223.0	6.959568387746473e+17
19224.0	6.958166158518953e+17
19225.0	6.956725958257321e+17
19226.0	6.955420254644905e+17
19227.0	6.954035269599231e+17
19228.0	6.952673235785044e+17
19229.0	6.95128649961745e+17
19230.0	6.949897611072852e+17
19231.0	6.948501508325373e+17
19232.0	6.947116900068009e+17
19233.0	6.945679861612543e+17
19234.0	6.944327600526675e+17
19235.0	6.942934115723946e+17
19236.0	6.941558062448637e+17
19237.0	6.940153477420372e+17
19238.0	6.938473525149696e+17
19239.0	6.936751693452627e+17
19240.0	6.93534343631121e+17
19241.0	6.93393646821922e+17
19242.0	6.932546561157801e+17
19243.0	6.931030042738687e+17
19244.0	6.929759278377641e+17
19245.0	6.928356599660543e+17
19246.0	6.926942495659348e+17
19247.0	6.92554642297105e+17
19248.0	6.924141161261738e+17
19249.0	6.922731745094313e+17
19250.0	6.921307839703722e+17
19251.0	6.919834043766099e+17
19252.0	6.918271823511551e+17
19253.0	6.917068446236671e+17
19254.0	6.915669125758975e+17
19255.0	6.914104088330237e+17
19256.0	6.912815744942079e+17
19257.0	6.911414839017472e+17
19258.0	6.909992007368703e+17
19259.0	6.908508928038227e+17
19260.0	6.906973262621353e+17
19261.0	6.905703251836927e+17
19262.0	6.90423843590417e+17
19263.0	6.902799057027072e+17
19264.0	6.90036147574101e+17
19265.0	6.899013283829076e+17
19266.0	6.897587261713065e+17
19267.0	6.896277692350463e+17
19268.0	6.894836826592595e+17
19269.0	6.893392559953236e+17
19270.0	6.891937964840276e+17
19271.0	6.890267499386198e+17
19272.0	6.889015490554537e+17
19273.0	6.88707682382643e+17
19274.0	6.885670882639871e+17
19275.0	6.884676483066538e+17
19276.0	6.883204088026452e+17
19277.0	6.881744248635391e+17
19278.0	6.880280958031188e+17
19279.0	6.878805961124521e+17
19280.0	6.877286970862249e+17
19281.0	6.875042145807017e+17
19282.0	6.873155642239658e+17
19283.0	6.871356304698026e+17
19284.0	6.869865857373523e+17
19285.0	6.868337141219327e+17
19286.0	6.866926686961663e+17
19287.0	6.865446045919913e+17
19288.0	6.861543789909331e+17
19289.0	6.856779080837792e+17
19290.0	6.860940754550783e+17
19291.0	6.85926283092514e+17
19292.0	6.857953067925503e+17
19293.0	6.855777490829311e+17
19294.0	6.853555973521407e+17
19295.0	6.852041671791955e+17
19296.0	6.850507164702036e+17
19297.0	6.848970388493652e+17
19298.0	6.847421919963817e+17
19299.0	6.845892534119082e+17
19300.0	6.844349940411049e+17
19301.0	6.842793808887807e+17
19302.0	6.84094802502178e+17
19303.0	6.838782115097257e+17
19304.0	6.837245616411987e+17
19305.0	6.835679568155987e+17
19306.0	6.834104015607123e+17
19307.0	6.832482854895615e+17
19308.0	6.830900132883113e+17
19309.0	6.829113068574036e+17
19310.0	6.827418241903273e+17
19311.0	6.826059541162665e+17
19312.0	6.824500725983913e+17
19313.0	6.822880852224682e+17
19314.0	6.814376763850748e+17
19315.0	6.813307848971615e+17
19316.0	6.817939940442111e+17
19317.0	6.815687663506772e+17
19318.0	6.813965456419498e+17
19319.0	6.812319812856489e+17
19320.0	6.810646537218729e+17
19321.0	6.808964464028329e+17
19322.0	6.807212521422847e+17
19323.0	6.805507834642431e+17
19324.0	6.803868037939199e+17
19325.0	6.802023908027049e+17
19326.0	6.800444359704575e+17
19327.0	6.798729129842004e+17
19328.0	6.796995201772202e+17
19329.0	6.795260568360275e+17
19330.0	6.793474498101247e+17
19331.0	6.791692208308223e+17
19332.0	6.789943209405097e+17
19333.0	6.788149834765652e+17
19334.0	6.785903015318868e+17
19335.0	6.783359659278333e+17
19336.0	6.78154458960145e+17
19337.0	6.779693917973161e+17
19338.0	6.777682090000383e+17
19339.0	6.775957058049364e+17
19340.0	6.77401556226321e+17
19341.0	6.772130747602259e+17
19342.0	6.76998149255987e+17
19343.0	6.768301328476841e+17
19344.0	6.76633498353664e+17
19345.0	6.762234866128212e+17
19346.0	6.760110739161087e+17
19347.0	6.75865697521937e+17
19348.0	6.756653084267859e+17
19349.0	6.754555135350099e+17
19350.0	6.752496264762708e+17
19351.0	6.750417232155987e+17
19352.0	6.748273855430655e+17
19353.0	6.743991147386195e+17
19354.0	6.741756958386857e+17
19355.0	6.739507884501673e+17
19356.0	6.737374151879338e+17
19357.0	6.735148039711401e+17
19358.0	6.732889592954879e+17
19359.0	6.728010689762641e+17
19360.0	6.72521459405073e+17
19361.0	6.722876682709674e+17
19362.0	6.720519539785727e+17
19363.0	6.718105729717588e+17
19364.0	6.71360504369425e+17
19365.0	6.709325537301844e+17
19366.0	6.70678656430899e+17
19367.0	6.704202720651946e+17
19368.0	6.70042166185165e+17
19369.0	6.694145147360595e+17
19370.0	6.691417841729535e+17
19371.0	6.688673408658089e+17
19372.0	6.681543652496728e+17
19373.0	6.677307866131114e+17
19374.0	6.674391193965908e+17
19375.0	6.666647725146111e+17
19376.0	6.661587360983722e+17
19377.0	6.658203095225682e+17
19378.0	6.651061794242557e+17
19379.0	6.647797166112767e+17
19380.0	6.644487289132372e+17
19381.0	6.641124402440872e+17
19382.0	6.637653040562175e+17
19383.0	6.634171512389632e+17
19384.0	6.630707568836605e+17
19385.0	6.627113765437439e+17
19386.0	6.623432643619497e+17
19387.0	6.619677129528659e+17
19388.0	6.615244059880106e+17
19389.0	6.611332938508969e+17
19390.0	6.607367387654825e+17
19391.0	6.596511488715424e+17
19392.0	6.599142441396905e+17
19393.0	6.595265497311912e+17
19394.0	6.590391881039872e+17
19395.0	6.585717327134719e+17
19396.0	6.581413899927551e+17
19397.0	6.577072824647679e+17
19398.0	6.572620963119104e+17
19399.0	6.566222015496191e+17
19400.0	6.5614673622685e+17
19401.0	6.556660009009151e+17
19402.0	6.55067005705694e+17
19403.0	6.544018975140521e+17
19404.0	6.538749535409492e+17
19405.0	6.530930535563263e+17
19406.0	6.524288436447914e+17
19407.0	6.516511290163199e+17
19408.0	6.507680796857684e+17
19409.0	6.499139614758223e+17
19410.0	6.489915245548884e+17
19411.0	6.47770625575048e+17
19412.0	6.466818108904782e+17
19413.0	6.453976225895763e+17
19414.0	6.437502620882262e+17
19415.0	6.421130829802153e+17
19416.0	6.405852193183059e+17
19417.0	6.393552279961599e+17
19418.0	6.383560134317396e+17
19419.0	6.373163756333738e+17
19420.0	6.362516233912319e+17
19421.0	6.351630169538559e+17
19422.0	6.340492572054867e+17
19423.0	6.329006895573672e+17
19424.0	6.316750619191978e+17
19425.0	6.304254203527167e+17
19426.0	6.291259850577235e+17
19427.0	6.277410237797718e+17
19428.0	6.262879423212202e+17
19429.0	6.247997039968253e+17
19430.0	6.230782648167084e+17
19431.0	6.212485431077546e+17
19432.0	6.193639439641257e+17
19433.0	6.17309165339716e+17
19434.0	6.150641759376727e+17
19435.0	6.125067014504443e+17
19436.0	6.09600456884224e+17
19437.0	6.064264752835241e+17
19438.0	6.01991233335023e+17
19439.0	5.988716889767937e+17
19440.0	5.946661453605548e+17
19441.0	5.8999869290141e+17
19442.0	5.848210270584835e+17
19443.0	5.792710961834666e+17
19444.0	5.729268826199378e+17
19445.0	5.6547919325211334e+17
19446.0	5.5657319163931296e+17
19447.0	5.456616221223589e+17
19448.0	5.3178815437865024e+17
19449.0	5.131525020450815e+17
19450.0	4.8544978263080736e+17
19451.0	4.698274820784137e+17
19452.0	5.00914828659917e+17
19453.0	5.231852124110855e+17
19454.0	5.38819131325371e+17
19455.0	5.508132588836181e+17
19456.0	5.6040892759627117e+17
19457.0	5.682664240229031e+17
19458.0	5.7381316862498304e+17
19459.0	5.805464845549572e+17
19460.0	5.85744055446186e+17
19461.0	5.903868667887619e+17
19462.0	5.945866369455441e+17
19463.0	5.984286783395156e+17
19464.0	6.019676099663192e+17
19465.0	6.051224194733399e+17
19466.0	6.078970074933928e+17
19467.0	6.103725785481216e+17
19468.0	6.124950328268115e+17
19469.0	6.144695676349097e+17
19470.0	6.162124816515072e+17
19471.0	6.178425584047446e+17
19472.0	6.193278860918784e+17
19473.0	6.20669417169442e+17
19474.0	6.218854288763564e+17
19475.0	6.230524713151146e+17
19476.0	6.2417670780573e+17
19477.0	6.252141450625024e+17
19478.0	6.262088438295209e+17
19479.0	6.271611711083859e+17
19480.0	6.280416614940671e+17
19481.0	6.289007084306431e+17
19482.0	6.297345107602089e+17
19483.0	6.305453949932884e+17
19484.0	6.31323063694131e+17
19485.0	6.320735897255939e+17
19486.0	6.333252843339777e+17
19487.0	6.348267700180306e+17
19488.0	6.360770779895121e+17
19489.0	6.37143144027478e+17
19490.0	6.381244916258131e+17
19491.0	6.39137735997304e+17
19492.0	6.397458261213183e+17
19493.0	6.406363905261565e+17
19494.0	6.410571973569194e+17
19495.0	6.417669315450196e+17
19496.0	6.420702500487167e+17
19497.0	6.42670827195597e+17
19498.0	6.4291983589376e+17
19499.0	6.422168583099725e+17
19500.0	6.437817283160746e+17
19501.0	6.440307275071487e+17
19502.0	6.442644996270761e+17
19503.0	6.44608745869585e+17
19504.0	6.44856184639761e+17
19505.0	6.450475195607722e+17
19506.0	6.452317765937833e+17
19507.0	6.45409141756177e+17
19508.0	6.456763549220863e+17
19509.0	6.458539046338559e+17
19510.0	6.459952149299199e+17
19511.0	6.44879956766446e+17
19512.0	6.4612953269207e+17
19513.0	6.461206903302821e+17
19514.0	6.463774363309394e+17
19515.0	6.467367715820884e+17
19516.0	6.468945124349268e+17
19517.0	6.470054045199017e+17
19518.0	6.471155746253482e+17
19519.0	6.472141682420394e+17
19520.0	6.473054906832212e+17
19521.0	6.473962938695679e+17
19522.0	6.474769741032105e+17
19523.0	6.475564632943273e+17
19524.0	6.478311097455956e+17
19525.0	6.480746577395711e+17
19526.0	6.481521349230591e+17
19527.0	6.487256484631895e+17
19528.0	6.488873014831786e+17
19529.0	6.489270878120617e+17
19530.0	6.49351745433327e+17
19531.0	6.495262367285247e+17
19532.0	6.495481922322431e+17
19533.0	6.496618312368128e+17
19534.0	6.500241142448128e+17
19535.0	6.500320068763647e+17
19536.0	6.500346078341802e+17
19537.0	6.500373702726996e+17
19538.0	6.503354308668073e+17
19539.0	6.503482865483776e+17
19540.0	6.50369977950754e+17
19541.0	6.503572238412457e+17
19542.0	6.503391448530943e+17
19543.0	6.504573337687378e+17
19544.0	6.505755076547923e+17
19545.0	6.505155762236073e+17
19546.0	6.504588274302973e+17
19547.0	6.504857256416596e+17
19548.0	6.504513751307603e+17
19549.0	6.50454837109282e+17
19550.0	6.505867884451156e+17
19551.0	6.505443422983508e+17
19552.0	6.504996383577428e+17
19553.0	6.504515317880148e+17
19554.0	6.504022266959188e+17
19555.0	6.503539856987476e+17
19556.0	6.503082419202729e+17
19557.0	6.503367338972499e+17
19558.0	6.503553189281791e+17
19559.0	6.502982538144426e+17
19560.0	6.502374301149865e+17
19561.0	6.501771114097324e+17
19562.0	6.501175762703699e+17
19563.0	6.500544013139967e+17
19564.0	6.499898661448362e+17
19565.0	6.499239758659583e+17
19566.0	6.498546411547305e+17
19567.0	6.497882474894676e+17
19568.0	6.497253936070653e+17
19569.0	6.497497743971668e+17
19570.0	6.496780074789545e+17
19571.0	6.496043540327082e+17
19572.0	6.495275721250131e+17
19573.0	6.494530717089791e+17
19574.0	6.493701368971263e+17
19575.0	6.492994300193449e+17
19576.0	6.492205673174356e+17
19577.0	6.491403217534976e+17
19578.0	6.490574273467732e+17
19579.0	6.489763778046634e+17
19580.0	6.488942406096212e+17
19581.0	6.488121462663849e+17
19582.0	6.487295622381568e+17
19583.0	6.486451314578771e+17
19584.0	6.485597734567935e+17
19585.0	6.484655677811369e+17
19586.0	6.483764392405674e+17
19587.0	6.483120450699263e+17
19588.0	6.482441232799059e+17
19589.0	6.481846117684563e+17
19590.0	6.480913038835711e+17
19591.0	6.480077175564969e+17
19592.0	6.479171243649706e+17
19593.0	6.478245550970198e+17
19594.0	6.477164807454719e+17
19595.0	6.476401374221652e+17
19596.0	6.475206800790867e+17
19597.0	6.474546562815316e+17
19598.0	6.473387048872617e+17
19599.0	6.472673123805865e+17
19600.0	6.471809491446441e+17
19601.0	6.471465183128234e+17
19602.0	6.470508155502591e+17
19603.0	6.469231389791572e+17
19604.0	6.468565664268287e+17
19605.0	6.467434234686122e+17
19606.0	6.466674049242452e+17
19607.0	6.465696226257578e+17
19608.0	6.464697679216639e+17
19609.0	6.463682975716691e+17
19610.0	6.463140965384191e+17
19611.0	6.462897773346815e+17
19612.0	6.461906646728703e+17
19613.0	6.46089290232627e+17
19614.0	6.459860759609343e+17
19615.0	6.458876576661503e+17
19616.0	6.457793283009193e+17
19617.0	6.456830531556692e+17
19618.0	6.455420465971199e+17
19619.0	6.454290797297661e+17
19620.0	6.45331039691298e+17
19621.0	6.452725347429033e+17
19622.0	6.451705921841834e+17
19623.0	6.450785300774911e+17
19624.0	6.450541948654931e+17
19625.0	6.449658574405631e+17
19626.0	6.448656483876863e+17
19627.0	6.447931626356735e+17
19628.0	6.446724056175956e+17
19629.0	6.445677601095679e+17
19630.0	6.443741760629418e+17
19631.0	6.436922164161193e+17
19632.0	6.442512242354857e+17
19633.0	6.441543368616617e+17
19634.0	6.440538967725395e+17
19635.0	6.439451480468138e+17
19636.0	6.438410975707133e+17
19637.0	6.437055469628074e+17
19638.0	6.436275738028714e+17
19639.0	6.435199274101417e+17
19640.0	6.434065834049535e+17
19641.0	6.432838682061484e+17
19642.0	6.432665365730643e+17
19643.0	6.431583860948991e+17
19644.0	6.430458867526313e+17
19645.0	6.429239229633875e+17
19646.0	6.428330302286506e+17
19647.0	6.427254879245652e+17
19648.0	6.426166718103551e+17
19649.0	6.425074911412221e+17
19650.0	6.423985048081748e+17
19651.0	6.422886901000873e+17
19652.0	6.421795703881727e+17
19653.0	6.420700323643391e+17
19654.0	6.419604377174015e+17
19655.0	6.418502606214484e+17
19656.0	6.417401404981247e+17
19657.0	6.416305262078633e+17
19658.0	6.415203141593769e+17
19659.0	6.414098754087593e+17
19660.0	6.412995383700137e+17
19661.0	6.411889748388521e+17
19662.0	6.410782149443583e+17
19663.0	6.409640312395091e+17
19664.0	6.408542652552531e+17
19665.0	6.407456653574144e+17
