# Flux units: erg / (cm m2 s)
# Wavelength units: Angstrom
wave	flux
19000.0	7.703170602674857e+17
19001.0	7.701184266982739e+17
19002.0	7.700419586643284e+17
19003.0	7.699010531186003e+17
19004.0	7.697627631408468e+17
19005.0	7.696203359016275e+17
19006.0	7.694819964310867e+17
19007.0	7.693418727036242e+17
19008.0	7.691702609379328e+17
19009.0	7.68996643456068e+17
19010.0	7.68674258904678e+17
19011.0	7.687668132129449e+17
19012.0	7.685794547717459e+17
19013.0	7.68502149554722e+17
19014.0	7.68325141816934e+17
19015.0	7.682006916442794e+17
19016.0	7.680607788903081e+17
19017.0	7.679348440738474e+17
19018.0	7.67796534382865e+17
19019.0	7.676565859773097e+17
19020.0	7.675100396519421e+17
19021.0	7.673820468303186e+17
19022.0	7.672402698480297e+17
19023.0	7.670750816589139e+17
19024.0	7.669484609339391e+17
19025.0	7.668164765330089e+17
19026.0	7.666641271084372e+17
19027.0	7.665196617170943e+17
19028.0	7.663949775022761e+17
19029.0	7.662443849318399e+17
19030.0	7.66120439194146e+17
19031.0	7.659827094355967e+17
19032.0	7.658390636112554e+17
19033.0	7.65638389932578e+17
19034.0	7.655661757617491e+17
19035.0	7.653896981839871e+17
19036.0	7.63611668825156e+17
19037.0	7.651299807286612e+17
19038.0	7.650019626014036e+17
19039.0	7.648752640021844e+17
19040.0	7.647374809759743e+17
19041.0	7.645921396741459e+17
19042.0	7.64395947888913e+17
19043.0	7.643114663575548e+17
19044.0	7.641640269250557e+17
19045.0	7.640277598601215e+17
19046.0	7.638494432198653e+17
19047.0	7.637249227227135e+17
19048.0	7.634877864214525e+17
19049.0	7.634086313765545e+17
19050.0	7.632800591817385e+17
19051.0	7.628747048659624e+17
19052.0	7.629543358245548e+17
19053.0	7.628860115910655e+17
19054.0	7.627412864324948e+17
19055.0	7.62443052403917e+17
19056.0	7.624449879354025e+17
19057.0	7.6231455291037e+17
19058.0	7.62166422955622e+17
19059.0	7.620303619708244e+17
19060.0	7.618800479021736e+17
19061.0	7.617491429752833e+17
19062.0	7.616024649487702e+17
19063.0	7.614608096012969e+17
19064.0	7.61246157565679e+17
19065.0	7.610601371074561e+17
19066.0	7.609923796642474e+17
19067.0	7.608822617079807e+17
19068.0	7.607467876461225e+17
19069.0	7.606049722160467e+17
19070.0	7.604445185572863e+17
19071.0	7.603150566107817e+17
19072.0	7.601749084165459e+17
19073.0	7.600286984743593e+17
19074.0	7.598907015386451e+17
19075.0	7.597471777685501e+17
19076.0	7.595932416387753e+17
19077.0	7.594513542064809e+17
19078.0	7.5929183350074e+17
19079.0	7.591711470168744e+17
19080.0	7.59019273925427e+17
19081.0	7.588556672685395e+17
19082.0	7.587196497646931e+17
19083.0	7.585205152557736e+17
19084.0	7.582989395427328e+17
19085.0	7.583001124099411e+17
19086.0	7.579130442809341e+17
19087.0	7.57984828395793e+17
19088.0	7.5781731544378e+17
19089.0	7.575964879945729e+17
19090.0	7.575649553569106e+17
19091.0	7.574279612792832e+17
19092.0	7.572564870867626e+17
19093.0	7.571556877555028e+17
19094.0	7.570137787924476e+17
19095.0	7.568726231263912e+17
19096.0	7.567204465071446e+17
19097.0	7.565827217817599e+17
19098.0	7.56436930011682e+17
19099.0	7.562921671043752e+17
19100.0	7.561471122735103e+17
19101.0	7.56004219326737e+17
19102.0	7.558098576561492e+17
19103.0	7.557148988932093e+17
19104.0	7.555754479321087e+17
19105.0	7.554253040123903e+17
19106.0	7.552792047998292e+17
19107.0	7.551281459625983e+17
19108.0	7.549887074445994e+17
19109.0	7.547285063860221e+17
19110.0	7.546826208400723e+17
19111.0	7.545603515656872e+17
19112.0	7.544188153364479e+17
19113.0	7.542742046823763e+17
19114.0	7.541271286164136e+17
19115.0	7.539558020633939e+17
19116.0	7.538253297090557e+17
19117.0	7.536787701017258e+17
19118.0	7.534878262296573e+17
19119.0	7.516208658819729e+17
19120.0	7.532281674945875e+17
19121.0	7.531035119408467e+17
19122.0	7.529723820594515e+17
19123.0	7.528259333215572e+17
19124.0	7.526689675061928e+17
19125.0	7.525302067877203e+17
19126.0	7.523642615267327e+17
19127.0	7.512924288101033e+17
19128.0	7.520348037010772e+17
19129.0	7.518962220793855e+17
19130.0	7.518008350780072e+17
19131.0	7.516654913191935e+17
19132.0	7.515186077717844e+17
19133.0	7.51322680647134e+17
19134.0	7.512129411568982e+17
19135.0	7.510839418421245e+17
19136.0	7.509398321277608e+17
19137.0	7.50711454372113e+17
19138.0	7.506398387284652e+17
19139.0	7.505053820649471e+17
19140.0	7.503613541395114e+17
19141.0	7.5021687994013e+17
19142.0	7.500544706172246e+17
19143.0	7.498938034683903e+17
19144.0	7.497511751821996e+17
19145.0	7.49631304770082e+17
19146.0	7.49115163786172e+17
19147.0	7.4929585272477e+17
19148.0	7.491935290436264e+17
19149.0	7.490457268038314e+17
19150.0	7.489007573969577e+17
19151.0	7.487548382598484e+17
19152.0	7.48609185461043e+17
19153.0	7.484494561585833e+17
19154.0	7.482515412134569e+17
19155.0	7.481697367665324e+17
19156.0	7.480223493434024e+17
19157.0	7.478617259551402e+17
19158.0	7.476608695446182e+17
19159.0	7.475678239435433e+17
19160.0	7.474284351979519e+17
19161.0	7.472780645061972e+17
19162.0	7.46950719770897e+17
19163.0	7.469625538598228e+17
19164.0	7.468522059158868e+17
19165.0	7.466993889662292e+17
19166.0	7.464995745606312e+17
19167.0	7.463960570407593e+17
19168.0	7.462589863471785e+17
19169.0	7.461146323845119e+17
19170.0	7.459759440876882e+17
19171.0	7.458203602954921e+17
19172.0	7.456782119774889e+17
19173.0	7.455366132531199e+17
19174.0	7.453577124861271e+17
19175.0	7.452410852496726e+17
19176.0	7.450928480605523e+17
19177.0	7.448123577554259e+17
19178.0	7.447495567212541e+17
19179.0	7.445966785347583e+17
19180.0	7.444529116348415e+17
19181.0	7.442539893577044e+17
19182.0	7.441548385277267e+17
19183.0	7.440190785541459e+17
19184.0	7.438657406719318e+17
19185.0	7.437146998702079e+17
19186.0	7.435749346159274e+17
19187.0	7.433766140816041e+17
19188.0	7.432772286502228e+17
19189.0	7.431297861419008e+17
19190.0	7.429808965986986e+17
19191.0	7.428127494679209e+17
19192.0	7.426843119102633e+17
19193.0	7.425297650898259e+17
19194.0	7.423704591324502e+17
19195.0	7.422266158962004e+17
19196.0	7.420592624675498e+17
19197.0	7.418950881815208e+17
19198.0	7.416582014413481e+17
19199.0	7.403607778044582e+17
19200.0	7.404536518585005e+17
19201.0	7.412257959619242e+17
19202.0	7.411562971835049e+17
19203.0	7.410252729985705e+17
19204.0	7.408731879549608e+17
19205.0	7.407334340253011e+17
19206.0	7.405845847474175e+17
19207.0	7.403759238556329e+17
19208.0	7.401873961822886e+17
19209.0	7.401388125803859e+17
19210.0	7.399916880003071e+17
19211.0	7.398511729442816e+17
19212.0	7.39697804583458e+17
19213.0	7.394468465126054e+17
19214.0	7.39274272014336e+17
19215.0	7.391823363659092e+17
19216.0	7.390351952882345e+17
19217.0	7.388668833213097e+17
19218.0	7.38297121376392e+17
19219.0	7.384602192642045e+17
19220.0	7.384117670838272e+17
19221.0	7.381128931442688e+17
19222.0	7.381078968893439e+17
19223.0	7.379617915251369e+17
19224.0	7.377928042752681e+17
19225.0	7.375956480797352e+17
19226.0	7.375037844335274e+17
19227.0	7.373528956054185e+17
19228.0	7.372175848417961e+17
19229.0	7.370644299710461e+17
19230.0	7.369076723329705e+17
19231.0	7.367506345153875e+17
19232.0	7.366011489615871e+17
19233.0	7.363997828033194e+17
19234.0	7.362354510910804e+17
19235.0	7.359956660868435e+17
19236.0	7.358659520626687e+17
19237.0	7.357015670827689e+17
19238.0	7.355028763312128e+17
19239.0	7.354040892872019e+17
19240.0	7.352372131703464e+17
19241.0	7.350753272965802e+17
19242.0	7.349282551453012e+17
19243.0	7.346710669950973e+17
19244.0	7.34628060978654e+17
19245.0	7.344687228649471e+17
19246.0	7.343072003577172e+17
19247.0	7.341518075461632e+17
19248.0	7.340029690336596e+17
19249.0	7.338450037156522e+17
19250.0	7.336652429765288e+17
19251.0	7.334153608844625e+17
19252.0	7.331351447470076e+17
19253.0	7.331538538594301e+17
19254.0	7.330082304207529e+17
19255.0	7.327268340061522e+17
19256.0	7.32676078314018e+17
19257.0	7.325320653482666e+17
19258.0	7.323740958359551e+17
19259.0	7.321644579509587e+17
19260.0	7.320131625549823e+17
19261.0	7.318842156690089e+17
19262.0	7.31693668298479e+17
19263.0	7.315231477508777e+17
19264.0	7.311172478959611e+17
19265.0	7.311362483727016e+17
19266.0	7.309936674821462e+17
19267.0	7.309235348045824e+17
19268.0	7.307562744894803e+17
19269.0	7.305922909044733e+17
19270.0	7.304217327479464e+17
19271.0	7.300847968976899e+17
19272.0	7.300730051712339e+17
19273.0	7.294839404800678e+17
19274.0	7.293643924701176e+17
19275.0	7.295439760698025e+17
19276.0	7.293480570541394e+17
19277.0	7.291832685821951e+17
19278.0	7.290196135510015e+17
19279.0	7.288348796256253e+17
19280.0	7.28636425572625e+17
19281.0	7.28507820102997e+17
19282.0	7.283479658102781e+17
19283.0	7.281668880596991e+17
19284.0	7.279709278000467e+17
19285.0	7.277529872902824e+17
19286.0	7.276363877362345e+17
19287.0	7.274889790619647e+17
19288.0	7.268235092514129e+17
19289.0	7.260728454370627e+17
19290.0	7.269710192880297e+17
19291.0	7.266407616086021e+17
19292.0	7.266295836486313e+17
19293.0	7.264528913225044e+17
19294.0	7.262723003908093e+17
19295.0	7.261030435870036e+17
19296.0	7.258608453200553e+17
19297.0	7.256052403798015e+17
19298.0	7.25424546128418e+17
19299.0	7.252612671864832e+17
19300.0	7.250806036933289e+17
19301.0	7.248971727983956e+17
19302.0	7.247063818786131e+17
19303.0	7.244875923019091e+17
19304.0	7.243281725390847e+17
19305.0	7.241487465054205e+17
19306.0	7.239667283918845e+17
19307.0	7.23753393926963e+17
19308.0	7.235740055022249e+17
19309.0	7.233565579629908e+17
19310.0	7.231367700021247e+17
19311.0	7.228239554543616e+17
19312.0	7.22630985593651e+17
19313.0	7.224441626252627e+17
19314.0	7.211520972117329e+17
19315.0	7.210379416786276e+17
19316.0	7.218510026156713e+17
19317.0	7.216546219469481e+17
19318.0	7.214543045044905e+17
19319.0	7.212637142122496e+17
19320.0	7.210616705340756e+17
19321.0	7.208552186423977e+17
19322.0	7.205009105442131e+17
19323.0	7.201917127447891e+17
19324.0	7.199968541889875e+17
19325.0	7.197711788234068e+17
19326.0	7.195780516762964e+17
19327.0	7.193635205764435e+17
19328.0	7.191563676767572e+17
19329.0	7.189421536662868e+17
19330.0	7.186464120329556e+17
19331.0	7.181761340855636e+17
19332.0	7.179819712249855e+17
19333.0	7.177479431826089e+17
19334.0	7.175296160978259e+17
19335.0	7.172988131956051e+17
19336.0	7.170701162534228e+17
19337.0	7.167158946977105e+17
19338.0	7.161086559475025e+17
19339.0	7.159903585391956e+17
19340.0	7.157131852294825e+17
19341.0	7.154839585467049e+17
19342.0	7.15052533695556e+17
19343.0	7.147500062375933e+17
19344.0	7.142440330854399e+17
19345.0	7.13032637979032e+17
19346.0	7.132578684687697e+17
19347.0	7.134548691954345e+17
19348.0	7.13049664756121e+17
19349.0	7.124177696500394e+17
19350.0	7.121575975321599e+17
19351.0	7.118819257832787e+17
19352.0	7.11591905600034e+17
19353.0	7.110718397262506e+17
19354.0	7.107768938921983e+17
19355.0	7.10442519223774e+17
19356.0	7.102139953665364e+17
19357.0	7.098584579178493e+17
19358.0	7.095667334490794e+17
19359.0	7.092582293875369e+17
19360.0	7.089680590482089e+17
19361.0	7.086851031913812e+17
19362.0	7.084090918436863e+17
19363.0	7.081115813325481e+17
19364.0	7.078076559130624e+17
19365.0	7.074932712975017e+17
19366.0	7.071479230715219e+17
19367.0	7.067328146221738e+17
19368.0	7.064080681183913e+17
19369.0	7.060475173579433e+17
19370.0	7.057028288959828e+17
19371.0	7.053750268417364e+17
19372.0	7.050633443366227e+17
19373.0	7.045837438495402e+17
19374.0	7.041648903061501e+17
19375.0	7.038059245032787e+17
19376.0	7.034395299588777e+17
19377.0	7.0306146301597e+17
19378.0	7.025635151052799e+17
19379.0	7.020378815026516e+17
19380.0	7.016453251268607e+17
19381.0	7.012422972517033e+17
19382.0	7.007128005552808e+17
19383.0	7.000194112902483e+17
19384.0	6.996399545647104e+17
19385.0	6.992045649778004e+17
19386.0	6.98437117236565e+17
19387.0	6.978512002307412e+17
19388.0	6.973761179178323e+17
19389.0	6.965489056088061e+17
19390.0	6.958407911910057e+17
19391.0	6.940951411600026e+17
19392.0	6.941810189052584e+17
19393.0	6.936030050167466e+17
19394.0	6.927425840960851e+17
19395.0	6.916915354839721e+17
19396.0	6.910278805487608e+17
19397.0	6.896102740241065e+17
19398.0	6.88950637651558e+17
19399.0	6.875262987097423e+17
19400.0	6.871036552631636e+17
19401.0	6.864656497552041e+17
19402.0	6.857834528505855e+17
19403.0	6.850747036947796e+17
19404.0	6.843719435856553e+17
19405.0	6.836160714244092e+17
19406.0	6.828443951256916e+17
19407.0	6.820710197144233e+17
19408.0	6.809704896397317e+17
19409.0	6.804329686106111e+17
19410.0	6.796127770072404e+17
19411.0	6.787500698413737e+17
19412.0	6.778609507936937e+17
19413.0	6.769117514170365e+17
19414.0	6.759425099781459e+17
19415.0	6.749712489818794e+17
19416.0	6.738859947720701e+17
19417.0	6.728636909835604e+17
19418.0	6.716899870113791e+17
19419.0	6.705495338734931e+17
19420.0	6.693746006207146e+17
19421.0	6.680746495661398e+17
19422.0	6.667522849898495e+17
19423.0	6.654305111812778e+17
19424.0	6.638357537532588e+17
19425.0	6.622951623360511e+17
19426.0	6.605866186134868e+17
19427.0	6.58739033084177e+17
19428.0	6.56867353305634e+17
19429.0	6.546813356081151e+17
19430.0	6.525489525030911e+17
19431.0	6.499216771776513e+17
19432.0	6.478377760325628e+17
19433.0	6.450605051958612e+17
19434.0	6.423401798653268e+17
19435.0	6.392582306616662e+17
19436.0	6.359101483253759e+17
19437.0	6.325966524994902e+17
19438.0	6.276572458429098e+17
19439.0	6.248566232885932e+17
19440.0	6.204539383666004e+17
19441.0	6.155809226489853e+17
19442.0	6.101176035923288e+17
19443.0	6.040320475135999e+17
19444.0	5.971858047019688e+17
19445.0	5.894057470110381e+17
19446.0	5.804307506353492e+17
19447.0	5.699288633966586e+17
19448.0	5.5732150811142874e+17
19449.0	5.415802689814528e+17
19450.0	5.2014534081467616e+17
19451.0	5.0764764882316e+17
19452.0	5.3195995502783123e+17
19453.0	5.498023422110384e+17
19454.0	5.635393808498681e+17
19455.0	5.747541044538026e+17
19456.0	5.841921080907096e+17
19457.0	5.922958243528699e+17
19458.0	5.980475553568106e+17
19459.0	6.054994367916718e+17
19460.0	6.110940996392275e+17
19461.0	6.159778199197012e+17
19462.0	6.204000319133015e+17
19463.0	6.244325585321981e+17
19464.0	6.279943544285865e+17
19465.0	6.312457705706838e+17
19466.0	6.342755289311914e+17
19467.0	6.373353268969471e+17
19468.0	6.39875974046242e+17
19469.0	6.423388157378555e+17
19470.0	6.446457675928916e+17
19471.0	6.46773917736414e+17
19472.0	6.488104647000063e+17
19473.0	6.506588813306536e+17
19474.0	6.524840835372374e+17
19475.0	6.537239158150481e+17
19476.0	6.555952025873065e+17
19477.0	6.569290987732992e+17
19478.0	6.582775661111977e+17
19479.0	6.594672362607955e+17
19480.0	6.60483439853568e+17
19481.0	6.615953491449171e+17
19482.0	6.625445297870164e+17
19483.0	6.634560757781844e+17
19484.0	6.64353786577988e+17
19485.0	6.652147021469011e+17
19486.0	6.660073134751743e+17
19487.0	6.667579895928148e+17
19488.0	6.674620070144681e+17
19489.0	6.68097869512704e+17
19490.0	6.682802635057827e+17
19491.0	6.694126522553684e+17
19492.0	6.700299295129597e+17
19493.0	6.706000114832723e+17
19494.0	6.71148672234291e+17
19495.0	6.716705729063594e+17
19496.0	6.720244832447144e+17
19497.0	6.726668053206356e+17
19498.0	6.729558793388032e+17
19499.0	6.717286083723252e+17
19500.0	6.7401092707997e+17
19501.0	6.744444035050153e+17
19502.0	6.748571884497577e+17
19503.0	6.755446403279526e+17
19504.0	6.76114404020497e+17
19505.0	6.769291972050943e+17
19506.0	6.77666924597521e+17
19507.0	6.781489122727254e+17
19508.0	6.790335676721833e+17
19509.0	6.79324180230963e+17
19510.0	6.799611424757079e+17
19511.0	6.784137802634566e+17
19512.0	6.803669893425829e+17
19513.0	6.807235254550519e+17
19514.0	6.81208922679978e+17
19515.0	6.81670331841468e+17
19516.0	6.824363099684864e+17
19517.0	6.826468605340329e+17
19518.0	6.828451702330708e+17
19519.0	6.83116137650586e+17
19520.0	6.83464699482385e+17
19521.0	6.836185336905727e+17
19522.0	6.83728004325922e+17
19523.0	6.839011564497577e+17
19524.0	6.84235448979729e+17
19525.0	6.843386687040169e+17
19526.0	6.844490896288425e+17
19527.0	6.845406614213972e+17
19528.0	6.846332973088767e+17
19529.0	6.848770952134655e+17
19530.0	6.849800822936916e+17
19531.0	6.850576860752552e+17
19532.0	6.851260419757395e+17
19533.0	6.851929241376084e+17
19534.0	6.852519906334036e+17
19535.0	6.853164556877821e+17
19536.0	6.854555043452243e+17
19537.0	6.855196559452842e+17
19538.0	6.854922460288342e+17
19539.0	6.853369621992794e+17
19540.0	6.856066853066067e+17
19541.0	6.856522478212435e+17
19542.0	6.856737427903828e+17
19543.0	6.856922281366867e+17
19544.0	6.857104593780733e+17
19545.0	6.854873289064445e+17
19546.0	6.853810672631807e+17
19547.0	6.858274433400831e+17
19548.0	6.858419431189161e+17
19549.0	6.859762653549908e+17
19550.0	6.861459614422356e+17
19551.0	6.861490290163711e+17
19552.0	6.861472527985321e+17
19553.0	6.862193816851793e+17
19554.0	6.86616767172881e+17
19555.0	6.866212491362303e+17
19556.0	6.866188533497855e+17
19557.0	6.866055045578751e+17
19558.0	6.86595832492851e+17
19559.0	6.869909062199978e+17
19560.0	6.869721608967507e+17
19561.0	6.869658722369536e+17
19562.0	6.869512584429568e+17
19563.0	6.869262991185235e+17
19564.0	6.869179356064429e+17
19565.0	6.872001651496276e+17
19566.0	6.87146924122658e+17
19567.0	6.871247108789587e+17
19568.0	6.870648843053737e+17
19569.0	6.870275203268607e+17
19570.0	6.869953851774291e+17
19571.0	6.869793026779817e+17
19572.0	6.871485659130538e+17
19573.0	6.871128344275626e+17
19574.0	6.870092474220541e+17
19575.0	6.870134986986835e+17
19576.0	6.869569640245929e+17
19577.0	6.868878186861908e+17
19578.0	6.868194016187732e+17
19579.0	6.867627793536339e+17
19580.0	6.868323669114879e+17
19581.0	6.868560678049107e+17
19582.0	6.867992200260265e+17
19583.0	6.867325593933139e+17
19584.0	6.866624453804031e+17
19585.0	6.865249769269928e+17
19586.0	6.864383971251543e+17
19587.0	6.864395703418877e+17
19588.0	6.861369486518957e+17
19589.0	6.862837925631316e+17
19590.0	6.861813783549267e+17
19591.0	6.861505422513492e+17
19592.0	6.862022657791316e+17
19593.0	6.861419459553961e+17
19594.0	6.859374163132413e+17
19595.0	6.859902972592127e+17
19596.0	6.858534733305172e+17
19597.0	6.858353674988201e+17
19598.0	6.855889032751785e+17
19599.0	6.856727991418879e+17
19600.0	6.855934543746388e+17
19601.0	6.854692093733546e+17
19602.0	6.853803754826409e+17
19603.0	6.851137064577702e+17
19604.0	6.852074372683094e+17
19605.0	6.849792479068163e+17
19606.0	6.850638231808681e+17
19607.0	6.850520305456467e+17
19608.0	6.849864385516884e+17
19609.0	6.848719055312211e+17
19610.0	6.8481050476544e+17
19611.0	6.847125675573247e+17
19612.0	6.846274045214719e+17
19613.0	6.845260495847423e+17
19614.0	6.844117667545087e+17
19615.0	6.843402802954239e+17
19616.0	6.842319850438655e+17
19617.0	6.841403980120063e+17
19618.0	6.837291163058171e+17
19619.0	6.835544238937423e+17
19620.0	6.834976790850216e+17
19621.0	6.837429377957887e+17
19622.0	6.836559550611455e+17
19623.0	6.835591466101417e+17
19624.0	6.834530284819798e+17
19625.0	6.833587487069523e+17
19626.0	6.832491255387476e+17
19627.0	6.831509794542932e+17
19628.0	6.830099687713449e+17
19629.0	6.828691474612221e+17
19630.0	6.826279226922323e+17
19631.0	6.814747211071488e+17
19632.0	6.826570388515497e+17
19633.0	6.825665432474964e+17
19634.0	6.824996305371135e+17
19635.0	6.823728014251347e+17
19636.0	6.82287112982801e+17
19637.0	6.819396108419073e+17
19638.0	6.820965325471743e+17
19639.0	6.820029140041727e+17
19640.0	6.81846236127778e+17
19641.0	6.814224328862388e+17
19642.0	6.816829485875199e+17
19643.0	6.815749765070845e+17
19644.0	6.814321370376874e+17
19645.0	6.812248854320465e+17
19646.0	6.812582935527423e+17
19647.0	6.811542256003753e+17
19648.0	6.810430745171284e+17
19649.0	6.809329107730431e+17
19650.0	6.808277358739455e+17
19651.0	6.807451322023935e+17
19652.0	6.806433807641257e+17
19653.0	6.805376366979754e+17
19654.0	6.804214618172073e+17
19655.0	6.803076570677247e+17
19656.0	6.802032712570196e+17
19657.0	6.800916643228329e+17
19658.0	6.799841680861865e+17
19659.0	6.798722000923306e+17
19660.0	6.797637041433257e+17
19661.0	6.796489590308863e+17
19662.0	6.795391887824212e+17
19663.0	6.794010801384105e+17
19664.0	6.793055557735764e+17
19665.0	6.79202849432098e+17
