# Flux units: erg / (cm m2 s)
# Wavelength units: Angstrom
wave	flux
19000.0	6.250761239396351e+17
19001.0	6.249521777126058e+17
19002.0	6.248483758189226e+17
19003.0	6.247337171790506e+17
19004.0	6.246195166270804e+17
19005.0	6.245043462122153e+17
19006.0	6.243910856736765e+17
19007.0	6.242761583187284e+17
19008.0	6.241602572561065e+17
19009.0	6.240332326895615e+17
19010.0	6.239130102355284e+17
19011.0	6.238078967829843e+17
19012.0	6.236619821897043e+17
19013.0	6.235925405936298e+17
19014.0	6.234765329257812e+17
19015.0	6.233642223271935e+17
19016.0	6.23252545278225e+17
19017.0	6.231399573662377e+17
19018.0	6.230252075002538e+17
19019.0	6.229123255675562e+17
19020.0	6.2279800338077e+17
19021.0	6.226856915238911e+17
19022.0	6.225712860102653e+17
19023.0	6.224526455078911e+17
19024.0	6.2233651970048e+17
19025.0	6.222200888972628e+17
19026.0	6.220961171548841e+17
19027.0	6.219655020543999e+17
19028.0	6.218781780432212e+17
19029.0	6.217674063347712e+17
19030.0	6.216556110064297e+17
19031.0	6.215393981672105e+17
19032.0	6.214184773615615e+17
19033.0	6.212818159621459e+17
19034.0	6.211267777090899e+17
19035.0	6.206927630849363e+17
19036.0	6.18383992300066e+17
19037.0	6.205428011281065e+17
19038.0	6.206794990179668e+17
19039.0	6.206101418672127e+17
19040.0	6.205115829933395e+17
19041.0	6.204039533778259e+17
19042.0	6.201883481167187e+17
19043.0	6.201842717425663e+17
19044.0	6.200703775845033e+17
19045.0	6.199543504131412e+17
19046.0	6.198409484566527e+17
19047.0	6.197241420535124e+17
19048.0	6.195861569317546e+17
19049.0	6.192732163451558e+17
19050.0	6.193240227883689e+17
19051.0	6.189214125959848e+17
19052.0	6.189349743187284e+17
19053.0	6.190085669475668e+17
19054.0	6.189265815164243e+17
19055.0	6.187735833029292e+17
19056.0	6.187026219007999e+17
19057.0	6.186026128463188e+17
19058.0	6.18385006412868e+17
19059.0	6.183397958003369e+17
19060.0	6.182654026885802e+17
19061.0	6.181540451057663e+17
19062.0	6.180411059208191e+17
19063.0	6.179277521289215e+17
19064.0	6.178089884538196e+17
19065.0	6.17689775149329e+17
19066.0	6.175479501422592e+17
19067.0	6.174765518334633e+17
19068.0	6.173650457023827e+17
19069.0	6.172523098013695e+17
19070.0	6.171375807670953e+17
19071.0	6.170232094370473e+17
19072.0	6.168754025835177e+17
19073.0	6.168012435139242e+17
19074.0	6.166885766092116e+17
19075.0	6.16575699779584e+17
19076.0	6.164622326016682e+17
19077.0	6.163485791966548e+17
19078.0	6.162346454024192e+17
19079.0	6.161240631366996e+17
19080.0	6.160101654134783e+17
19081.0	6.15893722796305e+17
19082.0	6.157832695753385e+17
19083.0	6.156622834783572e+17
19084.0	6.155369608904704e+17
19085.0	6.154380620682579e+17
19086.0	6.152280517290665e+17
19087.0	6.15101577245491e+17
19088.0	6.150210338160637e+17
19089.0	6.149574142634666e+17
19090.0	6.148662813349203e+17
19091.0	6.147525076232873e+17
19092.0	6.145627365485228e+17
19093.0	6.14542780469521e+17
19094.0	6.144335059178836e+17
19095.0	6.143228067009876e+17
19096.0	6.142109519533396e+17
19097.0	6.140994643471017e+17
19098.0	6.139434799289684e+17
19099.0	6.138220817416191e+17
19100.0	6.137554051006463e+17
19101.0	6.136464056254464e+17
19102.0	6.135323572568063e+17
19103.0	6.134247737786367e+17
19104.0	6.13311743926818e+17
19105.0	6.131000988576429e+17
19106.0	6.130774393399977e+17
19107.0	6.129366349469012e+17
19108.0	6.127937237549055e+17
19109.0	6.126655282085887e+17
19110.0	6.125881088365908e+17
19111.0	6.12480270484548e+17
19112.0	6.123749246675625e+17
19113.0	6.123009735655423e+17
19114.0	6.121691970622803e+17
19115.0	6.120672295474516e+17
19116.0	6.119639362830336e+17
19117.0	6.118496977726122e+17
19118.0	6.117093012755796e+17
19119.0	6.112134077349883e+17
19120.0	6.11481493246225e+17
19121.0	6.113851430928383e+17
19122.0	6.1129463169024e+17
19123.0	6.111863544741887e+17
19124.0	6.110498650412372e+17
19125.0	6.10960315322641e+17
19126.0	6.108359264567295e+17
19127.0	6.1065945677824e+17
19128.0	6.106011691646975e+17
19129.0	6.105080432427007e+17
19130.0	6.104054340692649e+17
19131.0	6.102960059361962e+17
19132.0	6.101847002229417e+17
19133.0	6.100691416252415e+17
19134.0	6.099566575921833e+17
19135.0	6.098500615230803e+17
19136.0	6.097379751100415e+17
19137.0	6.09621584781858e+17
19138.0	6.09513991377169e+17
19139.0	6.094048163703465e+17
19140.0	6.092939336526505e+17
19141.0	6.091826040318633e+17
19142.0	6.09067869405184e+17
19143.0	6.089571425757865e+17
19144.0	6.088443607471444e+17
19145.0	6.087364521405098e+17
19146.0	6.085727280431104e+17
19147.0	6.085098270446932e+17
19148.0	6.083676513938089e+17
19149.0	6.082501493653504e+17
19150.0	6.081788524189011e+17
19151.0	6.080666549267113e+17
19152.0	6.079499821121536e+17
19153.0	6.077691528041811e+17
19154.0	6.077179218274986e+17
19155.0	6.076112253048148e+17
19156.0	6.074956750258175e+17
19157.0	6.073478389519702e+17
19158.0	6.071917515636736e+17
19159.0	6.07143745098001e+17
19160.0	6.070314342197929e+17
19161.0	6.068947066202793e+17
19162.0	6.066998772148905e+17
19163.0	6.066450291403434e+17
19164.0	6.065859320960339e+17
19165.0	6.06412734673715e+17
19166.0	6.063765130138964e+17
19167.0	6.062670025326591e+17
19168.0	6.061643491093161e+17
19169.0	6.060586645323775e+17
19170.0	6.059496679931903e+17
19171.0	6.058378491068415e+17
19172.0	6.057265570250751e+17
19173.0	6.056196772812116e+17
19174.0	6.055088051890857e+17
19175.0	6.053997864899926e+17
19176.0	6.052886307231059e+17
19177.0	6.051636849235284e+17
19178.0	6.050605906788351e+17
19179.0	6.04948956062242e+17
19180.0	6.048418351458985e+17
19181.0	6.04727390834961e+17
19182.0	6.046196891473236e+17
19183.0	6.045135454339072e+17
19184.0	6.044026669804202e+17
19185.0	6.042902752919551e+17
19186.0	6.041792563991892e+17
19187.0	6.040599171257684e+17
19188.0	6.039529139994623e+17
19189.0	6.038386165590697e+17
19190.0	6.037230762065919e+17
19191.0	6.036041105757524e+17
19192.0	6.034879033289385e+17
19193.0	6.033540639271594e+17
19194.0	6.032170159527252e+17
19195.0	6.030905346883581e+17
19196.0	6.029188241468074e+17
19197.0	6.026874095053481e+17
19198.0	6.022964370385578e+17
19199.0	6.015004630668628e+17
19200.0	6.014636611949907e+17
19201.0	6.019962042144084e+17
19202.0	6.021496425502036e+17
19203.0	6.021455543620948e+17
19204.0	6.020995772405076e+17
19205.0	6.020226625830912e+17
19206.0	6.019324535898112e+17
19207.0	6.018229499592701e+17
19208.0	6.017229349628586e+17
19209.0	6.01627895669282e+17
19210.0	6.015222491906047e+17
19211.0	6.0141558314653e+17
19212.0	6.013053406194346e+17
19213.0	6.011824967254013e+17
19214.0	6.010730049088169e+17
19215.0	6.009747246765395e+17
19216.0	6.008696442191871e+17
19217.0	6.007557031548244e+17
19218.0	6.006227148472319e+17
19219.0	6.005246957103786e+17
19220.0	6.004310012504746e+17
19221.0	6.003173162483711e+17
19222.0	6.002145223857492e+17
19223.0	6.001079704267434e+17
19224.0	5.999960186508628e+17
19225.0	5.998867636027391e+17
19226.0	5.997801143358804e+17
19227.0	5.996714046171818e+17
19228.0	5.995643480834047e+17
19229.0	5.994547494518783e+17
19230.0	5.99344693781026e+17
19231.0	5.992342853692073e+17
19232.0	5.991248396200618e+17
19233.0	5.990101653913599e+17
19234.0	5.989056877253972e+17
19235.0	5.987937128109395e+17
19236.0	5.986868277542912e+17
19237.0	5.985761992813225e+17
19238.0	5.984600727049556e+17
19239.0	5.983575927859882e+17
19240.0	5.982485292777472e+17
19241.0	5.981372992716799e+17
19242.0	5.980280594628607e+17
19243.0	5.979063304847359e+17
19244.0	5.978102949041492e+17
19245.0	5.97700009665058e+17
19246.0	5.975903374234964e+17
19247.0	5.974806918856703e+17
19248.0	5.973706141248169e+17
19249.0	5.972567895922003e+17
19250.0	5.971341660389376e+17
19251.0	5.970188872013139e+17
19252.0	5.969067920501418e+17
19253.0	5.968214703996927e+17
19254.0	5.967131478851583e+17
19255.0	5.965867871371263e+17
19256.0	5.964928414384127e+17
19257.0	5.963839884842324e+17
19258.0	5.962731690306218e+17
19259.0	5.961494852272127e+17
19260.0	5.959825599670954e+17
19261.0	5.95936661348898e+17
19262.0	5.958257241751551e+17
19263.0	5.957121625554943e+17
19264.0	5.955860966670335e+17
19265.0	5.954893226792276e+17
19266.0	5.953796187007657e+17
19267.0	5.952859313012735e+17
19268.0	5.951762848546815e+17
19269.0	5.950663773825706e+17
19270.0	5.949527778743636e+17
19271.0	5.948309541748736e+17
19272.0	5.94732495544866e+17
19273.0	5.946085976222378e+17
19274.0	5.944821741693608e+17
19275.0	5.944067864483155e+17
19276.0	5.942955143593983e+17
19277.0	5.94185823592994e+17
19278.0	5.94072464138786e+17
19279.0	5.939611622004052e+17
19280.0	5.938502550858409e+17
19281.0	5.937404004619604e+17
19282.0	5.936288303677439e+17
19283.0	5.935130307373738e+17
19284.0	5.933948712517631e+17
19285.0	5.932792440771924e+17
19286.0	5.93149408907537e+17
19287.0	5.929622229920425e+17
19288.0	5.917873487391397e+17
19289.0	5.911532630878881e+17
19290.0	5.926078605776212e+17
19291.0	5.925792154386431e+17
19292.0	5.925157277270015e+17
19293.0	5.924155738292223e+17
19294.0	5.923082061479936e+17
19295.0	5.922030182465536e+17
19296.0	5.920450290210134e+17
19297.0	5.919729561283242e+17
19298.0	5.918726762616148e+17
19299.0	5.917096524731732e+17
19300.0	5.916535326856532e+17
19301.0	5.91543998226978e+17
19302.0	5.914317994764969e+17
19303.0	5.913150970920959e+17
19304.0	5.912090395716266e+17
19305.0	5.910958374038186e+17
19306.0	5.909816982284969e+17
19307.0	5.908624884192596e+17
19308.0	5.907422275174399e+17
19309.0	5.905992506845865e+17
19310.0	5.904713896340137e+17
19311.0	5.903797603095892e+17
19312.0	5.902624796704767e+17
19313.0	5.900556148495702e+17
19314.0	5.849456282959875e+17
19315.0	5.851757566143187e+17
19316.0	5.896579201018538e+17
19317.0	5.897112084545535e+17
19318.0	5.896264408716628e+17
19319.0	5.895270242626217e+17
19320.0	5.893995853687466e+17
19321.0	5.892633910749866e+17
19322.0	5.891897053325993e+17
19323.0	5.89074442293521e+17
19324.0	5.88961677381905e+17
19325.0	5.888463805087743e+17
19326.0	5.887444424938836e+17
19327.0	5.886379490454186e+17
19328.0	5.88444045602543e+17
19329.0	5.884193589777748e+17
19330.0	5.883065519134035e+17
19331.0	5.881914054060713e+17
19332.0	5.880818872352767e+17
19333.0	5.879666438395219e+17
19334.0	5.878543120596993e+17
19335.0	5.875665843432109e+17
19336.0	5.876221232895316e+17
19337.0	5.875109177502377e+17
19338.0	5.873796461013674e+17
19339.0	5.872799403649706e+17
19340.0	5.871563478575786e+17
19341.0	5.869774846995116e+17
19342.0	5.868945490487978e+17
19343.0	5.868130731556863e+17
19344.0	5.866260858404863e+17
19345.0	5.86456966889472e+17
19346.0	5.863880369984852e+17
19347.0	5.862573191375529e+17
19348.0	5.86233026707456e+17
19349.0	5.861106218172413e+17
19350.0	5.859619338103465e+17
19351.0	5.858755989558611e+17
19352.0	5.856682919854079e+17
19353.0	5.856434528277844e+17
19354.0	5.855248686688938e+17
19355.0	5.853970085270868e+17
19356.0	5.852845923718484e+17
19357.0	5.851644379354452e+17
19358.0	5.850414026413396e+17
19359.0	5.848948308705277e+17
19360.0	5.84721594650897e+17
19361.0	5.846672755479892e+17
19362.0	5.8454588274333e+17
19363.0	5.844220547257683e+17
19364.0	5.842973656875007e+17
19365.0	5.841719371235328e+17
19366.0	5.840458422943743e+17
19367.0	5.839164870230015e+17
19368.0	5.837869769818112e+17
19369.0	5.836540355805183e+17
19370.0	5.835252326290774e+17
19371.0	5.833928311745194e+17
19372.0	5.832664529502207e+17
19373.0	5.831331915934378e+17
19374.0	5.830024162006356e+17
19375.0	5.828686387347455e+17
19376.0	5.827347195712851e+17
19377.0	5.825981994500095e+17
19378.0	5.824613383318185e+17
19379.0	5.823228206033578e+17
19380.0	5.821818516537344e+17
19381.0	5.820397804410196e+17
19382.0	5.818890660260521e+17
19383.0	5.817443838590975e+17
19384.0	5.815966836806995e+17
19385.0	5.814475620526761e+17
19386.0	5.812939487444992e+17
19387.0	5.811343761691988e+17
19388.0	5.809677180862463e+17
19389.0	5.807785804212905e+17
19390.0	5.804675191625044e+17
19391.0	5.78287571321923e+17
19392.0	5.797415575617535e+17
19393.0	5.80078478172706e+17
19394.0	5.799627133550591e+17
19395.0	5.797814903417514e+17
19396.0	5.796308228330836e+17
19397.0	5.79462997475328e+17
19398.0	5.792534845106857e+17
19399.0	5.790385839625556e+17
19400.0	5.788611658820268e+17
19401.0	5.786975973933055e+17
19402.0	5.784974220678484e+17
19403.0	5.782891684429823e+17
19404.0	5.780770299139412e+17
19405.0	5.778552511965865e+17
19406.0	5.77616039903232e+17
19407.0	5.773457815328084e+17
19408.0	5.77097561084177e+17
19409.0	5.768669272823124e+17
19410.0	5.766178395215188e+17
19411.0	5.7634955107587405e+17
19412.0	5.760591125807103e+17
19413.0	5.7574553494923936e+17
19414.0	5.754794336933204e+17
19415.0	5.7516917361650336e+17
19416.0	5.748219671740415e+17
19417.0	5.7447372075390285e+17
19418.0	5.741253462676821e+17
19419.0	5.7375994416551245e+17
19420.0	5.733707769271637e+17
19421.0	5.729566592423252e+17
19422.0	5.725152423007572e+17
19423.0	5.72046231872034e+17
19424.0	5.7154399339806714e+17
19425.0	5.710215367010986e+17
19426.0	5.704808968574292e+17
19427.0	5.6990215812328096e+17
19428.0	5.6927701745445536e+17
19429.0	5.6858552058948256e+17
19430.0	5.677037983367168e+17
19431.0	5.667879514363222e+17
19432.0	5.662128449694377e+17
19433.0	5.653569587205462e+17
19434.0	5.6437181751405216e+17
19435.0	5.6320899028090854e+17
19436.0	5.619852854515028e+17
19437.0	5.605853881171966e+17
19438.0	5.5560586811583194e+17
19439.0	5.568249071315625e+17
19440.0	5.5616103528093005e+17
19441.0	5.544002413658111e+17
19442.0	5.5227027816448e+17
19443.0	5.497933136221524e+17
19444.0	5.469111952517799e+17
19445.0	5.4356074271429984e+17
19446.0	5.394673587017045e+17
19447.0	5.343970715850065e+17
19448.0	5.277457687685805e+17
19449.0	5.182831979746644e+17
19450.0	5.015168629080055e+17
19451.0	4.880135392766641e+17
19452.0	5.1145597304613523e+17
19453.0	5.232648816077486e+17
19454.0	5.308282997222055e+17
19455.0	5.3635344072267085e+17
19456.0	5.406335204065282e+17
19457.0	5.4389251062278816e+17
19458.0	5.337780076238308e+17
19459.0	5.476599264706589e+17
19460.0	5.5151722205893946e+17
19461.0	5.5341957932646394e+17
19462.0	5.5505446540847776e+17
19463.0	5.564995321113258e+17
19464.0	5.57758843925299e+17
19465.0	5.588858294326613e+17
19466.0	5.598648354209792e+17
19467.0	5.607384735023103e+17
19468.0	5.615310059077631e+17
19469.0	5.621906784911358e+17
19470.0	5.629121563809108e+17
19471.0	5.635100910463657e+17
19472.0	5.640484217159679e+17
19473.0	5.6452279596045645e+17
19474.0	5.6488074890881683e+17
19475.0	5.652840395571198e+17
19476.0	5.656608104600916e+17
19477.0	5.65985855738129e+17
19478.0	5.662926058815487e+17
19479.0	5.6651420186705894e+17
19480.0	5.668104013086719e+17
19481.0	5.6702709044783776e+17
19482.0	5.672211196499283e+17
19483.0	5.673925319065599e+17
19484.0	5.6754076413242016e+17
19485.0	5.676901396556458e+17
19486.0	5.6776101269777075e+17
19487.0	5.679283299155967e+17
19488.0	5.6801314223773005e+17
19489.0	5.6806302900988576e+17
19490.0	5.681022695899134e+17
19491.0	5.682286369090217e+17
19492.0	5.6828904942687565e+17
19493.0	5.6833151871221754e+17
19494.0	5.6836512669149856e+17
19495.0	5.683783180571988e+17
19496.0	5.6835212344033274e+17
19497.0	5.6827414671523834e+17
19498.0	5.671357029285885e+17
19499.0	5.6499935019444896e+17
19500.0	5.6814728425854285e+17
19501.0	5.683628526796799e+17
19502.0	5.6840204719226874e+17
19503.0	5.6840734998091085e+17
19504.0	5.683888461097642e+17
19505.0	5.6835954036790605e+17
19506.0	5.683282142298111e+17
19507.0	5.682852772096681e+17
19508.0	5.682302325620736e+17
19509.0	5.681361276196181e+17
19510.0	5.6779988110322323e+17
19511.0	5.601007390861959e+17
19512.0	5.6668345447656096e+17
19513.0	5.6674506167200365e+17
19514.0	5.66924480505446e+17
19515.0	5.677936732536831e+17
19516.0	5.678272285245439e+17
19517.0	5.6780434559030605e+17
19518.0	5.6774010975464096e+17
19519.0	5.676833020313599e+17
19520.0	5.675793325053268e+17
19521.0	5.6758428674730656e+17
19522.0	5.6750461943808e+17
19523.0	5.6743173229117434e+17
19524.0	5.673300354487638e+17
19525.0	5.673061546896042e+17
19526.0	5.6723593700747936e+17
19527.0	5.6716133823501645e+17
19528.0	5.670801248354303e+17
19529.0	5.670003414837929e+17
19530.0	5.669330882658303e+17
19531.0	5.668548721857876e+17
19532.0	5.667757599227903e+17
19533.0	5.666978956050431e+17
19534.0	5.666172863250432e+17
19535.0	5.6653493123590816e+17
19536.0	5.664541469136213e+17
19537.0	5.663712557924351e+17
19538.0	5.662141278672213e+17
19539.0	5.661822136178005e+17
19540.0	5.6611719896978765e+17
19541.0	5.6601979562666656e+17
19542.0	5.659429718458368e+17
19543.0	5.657962676049237e+17
19544.0	5.65770784481826e+17
19545.0	5.6565533381754874e+17
19546.0	5.655621479869098e+17
19547.0	5.655141692036435e+17
19548.0	5.654304065759915e+17
19549.0	5.653338110558207e+17
19550.0	5.652533571048788e+17
19551.0	5.651635354555733e+17
19552.0	5.6507298546537805e+17
19553.0	5.649808668753919e+17
19554.0	5.648895506557609e+17
19555.0	5.647941699458388e+17
19556.0	5.647063371655849e+17
19557.0	5.646192757178366e+17
19558.0	5.645280877040981e+17
19559.0	5.644360836186111e+17
19560.0	5.64317068075554e+17
19561.0	5.6425466640902816e+17
19562.0	5.641397388443646e+17
19563.0	5.6407089661433165e+17
19564.0	5.639772423498409e+17
19565.0	5.638833291569835e+17
19566.0	5.637877358657535e+17
19567.0	5.636948938282324e+17
19568.0	5.6359863399219194e+17
19569.0	5.635052682259115e+17
19570.0	5.634132297471318e+17
19571.0	5.633187676596905e+17
19572.0	5.632212637231785e+17
19573.0	5.6311952039389856e+17
19574.0	5.630224985926313e+17
19575.0	5.6293856819281914e+17
19576.0	5.6283757284775245e+17
19577.0	5.6273136307404794e+17
19578.0	5.6264943454562976e+17
19579.0	5.625524031673685e+17
19580.0	5.6245662469761696e+17
19581.0	5.6236210738517325e+17
19582.0	5.6226635338219514e+17
19583.0	5.6216976715939834e+17
19584.0	5.620710259731113e+17
19585.0	5.6196535013430605e+17
19586.0	5.618646564296021e+17
19587.0	5.6177417767266976e+17
19588.0	5.616622825897983e+17
19589.0	5.6158144709700256e+17
19590.0	5.6148144552236365e+17
19591.0	5.613937728946175e+17
19592.0	5.612981400371199e+17
19593.0	5.611925559836671e+17
19594.0	5.610763815223294e+17
19595.0	5.6100589239883085e+17
19596.0	5.608883034084692e+17
19597.0	5.6081065782367565e+17
19598.0	5.606864644123306e+17
19599.0	5.6061489958966605e+17
19600.0	5.605190159826943e+17
19601.0	5.6041565644827296e+17
19602.0	5.603110866474324e+17
19603.0	5.6019394798551034e+17
19604.0	5.6011129307354445e+17
19605.0	5.6000801483871565e+17
19606.0	5.5993107410670925e+17
19607.0	5.5983538986898765e+17
19608.0	5.5973670950010874e+17
19609.0	5.596369470007977e+17
19610.0	5.595110219710464e+17
19611.0	5.593984667047252e+17
19612.0	5.59345847832849e+17
19613.0	5.592464635898538e+17
19614.0	5.591448849569109e+17
19615.0	5.590444037636094e+17
19616.0	5.5890054382004896e+17
19617.0	5.587997652505941e+17
19618.0	5.587088613310464e+17
19619.0	5.5859365820061005e+17
19620.0	5.585025937790291e+17
19621.0	5.583849972389204e+17
19622.0	5.583546848641023e+17
19623.0	5.5825091519665485e+17
19624.0	5.581406479231657e+17
19625.0	5.580481634500607e+17
19626.0	5.57937429979682e+17
19627.0	5.578127479319209e+17
19628.0	5.576581978958505e+17
19629.0	5.57300284863283e+17
19630.0	5.5691043262518605e+17
19631.0	5.563853054148607e+17
19632.0	5.5705400337148576e+17
19633.0	5.57149500403439e+17
19634.0	5.571223001322836e+17
19635.0	5.570397786690899e+17
19636.0	5.568928146609492e+17
19637.0	5.56775845868339e+17
19638.0	5.567745570286249e+17
19639.0	5.566827477685589e+17
19640.0	5.565684282381652e+17
19641.0	5.564295564405418e+17
19642.0	5.563859137986558e+17
19643.0	5.562886248202239e+17
19644.0	5.561915002585087e+17
19645.0	5.560895275007999e+17
19646.0	5.5592615838132883e+17
19647.0	5.5590493226707616e+17
19648.0	5.5580817512639136e+17
19649.0	5.5571016144213325e+17
19650.0	5.556125860626431e+17
19651.0	5.5551390653262496e+17
19652.0	5.5541566258107725e+17
19653.0	5.553167412494335e+17
19654.0	5.5521917635570336e+17
19655.0	5.5512082349206176e+17
19656.0	5.5502314626088954e+17
19657.0	5.5492456809321805e+17
19658.0	5.548266889762132e+17
19659.0	5.5472945892775245e+17
19660.0	5.546311532500308e+17
19661.0	5.545326331734698e+17
19662.0	5.54433216844049e+17
