# Flux units: erg / (cm m2 s)
# Wavelength units: Angstrom
wave	flux
19000.0	7.995510840011433e+17
19001.0	7.993997217759228e+17
19002.0	7.992500702674944e+17
19003.0	7.990995002064893e+17
19004.0	7.98948908754534e+17
19005.0	7.987983388333395e+17
19006.0	7.98647720677649e+17
19007.0	7.984950640902143e+17
19008.0	7.983457784649044e+17
19009.0	7.981955046615721e+17
19010.0	7.980409722415788e+17
19011.0	7.97894050526003e+17
19012.0	7.97740707750434e+17
19013.0	7.975928420368383e+17
19014.0	7.974415652356093e+17
19015.0	7.972912912924671e+17
19016.0	7.971400128135165e+17
19017.0	7.969872872996863e+17
19018.0	7.968386801729536e+17
19019.0	7.966880407661226e+17
19020.0	7.965367094389417e+17
19021.0	7.963859749612202e+17
19022.0	7.962354952175616e+17
19023.0	7.960846290386943e+17
19024.0	7.959336634548224e+17
19025.0	7.95782855996211e+17
19026.0	7.956316827942912e+17
19027.0	7.954791518961663e+17
19028.0	7.953301718958076e+17
19029.0	7.951792616767488e+17
19030.0	7.950283464245247e+17
19031.0	7.94877426139136e+17
19032.0	7.947264983039999e+17
19033.0	7.945747966197757e+17
19034.0	7.944246090792957e+17
19035.0	7.942736678223871e+17
19036.0	7.939705651855357e+17
19037.0	7.939718222184445e+17
19038.0	7.938209119993855e+17
19039.0	7.936699715813373e+17
19040.0	7.9351903158272e+17
19041.0	7.933681150722045e+17
19042.0	7.932164649779199e+17
19043.0	7.930662392692736e+17
19044.0	7.929152883654653e+17
19045.0	7.927643852767228e+17
19046.0	7.926129868406783e+17
19047.0	7.924625023434752e+17
19048.0	7.923098472939519e+17
19049.0	7.921600875724799e+17
19050.0	7.920097532313597e+17
19051.0	7.918376882012157e+17
19052.0	7.917065251848192e+17
19053.0	7.91556388814848e+17
19054.0	7.9140614045696e+17
19055.0	7.912530131288063e+17
19056.0	7.911043532936535e+17
19057.0	7.909534834797225e+17
19058.0	7.908025960497151e+17
19059.0	7.90651730989329e+17
19060.0	7.90500646147413e+17
19061.0	7.903500117737472e+17
19062.0	7.901991233650688e+17
19063.0	7.900482928377855e+17
19064.0	7.898964904902653e+17
19065.0	7.89744990971494e+17
19066.0	7.895952304111615e+17
19067.0	7.89445016027136e+17
19068.0	7.892942106656765e+17
19069.0	7.891434266951679e+17
19070.0	7.889925329737044e+17
19071.0	7.888418661640872e+17
19072.0	7.886910928191488e+17
19073.0	7.885402866188285e+17
19074.0	7.883895886315517e+17
19075.0	7.882388478623743e+17
19076.0	7.880879173708457e+17
19077.0	7.879373270373715e+17
19078.0	7.877861209800701e+17
19079.0	7.876359839110484e+17
19080.0	7.874852705446569e+17
19081.0	7.873341977264127e+17
19082.0	7.871834892533756e+17
19083.0	7.870323433144319e+17
19084.0	7.868803417374719e+17
19085.0	7.867319883661311e+17
19086.0	7.865777558388735e+17
19087.0	7.864264412889085e+17
19088.0	7.862793280334506e+17
19089.0	7.861256801921706e+17
19090.0	7.859788829076136e+17
19091.0	7.858281298351444e+17
19092.0	7.856763255302825e+17
19093.0	7.855272810774527e+17
19094.0	7.853744370046291e+17
19095.0	7.852233167907497e+17
19096.0	7.85075318816768e+17
19097.0	7.849251514089471e+17
19098.0	7.847747390537727e+17
19099.0	7.846242235187199e+17
19100.0	7.844738044526591e+17
19101.0	7.843233681899517e+17
19102.0	7.841722386087935e+17
19103.0	7.840225011171325e+17
19104.0	7.838720816316415e+17
19105.0	7.837216621461501e+17
19106.0	7.835704936977748e+17
19107.0	7.834207567653545e+17
19108.0	7.832704892534783e+17
19109.0	7.831028068515837e+17
19110.0	7.829695898845183e+17
19111.0	7.828194841329663e+17
19112.0	7.826691791519744e+17
19113.0	7.825188720738301e+17
19114.0	7.823685750620157e+17
19115.0	7.822178347122685e+17
19116.0	7.820680101188948e+17
19117.0	7.819175937092266e+17
19118.0	7.817660070887424e+17
19119.0	7.816003031400448e+17
19120.0	7.814658891186173e+17
19121.0	7.813160790654973e+17
19122.0	7.811666028789757e+17
19123.0	7.810162081398781e+17
19124.0	7.808653520273408e+17
19125.0	7.807158119475881e+17
19126.0	7.805654015497556e+17
19127.0	7.804017519711572e+17
19128.0	7.802526253099688e+17
19129.0	7.801146185875455e+17
19130.0	7.799653424693245e+17
19131.0	7.798152267912532e+17
19132.0	7.796651069188777e+17
19133.0	7.795083438282071e+17
19134.0	7.793584122800809e+17
19135.0	7.792148783038463e+17
19136.0	7.790648581160957e+17
19137.0	7.789133826446675e+17
19138.0	7.787626730531497e+17
19139.0	7.786146500531539e+17
19140.0	7.784647186448381e+17
19141.0	7.783147192887978e+17
19142.0	7.78164706371174e+17
19143.0	7.780142355753641e+17
19144.0	7.778647139505491e+17
19145.0	7.777146838362794e+17
19146.0	7.77559319126562e+17
19147.0	7.774141096656893e+17
19148.0	7.772647612656298e+17
19149.0	7.771148432790866e+17
19150.0	7.769647738781693e+17
19151.0	7.768150419789139e+17
19152.0	7.766649015544488e+17
19153.0	7.765151969181693e+17
19154.0	7.763641935855616e+17
19155.0	7.762153546536276e+17
19156.0	7.760654004562602e+17
19157.0	7.759151597879293e+17
19158.0	7.757537126383616e+17
19159.0	7.75615446987571e+17
19160.0	7.754653602501972e+17
19161.0	7.753123179266047e+17
19162.0	7.751347099839145e+17
19163.0	7.75011242956117e+17
19164.0	7.748617018976938e+17
19165.0	7.747114691985407e+17
19166.0	7.745607221379071e+17
19167.0	7.744096016444073e+17
19168.0	7.7426075907741e+17
19169.0	7.741113175638015e+17
19170.0	7.73962528264465e+17
19171.0	7.738114656523603e+17
19172.0	7.736627930944851e+17
19173.0	7.735129538210473e+17
19174.0	7.733626745651199e+17
19175.0	7.732132790490451e+17
19176.0	7.730634109747199e+17
19177.0	7.729122468604585e+17
19178.0	7.727632395971242e+17
19179.0	7.726119572034899e+17
19180.0	7.724603006779392e+17
19181.0	7.723130565601962e+17
19182.0	7.721630630761812e+17
19183.0	7.720138870620157e+17
19184.0	7.718630196248573e+17
19185.0	7.717143709745151e+17
19186.0	7.715645458219005e+17
19187.0	7.714139128463357e+17
19188.0	7.712646014959615e+17
19189.0	7.711141136433152e+17
19190.0	7.70963917714227e+17
19191.0	7.708144500561233e+17
19192.0	7.706644031646377e+17
19193.0	7.705110445905238e+17
19194.0	7.703632711516157e+17
19195.0	7.702144608807594e+17
19196.0	7.700646262210557e+17
19197.0	7.699144625881087e+17
19198.0	7.69763837162291e+17
19199.0	7.694528279827796e+17
19200.0	7.69358895705839e+17
19201.0	7.693137280849234e+17
19202.0	7.691641993297919e+17
19203.0	7.690142017912828e+17
19204.0	7.688638984880125e+17
19205.0	7.687139693166591e+17
19206.0	7.68563691598643e+17
19207.0	7.684135346765821e+17
19208.0	7.682616968172884e+17
19209.0	7.681131024132777e+17
19210.0	7.679627896029181e+17
19211.0	7.678123843780608e+17
19212.0	7.676621410533373e+17
19213.0	7.675098089652221e+17
19214.0	7.673589100707839e+17
19215.0	7.672103302070271e+17
19216.0	7.670600503918591e+17
19217.0	7.669099689672703e+17
19218.0	7.667525777096703e+17
19219.0	7.666073805520893e+17
19220.0	7.664582990495743e+17
19221.0	7.663048921011539e+17
19222.0	7.66156968366353e+17
19223.0	7.660062224242002e+17
19224.0	7.658547993815721e+17
19225.0	7.657032710619135e+17
19226.0	7.655538196217856e+17
19227.0	7.654029341491199e+17
19228.0	7.652520084111357e+17
19229.0	7.651010036804266e+17
19230.0	7.649498932532563e+17
19231.0	7.64798808830771e+17
19232.0	7.646470456300883e+17
19233.0	7.64495812309811e+17
19234.0	7.643449665432234e+17
19235.0	7.641938747108009e+17
19236.0	7.64042475296085e+17
19237.0	7.638908816850943e+17
19238.0	7.637384904572925e+17
19239.0	7.63587934237491e+17
19240.0	7.634333829431296e+17
19241.0	7.632837217878016e+17
19242.0	7.631327503319039e+17
19243.0	7.629792522272765e+17
19244.0	7.62828887966788e+17
19245.0	7.626768756244479e+17
19246.0	7.62524626723362e+17
19247.0	7.623724654832298e+17
19248.0	7.622202813142356e+17
19249.0	7.62067889107763e+17
19250.0	7.619153794607785e+17
19251.0	7.617620726164138e+17
19252.0	7.61607002067217e+17
19253.0	7.614573413313194e+17
19254.0	7.613041042522111e+17
19255.0	7.611496705381715e+17
19256.0	7.609983385119402e+17
19257.0	7.608452739585363e+17
19258.0	7.606919183204351e+17
19259.0	7.605377927479292e+17
19260.0	7.603831775603369e+17
19261.0	7.602312454690131e+17
19262.0	7.600774396422825e+17
19263.0	7.599232982712319e+17
19264.0	7.597654222918995e+17
19265.0	7.596136077808978e+17
19266.0	7.594597707765076e+17
19267.0	7.593062479254868e+17
19268.0	7.591515645105491e+17
19269.0	7.589967170983251e+17
19270.0	7.588416918476114e+17
19271.0	7.586838903870804e+17
19272.0	7.585308518383612e+17
19273.0	7.583022176709289e+17
19274.0	7.581841906554195e+17
19275.0	7.580640077676543e+17
19276.0	7.579079270902441e+17
19277.0	7.577516337616211e+17
19278.0	7.575951504310272e+17
19279.0	7.574351199775402e+17
19280.0	7.572746828163753e+17
19281.0	7.571181778152104e+17
19282.0	7.56960772296977e+17
19283.0	7.568007719026689e+17
19284.0	7.566399878725632e+17
19285.0	7.564853984100351e+17
19286.0	7.563288795676671e+17
19287.0	7.561702721017172e+17
19288.0	7.559774084967081e+17
19289.0	7.557472545931261e+17
19290.0	7.556927336742913e+17
19291.0	7.555306024337407e+17
19292.0	7.553728995393535e+17
19293.0	7.552124404279977e+17
19294.0	7.5505179047581e+17
19295.0	7.54890746958097e+17
19296.0	7.547293553131517e+17
19297.0	7.545675874391378e+17
19298.0	7.544054747933353e+17
19299.0	7.542429867573245e+17
19300.0	7.540800973264212e+17
19301.0	7.539167410694825e+17
19302.0	7.537530263393619e+17
19303.0	7.535880654815232e+17
19304.0	7.534237927691604e+17
19305.0	7.53259364168499e+17
19306.0	7.530938408544938e+17
19307.0	7.529275593501353e+17
19308.0	7.52761307066095e+17
19309.0	7.525896764260351e+17
19310.0	7.524194250129407e+17
19311.0	7.522581884174335e+17
19312.0	7.520902287720447e+17
19313.0	7.51919775612928e+17
19314.0	7.517021270267219e+17
19315.0	7.515302634629802e+17
19316.0	7.513944615463594e+17
19317.0	7.512231988865705e+17
19318.0	7.510508708735658e+17
19319.0	7.50877842691413e+17
19320.0	7.507037395091455e+17
19321.0	7.505295620876969e+17
19322.0	7.503527674205526e+17
19323.0	7.501755431168684e+17
19324.0	7.500011516461055e+17
19325.0	7.498197558274729e+17
19326.0	7.496447570214911e+17
19327.0	7.494651528697174e+17
19328.0	7.49284809122338e+17
19329.0	7.491033364081321e+17
19330.0	7.489205089337344e+17
19331.0	7.487372782469119e+17
19332.0	7.485510490521599e+17
19333.0	7.483562748018687e+17
19334.0	7.481690249931433e+17
19335.0	7.479843560794793e+17
19336.0	7.477963354974889e+17
19337.0	7.476056869044224e+17
19338.0	7.474120560214016e+17
19339.0	7.472205742997503e+17
19340.0	7.470255152562173e+17
19341.0	7.468295679989076e+17
19342.0	7.466286500719272e+17
19343.0	7.464325081989117e+17
19344.0	7.462269130637311e+17
19345.0	7.459954411700224e+17
19346.0	7.458014460816042e+17
19347.0	7.455988528097961e+17
19348.0	7.453912293092009e+17
19349.0	7.451810212784809e+17
19350.0	7.44959721410833e+17
19351.0	7.447429253868202e+17
19352.0	7.445257026622803e+17
19353.0	7.442904315680086e+17
19354.0	7.440690641720658e+17
19355.0	7.438446461190143e+17
19356.0	7.43618617872657e+17
19357.0	7.43389469483554e+17
19358.0	7.431569543266301e+17
19359.0	7.429057198511444e+17
19360.0	7.426639208819369e+17
19361.0	7.4242275147776e+17
19362.0	7.421790084486484e+17
19363.0	7.419312812501672e+17
19364.0	7.416728697612969e+17
19365.0	7.414000834139475e+17
19366.0	7.411365916442623e+17
19367.0	7.408736834420736e+17
19368.0	7.406064922962602e+17
19369.0	7.403334467409235e+17
19370.0	7.400498792147626e+17
19371.0	7.397772311396352e+17
19372.0	7.394908903396691e+17
19373.0	7.391992156433066e+17
19374.0	7.388853350432768e+17
19375.0	7.385750204405076e+17
19376.0	7.38265953083938e+17
19377.0	7.379504332100948e+17
19378.0	7.376283031131476e+17
19379.0	7.372991162395306e+17
19380.0	7.36946099986978e+17
19381.0	7.365864898691072e+17
19382.0	7.36233597907763e+17
19383.0	7.358729629816148e+17
19384.0	7.355010558634664e+17
19385.0	7.350781521603241e+17
19386.0	7.346844065595391e+17
19387.0	7.34285374877423e+17
19388.0	7.338654171136e+17
19389.0	7.334040183679658e+17
19390.0	7.32971692859938e+17
19391.0	7.323904502661117e+17
19392.0	7.320071273709565e+17
19393.0	7.315363683368957e+17
19394.0	7.309945221414911e+17
19395.0	7.304747377055059e+17
19396.0	7.298825532910249e+17
19397.0	7.293158457780906e+17
19398.0	7.286823393602217e+17
19399.0	7.280786573798057e+17
19400.0	7.274451955613693e+17
19401.0	7.268377638731775e+17
19402.0	7.26183967929139e+17
19403.0	7.255223789682687e+17
19404.0	7.248450705948671e+17
19405.0	7.241418867212287e+17
19406.0	7.233778542619306e+17
19407.0	7.22604437746483e+17
19408.0	7.218082688095572e+17
19409.0	7.209407680435539e+17
19410.0	7.200679377152681e+17
19411.0	7.191362386526207e+17
19412.0	7.181675835774294e+17
19413.0	7.171246272457385e+17
19414.0	7.160529256710141e+17
19415.0	7.148764544368639e+17
19416.0	7.136342131605504e+17
19417.0	7.1232600974295e+17
19418.0	7.109209118911149e+17
19419.0	7.094109309938344e+17
19420.0	7.077621760961194e+17
19421.0	7.062035242156032e+17
19422.0	7.04709431202065e+17
19423.0	7.031271254742355e+17
19424.0	7.014517656169129e+17
19425.0	6.996866012370259e+17
19426.0	6.977833150709759e+17
19427.0	6.957596646135126e+17
19428.0	6.935928562690729e+17
19429.0	6.912654331346943e+17
19430.0	6.887410307345066e+17
19431.0	6.859811794015572e+17
19432.0	6.829870061453311e+17
19433.0	6.796114360183464e+17
19434.0	6.763750099692202e+17
19435.0	6.731049527323304e+17
19436.0	6.69591768399872e+17
19437.0	6.657980123927892e+17
19438.0	6.615496793959078e+17
19439.0	6.570424956966234e+17
19440.0	6.518592666686801e+17
19441.0	6.462632440976722e+17
19442.0	6.406876301710679e+17
19443.0	6.344650029094228e+17
19444.0	6.274831097353554e+17
19445.0	6.197292528129368e+17
19446.0	6.11367553859584e+17
19447.0	6.018477696133797e+17
19448.0	5.909593676840964e+17
19449.0	5.769735297127764e+17
19450.0	5.5039317347313766e+17
19451.0	5.40295577364071e+17
19452.0	5.652549757566981e+17
19453.0	5.844709989679109e+17
19454.0	5.961374417726118e+17
19455.0	6.060458042370729e+17
19456.0	6.146963653962413e+17
19457.0	6.224727683803816e+17
19458.0	6.295915388906156e+17
19459.0	6.35957530189278e+17
19460.0	6.415686955259218e+17
19461.0	6.468263902270803e+17
19462.0	6.52078839951087e+17
19463.0	6.566593994336934e+17
19464.0	6.607740003330729e+17
19465.0	6.644823887620778e+17
19466.0	6.678450899255293e+17
19467.0	6.7097122584221e+17
19468.0	6.738960485886637e+17
19469.0	6.769969900202666e+17
19470.0	6.799305160873303e+17
19471.0	6.825257922985984e+17
19472.0	6.848651481579519e+17
19473.0	6.870141674804562e+17
19474.0	6.889933139258025e+17
19475.0	6.908067463561215e+17
19476.0	6.92478675132962e+17
19477.0	6.940467724462762e+17
19478.0	6.954768245893802e+17
19479.0	6.968361032351743e+17
19480.0	6.980908367566163e+17
19481.0	6.993183741313023e+17
19482.0	7.006578362286081e+17
19483.0	7.019482778173439e+17
19484.0	7.031300799419731e+17
19485.0	7.042123559163219e+17
19486.0	7.051958612743508e+17
19487.0	7.061072332019027e+17
19488.0	7.069416182601044e+17
19489.0	7.077372550796628e+17
19490.0	7.084183777531219e+17
19491.0	7.091266519739049e+17
19492.0	7.097232482369535e+17
19493.0	7.103245074475689e+17
19494.0	7.10866026766882e+17
19495.0	7.113581665452032e+17
19496.0	7.118515990080169e+17
19497.0	7.122990997875369e+17
19498.0	7.127007740209833e+17
19499.0	7.128892350048934e+17
19500.0	7.134660162573651e+17
19501.0	7.138128267575296e+17
19502.0	7.141451143402838e+17
19503.0	7.144778165998931e+17
19504.0	7.148204903978323e+17
19505.0	7.151127989933395e+17
19506.0	7.154285109663059e+17
19507.0	7.156840019613011e+17
19508.0	7.159384530485247e+17
19509.0	7.161603689196202e+17
19510.0	7.163458048316755e+17
19511.0	7.164303319411368e+17
19512.0	7.166987546744147e+17
19513.0	7.16813980034662e+17
19514.0	7.170087405835604e+17
19515.0	7.171616324714493e+17
19516.0	7.1727799364922e+17
19517.0	7.173909793909417e+17
19518.0	7.175144963309565e+17
19519.0	7.176020689245523e+17
19520.0	7.176755135643647e+17
19521.0	7.177411429575338e+17
19522.0	7.17814453379618e+17
19523.0	7.178791048009044e+17
19524.0	7.179223894589439e+17
19525.0	7.179584200682153e+17
19526.0	7.179888880517119e+17
19527.0	7.180128452171092e+17
19528.0	7.18031931117841e+17
19529.0	7.180655284715519e+17
19530.0	7.180726538949972e+17
19531.0	7.180746224216744e+17
19532.0	7.180716815155199e+17
19533.0	7.180640603253417e+17
19534.0	7.18051934872098e+17
19535.0	7.180355117951658e+17
19536.0	7.180149088146772e+17
19537.0	7.179904940507135e+17
19538.0	7.179679347070292e+17
19539.0	7.179529010632019e+17
19540.0	7.179223145207123e+17
19541.0	7.17883847999488e+17
19542.0	7.178421548001961e+17
19543.0	7.177974169556308e+17
19544.0	7.177604830330879e+17
19545.0	7.177156501176317e+17
19546.0	7.176577687224319e+17
19547.0	7.176095159113044e+17
19548.0	7.175512272491862e+17
19549.0	7.174898679371092e+17
19550.0	7.174281139410259e+17
19551.0	7.173737462540969e+17
19552.0	7.173112957239296e+17
19553.0	7.172419813550761e+17
19554.0	7.171706823813802e+17
19555.0	7.171033046624938e+17
19556.0	7.170335210908329e+17
19557.0	7.169569416282111e+17
19558.0	7.168786357900628e+17
19559.0	7.167984352449875e+17
19560.0	7.167215971336191e+17
19561.0	7.166463180450474e+17
19562.0	7.165618516131839e+17
19563.0	7.164759065493504e+17
19564.0	7.163888416063487e+17
19565.0	7.16304661226018e+17
19566.0	7.162147125592063e+17
19567.0	7.16123784941841e+17
19568.0	7.160316528601769e+17
19569.0	7.15938268918579e+17
19570.0	7.158438997349718e+17
19571.0	7.157484152859306e+17
19572.0	7.156519085451945e+17
19573.0	7.155542936693417e+17
19574.0	7.154609306992639e+17
19575.0	7.153659566970195e+17
19576.0	7.152657742080681e+17
19577.0	7.151641688713897e+17
19578.0	7.150624223264768e+17
19579.0	7.14959784911394e+17
19580.0	7.148563414908927e+17
19581.0	7.14752124920354e+17
19582.0	7.14647278784785e+17
19583.0	7.14541588895061e+17
19584.0	7.144351986963795e+17
19585.0	7.143274164082003e+17
19586.0	7.142187306669395e+17
19587.0	7.141106062633641e+17
19588.0	7.139990924427263e+17
19589.0	7.138927290875901e+17
19590.0	7.137833998002858e+17
19591.0	7.136732895335764e+17
19592.0	7.135622060485289e+17
19593.0	7.134506423156735e+17
19594.0	7.133364449793363e+17
19595.0	7.132259478579881e+17
19596.0	7.130756758721875e+17
19597.0	7.129993230417919e+17
19598.0	7.128896639423828e+17
19599.0	7.127781607473151e+17
19600.0	7.126634375850666e+17
19601.0	7.125499002923689e+17
19602.0	7.124383694148948e+17
19603.0	7.12317192057651e+17
19604.0	7.122060189543081e+17
19605.0	7.120873454567423e+17
19606.0	7.119728973010262e+17
19607.0	7.118557540253696e+17
19608.0	7.117380983455743e+17
19609.0	7.116200072970237e+17
19610.0	7.115020110397439e+17
19611.0	7.113834530253481e+17
19612.0	7.112647066867028e+17
19613.0	7.111456334719658e+17
19614.0	7.110262964355071e+17
19615.0	7.109066901247316e+17
19616.0	7.10785717309713e+17
19617.0	7.106667556634623e+17
19618.0	7.105424336966995e+17
19619.0	7.104203183532713e+17
19620.0	7.102999000252416e+17
19621.0	7.101840354530646e+17
19622.0	7.100628147546793e+17
19623.0	7.099413902131199e+17
19624.0	7.098197580535123e+17
19625.0	7.096979063919956e+17
19626.0	7.095759035957247e+17
19627.0	7.094536982145706e+17
19628.0	7.093277524929194e+17
19629.0	7.092079711398569e+17
19630.0	7.090827845872297e+17
19631.0	7.087952703608147e+17
19632.0	7.088399655632893e+17
19633.0	7.08716929290513e+17
19634.0	7.08593625001711e+17
19635.0	7.084701579739135e+17
19636.0	7.083465361762985e+17
19637.0	7.082190484886868e+17
19638.0	7.080988156887037e+17
19639.0	7.079747400673961e+17
19640.0	7.078502524256253e+17
19641.0	7.077222552698879e+17
19642.0	7.076020356120575e+17
19643.0	7.074773476223658e+17
19644.0	7.073526487274836e+17
19645.0	7.072260405854207e+17
19646.0	7.071033496436735e+17
19647.0	7.069784092966911e+17
19648.0	7.068533733195773e+17
19649.0	7.067282190630911e+17
19650.0	7.066030146147668e+17
19651.0	7.064777002756777e+17
19652.0	7.063522873704447e+17
19653.0	7.062267828895743e+17
19654.0	7.061012230438911e+17
19655.0	7.059755376487081e+17
19656.0	7.058497692063059e+17
19657.0	7.057240229937151e+17
19658.0	7.055981364117504e+17
19659.0	7.054721692991487e+17
19660.0	7.053461518548991e+17
19661.0	7.052200614297599e+17
19662.0	7.050938984431615e+17
19663.0	7.049672988295165e+17
19664.0	7.048418727821311e+17
19665.0	7.047198810308607e+17
19666.0	7.045933493649407e+17
