# Flux units: erg / (cm m2 s)
# Wavelength units: Angstrom
wave	flux
19000.0	5.191712750174207e+17
19001.0	5.190740269334526e+17
19002.0	5.18978150806323e+17
19003.0	5.1888159142707194e+17
19004.0	5.187850387587071e+17
19005.0	5.186885406162943e+17
19006.0	5.185920292618239e+17
19007.0	5.1849554034687994e+17
19008.0	5.183986169020415e+17
19009.0	5.183024421404671e+17
19010.0	5.182022835590485e+17
19011.0	5.1810945704045216e+17
19012.0	5.1801221496831994e+17
19013.0	5.179168314621951e+17
19014.0	5.1782043020820474e+17
19015.0	5.1772398868889594e+17
19016.0	5.176272144214698e+17
19017.0	5.1753122595689805e+17
19018.0	5.174349363412991e+17
19019.0	5.173386395254783e+17
19020.0	5.172422491766783e+17
19021.0	5.171459638951935e+17
19022.0	5.17049815138304e+17
19023.0	5.169535429290666e+17
19024.0	5.168571950126419e+17
19025.0	5.16761049960721e+17
19026.0	5.166645980954623e+17
19027.0	5.1656809023624525e+17
19028.0	5.164724314439679e+17
19029.0	5.1637624892293114e+17
19030.0	5.162800915677183e+17
19031.0	5.1618394658570234e+17
19032.0	5.160878155147945e+17
19033.0	5.159910827709781e+17
19034.0	5.1589560685035514e+17
19035.0	5.157995191205887e+17
19036.0	5.156642463154175e+17
19037.0	5.156074053173248e+17
19038.0	5.1551137945354234e+17
19039.0	5.1541535988121594e+17
19040.0	5.153193642164223e+17
19041.0	5.1522338099473056e+17
19042.0	5.151268552398164e+17
19043.0	5.150314672597674e+17
19044.0	5.149355182915583e+17
19045.0	5.148396177675605e+17
19046.0	5.147433535974057e+17
19047.0	5.146478286733311e+17
19048.0	5.145503993255253e+17
19049.0	5.14455711514624e+17
19050.0	5.143599940020906e+17
19051.0	5.142582188660051e+17
19052.0	5.1416842853416954e+17
19053.0	5.140729062664874e+17
19054.0	5.139771390514517e+17
19055.0	5.138796513329151e+17
19056.0	5.137856674660352e+17
19057.0	5.1368995848191994e+17
19058.0	5.1359426564587514e+17
19059.0	5.134985902161919e+17
19060.0	5.1340275938754554e+17
19061.0	5.1330729521097376e+17
19062.0	5.132115200966655e+17
19063.0	5.1311514981061965e+17
19064.0	5.1301876924852896e+17
19065.0	5.129228218881364e+17
19066.0	5.1282805249802234e+17
19067.0	5.127329191821311e+17
19068.0	5.1263739943103136e+17
19069.0	5.125419096692051e+17
19070.0	5.1244635699281914e+17
19071.0	5.1235096887296e+17
19072.0	5.1225552475914234e+17
19073.0	5.1216006323896314e+17
19074.0	5.1206469007878816e+17
19075.0	5.1196930160940365e+17
19076.0	5.1187376654909434e+17
19077.0	5.1177849440174074e+17
19078.0	5.116830297358336e+17
19079.0	5.115879208168106e+17
19080.0	5.114926118294868e+17
19081.0	5.113970532810751e+17
19082.0	5.113017132559017e+17
19083.0	5.1120632695357446e+17
19084.0	5.1111010262930765e+17
19085.0	5.110163971943083e+17
19086.0	5.109187581313023e+17
19087.0	5.108250159961427e+17
19088.0	5.107304628223998e+17
19089.0	5.1063408302926496e+17
19090.0	5.1054061911627085e+17
19091.0	5.104454003064832e+17
19092.0	5.1034987950680736e+17
19093.0	5.1025538274645325e+17
19094.0	5.101602170645161e+17
19095.0	5.100651539333119e+17
19096.0	5.099701725910355e+17
19097.0	5.0987532106246816e+17
19098.0	5.0978035880427514e+17
19099.0	5.096854034666836e+17
19100.0	5.095904015723178e+17
19101.0	5.0949555402833914e+17
19102.0	5.0939987034985805e+17
19103.0	5.093057800874666e+17
19104.0	5.09210921009152e+17
19105.0	5.091160789177685e+17
19106.0	5.0902106758621856e+17
19107.0	5.0892635097442976e+17
19108.0	5.088316643519146e+17
19109.0	5.087340007522304e+17
19110.0	5.086421357079209e+17
19111.0	5.0854741853689165e+17
19112.0	5.0845270395234976e+17
19113.0	5.0835800929075194e+17
19114.0	5.0826333287437645e+17
19115.0	5.081684503079594e+17
19116.0	5.0807403582586874e+17
19117.0	5.0797932942021965e+17
19118.0	5.07884151644706e+17
19119.0	5.077492552783187e+17
19120.0	5.076953370809685e+17
19121.0	5.076009115538772e+17
19122.0	5.075065871794174e+17
19123.0	5.074120696572585e+17
19124.0	5.073175833127593e+17
19125.0	5.072231080132606e+17
19126.0	5.0712861195195725e+17
19127.0	5.070217426239486e+17
19128.0	5.0693942912832845e+17
19129.0	5.068448022047402e+17
19130.0	5.0675100840973645e+17
19131.0	5.066566295093247e+17
19132.0	5.0656226822498976e+17
19133.0	5.064668122972159e+17
19134.0	5.0637351552723616e+17
19135.0	5.0627936102208845e+17
19136.0	5.061850988631381e+17
19137.0	5.060896854376447e+17
19138.0	5.0599647150516896e+17
19139.0	5.059023864157525e+17
19140.0	5.0580818766069754e+17
19141.0	5.0571400526342816e+17
19142.0	5.056198228661588e+17
19143.0	5.055252570395989e+17
19144.0	5.054315432858964e+17
19145.0	5.0533744973796685e+17
19146.0	5.052392770895871e+17
19147.0	5.051486466386602e+17
19148.0	5.050552028583253e+17
19149.0	5.0496116635293005e+17
19150.0	5.0486709230851405e+17
19151.0	5.047731532507817e+17
19152.0	5.046791461055145e+17
19153.0	5.0458519537363616e+17
19154.0	5.044903513249109e+17
19155.0	5.0439730893946874e+17
19156.0	5.0430337253812896e+17
19157.0	5.042094603938474e+17
19158.0	5.0411365193482234e+17
19159.0	5.040215875212628e+17
19160.0	5.039278414714196e+17
19161.0	5.038340653623977e+17
19162.0	5.037357101219838e+17
19163.0	5.036464430994772e+17
19164.0	5.0355268160061446e+17
19165.0	5.034588219550378e+17
19166.0	5.033642236925268e+17
19167.0	5.0327102947327994e+17
19168.0	5.031775093566121e+17
19169.0	5.0308382419408205e+17
19170.0	5.0299036440548685e+17
19171.0	5.0289641912620365e+17
19172.0	5.0280306964780365e+17
19173.0	5.027094348169215e+17
19174.0	5.026154149489321e+17
19175.0	5.025222471538004e+17
19176.0	5.024286704140287e+17
19177.0	5.0233407257094816e+17
19178.0	5.022415195908778e+17
19179.0	5.021476017842858e+17
19180.0	5.020544167226025e+17
19181.0	5.019600596325715e+17
19182.0	5.0186744485642234e+17
19183.0	5.017740826553001e+17
19184.0	5.016804398552404e+17
19185.0	5.015871692996608e+17
19186.0	5.014937810938538e+17
19187.0	5.0140002889236474e+17
19188.0	5.013069944061951e+17
19189.0	5.012136648507391e+17
19190.0	5.0112030055246496e+17
19191.0	5.010269173099178e+17
19192.0	5.009336559119017e+17
19193.0	5.0084031594059085e+17
19194.0	5.007470489501696e+17
19195.0	5.006537737808553e+17
19196.0	5.00560441848627e+17
19197.0	5.004672047076693e+17
19198.0	5.003740193663657e+17
19199.0	5.00254081356049e+17
19200.0	5.0017121386277536e+17
19201.0	5.000944249645738e+17
19202.0	5.000012728980821e+17
19203.0	4.9990811754605216e+17
19204.0	4.998147833069568e+17
19205.0	4.997218490646528e+17
19206.0	4.9962864750537376e+17
19207.0	4.995353054369109e+17
19208.0	4.9944077714937165e+17
19209.0	4.9934947190483616e+17
19210.0	4.992564098760702e+17
19211.0	4.9916336029040634e+17
19212.0	4.990703281111039e+17
19213.0	4.989765642354687e+17
19214.0	4.9888341021163514e+17
19215.0	4.98791212908544e+17
19216.0	4.986982914588671e+17
19217.0	4.9860535043577165e+17
19218.0	4.985066801332223e+17
19219.0	4.9841844798532256e+17
19220.0	4.983265094008832e+17
19221.0	4.982312907309055e+17
19222.0	4.9814067237355514e+17
19223.0	4.9804774693928954e+17
19224.0	4.9795464045090125e+17
19225.0	4.978616002325161e+17
19226.0	4.977699575562239e+17
19227.0	4.9767711244287994e+17
19228.0	4.9758426418380794e+17
19229.0	4.9749142522210976e+17
19230.0	4.973985575294292e+17
19231.0	4.9730578127257594e+17
19232.0	4.972129000183125e+17
19233.0	4.9711968370906445e+17
19234.0	4.970271898686804e+17
19235.0	4.969345934775636e+17
19236.0	4.968418142846975e+17
19237.0	4.967489400908458e+17
19238.0	4.9665564059456845e+17
19239.0	4.9656356667391994e+17
19240.0	4.9647036343691936e+17
19241.0	4.9628287853745485e+17
19242.0	4.9610763583269536e+17
19243.0	4.960138855186432e+17
19244.0	4.959222741598207e+17
19245.0	4.9582960541695994e+17
19246.0	4.957368259444736e+17
19247.0	4.9564427443240954e+17
19248.0	4.955516222570495e+17
19249.0	4.954589625319424e+17
19250.0	4.953662759632896e+17
19251.0	4.952731864618325e+17
19252.0	4.951788866939562e+17
19253.0	4.9508831524290554e+17
19254.0	4.9499569948808525e+17
19255.0	4.949017507834538e+17
19256.0	4.948104230294868e+17
19257.0	4.947178785778346e+17
19258.0	4.9462524961095674e+17
19259.0	4.9453209950180685e+17
19260.0	4.9443928032324256e+17
19261.0	4.9434736753377274e+17
19262.0	4.9425473528135674e+17
19263.0	4.9416190729475405e+17
19264.0	4.940658180270763e+17
19265.0	4.939753484277076e+17
19266.0	4.938824943665151e+17
19267.0	4.937915579411113e+17
19268.0	4.9369891303587834e+17
19269.0	4.936062621188095e+17
19270.0	4.9351359798968314e+17
19271.0	4.934185502375935e+17
19272.0	4.933280270909439e+17
19273.0	4.9322185960980474e+17
19274.0	4.931349947351038e+17
19275.0	4.930502154780672e+17
19276.0	4.929575146487808e+17
19277.0	4.9286480270458874e+17
19278.0	4.927720770590035e+17
19279.0	4.9267933274876576e+17
19280.0	4.9258602766008314e+17
19281.0	4.9249381651578874e+17
19282.0	4.924010479484927e+17
19283.0	4.923078536593408e+17
19284.0	4.922151198348628e+17
19285.0	4.9212141670673043e+17
19286.0	4.9202955508776954e+17
19287.0	4.9193690626785274e+17
19288.0	4.918361074958336e+17
19289.0	4.917227400025427e+17
19290.0	4.9165819106208416e+17
19291.0	4.915635240828927e+17
19292.0	4.914722653951317e+17
19293.0	4.913792041353215e+17
19294.0	4.9128623095589536e+17
19295.0	4.9119316997570554e+17
19296.0	4.911000813131093e+17
19297.0	4.910069481908906e+17
19298.0	4.9091385505437005e+17
19299.0	4.908206696431615e+17
19300.0	4.907274427083434e+17
19301.0	4.9063411958415354e+17
19302.0	4.9054082616961696e+17
19303.0	4.9044691535353165e+17
19304.0	4.9035385024894285e+17
19305.0	4.902606832926719e+17
19306.0	4.9016722063796896e+17
19307.0	4.9007352498967885e+17
19308.0	4.8998010092257274e+17
19309.0	4.8988552614816416e+17
19310.0	4.897913603183956e+17
19311.0	4.896987233124351e+17
19312.0	4.896052300393129e+17
19313.0	4.895112699401556e+17
19314.0	4.893704639392425e+17
19315.0	4.892820863188992e+17
19316.0	4.892292868822357e+17
19317.0	4.891352177311743e+17
19318.0	4.890409875188393e+17
19319.0	4.889466918753621e+17
19320.0	4.8885228046909434e+17
19321.0	4.887578300557994e+17
19322.0	4.886626734615209e+17
19323.0	4.8856816425806496e+17
19324.0	4.8847385617148576e+17
19325.0	4.883781103474004e+17
19326.0	4.882840381904213e+17
19327.0	4.8818885139715405e+17
19328.0	4.880937903631017e+17
19329.0	4.879984902537215e+17
19330.0	4.879027629544787e+17
19331.0	4.878071998622379e+17
19332.0	4.8771182083003725e+17
19333.0	4.876159946850303e+17
19334.0	4.8751999503564794e+17
19335.0	4.8742390478929914e+17
19336.0	4.8732760252088314e+17
19337.0	4.872311368843262e+17
19338.0	4.8713311704842234e+17
19339.0	4.8703778303508474e+17
19340.0	4.869398425414313e+17
19341.0	4.8684353677776205e+17
19342.0	4.867437275119615e+17
19343.0	4.866487075820883e+17
19344.0	4.8655091892223994e+17
19345.0	4.8643629998844576e+17
19346.0	4.8635121958038176e+17
19347.0	4.862556867570346e+17
19348.0	4.8615741190744736e+17
19349.0	4.859095521689598e+17
19350.0	4.8575071184923296e+17
19351.0	4.856506737841492e+17
19352.0	4.8555025089167354e+17
19353.0	4.8545026602434554e+17
19354.0	4.853494532014079e+17
19355.0	4.8524769638045005e+17
19356.0	4.85146714177536e+17
19357.0	4.8504479328938656e+17
19358.0	4.849423777529855e+17
19359.0	4.848389764852394e+17
19360.0	4.8473630984983885e+17
19361.0	4.8463250222394016e+17
19362.0	4.845286779606357e+17
19363.0	4.844240058187775e+17
19364.0	4.8431877653353805e+17
19365.0	4.842130669305855e+17
19366.0	4.841067288111785e+17
19367.0	4.839997955200341e+17
19368.0	4.838922327337642e+17
19369.0	4.837836209520638e+17
19370.0	4.836735626248191e+17
19371.0	4.8356513790907725e+17
19372.0	4.833919787248295e+17
19373.0	4.8309639053311994e+17
19374.0	4.829834934310229e+17
19375.0	4.8286962828356256e+17
19376.0	4.8275483962026656e+17
19377.0	4.8263897232179194e+17
19378.0	4.8252208014513485e+17
19379.0	4.824040266356053e+17
19380.0	4.8228478068544845e+17
19381.0	4.821642791703891e+17
19382.0	4.82041867079953e+17
19383.0	4.8191659887820774e+17
19384.0	4.815057608594772e+17
19385.0	4.8137743955394554e+17
19386.0	4.8124794181604685e+17
19387.0	4.8111659963296416e+17
19388.0	4.809833364586496e+17
19389.0	4.8084806036794016e+17
19390.0	4.806856465012049e+17
19391.0	4.8020095475821216e+17
19392.0	4.800916971935061e+17
19393.0	4.799443507347455e+17
19394.0	4.7979405442198176e+17
19395.0	4.795475981675182e+17
19396.0	4.791015553280682e+17
19397.0	4.7893787736801274e+17
19398.0	4.78770299614003e+17
19399.0	4.783155238141948e+17
19400.0	4.7798735070385485e+17
19401.0	4.7780123014157645e+17
19402.0	4.774176253891925e+17
19403.0	4.7716769813845325e+17
19404.0	4.7694527307885216e+17
19405.0	4.767077615271936e+17
19406.0	4.764867247123113e+17
19407.0	4.762580411919019e+17
19408.0	4.760157918243498e+17
19409.0	4.7577556089569286e+17
19410.0	4.755207824430419e+17
19411.0	4.7525588628056736e+17
19412.0	4.749802699664042e+17
19413.0	4.746932099132074e+17
19414.0	4.7439363091114656e+17
19415.0	4.7408149751835296e+17
19416.0	4.73754072322321e+17
19417.0	4.734139658578602e+17
19418.0	4.730645284651008e+17
19419.0	4.726915705339904e+17
19420.0	4.7230067314524154e+17
19421.0	4.718907523508906e+17
19422.0	4.714604966619817e+17
19423.0	4.710096890931882e+17
19424.0	4.7048735375141536e+17
19425.0	4.6995234112580256e+17
19426.0	4.69430873166097e+17
19427.0	4.6888431718673056e+17
19428.0	4.6829962372928826e+17
19429.0	4.675737269305343e+17
19430.0	4.6694173598460576e+17
19431.0	4.6612470877388794e+17
19432.0	4.653012259001681e+17
19433.0	4.6431030340485126e+17
19434.0	4.6312075104529056e+17
19435.0	4.616137020364117e+17
19436.0	4.59535339329945e+17
19437.0	4.5629348738935443e+17
19438.0	4.5335300416034125e+17
19439.0	4.514790967170389e+17
19440.0	4.4934322569871354e+17
19441.0	4.470027301071529e+17
19442.0	4.444158970997419e+17
19443.0	4.416438375459498e+17
19444.0	4.3844335479466643e+17
19445.0	4.3365758199835334e+17
19446.0	4.245862969158323e+17
19447.0	4.1699234489739904e+17
19448.0	4.079838446310742e+17
19449.0	3.8931505834448134e+17
19450.0	3.414834796647767e+17
19451.0	3.243986896202405e+17
19452.0	3.699494336069654e+17
19453.0	4.0024267170338086e+17
19454.0	4.126173929930746e+17
19455.0	4.2015369451274234e+17
19456.0	4.2884445052600416e+17
19457.0	4.355427108825768e+17
19458.0	4.389559202043221e+17
19459.0	4.418428387459072e+17
19460.0	4.4437014891724774e+17
19461.0	4.4664723725789856e+17
19462.0	4.48715614514927e+17
19463.0	4.505748300103678e+17
19464.0	4.5255414227053146e+17
19465.0	4.5585412404893024e+17
19466.0	4.5823424665572704e+17
19467.0	4.5976827426679494e+17
19468.0	4.609595079131138e+17
19469.0	4.6182131442210106e+17
19470.0	4.625812020701865e+17
19471.0	4.632220740354047e+17
19472.0	4.6374846904401914e+17
19473.0	4.642450194825217e+17
19474.0	4.647383354834944e+17
19475.0	4.651162568141481e+17
19476.0	4.654804352980308e+17
19477.0	4.658142086430719e+17
19478.0	4.661972055009962e+17
19479.0	4.66494430449937e+17
19480.0	4.6675818653067936e+17
19481.0	4.6700155277148154e+17
19482.0	4.6722516628712096e+17
19483.0	4.674304003626325e+17
19484.0	4.6761495274455034e+17
19485.0	4.6778273755736736e+17
19486.0	4.679396536702293e+17
19487.0	4.680822426697727e+17
19488.0	4.682111117514068e+17
19489.0	4.68327176671505e+17
19490.0	4.684210615528106e+17
19491.0	4.685246182894249e+17
19492.0	4.686078364265129e+17
19493.0	4.686811365026475e+17
19494.0	4.687454388879359e+17
19495.0	4.688013352588629e+17
19496.0	4.6884656495547725e+17
19497.0	4.6888991462522874e+17
19498.0	4.689230696196778e+17
19499.0	4.689146189359785e+17
19500.0	4.6908747794786963e+17
19501.0	4.692548097059498e+17
19502.0	4.6926200398588576e+17
19503.0	4.6940261481185235e+17
19504.0	4.696716342547796e+17
19505.0	4.6966088152733005e+17
19506.0	4.696464611606528e+17
19507.0	4.698194173405864e+17
19508.0	4.699685362423124e+17
19509.0	4.699410481719977e+17
19510.0	4.699095012737023e+17
19511.0	4.697932931181225e+17
19512.0	4.699335862954666e+17
19513.0	4.701029734722217e+17
19514.0	4.7006904141305165e+17
19515.0	4.700318439484075e+17
19516.0	4.6998991761571834e+17
19517.0	4.6994196078264314e+17
19518.0	4.6989341989273594e+17
19519.0	4.698427304706047e+17
19520.0	4.699285134245889e+17
19521.0	4.700093935867221e+17
19522.0	4.6995318439062176e+17
19523.0	4.698957961756671e+17
19524.0	4.6983725578540365e+17
19525.0	4.6977748625435296e+17
19526.0	4.697169515424426e+17
19527.0	4.6965531484706125e+17
19528.0	4.695927541465087e+17
19529.0	4.695292948862294e+17
19530.0	4.694649926407509e+17
19531.0	4.69399881523746e+17
19532.0	4.693340136144896e+17
19533.0	4.6926741184184314e+17
19534.0	4.693977326419966e+17
19535.0	4.6936264714922656e+17
19536.0	4.692931118104575e+17
19537.0	4.692235601139029e+17
19538.0	4.6915298864223565e+17
19539.0	4.690777821850282e+17
19540.0	4.6901081480888314e+17
19541.0	4.689389298210134e+17
19542.0	4.6886657143603194e+17
19543.0	4.687937650993835e+17
19544.0	4.687205430373034e+17
19545.0	4.6864457978784416e+17
19546.0	4.685655209323178e+17
19547.0	4.6849852042117114e+17
19548.0	4.684237812793343e+17
19549.0	4.683480550080511e+17
19550.0	4.682733339017215e+17
19551.0	4.6819765104148474e+17
19552.0	4.6812164668784634e+17
19553.0	4.6804524324618234e+17
19554.0	4.6796850691659085e+17
19555.0	4.6789202308410016e+17
19556.0	4.678149602978474e+17
19557.0	4.6773763068395514e+17
19558.0	4.676601142138197e+17
19559.0	4.6758234377857696e+17
19560.0	4.6750442297753594e+17
19561.0	4.674262530348372e+17
19562.0	4.673479033662121e+17
19563.0	4.672693576138751e+17
19564.0	4.6719064073393485e+17
19565.0	4.671117476233215e+17
19566.0	4.6703253483683834e+17
19567.0	4.669534636081151e+17
19568.0	4.6687409814896634e+17
19569.0	4.6679451752202234e+17
19570.0	4.667149261996031e+17
19571.0	4.666351395624276e+17
19572.0	4.666017705885693e+17
19573.0	4.6666496288139936e+17
19574.0	4.6658402553692154e+17
19575.0	4.665042250585428e+17
19576.0	4.664236471659177e+17
19577.0	4.6634273477754874e+17
19578.0	4.6626188991747405e+17
19579.0	4.6618113586408096e+17
19580.0	4.661002174638762e+17
19581.0	4.660191627487913e+17
19582.0	4.6593816004307616e+17
19583.0	4.658569443366229e+17
19584.0	4.6577564984715936e+17
19585.0	4.656935007682559e+17
19586.0	4.6561189562067616e+17
19587.0	4.6553114932674554e+17
19588.0	4.6544643501151565e+17
19589.0	4.6536802774111565e+17
19590.0	4.6528571997771085e+17
19591.0	4.652046858147155e+17
19592.0	4.6512285808940365e+17
19593.0	4.6504101673260365e+17
19594.0	4.649573605004629e+17
19595.0	4.648771271699114e+17
19596.0	4.6479267891336525e+17
19597.0	4.647130652213247e+17
19598.0	4.646281447560534e+17
19599.0	4.645488405337429e+17
19600.0	4.6446666195490125e+17
19601.0	4.643839781022378e+17
19602.0	4.6430190864520525e+17
19603.0	4.642165760196608e+17
19604.0	4.641373086373204e+17
19605.0	4.6405312853661005e+17
19606.0	4.639728185202004e+17
19607.0	4.638904295271082e+17
19608.0	4.638079493079039e+17
19609.0	4.6372534829274445e+17
19610.0	4.6364303416797856e+17
19611.0	4.635604497203198e+17
19612.0	4.6347796971083085e+17
19613.0	4.6339540938042016e+17
19614.0	4.6331255586815994e+17
19615.0	4.6323022643418445e+17
19616.0	4.631472980535978e+17
19617.0	4.6306491178680314e+17
19618.0	4.6297861663839565e+17
19619.0	4.6289428085910176e+17
19620.0	4.628122028736511e+17
19621.0	4.627342646662485e+17
19622.0	4.6265155501861536e+17
19623.0	4.6256883292788045e+17
19624.0	4.624860972056576e+17
19625.0	4.624033486908074e+17
19626.0	4.623205964709887e+17
19627.0	4.622378297808213e+17
19628.0	4.621544224107178e+17
19629.0	4.620716794183679e+17
19630.0	4.619892497405268e+17
19631.0	4.618764979710634e+17
19632.0	4.618238828740607e+17
19633.0	4.6174107130484045e+17
19634.0	4.6165827434577914e+17
19635.0	4.615754620775082e+17
19636.0	4.6149264393721165e+17
19637.0	4.614074804120233e+17
19638.0	4.613269335572479e+17
19639.0	4.6124417210996045e+17
19640.0	4.6116128742004045e+17
19641.0	4.6107115322518176e+17
19642.0	4.609956848336895e+17
19643.0	4.609128291543723e+17
19644.0	4.608295941701631e+17
19645.0	4.607452210615638e+17
19646.0	4.6066436970031776e+17
19647.0	4.605815440801791e+17
19648.0	4.6049871846004045e+17
19649.0	4.6041587648211616e+17
19650.0	4.603330772860927e+17
19651.0	4.6025026047399245e+17
19652.0	4.6016744743676576e+17
19653.0	4.600846245429247e+17
19654.0	4.6000183058978125e+17
