# Flux units: erg / (cm m2 s)
# Wavelength units: Angstrom
wave	flux
19000.0	6.3903826458269e+17
19001.0	6.389119840856746e+17
19002.0	6.388059247476733e+17
19003.0	6.386888094340436e+17
19004.0	6.385720537819817e+17
19005.0	6.384542532588884e+17
19006.0	6.383383309451264e+17
19007.0	6.382211794206719e+17
19008.0	6.381038227248468e+17
19009.0	6.379757632137898e+17
19010.0	6.378581968027647e+17
19011.0	6.377382669014356e+17
19012.0	6.375927832029865e+17
19013.0	6.37520584900608e+17
19014.0	6.374052311247529e+17
19015.0	6.372910857278804e+17
19016.0	6.371777817782954e+17
19017.0	6.37062014444066e+17
19018.0	6.369445870043133e+17
19019.0	6.368295943580329e+17
19020.0	6.367123058196479e+17
19021.0	6.36597110448674e+17
19022.0	6.364798329552895e+17
19023.0	6.363575330624851e+17
19024.0	6.362359355058857e+17
19025.0	6.361140444179113e+17
19026.0	6.359841994615465e+17
19027.0	6.358594535205546e+17
19028.0	6.357623595772585e+17
19029.0	6.356495451029503e+17
19030.0	6.355340611638612e+17
19031.0	6.354103990310228e+17
19032.0	6.3527722694301e+17
19033.0	6.351184167523667e+17
19034.0	6.349027669617322e+17
19035.0	6.342490705625087e+17
19036.0	6.321775580632404e+17
19037.0	6.341243714579113e+17
19038.0	6.344536024416255e+17
19039.0	6.344333826807124e+17
19040.0	6.343511186778794e+17
19041.0	6.342497924721321e+17
19042.0	6.339952502287017e+17
19043.0	6.340331085758463e+17
19044.0	6.33917713556002e+17
19045.0	6.33797625319697e+17
19046.0	6.336832539197439e+17
19047.0	6.335614624464895e+17
19048.0	6.334102282174463e+17
19049.0	6.329976497023654e+17
19050.0	6.331044425542314e+17
19051.0	6.327411602533033e+17
19052.0	6.327172789349033e+17
19053.0	6.327910164070397e+17
19054.0	6.327318537917779e+17
19055.0	6.325783148625921e+17
19056.0	6.325162761431721e+17
19057.0	6.324207830259028e+17
19058.0	6.321576660172796e+17
19059.0	6.321402609838761e+17
19060.0	6.320802393052502e+17
19061.0	6.31965884752418e+17
19062.0	6.31851975914291e+17
19063.0	6.317364942121642e+17
19064.0	6.316172460250452e+17
19065.0	6.314962408439807e+17
19066.0	6.31334799216913e+17
19067.0	6.31275557818641e+17
19068.0	6.311621012662953e+17
19069.0	6.310469565065897e+17
19070.0	6.309300695029076e+17
19071.0	6.308115384019625e+17
19072.0	6.30646439621427e+17
19073.0	6.305859144865108e+17
19074.0	6.304705881833471e+17
19075.0	6.303550901234344e+17
19076.0	6.302392371554985e+17
19077.0	6.301224710875818e+17
19078.0	6.300063081605802e+17
19079.0	6.298924676896084e+17
19080.0	6.297757046975146e+17
19081.0	6.296564771323903e+17
19082.0	6.295432065275219e+17
19083.0	6.294193232849577e+17
19084.0	6.292912906174463e+17
19085.0	6.291878880215039e+17
19086.0	6.289528649504084e+17
19087.0	6.288132369197736e+17
19088.0	6.287429980564136e+17
19089.0	6.287013616899412e+17
19090.0	6.286045274439679e+17
19091.0	6.284844524197204e+17
19092.0	6.282607020998659e+17
19093.0	6.282734281075369e+17
19094.0	6.281617301569533e+17
19095.0	6.280489601422676e+17
19096.0	6.279352843676329e+17
19097.0	6.278214977934676e+17
19098.0	6.276439940093268e+17
19099.0	6.275163137332566e+17
19100.0	6.274667169972223e+17
19101.0	6.273569498944854e+17
19102.0	6.272428418968233e+17
19103.0	6.271301237516969e+17
19104.0	6.270138991684265e+17
19105.0	6.267572100704942e+17
19106.0	6.267713272588969e+17
19107.0	6.266149675204607e+17
19108.0	6.264640983356756e+17
19109.0	6.263691128690004e+17
19110.0	6.262758181262676e+17
19111.0	6.261446559487316e+17
19112.0	6.26036724413235e+17
19113.0	6.259773027997012e+17
19114.0	6.258349178530473e+17
19115.0	6.257400210259967e+17
19116.0	6.256350323539967e+17
19117.0	6.255180370673663e+17
19118.0	6.253679349508778e+17
19119.0	6.249821700620285e+17
19120.0	6.251369733641556e+17
19121.0	6.250423950245887e+17
19122.0	6.249491376111615e+17
19123.0	6.248408184520701e+17
19124.0	6.246905995242153e+17
19125.0	6.246101006942207e+17
19126.0	6.244850136864084e+17
19127.0	6.243384966512639e+17
19128.0	6.242438133142867e+17
19129.0	6.241494718130857e+17
19130.0	6.24044731863313e+17
19131.0	6.239331867252052e+17
19132.0	6.238196845248512e+17
19133.0	6.237018809958399e+17
19134.0	6.235856002788009e+17
19135.0	6.234774831453524e+17
19136.0	6.233629673914365e+17
19137.0	6.232464670326783e+17
19138.0	6.231342008238079e+17
19139.0	6.230217684505942e+17
19140.0	6.229082312977066e+17
19141.0	6.227942516457471e+17
19142.0	6.226766423130111e+17
19143.0	6.225642927073961e+17
19144.0	6.224484561671508e+17
19145.0	6.223369854080339e+17
19146.0	6.221757735589204e+17
19147.0	6.221061686646102e+17
19148.0	6.219455876388182e+17
19149.0	6.218226939723775e+17
19150.0	6.217647451187882e+17
19151.0	6.21649244332578e+17
19152.0	6.215268469921108e+17
19153.0	6.213151910876498e+17
19154.0	6.212887834001408e+17
19155.0	6.211785309465257e+17
19156.0	6.210602434647379e+17
19157.0	6.209025701401942e+17
19158.0	6.207355638601046e+17
19159.0	6.206957093737811e+17
19160.0	6.205730441570985e+17
19161.0	6.204337740404052e+17
19162.0	6.202671929229312e+17
19163.0	6.201890075312127e+17
19164.0	6.201152962035711e+17
19165.0	6.199114568040444e+17
19166.0	6.19911166698018e+17
19167.0	6.198019024923305e+17
19168.0	6.196962273525759e+17
19169.0	6.19588332167714e+17
19170.0	6.194775204735657e+17
19171.0	6.193650564333567e+17
19172.0	6.19249398780177e+17
19173.0	6.191407072367956e+17
19174.0	6.190279855964159e+17
19175.0	6.189149465171284e+17
19176.0	6.18801417682944e+17
19177.0	6.18675290837265e+17
19178.0	6.185690716263763e+17
19179.0	6.184550764554921e+17
19180.0	6.183429905317885e+17
19181.0	6.182264945770495e+17
19182.0	6.181123054895104e+17
19183.0	6.180028456894463e+17
19184.0	6.178880878542847e+17
19185.0	6.177711774324052e+17
19186.0	6.17655242395921e+17
19187.0	6.175300790517759e+17
19188.0	6.174166629744639e+17
19189.0	6.172947068747773e+17
19190.0	6.171704772526077e+17
19191.0	6.170414869555882e+17
19192.0	6.169107732190548e+17
19193.0	6.167548213766826e+17
19194.0	6.165920431647402e+17
19195.0	6.164418231184041e+17
19196.0	6.162306673846953e+17
19197.0	6.15959371063842e+17
19198.0	6.155800386994175e+17
19199.0	6.150084732037802e+17
19200.0	6.149421667101353e+17
19201.0	6.152659680275114e+17
19202.0	6.154108582319444e+17
19203.0	6.154381265207295e+17
19204.0	6.15429762519313e+17
19205.0	6.153783562207232e+17
19206.0	6.153053435942228e+17
19207.0	6.152094491519657e+17
19208.0	6.151193811572052e+17
19209.0	6.150255839368534e+17
19210.0	6.149233953822036e+17
19211.0	6.148186278199295e+17
19212.0	6.147097750055593e+17
19213.0	6.145889292080467e+17
19214.0	6.144802120794111e+17
19215.0	6.143797896063657e+17
19216.0	6.14272092742178e+17
19217.0	6.141579748879017e+17
19218.0	6.140358621309609e+17
19219.0	6.139263698250408e+17
19220.0	6.138278931595263e+17
19221.0	6.137181292724223e+17
19222.0	6.136098986131456e+17
19223.0	6.135008897706665e+17
19224.0	6.133877949770409e+17
19225.0	6.132781099428521e+17
19226.0	6.131673198493695e+17
19227.0	6.130562323098281e+17
19228.0	6.129467822265684e+17
19229.0	6.128349416696489e+17
19230.0	6.127221573943295e+17
19231.0	6.126094656034132e+17
19232.0	6.124978122522623e+17
19233.0	6.123811089590953e+17
19234.0	6.122740093637972e+17
19235.0	6.121593940650665e+17
19236.0	6.120497216836948e+17
19237.0	6.119367509016575e+17
19238.0	6.118192439099391e+17
19239.0	6.117127441001129e+17
19240.0	6.116010718745939e+17
19241.0	6.114869756209833e+17
19242.0	6.113755285596842e+17
19243.0	6.112522432850602e+17
19244.0	6.111523574033066e+17
19245.0	6.110394695985834e+17
19246.0	6.10927308247313e+17
19247.0	6.108148446964394e+17
19248.0	6.107014673465343e+17
19249.0	6.105827365967188e+17
19250.0	6.104519210784084e+17
19251.0	6.103344646280531e+17
19252.0	6.102283311207763e+17
19253.0	6.101383691020969e+17
19254.0	6.100266557723988e+17
19255.0	6.098990605008895e+17
19256.0	6.098007869095935e+17
19257.0	6.09688357052962e+17
19258.0	6.095732025764521e+17
19259.0	6.094405893095423e+17
19260.0	6.092697459403433e+17
19261.0	6.092224640406868e+17
19262.0	6.091133727102292e+17
19263.0	6.089996914829993e+17
19264.0	6.088802634301437e+17
19265.0	6.087742392543914e+17
19266.0	6.086624400113664e+17
19267.0	6.085616514454867e+17
19268.0	6.084496026413737e+17
19269.0	6.083366645050026e+17
19270.0	6.082209113615018e+17
19271.0	6.081022874965332e+17
19272.0	6.079955990129321e+17
19273.0	6.07871610073907e+17
19274.0	6.077426248799571e+17
19275.0	6.076599499052371e+17
19276.0	6.075454749758804e+17
19277.0	6.074322585474388e+17
19278.0	6.073135633093971e+17
19279.0	6.071994566399315e+17
19280.0	6.070863481449129e+17
19281.0	6.06970715447842e+17
19282.0	6.068545041465341e+17
19283.0	6.06733350347298e+17
19284.0	6.066044737159167e+17
19285.0	6.064742972697257e+17
19286.0	6.063128698333865e+17
19287.0	6.060336289415167e+17
19288.0	6.047265038095698e+17
19289.0	6.042045491707899e+17
19290.0	6.056468154067626e+17
19291.0	6.057219700643158e+17
19292.0	6.056855524605951e+17
19293.0	6.05595522703906e+17
19294.0	6.054909944965801e+17
19295.0	6.053869251461119e+17
19296.0	6.052065859425622e+17
19297.0	6.051495500491433e+17
19298.0	6.050516509392895e+17
19299.0	6.048611656444588e+17
19300.0	6.048260847654228e+17
19301.0	6.047134943368532e+17
19302.0	6.045975705550847e+17
19303.0	6.044756453534377e+17
19304.0	6.043652405067775e+17
19305.0	6.04246776095266e+17
19306.0	6.041265509149353e+17
19307.0	6.040010000171005e+17
19308.0	6.038739308511231e+17
19309.0	6.037303478714367e+17
19310.0	6.035961537014442e+17
19311.0	6.034774649645737e+17
19312.0	6.033205982046889e+17
19313.0	6.029791941623808e+17
19314.0	5.967057352917007e+17
19315.0	5.969212904308764e+17
19316.0	6.025539200483328e+17
19317.0	6.027605683033428e+17
19318.0	6.027053531572906e+17
19319.0	6.026155809308672e+17
19320.0	6.024824800062121e+17
19321.0	6.023361882051924e+17
19322.0	6.022833123622911e+17
19323.0	6.02166820601856e+17
19324.0	6.020500784414719e+17
19325.0	6.019351516457642e+17
19326.0	6.018277868306431e+17
19327.0	6.017159620023635e+17
19328.0	6.014816405684225e+17
19329.0	6.014884761654612e+17
19330.0	6.013726518586025e+17
19331.0	6.012543389313705e+17
19332.0	6.011396730213716e+17
19333.0	6.010202365100032e+17
19334.0	6.009038282162176e+17
19335.0	6.005407419990019e+17
19336.0	6.006661823070207e+17
19337.0	6.005523107981994e+17
19338.0	6.004184811831295e+17
19339.0	6.003118753273172e+17
19340.0	6.001865342145876e+17
19341.0	5.999746462253057e+17
19342.0	5.999078455028394e+17
19343.0	5.998261497582932e+17
19344.0	5.996058743493974e+17
19345.0	5.994841340466516e+17
19346.0	5.994092781633535e+17
19347.0	5.992132047273983e+17
19348.0	5.992209939693567e+17
19349.0	5.990981413371903e+17
19350.0	5.989311837809322e+17
19351.0	5.988548349351252e+17
19352.0	5.986053571040595e+17
19353.0	5.986134363821396e+17
19354.0	5.984898564576596e+17
19355.0	5.983575395183274e+17
19356.0	5.982387441063252e+17
19357.0	5.981132768149504e+17
19358.0	5.979840100433919e+17
19359.0	5.978275496416595e+17
19360.0	5.976259960679082e+17
19361.0	5.975954971863721e+17
19362.0	5.97468048925218e+17
19363.0	5.973379660120063e+17
19364.0	5.972061640633002e+17
19365.0	5.970731217190911e+17
19366.0	5.969403952059732e+17
19367.0	5.968059877556223e+17
19368.0	5.966722308418218e+17
19369.0	5.965319834522964e+17
19370.0	5.963960719245311e+17
19371.0	5.96255986225425e+17
19372.0	5.96121376399906e+17
19373.0	5.959807942350164e+17
19374.0	5.958427041158484e+17
19375.0	5.957009097971027e+17
19376.0	5.955592931071316e+17
19377.0	5.9541489727133e+17
19378.0	5.9526991591069e+17
19379.0	5.951236445219498e+17
19380.0	5.949747454017533e+17
19381.0	5.94824174641698e+17
19382.0	5.946635979500201e+17
19383.0	5.945083013278377e+17
19384.0	5.943523923372713e+17
19385.0	5.941917402180265e+17
19386.0	5.940249988082345e+17
19387.0	5.938492371282602e+17
19388.0	5.936586817186473e+17
19389.0	5.934212530044927e+17
19390.0	5.929628255737171e+17
19391.0	5.909178224039246e+17
19392.0	5.920961438853801e+17
19393.0	5.926456265801728e+17
19394.0	5.925836300834131e+17
19395.0	5.92403637539089e+17
19396.0	5.922563169452032e+17
19397.0	5.920824229887999e+17
19398.0	5.918530267862356e+17
19399.0	5.916402647739049e+17
19400.0	5.91458548720162e+17
19401.0	5.912927429896874e+17
19402.0	5.910814982668287e+17
19403.0	5.908626485717673e+17
19404.0	5.906388412792831e+17
19405.0	5.904057811424596e+17
19406.0	5.901673304861354e+17
19407.0	5.898819640229887e+17
19408.0	5.896510916351315e+17
19409.0	5.893918007405226e+17
19410.0	5.891278667513855e+17
19411.0	5.888517141255508e+17
19412.0	5.88562506448896e+17
19413.0	5.882224205365248e+17
19414.0	5.879540918255615e+17
19415.0	5.876332436477267e+17
19416.0	5.872894357099859e+17
19417.0	5.869500710081876e+17
19418.0	5.865968587418281e+17
19419.0	5.862265603489791e+17
19420.0	5.858433921537364e+17
19421.0	5.854302481765716e+17
19422.0	5.849918256884393e+17
19423.0	5.845362814222335e+17
19424.0	5.840540989216084e+17
19425.0	5.835437423722496e+17
19426.0	5.830066962082473e+17
19427.0	5.824374273736703e+17
19428.0	5.818220632080384e+17
19429.0	5.811480003870719e+17
19430.0	5.80328257294609e+17
19431.0	5.795173259455146e+17
19432.0	5.789554498513577e+17
19433.0	5.781922903665322e+17
19434.0	5.77285879112226e+17
19435.0	5.762094144159743e+17
19436.0	5.750671033412266e+17
19437.0	5.7360699076116474e+17
19438.0	5.6901526506263936e+17
19439.0	5.7006444567156026e+17
19440.0	5.7011862531386016e+17
19441.0	5.687992603639806e+17
19442.0	5.671597662797824e+17
19443.0	5.65220592460322e+17
19444.0	5.6297721940322976e+17
19445.0	5.603917816310442e+17
19446.0	5.5728157791791776e+17
19447.0	5.5348955443800723e+17
19448.0	5.4863367643682144e+17
19449.0	5.41945000694033e+17
19450.0	5.308269251788791e+17
19451.0	5.2215947334778906e+17
19452.0	5.3723599966917965e+17
19453.0	5.4527718165490374e+17
19454.0	5.506543320913234e+17
19455.0	5.5466398346554016e+17
19456.0	5.5776121685278726e+17
19457.0	5.598349925984938e+17
19458.0	5.465723077918836e+17
19459.0	5.609133754897782e+17
19460.0	5.659061680865279e+17
19461.0	5.6760622596314445e+17
19462.0	5.689765570194091e+17
19463.0	5.7016299021489485e+17
19464.0	5.7120849151044256e+17
19465.0	5.721452158386175e+17
19466.0	5.7294280832232096e+17
19467.0	5.7370652907492685e+17
19468.0	5.7440397143572474e+17
19469.0	5.7495179115888614e+17
19470.0	5.7560601436269216e+17
19471.0	5.7613046789789005e+17
19472.0	5.766032163602432e+17
19473.0	5.770144628342783e+17
19474.0	5.773214491869181e+17
19475.0	5.777350462188201e+17
19476.0	5.780848617979903e+17
19477.0	5.783958471398742e+17
19478.0	5.786768013350228e+17
19479.0	5.788487852053843e+17
19480.0	5.79158837174818e+17
19481.0	5.79368270307874e+17
19482.0	5.795558547521536e+17
19483.0	5.797176951876265e+17
19484.0	5.798695224213503e+17
19485.0	5.800066072357546e+17
19486.0	5.800411354453334e+17
19487.0	5.80232681759266e+17
19488.0	5.803243483430911e+17
19489.0	5.803900802869929e+17
19490.0	5.804490736620884e+17
19491.0	5.80542637679138e+17
19492.0	5.806060004005204e+17
19493.0	5.806518722450774e+17
19494.0	5.806840037594452e+17
19495.0	5.806801886205268e+17
19496.0	5.806157533457065e+17
19497.0	5.80405335040546e+17
19498.0	5.789485021265916e+17
19499.0	5.77233870791202e+17
19500.0	5.801814726628692e+17
19501.0	5.806107949094228e+17
19502.0	5.807104094197076e+17
19503.0	5.807377213292543e+17
19504.0	5.807357823724201e+17
19505.0	5.807147489864361e+17
19506.0	5.806879528364714e+17
19507.0	5.806453680679593e+17
19508.0	5.805701896426836e+17
19509.0	5.804112241928874e+17
19510.0	5.79743343915827e+17
19511.0	5.710117235676478e+17
19512.0	5.78358073307955e+17
19513.0	5.788415694645928e+17
19514.0	5.79111927170116e+17
19515.0	5.800906436815529e+17
19516.0	5.801980486920874e+17
19517.0	5.802146960244736e+17
19518.0	5.801600316604415e+17
19519.0	5.801114146439167e+17
19520.0	5.799977503337128e+17
19521.0	5.800413557861034e+17
19522.0	5.799622065433257e+17
19523.0	5.798896920603306e+17
19524.0	5.797787293013334e+17
19525.0	5.797798779813887e+17
19526.0	5.797145405816832e+17
19527.0	5.796435039617023e+17
19528.0	5.795629640974335e+17
19529.0	5.794846306467839e+17
19530.0	5.79424184434688e+17
19531.0	5.793487859482623e+17
19532.0	5.792735190930772e+17
19533.0	5.791979085845844e+17
19534.0	5.791191777236308e+17
19535.0	5.790379955017044e+17
19536.0	5.789561507894612e+17
19537.0	5.788735450207572e+17
19538.0	5.786962628356778e+17
19539.0	5.786985617337001e+17
19540.0	5.786263960070825e+17
19541.0	5.785222410928128e+17
19542.0	5.784507970661033e+17
19543.0	5.782785272141142e+17
19544.0	5.78280206962961e+17
19545.0	5.781785041786196e+17
19546.0	5.78090648469504e+17
19547.0	5.780264930246655e+17
19548.0	5.779434985138857e+17
19549.0	5.778487274460499e+17
19550.0	5.777678480528724e+17
19551.0	5.776782483521535e+17
19552.0	5.775879131802281e+17
19553.0	5.774964530959699e+17
19554.0	5.774053323309055e+17
19555.0	5.773016821312169e+17
19556.0	5.77214199435537e+17
19557.0	5.771292593968468e+17
19558.0	5.77040747279155e+17
19559.0	5.769495987617791e+17
19560.0	5.768196661444607e+17
19561.0	5.767613384753152e+17
19562.0	5.766346247766015e+17
19563.0	5.765762202817875e+17
19564.0	5.764821855939241e+17
19565.0	5.7638848568142496e+17
19566.0	5.7629994070835194e+17
19567.0	5.762061794891092e+17
19568.0	5.761093713177257e+17
19569.0	5.760149580939263e+17
19570.0	5.75919149425186e+17
19571.0	5.7582422030199456e+17
19572.0	5.7572659913468576e+17
19573.0	5.756195745475242e+17
19574.0	5.7552490239535776e+17
19575.0	5.7544072320341325e+17
19576.0	5.753369104744447e+17
19577.0	5.752280379468458e+17
19578.0	5.7515206029694285e+17
19579.0	5.750533568593919e+17
19580.0	5.7495668409412256e+17
19581.0	5.748609845471913e+17
19582.0	5.7476363202505363e+17
19583.0	5.746656638489941e+17
19584.0	5.745647272241834e+17
19585.0	5.744593863704575e+17
19586.0	5.7435787966982816e+17
19587.0	5.7426554143812256e+17
19588.0	5.7415981163260576e+17
19589.0	5.740692518557013e+17
19590.0	5.7396804658571936e+17
19591.0	5.738783569870847e+17
19592.0	5.7378161270893216e+17
19593.0	5.736715906624169e+17
19594.0	5.735562936494762e+17
19595.0	5.734840053792767e+17
19596.0	5.7335915779631776e+17
19597.0	5.732844321461589e+17
19598.0	5.7316625693190816e+17
19599.0	5.7308483808133114e+17
19600.0	5.7298732883203405e+17
19601.0	5.728826192909653e+17
19602.0	5.7277691779700045e+17
19603.0	5.726663878202708e+17
19604.0	5.725738541339988e+17
19605.0	5.724705858955947e+17
19606.0	5.7238906826915834e+17
19607.0	5.722933226547882e+17
19608.0	5.72193407902242e+17
19609.0	5.7209243073249274e+17
19610.0	5.7195073644789754e+17
19611.0	5.71830207320337e+17
19612.0	5.717948328400211e+17
19613.0	5.716932230993236e+17
19614.0	5.715890052704937e+17
19615.0	5.7148370006835194e+17
19616.0	5.7132595858636794e+17
19617.0	5.712143170491733e+17
19618.0	5.7115262107429536e+17
19619.0	5.710356506039636e+17
19620.0	5.70933792420659e+17
19621.0	5.707803222780585e+17
19622.0	5.7077408227218765e+17
19623.0	5.70663311053073e+17
19624.0	5.7054251481825274e+17
19625.0	5.704455698426537e+17
19626.0	5.703203216337577e+17
19627.0	5.7017446932589216e+17
19628.0	5.699893446311935e+17
19629.0	5.695134224089087e+17
19630.0	5.692618157588479e+17
19631.0	5.688941694244181e+17
19632.0	5.693245148714324e+17
19633.0	5.6944779469346125e+17
19634.0	5.69460784243234e+17
19635.0	5.6939810120881485e+17
19636.0	5.692357982115155e+17
19637.0	5.6912964135594643e+17
19638.0	5.691574904859305e+17
19639.0	5.690692828048041e+17
19640.0	5.689563660593834e+17
19641.0	5.688362611157674e+17
19642.0	5.687702461262505e+17
19643.0	5.6867265396954445e+17
19644.0	5.685792983394985e+17
19645.0	5.684796365733887e+17
19646.0	5.682769320826196e+17
19647.0	5.6828678869701965e+17
19648.0	5.681895271912788e+17
19649.0	5.6808966388886176e+17
19650.0	5.6799035717058554e+17
19651.0	5.6788999726257485e+17
19652.0	5.677899837341696e+17
19653.0	5.676887467272873e+17
19654.0	5.675898128127317e+17
19655.0	5.6748967156776954e+17
19656.0	5.6739003930159776e+17
19657.0	5.672897770509652e+17
19658.0	5.671890417527466e+17
19659.0	5.6708942437635405e+17
19660.0	5.669890302148607e+17
19661.0	5.6688841424459085e+17
19662.0	5.667868465867434e+17
19663.0	5.666852629905407e+17
