# Flux units: erg / (cm m2 s)
# Wavelength units: Angstrom
wave	flux
19000.0	4.460785499635712e+17
19001.0	4.459802622514517e+17
19002.0	4.459193929738921e+17
19003.0	4.4583921374986234e+17
19004.0	4.4575695037617485e+17
19005.0	4.4567526211147085e+17
19006.0	4.455765015614804e+17
19007.0	4.4552121462292474e+17
19008.0	4.454294236779861e+17
19009.0	4.453470474775211e+17
19010.0	4.4517817899636026e+17
19011.0	4.4519612292792314e+17
19012.0	4.450889813895849e+17
19013.0	4.450434357220692e+17
19014.0	4.449562650127018e+17
19015.0	4.4487180319457254e+17
19016.0	4.447900808161962e+17
19017.0	4.4472529454803616e+17
19018.0	4.4464371491580576e+17
19019.0	4.445623329051989e+17
19020.0	4.4448564474019834e+17
19021.0	4.444080027904681e+17
19022.0	4.443285227569151e+17
19023.0	4.4424154799144954e+17
19024.0	4.4415728673095674e+17
19025.0	4.440899878649855e+17
19026.0	4.4400544265011194e+17
19027.0	4.439184991322111e+17
19028.0	4.4385319479760205e+17
19029.0	4.4377121782497274e+17
19030.0	4.43695951319313e+17
19031.0	4.436163972562943e+17
19032.0	4.43536354906385e+17
19033.0	4.4344336767604045e+17
19034.0	4.433782309737813e+17
19035.0	4.432968150592169e+17
19036.0	4.420217304252407e+17
19037.0	4.4314111830043296e+17
19038.0	4.430600264657578e+17
19039.0	4.429824809151146e+17
19040.0	4.4290482750095354e+17
19041.0	4.428248390478506e+17
19042.0	4.42437144709256e+17
19043.0	4.42670210158865e+17
19044.0	4.425891039936511e+17
19045.0	4.4251028791842125e+17
19046.0	4.4242077357178874e+17
19047.0	4.4235287310281376e+17
19048.0	4.421873793586516e+17
19049.0	4.4157758173347776e+17
19050.0	4.4210392508224845e+17
19051.0	4.418548989078181e+17
19052.0	4.4194303500615674e+17
19053.0	4.4188168534097914e+17
19054.0	4.4180242201313274e+17
19055.0	4.4159273827041286e+17
19056.0	4.416100294983679e+17
19057.0	4.415660287328255e+17
19058.0	4.411721310186149e+17
19059.0	4.4128444986600096e+17
19060.0	4.413265143311018e+17
19061.0	4.4125187375540896e+17
19062.0	4.4117285656330234e+17
19063.0	4.4109467235997005e+17
19064.0	4.4099404618356045e+17
19065.0	4.4091059316544845e+17
19066.0	4.407328660346198e+17
19067.0	4.407785421449898e+17
19068.0	4.4070259749027834e+17
19069.0	4.4062424761193805e+17
19070.0	4.4054017083091616e+17
19071.0	4.404657152939349e+17
19072.0	4.402662839681022e+17
19073.0	4.4030909704656205e+17
19074.0	4.4023205481239885e+17
19075.0	4.401539300283732e+17
19076.0	4.400605970475691e+17
19077.0	4.3999353683749536e+17
19078.0	4.3990859547060896e+17
19079.0	4.398397199657642e+17
19080.0	4.3975987069364896e+17
19081.0	4.396744130079402e+17
19082.0	4.395970831144277e+17
19083.0	4.39515033510434e+17
19084.0	4.394175323002197e+17
19085.0	4.3936725077415245e+17
19086.0	4.390878934204415e+17
19087.0	4.3893226824444563e+17
19088.0	4.389775458260306e+17
19089.0	4.3901742009548806e+17
19090.0	4.3897652150708896e+17
19091.0	4.3887421746926944e+17
19092.0	4.3857913685824896e+17
19093.0	4.387462224106836e+17
19094.0	4.38667895181585e+17
19095.0	4.385898699423744e+17
19096.0	4.3850869645858125e+17
19097.0	4.38433723064866e+17
19098.0	4.3822883418057376e+17
19099.0	4.381270664544257e+17
19100.0	4.381917810698921e+17
19101.0	4.381192193310719e+17
19102.0	4.380153997514068e+17
19103.0	4.37964935074065e+17
19104.0	4.3788865005158394e+17
19105.0	4.37537572476246e+17
19106.0	4.3772545737250125e+17
19107.0	4.375852749247828e+17
19108.0	4.3747729550431565e+17
19109.0	4.374390007398399e+17
19110.0	4.374211678175232e+17
19111.0	4.37267900609331e+17
19112.0	4.371643381405012e+17
19113.0	4.3718624352228685e+17
19114.0	4.370606018876755e+17
19115.0	4.3700255586604365e+17
19116.0	4.369460719430314e+17
19117.0	4.368737226457087e+17
19118.0	4.36775559434513e+17
19119.0	4.337879770376828e+17
19120.0	4.3662959325129376e+17
19121.0	4.3655948007724365e+17
19122.0	4.3648936781195936e+17
19123.0	4.364120019173376e+17
19124.0	4.363302865993728e+17
19125.0	4.3625653430736205e+17
19126.0	4.3617974722669216e+17
19127.0	4.3574489877490304e+17
19128.0	4.3602215345411405e+17
19129.0	4.3593440386088954e+17
19130.0	4.358673844054698e+17
19131.0	4.35791501267217e+17
19132.0	4.357135429970601e+17
19133.0	4.356289399706964e+17
19134.0	4.355590658719744e+17
19135.0	4.3548139603012256e+17
19136.0	4.3540413415423994e+17
19137.0	4.3529571810672634e+17
19138.0	4.3524835246079994e+17
19139.0	4.351736201696595e+17
19140.0	4.3509648300441594e+17
19141.0	4.350189400402602e+17
19142.0	4.3493656404951034e+17
19143.0	4.348518335163051e+17
19144.0	4.3478164169905485e+17
19145.0	4.347097548237482e+17
19146.0	4.345253266631339e+17
19147.0	4.345218682497705e+17
19148.0	4.3437344399469235e+17
19149.0	4.342798590061226e+17
19150.0	4.343228871125674e+17
19151.0	4.342465203710633e+17
19152.0	4.341691212016298e+17
19153.0	4.3387725867035264e+17
19154.0	4.339698043802965e+17
19155.0	4.3393911619583994e+17
19156.0	4.3386204425202336e+17
19157.0	4.337126727832918e+17
19158.0	4.3351938897892704e+17
19159.0	4.3362034231104845e+17
19160.0	4.3355235774627834e+17
19161.0	4.3347703238055245e+17
19162.0	4.3330753796942515e+17
19163.0	4.333232062813525e+17
19164.0	4.3324531197433165e+17
19165.0	4.3293233825273126e+17
19166.0	4.330623304990719e+17
19167.0	4.3299742252619085e+17
19168.0	4.3293921013050016e+17
19169.0	4.328593133928447e+17
19170.0	4.327859082493951e+17
19171.0	4.327012967645183e+17
19172.0	4.326318189576191e+17
19173.0	4.325551623897087e+17
19174.0	4.324667747729408e+17
19175.0	4.3240122549097805e+17
19176.0	4.323250548331861e+17
19177.0	4.322218952971604e+17
19178.0	4.321589522158933e+17
19179.0	4.3207123184298656e+17
19180.0	4.32017410883584e+17
19181.0	4.319039208467115e+17
19182.0	4.318590817097044e+17
19183.0	4.317890020900863e+17
19184.0	4.31707685580527e+17
19185.0	4.316334773676713e+17
19186.0	4.3155949355007994e+17
19187.0	4.314733767994025e+17
19188.0	4.31403215950097e+17
19189.0	4.313302501599913e+17
19190.0	4.3125409942514336e+17
19191.0	4.3116861734256634e+17
19192.0	4.311008639538516e+17
19193.0	4.309981725021525e+17
19194.0	4.3090436025221126e+17
19195.0	4.308712265788074e+17
19196.0	4.307919718492842e+17
19197.0	4.307173195295402e+17
19198.0	4.3064313193867936e+17
19199.0	4.299397598806014e+17
19200.0	4.3008990394013037e+17
19201.0	4.3041162313509523e+17
19202.0	4.303381287927807e+17
19203.0	4.3025989062273696e+17
19204.0	4.301803379578196e+17
19205.0	4.3010796887736314e+17
19206.0	4.300300347244544e+17
19207.0	4.2993850410598394e+17
19208.0	4.298249324898985e+17
19209.0	4.298023416889344e+17
19210.0	4.297260457612628e+17
19211.0	4.2965172129628154e+17
19212.0	4.2957621333852154e+17
19213.0	4.294821348900863e+17
19214.0	4.293993607899819e+17
19215.0	4.2934648641508685e+17
19216.0	4.2927269756272634e+17
19217.0	4.291958915377834e+17
19218.0	4.289684665881937e+17
19219.0	4.290232608358399e+17
19220.0	4.2896431136112634e+17
19221.0	4.2883146139566086e+17
19222.0	4.288166693437438e+17
19223.0	4.287371577131008e+17
19224.0	4.2865805845244576e+17
19225.0	4.285599260693844e+17
19226.0	4.285096378324309e+17
19227.0	4.284345538489002e+17
19228.0	4.2836198749634554e+17
19229.0	4.282858087994708e+17
19230.0	4.2820868792210765e+17
19231.0	4.2813262547735885e+17
19232.0	4.2805786760096416e+17
19233.0	4.2797172393683616e+17
19234.0	4.279020265581227e+17
19235.0	4.278261664186368e+17
19236.0	4.2775621626320205e+17
19237.0	4.276767687355051e+17
19238.0	4.275854083358719e+17
19239.0	4.2752924625578656e+17
19240.0	4.2745260779328845e+17
19241.0	4.273745445257215e+17
19242.0	4.272996079020714e+17
19243.0	4.272023886189907e+17
19244.0	4.271507733042517e+17
19245.0	4.2707252052404896e+17
19246.0	4.2699658216079354e+17
19247.0	4.2692318799243936e+17
19248.0	4.2684925052190714e+17
19249.0	4.267685031794006e+17
19250.0	4.266545598081707e+17
19251.0	4.265650093905235e+17
19252.0	4.265037090783232e+17
19253.0	4.26466268483857e+17
19254.0	4.263965089595391e+17
19255.0	4.262908025722196e+17
19256.0	4.2623989616476154e+17
19257.0	4.2617035215776416e+17
19258.0	4.2609518337938765e+17
19259.0	4.260082785888938e+17
19260.0	4.259079980930387e+17
19261.0	4.258674230951936e+17
19262.0	4.2578271723847674e+17
19263.0	4.2570550772148896e+17
19264.0	4.25530202871125e+17
19265.0	4.255247706182996e+17
19266.0	4.25403862675183e+17
19267.0	4.254179815413076e+17
19268.0	4.2534161109483514e+17
19269.0	4.25267386384384e+17
19270.0	4.2519283263078394e+17
19271.0	4.250465167824215e+17
19272.0	4.250355286846121e+17
19273.0	4.249161882927102e+17
19274.0	4.248228915227304e+17
19275.0	4.2481743690028365e+17
19276.0	4.247389053386751e+17
19277.0	4.246651622042282e+17
19278.0	4.2458696569760416e+17
19279.0	4.2451269988297376e+17
19280.0	4.2442425613243725e+17
19281.0	4.2436424382109e+17
19282.0	4.2429239623243085e+17
19283.0	4.242094594632362e+17
19284.0	4.241385651000661e+17
19285.0	4.2403707937095674e+17
19286.0	4.2398664810823674e+17
19287.0	4.239177760287402e+17
19288.0	4.235487176119635e+17
19289.0	4.2293329004243456e+17
19290.0	4.236938204676095e+17
19291.0	4.2357819832620384e+17
19292.0	4.235437993011882e+17
19293.0	4.2346805632259405e+17
19294.0	4.233917661970431e+17
19295.0	4.2331992133468154e+17
19296.0	4.2311894314953414e+17
19297.0	4.2314280440517984e+17
19298.0	4.2309068444576416e+17
19299.0	4.228773766845782e+17
19300.0	4.2293970411192314e+17
19301.0	4.2287003099026765e+17
19302.0	4.2279481705321805e+17
19303.0	4.227081396639061e+17
19304.0	4.226419994045098e+17
19305.0	4.2256966087256736e+17
19306.0	4.224969201068714e+17
19307.0	4.2241306597348685e+17
19308.0	4.223441564248746e+17
19309.0	4.22249067918131e+17
19310.0	4.2216903130043725e+17
19311.0	4.221176907825151e+17
19312.0	4.220478011648682e+17
19313.0	4.2197215081048736e+17
19314.0	4.1753482848720026e+17
19315.0	4.17693866079034e+17
19316.0	4.21582713179341e+17
19317.0	4.2167456291444045e+17
19318.0	4.2160229393803936e+17
19319.0	4.215305776310954e+17
19320.0	4.214033778824532e+17
19321.0	4.21270277586944e+17
19322.0	4.2129608863470925e+17
19323.0	4.212237050139989e+17
19324.0	4.2115868008994125e+17
19325.0	4.2106240361649485e+17
19326.0	4.2101139277086714e+17
19327.0	4.209319646767786e+17
19328.0	4.2061678097640115e+17
19329.0	4.20789046284561e+17
19330.0	4.20707175567633e+17
19331.0	4.20632777003281e+17
19332.0	4.205663727124479e+17
19333.0	4.204897359975765e+17
19334.0	4.204096449937408e+17
19335.0	4.1984549579653165e+17
19336.0	4.2026369705574394e+17
19337.0	4.2019511186664096e+17
19338.0	4.2008490841647776e+17
19339.0	4.2004673437805216e+17
19340.0	4.1989716451874125e+17
19341.0	4.197092090882733e+17
19342.0	4.1969834283499526e+17
19343.0	4.1975157778022394e+17
19344.0	4.1949741393291974e+17
19345.0	4.190749358118222e+17
19346.0	4.193743509564074e+17
19347.0	4.1921795339933e+17
19348.0	4.193818805010431e+17
19349.0	4.193028217154219e+17
19350.0	4.1914938708459514e+17
19351.0	4.1915070150956365e+17
19352.0	4.188301491699707e+17
19353.0	4.1901216952046925e+17
19354.0	4.189392672041642e+17
19355.0	4.18849209974784e+17
19356.0	4.187913367584767e+17
19357.0	4.187179532156927e+17
19358.0	4.186436434307755e+17
19359.0	4.185061753967955e+17
19360.0	4.1830283476991994e+17
19361.0	4.1841552215681696e+17
19362.0	4.183500871696383e+17
19363.0	4.1827626063844685e+17
19364.0	4.182024627683328e+17
19365.0	4.1812784770798925e+17
19366.0	4.180547629394602e+17
19367.0	4.179817238189396e+17
19368.0	4.179084529631231e+17
19369.0	4.1782632625384096e+17
19370.0	4.177559662450004e+17
19371.0	4.1767882048143354e+17
19372.0	4.176135567616682e+17
19373.0	4.175376353154389e+17
19374.0	4.1746637143408634e+17
19375.0	4.173932157119146e+17
19376.0	4.173206825642665e+17
19377.0	4.1724536104331936e+17
19378.0	4.1717269116136096e+17
19379.0	4.170998488935081e+17
19380.0	4.170258693401257e+17
19381.0	4.169511459269289e+17
19382.0	4.168683948255914e+17
19383.0	4.16787027075618e+17
19384.0	4.1672838112870394e+17
19385.0	4.1665919405697696e+17
19386.0	4.1658700218586445e+17
19387.0	4.165138504482815e+17
19388.0	4.164375063560191e+17
19389.0	4.163563347596629e+17
19390.0	4.162828766980778e+17
19391.0	4.150841118993048e+17
19392.0	4.1613072223873696e+17
19393.0	4.160620503673514e+17
19394.0	4.159867619115008e+17
19395.0	4.158411313425068e+17
19396.0	4.158211126285653e+17
19397.0	4.1576801476717216e+17
19398.0	4.156289712827051e+17
19399.0	4.153717998398121e+17
19400.0	4.1548790691266554e+17
19401.0	4.154720039993343e+17
19402.0	4.1539975166033914e+17
19403.0	4.1532284196618234e+17
19404.0	4.152519254431061e+17
19405.0	4.151750379088555e+17
19406.0	4.1510318577636685e+17
19407.0	4.149423432357203e+17
19408.0	4.147853204477273e+17
19409.0	4.148807574312276e+17
19410.0	4.1480930662372685e+17
19411.0	4.1473518593201485e+17
19412.0	4.1465901548393805e+17
19413.0	4.1449471935337805e+17
19414.0	4.145040342734165e+17
19415.0	4.1443484748130976e+17
19416.0	4.143314764824574e+17
19417.0	4.1427519514432845e+17
19418.0	4.1421271427536205e+17
19419.0	4.141370958675968e+17
19420.0	4.1406291694496416e+17
19421.0	4.139872700858367e+17
19422.0	4.139040864818516e+17
19423.0	4.138340352436906e+17
19424.0	4.137584055113045e+17
19425.0	4.1368100186794656e+17
19426.0	4.136041126559744e+17
19427.0	4.1352551202815994e+17
19428.0	4.134471539010219e+17
19429.0	4.1336762157847885e+17
19430.0	4.1327532759668045e+17
19431.0	4.129869145309188e+17
19432.0	4.131218894006954e+17
19433.0	4.1303574489770656e+17
19434.0	4.1294740097160525e+17
19435.0	4.128351094571008e+17
19436.0	4.1264871074256186e+17
19437.0	4.126592400534186e+17
19438.0	4.100407074750467e+17
19439.0	4.123756697310549e+17
19440.0	4.1230983789281274e+17
19441.0	4.1217124096191136e+17
19442.0	4.1200522607547725e+17
19443.0	4.118005483743914e+17
19444.0	4.1153541963775994e+17
19445.0	4.1116372076680525e+17
19446.0	4.1059443375691085e+17
19447.0	4.096120486974804e+17
19448.0	4.075773328971094e+17
19449.0	4.0130431330986656e+17
19450.0	3.645636906844148e+17
19451.0	3.3201306335532294e+17
19452.0	3.7870294836183085e+17
19453.0	4.03639684790136e+17
19454.0	4.078339093779795e+17
19455.0	4.0933253552537594e+17
19456.0	4.100219155950251e+17
19457.0	4.103752287343955e+17
19458.0	3.947758287323418e+17
19459.0	4.1034414509698054e+17
19460.0	4.107299138306048e+17
19461.0	4.1075264849619616e+17
19462.0	4.107434903033172e+17
19463.0	4.1072371227252045e+17
19464.0	4.106882053920084e+17
19465.0	4.10650719429154e+17
19466.0	4.105964554813438e+17
19467.0	4.1055260599036576e+17
19468.0	4.1049732345582925e+17
19469.0	4.1020387310086784e+17
19470.0	4.103788067553279e+17
19471.0	4.1031983036716365e+17
19472.0	4.1024533407552845e+17
19473.0	4.101788473666217e+17
19474.0	4.099443263537148e+17
19475.0	4.098587202595495e+17
19476.0	4.099796132429823e+17
19477.0	4.0991914494088525e+17
19478.0	4.0985912193406285e+17
19479.0	4.096156720168956e+17
19480.0	4.0971776962505376e+17
19481.0	4.096313742327808e+17
19482.0	4.09580116971793e+17
19483.0	4.0951639172273485e+17
19484.0	4.094439596578133e+17
19485.0	4.0936368606194336e+17
19486.0	4.091124551516165e+17
19487.0	4.0923395588969805e+17
19488.0	4.09167442546961e+17
19489.0	4.090869437169664e+17
19490.0	4.086949140059472e+17
19491.0	4.0894987938474656e+17
19492.0	4.0888593316577274e+17
19493.0	4.0881552785844896e+17
19494.0	4.087437315801087e+17
19495.0	4.086716477822293e+17
19496.0	4.084973119558995e+17
19497.0	4.085233245399721e+17
19498.0	4.0836454238126086e+17
19499.0	4.065759615516658e+17
19500.0	4.083131064429227e+17
19501.0	4.0825616380286285e+17
19502.0	4.081899215519744e+17
19503.0	4.081198120828927e+17
19504.0	4.0804871988838394e+17
19505.0	4.079741369843711e+17
19506.0	4.079069771595775e+17
19507.0	4.0782915017113594e+17
19508.0	4.0776404744273914e+17
19509.0	4.0769130849457485e+17
19510.0	4.075540030597801e+17
19511.0	4.0068744164146534e+17
19512.0	4.0722957042974624e+17
19513.0	4.068249868173302e+17
19514.0	4.069650109999782e+17
19515.0	4.071586463569241e+17
19516.0	4.071705142099967e+17
19517.0	4.071018020732927e+17
19518.0	4.070032357894825e+17
19519.0	4.069292198155604e+17
19520.0	4.0673934849692986e+17
19521.0	4.068377802833919e+17
19522.0	4.067399494707882e+17
19523.0	4.066530969692843e+17
19524.0	4.065000371694252e+17
19525.0	4.065489568049833e+17
19526.0	4.0648297753695565e+17
19527.0	4.0640773899332256e+17
19528.0	4.063280383393791e+17
19529.0	4.0624996032184314e+17
19530.0	4.0619864392116896e+17
19531.0	4.061276507821397e+17
19532.0	4.060564290535424e+17
19533.0	4.059853694347946e+17
19534.0	4.0591464808666445e+17
19535.0	4.058410539898197e+17
19536.0	4.057657526015317e+17
19537.0	4.057003931817301e+17
19538.0	4.054586349671768e+17
19539.0	4.054350410984111e+17
19540.0	4.054842341326848e+17
19541.0	4.0538578053584205e+17
19542.0	4.0533243905529165e+17
19543.0	4.051091743659351e+17
19544.0	4.051952663702185e+17
19545.0	4.050479910049105e+17
19546.0	4.048641889140736e+17
19547.0	4.0499367176219296e+17
19548.0	4.049226152891732e+17
19549.0	4.048362292641791e+17
19550.0	4.0478023313872205e+17
19551.0	4.0471064879650125e+17
19552.0	4.046389828212052e+17
19553.0	4.045648410181632e+17
19554.0	4.0448804876451834e+17
19555.0	4.0440806359695354e+17
19556.0	4.04344515067904e+17
19557.0	4.042841864361299e+17
19558.0	4.042148039797417e+17
19559.0	4.041450779399509e+17
19560.0	4.04013095985698e+17
19561.0	4.039994477204821e+17
19562.0	4.038749003098793e+17
19563.0	4.0386311375639885e+17
19564.0	4.0379173599969274e+17
19565.0	4.0372149664699725e+17
19566.0	4.036455901604521e+17
19567.0	4.0358121004072954e+17
19568.0	4.0350767676129274e+17
19569.0	4.034360905476778e+17
19570.0	4.033682676733268e+17
19571.0	4.0329759365092685e+17
19572.0	4.032235640455168e+17
19573.0	4.031372365310634e+17
19574.0	4.030671222385321e+17
19575.0	4.0301747586990074e+17
19576.0	4.029378978993493e+17
19577.0	4.028483144865109e+17
19578.0	4.027977687192916e+17
19579.0	4.0273080749479245e+17
19580.0	4.026620345406806e+17
19581.0	4.0259185565586765e+17
19582.0	4.0252560473675085e+17
19583.0	4.024556148053333e+17
19584.0	4.02384295559168e+17
19585.0	4.022956509014697e+17
19586.0	4.022213436331349e+17
19587.0	4.021704895146666e+17
19588.0	4.0200754408980486e+17
19589.0	4.0203067183158605e+17
19590.0	4.019317924429823e+17
19591.0	4.018922830080682e+17
19592.0	4.018219399162538e+17
19593.0	4.017365495491242e+17
19594.0	4.016266317310633e+17
19595.0	4.016080639666857e+17
19596.0	4.01537159467281e+17
19597.0	4.014714332555946e+17
19598.0	4.012573359166803e+17
19599.0	4.013322528970068e+17
19600.0	4.012632826008917e+17
19601.0	4.011814349526357e+17
19602.0	4.0111626210945696e+17
19603.0	4.009598082088958e+17
19604.0	4.009777556357118e+17
19605.0	4.008601133077845e+17
19606.0	4.0084195672500896e+17
19607.0	4.0077386094127776e+17
19608.0	4.007009044485461e+17
19609.0	4.0062426640547834e+17
19610.0	4.004812525229398e+17
19611.0	4.0037340969697286e+17
19612.0	4.004250301147817e+17
19613.0	4.00353224818688e+17
19614.0	4.002792324027732e+17
19615.0	4.002153310628522e+17
19616.0	4.00054055600128e+17
19617.0	3.99950356606703e+17
19618.0	3.9988548868942483e+17
19619.0	3.997600151764989e+17
19620.0	3.996775766207143e+17
19621.0	3.996283806504276e+17
19622.0	3.99727519806259e+17
19623.0	3.99650867782178e+17
19624.0	3.995665315834538e+17
19625.0	3.9951830806254925e+17
19626.0	3.994477936334164e+17
19627.0	3.9937974251902285e+17
19628.0	3.9929274014105594e+17
19629.0	3.9880908502029626e+17
19630.0	3.9915979859995296e+17
19631.0	3.984662034644988e+17
19632.0	3.990297565113002e+17
19633.0	3.989521703458133e+17
19634.0	3.988914600323754e+17
19635.0	3.9879519733022694e+17
19636.0	3.9855654073357626e+17
19637.0	3.984483395043326e+17
19638.0	3.985949363011582e+17
19639.0	3.9854286527528954e+17
19640.0	3.984595293481643e+17
19641.0	3.9801578302996595e+17
19642.0	3.9832434511271245e+17
19643.0	3.9825376084841805e+17
19644.0	3.9818721681735674e+17
19645.0	3.9807083690502816e+17
19646.0	3.978504614619815e+17
19647.0	3.9798567785376416e+17
19648.0	3.9792112961235616e+17
19649.0	3.9785021218051405e+17
19650.0	3.9778297727767885e+17
19651.0	3.977132939498836e+17
19652.0	3.9764367829019296e+17
19653.0	3.975744959720106e+17
19654.0	3.9750540781595296e+17
19655.0	3.974339061874687e+17
