# Flux units: erg / (cm m2 s)
# Wavelength units: Angstrom
wave	flux
19000.0	3.801686854336511e+17
19001.0	3.800832933887999e+17
19002.0	3.800401734270974e+17
19003.0	3.7997361779179514e+17
19004.0	3.799014039704917e+17
19005.0	3.798315896406016e+17
19006.0	3.797539185404585e+17
19007.0	3.797167547700564e+17
19008.0	3.796396465455103e+17
19009.0	3.795747255003819e+17
19010.0	3.794055170708818e+17
19011.0	3.79448932241681e+17
19012.0	3.7934686797823994e+17
19013.0	3.7933166810016416e+17
19014.0	3.792525274557098e+17
19015.0	3.7917489025952416e+17
19016.0	3.791165845405696e+17
19017.0	3.7906884769873914e+17
19018.0	3.790028996083712e+17
19019.0	3.7893843175778976e+17
19020.0	3.788765227821738e+17
19021.0	3.788120970144425e+17
19022.0	3.7875148568657914e+17
19023.0	3.786661982896127e+17
19024.0	3.785952050806783e+17
19025.0	3.785554373465429e+17
19026.0	3.784870527849813e+17
19027.0	3.784187149899091e+17
19028.0	3.783561747016363e+17
19029.0	3.782916810560853e+17
19030.0	3.782291310510079e+17
19031.0	3.7815082136808096e+17
19032.0	3.781038613812565e+17
19033.0	3.780198034046976e+17
19034.0	3.779661806960638e+17
19035.0	3.778773780529151e+17
19036.0	3.772115236945919e+17
19037.0	3.777491794307754e+17
19038.0	3.7770833445956256e+17
19039.0	3.7765040923388576e+17
19040.0	3.7758533118197754e+17
19041.0	3.77520598950434e+17
19042.0	3.7614329682110957e+17
19043.0	3.773990363463679e+17
19044.0	3.7733605691446605e+17
19045.0	3.772663131187882e+17
19046.0	3.771914935861247e+17
19047.0	3.771386250832553e+17
19048.0	3.768786579969363e+17
19049.0	3.742867677773788e+17
19050.0	3.76935972811571e+17
19051.0	3.767510423830524e+17
19052.0	3.7681640250190496e+17
19053.0	3.767592122580992e+17
19054.0	3.766954241643861e+17
19055.0	3.7617073064509446e+17
19056.0	3.764445750755323e+17
19057.0	3.765059469705215e+17
19058.0	3.750479852295486e+17
19059.0	3.758050485731323e+17
19060.0	3.76306322706705e+17
19061.0	3.762493746839551e+17
19062.0	3.761821069956437e+17
19063.0	3.761236003695274e+17
19064.0	3.760363718486698e+17
19065.0	3.759668699944276e+17
19066.0	3.7538649016893504e+17
19067.0	3.758547292651519e+17
19068.0	3.7580398566659405e+17
19069.0	3.7573979051567776e+17
19070.0	3.7566436448665594e+17
19071.0	3.756044090780331e+17
19072.0	3.749914955044174e+17
19073.0	3.754830120790697e+17
19074.0	3.754152210814293e+17
19075.0	3.7535585706967034e+17
19076.0	3.7527947271208954e+17
19077.0	3.7522137524032845e+17
19078.0	3.75145154810129e+17
19079.0	3.750973949695317e+17
19080.0	3.7503635085940045e+17
19081.0	3.7496050819618125e+17
19082.0	3.7489841005745485e+17
19083.0	3.74835153731584e+17
19084.0	3.747526656830123e+17
19085.0	3.7470896285286394e+17
19086.0	3.739581060306257e+17
19087.0	3.734686260701851e+17
19088.0	3.738806946278048e+17
19089.0	3.744321468978518e+17
19090.0	3.74399092916224e+17
19091.0	3.742640572989445e+17
19092.0	3.7322447675283085e+17
19093.0	3.7421234516568736e+17
19094.0	3.7414912658855245e+17
19095.0	3.740795249797802e+17
19096.0	3.74018490236928e+17
19097.0	3.739564396336469e+17
19098.0	3.733552175426212e+17
19099.0	3.731702719447047e+17
19100.0	3.7375430801489914e+17
19101.0	3.7368656811786234e+17
19102.0	3.736056677531647e+17
19103.0	3.7357514447476045e+17
19104.0	3.735153611724117e+17
19105.0	3.7226529185683155e+17
19106.0	3.733733924405247e+17
19107.0	3.73049576303274e+17
19108.0	3.728190094005592e+17
19109.0	3.731652207443967e+17
19110.0	3.7312977272395085e+17
19111.0	3.727475908192934e+17
19112.0	3.726036927774712e+17
19113.0	3.729396164023637e+17
19114.0	3.7267047266822784e+17
19115.0	3.727628941568682e+17
19116.0	3.727414114910208e+17
19117.0	3.726808437839189e+17
19118.0	3.725636292050944e+17
19119.0	3.681895592230847e+17
19120.0	3.7246894090485754e+17
19121.0	3.724272831474347e+17
19122.0	3.7237571795462816e+17
19123.0	3.723140182747818e+17
19124.0	3.722487744080554e+17
19125.0	3.72188972580864e+17
19126.0	3.7212436722701645e+17
19127.0	3.7168256329099885e+17
19128.0	3.7199449885245434e+17
19129.0	3.7192377862280525e+17
19130.0	3.7187223461123405e+17
19131.0	3.7180983259518285e+17
19132.0	3.7174068068570445e+17
19133.0	3.7167780485311136e+17
19134.0	3.716203106620757e+17
19135.0	3.71555070640128e+17
19136.0	3.7148067766818125e+17
19137.0	3.7139463166143136e+17
19138.0	3.7137076138803194e+17
19139.0	3.7131031999938554e+17
19140.0	3.712481655171754e+17
19141.0	3.7118161246836045e+17
19142.0	3.711055067523754e+17
19143.0	3.710398673627818e+17
19144.0	3.70986345107729e+17
19145.0	3.709289903073963e+17
19146.0	3.7075816441446406e+17
19147.0	3.707708357563732e+17
19148.0	3.7028636959703123e+17
19149.0	3.7013247226456736e+17
19150.0	3.706168290923861e+17
19151.0	3.7055078432331085e+17
19152.0	3.7049260373442554e+17
19153.0	3.6944521500207616e+17
19154.0	3.7027304673989984e+17
19155.0	3.70305145049361e+17
19156.0	3.702403836674047e+17
19157.0	3.698804936496479e+17
19158.0	3.694010932308661e+17
19159.0	3.7003499531141114e+17
19160.0	3.699867611649365e+17
19161.0	3.6992845104196256e+17
19162.0	3.6981680174530554e+17
19163.0	3.6980366343755085e+17
19164.0	3.697369953949012e+17
19165.0	3.686246781375812e+17
19166.0	3.695783377371135e+17
19167.0	3.6953849842018976e+17
19168.0	3.6948871650563405e+17
19169.0	3.6942462075972256e+17
19170.0	3.693655671963647e+17
19171.0	3.692943239370068e+17
19172.0	3.692387606637227e+17
19173.0	3.6917652970536954e+17
19174.0	3.69101532753647e+17
19175.0	3.690500322230272e+17
19176.0	3.689894806639957e+17
19177.0	3.6889853151586976e+17
19178.0	3.6884821930147846e+17
19179.0	3.6877979356583245e+17
19180.0	3.6873771602848416e+17
19181.0	3.6862797583919776e+17
19182.0	3.6860085365200205e+17
19183.0	3.685517317111808e+17
19184.0	3.6848506933084166e+17
19185.0	3.68422910234897e+17
19186.0	3.683669499008342e+17
19187.0	3.6828767909314566e+17
19188.0	3.682372604133376e+17
19189.0	3.6817972609679354e+17
19190.0	3.6811851155810976e+17
19191.0	3.6804232209585485e+17
19192.0	3.6799292249210874e+17
19193.0	3.678243100732077e+17
19194.0	3.676902651505324e+17
19195.0	3.6780505213610656e+17
19196.0	3.6773945832461645e+17
19197.0	3.676766791707306e+17
19198.0	3.676187461156863e+17
19199.0	3.671677773458089e+17
19200.0	3.672524032311298e+17
19201.0	3.674252932109653e+17
19202.0	3.6737286161476256e+17
19203.0	3.6730743879106566e+17
19204.0	3.672449779848532e+17
19205.0	3.6718453554763085e+17
19206.0	3.671230919300437e+17
19207.0	3.6704863087056205e+17
19208.0	3.669351579604308e+17
19209.0	3.669344652711253e+17
19210.0	3.668677452191061e+17
19211.0	3.668154834922155e+17
19212.0	3.6675132839690234e+17
19213.0	3.666701825955156e+17
19214.0	3.666041222376107e+17
19215.0	3.6656427033777485e+17
19216.0	3.665057091158015e+17
19217.0	3.66445166924049e+17
19218.0	3.662237628279464e+17
19219.0	3.662975712537258e+17
19220.0	3.662525137332906e+17
19221.0	3.6613327966699514e+17
19222.0	3.6612853311296845e+17
19223.0	3.6606616339305805e+17
19224.0	3.660010673755476e+17
19225.0	3.659202555106644e+17
19226.0	3.658863104491519e+17
19227.0	3.6582280120674976e+17
19228.0	3.657628099368278e+17
19229.0	3.656958176045738e+17
19230.0	3.656386098845013e+17
19231.0	3.6557946020167674e+17
19232.0	3.655186067925674e+17
19233.0	3.6544346080324256e+17
19234.0	3.6538539968211616e+17
19235.0	3.653273072435199e+17
19236.0	3.652709864090282e+17
19237.0	3.6520183456945485e+17
19238.0	3.651162252596565e+17
19239.0	3.650854858347861e+17
19240.0	3.650222676071765e+17
19241.0	3.6495879457559885e+17
19242.0	3.64895284564241e+17
19243.0	3.648189542432767e+17
19244.0	3.6477425002304845e+17
19245.0	3.6470415278735354e+17
19246.0	3.646485403708074e+17
19247.0	3.6459229153853434e+17
19248.0	3.645313265609386e+17
19249.0	3.6445726696625485e+17
19250.0	3.6423304143175686e+17
19251.0	3.641616987673938e+17
19252.0	3.642426139519659e+17
19253.0	3.642175263517355e+17
19254.0	3.6416213937902925e+17
19255.0	3.640715632443391e+17
19256.0	3.640332817618261e+17
19257.0	3.639776795514197e+17
19258.0	3.639140710438229e+17
19259.0	3.6384552674918394e+17
19260.0	3.63760873181457e+17
19261.0	3.637334641038676e+17
19262.0	3.636559697936383e+17
19263.0	3.6358955991039994e+17
19264.0	3.634281068888062e+17
19265.0	3.6343724299168416e+17
19266.0	3.633017840992257e+17
19267.0	3.633649326314837e+17
19268.0	3.633025071273301e+17
19269.0	3.632433130547882e+17
19270.0	3.63180328170291e+17
19271.0	3.630409978653358e+17
19272.0	3.6305302712920736e+17
19273.0	3.629663778417322e+17
19274.0	3.6286937323711123e+17
19275.0	3.6287680903905274e+17
19276.0	3.62812364956194e+17
19277.0	3.627557742182399e+17
19278.0	3.6267959894671354e+17
19279.0	3.6262671087042554e+17
19280.0	3.625534096758101e+17
19281.0	3.6250707107512314e+17
19282.0	3.624500313369258e+17
19283.0	3.623821500219391e+17
19284.0	3.6232151646426445e+17
19285.0	3.6223699319958176e+17
19286.0	3.6219797883234976e+17
19287.0	3.6214292915159034e+17
19288.0	3.619345176810837e+17
19289.0	3.614954922617503e+17
19290.0	3.619602766495744e+17
19291.0	3.6185600513365344e+17
19292.0	3.618377859858432e+17
19293.0	3.6177781016494074e+17
19294.0	3.6171260174008314e+17
19295.0	3.616533636972544e+17
19296.0	3.610350491882855e+17
19297.0	3.614525576882863e+17
19298.0	3.6146588313190394e+17
19299.0	3.607947801613659e+17
19300.0	3.613408388360874e+17
19301.0	3.612827539472384e+17
19302.0	3.6122831754362874e+17
19303.0	3.6115387556823034e+17
19304.0	3.610994237855061e+17
19305.0	3.6103755961903776e+17
19306.0	3.609811902005247e+17
19307.0	3.60908118434338e+17
19308.0	3.608532490387455e+17
19309.0	3.60781899174161e+17
19310.0	3.6072020732368205e+17
19311.0	3.606712140780885e+17
19312.0	3.606138439685461e+17
19313.0	3.605391715161429e+17
19314.0	3.557646969864119e+17
19315.0	3.5599792447598106e+17
19316.0	3.5966014445322374e+17
19317.0	3.6030520680775674e+17
19318.0	3.6025258444062714e+17
19319.0	3.6019188041864525e+17
19320.0	3.599317940043769e+17
19321.0	3.5958042108013235e+17
19322.0	3.6000387773235194e+17
19323.0	3.599514241859583e+17
19324.0	3.5989555815383034e+17
19325.0	3.598214872345258e+17
19326.0	3.597731625609899e+17
19327.0	3.597092065553066e+17
19328.0	3.5857052376323526e+17
19329.0	3.595951380540074e+17
19330.0	3.5952618320691194e+17
19331.0	3.594657883750399e+17
19332.0	3.5941174917201914e+17
19333.0	3.5935252706754554e+17
19334.0	3.592671392169985e+17
19335.0	3.570146720000712e+17
19336.0	3.591566412567894e+17
19337.0	3.5910786898111136e+17
19338.0	3.590129698471935e+17
19339.0	3.5898789580854605e+17
19340.0	3.588010025855658e+17
19341.0	3.580594418789052e+17
19342.0	3.5853059622611706e+17
19343.0	3.5874559610934605e+17
19344.0	3.578672239869965e+17
19345.0	3.5784980364438214e+17
19346.0	3.583845021166251e+17
19347.0	3.575112368390142e+17
19348.0	3.5844671105488205e+17
19349.0	3.5838170458576205e+17
19350.0	3.579798184700587e+17
19351.0	3.582506498523136e+17
19352.0	3.5713954118369114e+17
19353.0	3.5814440142110714e+17
19354.0	3.5808486306611194e+17
19355.0	3.5800985653739526e+17
19356.0	3.5796553903199565e+17
19357.0	3.57904691564817e+17
19358.0	3.57843147563554e+17
19359.0	3.57563581403408e+17
19360.0	3.5687081736929254e+17
19361.0	3.5765223430990496e+17
19362.0	3.576036872683519e+17
19363.0	3.5754623404168525e+17
19364.0	3.57484649775104e+17
19365.0	3.5742127300280314e+17
19366.0	3.5736359377305594e+17
19367.0	3.5730058700827296e+17
19368.0	3.572437489461931e+17
19369.0	3.5717662288554656e+17
19370.0	3.571238592402772e+17
19371.0	3.5705250643967994e+17
19372.0	3.570010893757099e+17
19373.0	3.569349020002986e+17
19374.0	3.568768914205354e+17
19375.0	3.568228115327658e+17
19376.0	3.567658025527978e+17
19377.0	3.5670407015738016e+17
19378.0	3.5664535430539936e+17
19379.0	3.5658619937969485e+17
19380.0	3.565191012810752e+17
19381.0	3.5644628865297056e+17
19382.0	3.563921875140608e+17
19383.0	3.563227621359615e+17
19384.0	3.5626829217791994e+17
19385.0	3.562191946339669e+17
19386.0	3.5616344967741434e+17
19387.0	3.5610463197375136e+17
19388.0	3.5603948674307405e+17
19389.0	3.559808574335658e+17
19390.0	3.559200164675584e+17
19391.0	3.551923623253322e+17
19392.0	3.557969885134847e+17
19393.0	3.557406035061418e+17
19394.0	3.556817709826048e+17
19395.0	3.552896042576563e+17
19396.0	3.5549040138868077e+17
19397.0	3.5550724969813325e+17
19398.0	3.551959220311383e+17
19399.0	3.548205525849425e+17
19400.0	3.5510785618739226e+17
19401.0	3.5526095660209485e+17
19402.0	3.55203063812369e+17
19403.0	3.551402011918336e+17
19404.0	3.550841784325461e+17
19405.0	3.5501683126217376e+17
19406.0	3.549613887848447e+17
19407.0	3.545056853448014e+17
19408.0	3.546591051557552e+17
19409.0	3.5477733279880525e+17
19410.0	3.5472065209303034e+17
19411.0	3.54661685072145e+17
19412.0	3.545991296843776e+17
19413.0	3.541251615184213e+17
19414.0	3.544707702106795e+17
19415.0	3.5441305330210125e+17
19416.0	3.5432647475855354e+17
19417.0	3.542859075201706e+17
19418.0	3.5423370675049805e+17
19419.0	3.5417297672383136e+17
19420.0	3.5410886294241274e+17
19421.0	3.5404227584983034e+17
19422.0	3.539766576414719e+17
19423.0	3.53925509152768e+17
19424.0	3.538634414926506e+17
19425.0	3.5379188624698016e+17
19426.0	3.5373896419682976e+17
19427.0	3.53673071890705e+17
19428.0	3.536105614518954e+17
19429.0	3.5355221511809696e+17
19430.0	3.534763844785493e+17
19431.0	3.532673897900718e+17
19432.0	3.5334996424130554e+17
19433.0	3.532761252670122e+17
19434.0	3.5320108119927456e+17
19435.0	3.531123970452138e+17
19436.0	3.529691829545641e+17
19437.0	3.5296496061863245e+17
19438.0	3.514501586485247e+17
19439.0	3.527542555628885e+17
19440.0	3.5271883200921594e+17
19441.0	3.526063507024554e+17
19442.0	3.5247255576029856e+17
19443.0	3.5231862906770765e+17
19444.0	3.5215749886771194e+17
19445.0	3.5195874632007674e+17
19446.0	3.5160425465118714e+17
19447.0	3.510087876345855e+17
19448.0	3.50016388988928e+17
19449.0	3.473375993615699e+17
19450.0	3.390866856782503e+17
19451.0	3.316489724974427e+17
19452.0	3.419843892084735e+17
19453.0	3.4817589407034035e+17
19454.0	3.5000522329729696e+17
19455.0	3.507313646938794e+17
19456.0	3.51120800682257e+17
19457.0	3.512348185373354e+17
19458.0	3.351778190950703e+17
19459.0	3.5088535139997254e+17
19460.0	3.514165113126911e+17
19461.0	3.514472168685568e+17
19462.0	3.5143410935398394e+17
19463.0	3.5140918316455245e+17
19464.0	3.5136773512232954e+17
19465.0	3.513278423280298e+17
19466.0	3.5128316362315085e+17
19467.0	3.51247584530705e+17
19468.0	3.5120761630883834e+17
19469.0	3.503202985749149e+17
19470.0	3.511103313849002e+17
19471.0	3.510665249204906e+17
19472.0	3.509969015712426e+17
19473.0	3.5094421744298656e+17
19474.0	3.500901312146077e+17
19475.0	3.506288065860946e+17
19476.0	3.507819556547241e+17
19477.0	3.507237364432895e+17
19478.0	3.506801727591765e+17
19479.0	3.4985135354238163e+17
19480.0	3.505651133535572e+17
19481.0	3.504586345502038e+17
19482.0	3.504523516226218e+17
19483.0	3.5040268795248634e+17
19484.0	3.503426084274176e+17
19485.0	3.5027420317395616e+17
19486.0	3.493986611582319e+17
19487.0	3.5017011037033805e+17
19488.0	3.5011521713711776e+17
19489.0	3.5005593760563194e+17
19490.0	3.49636646316714e+17
19491.0	3.499381996825258e+17
19492.0	3.498835032320682e+17
19493.0	3.4982560478003194e+17
19494.0	3.4976873435190605e+17
19495.0	3.4970820470811296e+17
19496.0	3.4952740308254694e+17
19497.0	3.495858639208448e+17
19498.0	3.4946632311111686e+17
19499.0	3.484431147510434e+17
19500.0	3.494110640297301e+17
19501.0	3.493683615760383e+17
19502.0	3.4931018720870394e+17
19503.0	3.49252204695825e+17
19504.0	3.4919326158247245e+17
19505.0	3.491253355981483e+17
19506.0	3.4908084710495565e+17
19507.0	3.4901344974274554e+17
19508.0	3.4896124977698125e+17
19509.0	3.4889982300651514e+17
19510.0	3.4870386634697363e+17
19511.0	3.4166343757113197e+17
19512.0	3.485671700998819e+17
19513.0	3.4823979261405786e+17
19514.0	3.4834602241556454e+17
19515.0	3.484458766652763e+17
19516.0	3.484119568394921e+17
19517.0	3.4840769325957114e+17
19518.0	3.4817868454079104e+17
19519.0	3.48117267731797e+17
19520.0	3.475688928925003e+17
19521.0	3.4820941858297165e+17
19522.0	3.480572134774099e+17
19523.0	3.479437887668229e+17
19524.0	3.474872096609637e+17
19525.0	3.47968405311761e+17
19526.0	3.4791751851267405e+17
19527.0	3.478558668576085e+17
19528.0	3.477556116673876e+17
19529.0	3.4767440431458995e+17
19530.0	3.4768726953820154e+17
19531.0	3.476305254634837e+17
19532.0	3.4757274829673805e+17
19533.0	3.4751329704345594e+17
19534.0	3.474570198297258e+17
19535.0	3.4739458838364154e+17
19536.0	3.4733088438572365e+17
19537.0	3.4727790438427296e+17
19538.0	3.4655104670542605e+17
19539.0	3.4702687403158266e+17
19540.0	3.4710355482159776e+17
19541.0	3.4692004807966714e+17
19542.0	3.4694033840974496e+17
19543.0	3.462341641721177e+17
19544.0	3.4684361954208416e+17
19545.0	3.4674009230540736e+17
19546.0	3.465288075269462e+17
19547.0	3.46706054549777e+17
19548.0	3.466451451117567e+17
19549.0	3.4657103745733965e+17
19550.0	3.4652455796299085e+17
19551.0	3.4647369070237005e+17
19552.0	3.4641117407696205e+17
19553.0	3.463516265644031e+17
19554.0	3.46287408869103e+17
19555.0	3.4616951991610035e+17
19556.0	3.4612987745184403e+17
19557.0	3.461185490911232e+17
19558.0	3.4606917629597005e+17
19559.0	3.4600897115149645e+17
19560.0	3.4571071713006886e+17
19561.0	3.4588910717064525e+17
19562.0	3.4560020599275494e+17
19563.0	3.4577890676135245e+17
19564.0	3.457228206680746e+17
19565.0	3.4566102060455245e+17
19566.0	3.455985517942101e+17
19567.0	3.4555018014446925e+17
19568.0	3.4548852090470394e+17
19569.0	3.4543018474209274e+17
19570.0	3.4537432363827194e+17
19571.0	3.4531471345582074e+17
19572.0	3.45255870201856e+17
19573.0	3.45131951272755e+17
19574.0	3.451053139820543e+17
19575.0	3.450903107818837e+17
19576.0	3.449988713196202e+17
19577.0	3.448767319987542e+17
19578.0	3.4490824488823456e+17
19579.0	3.4485630046044154e+17
19580.0	3.4479924974714874e+17
19581.0	3.447401994343765e+17
19582.0	3.4468441679899296e+17
19583.0	3.446335373049855e+17
19584.0	3.4457465441484794e+17
19585.0	3.444967596883967e+17
19586.0	3.4443610711654406e+17
19587.0	3.443993686136149e+17
19588.0	3.4424004884998835e+17
19589.0	3.442804769073834e+17
19590.0	3.4418789750319776e+17
19591.0	3.4416858220898976e+17
19592.0	3.4410637809418234e+17
19593.0	3.439995047466324e+17
19594.0	3.4390284547304083e+17
19595.0	3.4393917649933645e+17
19596.0	3.4388332658032634e+17
19597.0	3.4382989950102176e+17
19598.0	3.435595542386e+17
19599.0	3.43715965112593e+17
19600.0	3.436522528309248e+17
19601.0	3.435862842583722e+17
19602.0	3.4353605554558285e+17
19603.0	3.4338573280870374e+17
19604.0	3.4342440935970125e+17
19605.0	3.433136213633707e+17
19606.0	3.433028223238144e+17
19607.0	3.432549982055082e+17
19608.0	3.4319206812658336e+17
19609.0	3.4313221782022816e+17
19610.0	3.427418210915677e+17
19611.0	3.425041461368152e+17
19612.0	3.429685808944469e+17
19613.0	3.4290867669128525e+17
19614.0	3.428485716159146e+17
19615.0	3.427990765568e+17
19616.0	3.424018528294237e+17
19617.0	3.42151887235755e+17
19618.0	3.424870343901182e+17
19619.0	3.4232569856436864e+17
19620.0	3.421889445407392e+17
19621.0	3.416998546156199e+17
19622.0	3.4239989908766714e+17
19623.0	3.423162871054335e+17
19624.0	3.42207433801728e+17
19625.0	3.422278739383637e+17
19626.0	3.4216795030159354e+17
19627.0	3.4211502528047776e+17
19628.0	3.42045046533871e+17
19629.0	3.401879674770762e+17
19630.0	3.4194345556268365e+17
19631.0	3.415537732638034e+17
19632.0	3.417993934187179e+17
19633.0	3.4175435250073594e+17
19634.0	3.416916617418069e+17
19635.0	3.4158945043305754e+17
19636.0	3.407008274666827e+17
19637.0	3.406632940382881e+17
19638.0	3.4143565718923904e+17
19639.0	3.414084364708522e+17
19640.0	3.413398270246912e+17
19641.0	3.407970297359037e+17
19642.0	3.412116946376021e+17
19643.0	3.4114461495896736e+17
19644.0	3.4113133058457594e+17
19645.0	3.410309611345236e+17
19646.0	3.4011403409598995e+17
19647.0	3.409621238327977e+17
19648.0	3.409212296833706e+17
19649.0	3.4084797749220685e+17
19650.0	3.4080871251531085e+17
19651.0	3.4075107480917325e+17
19652.0	3.4069276168028154e+17
19653.0	3.4063557272971936e+17
19654.0	3.405825047876949e+17
19655.0	3.405054035187029e+17
