# Flux units: erg / (cm m2 s)
# Wavelength units: Angstrom
wave	flux
19000.0	5.4567363356043936e+17
19001.0	5.455709613326336e+17
19002.0	5.454711811473407e+17
19003.0	5.4536993945681914e+17
19004.0	5.452687327188308e+17
19005.0	5.451675961655294e+17
19006.0	5.450664313006762e+17
19007.0	5.449652795080704e+17
19008.0	5.4486326676466336e+17
19009.0	5.44761674080802e+17
19010.0	5.446544816515753e+17
19011.0	5.4456032602794643e+17
19012.0	5.4445766666267296e+17
19013.0	5.4435876280729574e+17
19014.0	5.442577370535251e+17
19015.0	5.441565372361386e+17
19016.0	5.440547061759999e+17
19017.0	5.439547162755071e+17
19018.0	5.4385375245762554e+17
19019.0	5.437528653955071e+17
19020.0	5.436519204519935e+17
19021.0	5.435510170320894e+17
19022.0	5.434501540872191e+17
19023.0	5.4334927142912e+17
19024.0	5.432482346303487e+17
19025.0	5.4314756455355725e+17
19026.0	5.430463070644905e+17
19027.0	5.4294480966123514e+17
19028.0	5.4284520815329274e+17
19029.0	5.4274443874140154e+17
19030.0	5.426437165154302e+17
19031.0	5.425429871591423e+17
19032.0	5.424422833881087e+17
19033.0	5.4234027351080954e+17
19034.0	5.422408903163903e+17
19035.0	5.4213997109794125e+17
19036.0	5.419538972322474e+17
19037.0	5.419388127674367e+17
19038.0	5.4183841560002554e+17
19039.0	5.417378705833983e+17
19040.0	5.4163732556677114e+17
19041.0	5.415367876105557e+17
19042.0	5.4143361688971936e+17
19043.0	5.413357901316096e+17
19044.0	5.412352776208383e+17
19045.0	5.411348475281407e+17
19046.0	5.410336221954047e+17
19047.0	5.409337368728917e+17
19048.0	5.408303052663465e+17
19049.0	5.407294288297983e+17
19050.0	5.4063214278737914e+17
19051.0	5.405207267639294e+17
19052.0	5.404300961032874e+17
19053.0	5.403318594917717e+17
19054.0	5.402315833999358e+17
19055.0	5.4012725001803085e+17
19056.0	5.400309309723988e+17
19057.0	5.3993086431614285e+17
19058.0	5.3982908966939296e+17
19059.0	5.397298552329556e+17
19060.0	5.396299635490815e+17
19061.0	5.395301575688192e+17
19062.0	5.394299519412905e+17
19063.0	5.393298738206036e+17
19064.0	5.392281712459775e+17
19065.0	5.3912796072509434e+17
19066.0	5.390283522965504e+17
19067.0	5.389296643080191e+17
19068.0	5.388296660888235e+17
19069.0	5.387296947131732e+17
19070.0	5.386295830380543e+17
19071.0	5.3852977705779194e+17
19072.0	5.384292607721471e+17
19073.0	5.383298645753855e+17
19074.0	5.3823004964727456e+17
19075.0	5.381301822903636e+17
19076.0	5.380300267148628e+17
19077.0	5.3793024499165856e+17
19078.0	5.378302510366719e+17
19079.0	5.377309031443113e+17
19080.0	5.376311333748735e+17
19081.0	5.375313831089492e+17
19082.0	5.374310258573311e+17
19083.0	5.3733172284402336e+17
19084.0	5.3722649999005e+17
19085.0	5.371203697683113e+17
19086.0	5.370156635127807e+17
19087.0	5.3691782249403725e+17
19088.0	5.368196786465451e+17
19089.0	5.367186594638505e+17
19090.0	5.366222988946089e+17
19091.0	5.3652229704034976e+17
19092.0	5.3642112134021114e+17
19093.0	5.363238035608915e+17
19094.0	5.3622432396738554e+17
19095.0	5.361248598928041e+17
19096.0	5.3602518358644045e+17
19097.0	5.3592597263810554e+17
19098.0	5.358259573620735e+17
19099.0	5.357264686809087e+17
19100.0	5.356276383656617e+17
19101.0	5.355284797762218e+17
19102.0	5.354274014538409e+17
19103.0	5.3532991072938656e+17
19104.0	5.352306455347199e+17
19105.0	5.351299691664725e+17
19106.0	5.350317628238506e+17
19107.0	5.3493232852882765e+17
19108.0	5.348331505057792e+17
19109.0	5.347293224676009e+17
19110.0	5.346351372042239e+17
19111.0	5.34535828808226e+17
19112.0	5.3443664519277216e+17
19113.0	5.3433803165313696e+17
19114.0	5.342389523360426e+17
19115.0	5.341394026976598e+17
19116.0	5.340408393498623e+17
19117.0	5.339415373851306e+17
19118.0	5.338412919816191e+17
19119.0	5.33617512371541e+17
19120.0	5.3364414235716256e+17
19121.0	5.3354544521106765e+17
19122.0	5.3344705313068365e+17
19123.0	5.333481617184083e+17
19124.0	5.332492838677162e+17
19125.0	5.3315041188904954e+17
19126.0	5.330514222601557e+17
19127.0	5.3292576776301216e+17
19128.0	5.3285376302776314e+17
19129.0	5.3275409035646285e+17
19130.0	5.326563399346857e+17
19131.0	5.32557679558656e+17
19132.0	5.3245893802284365e+17
19133.0	5.323599024663209e+17
19134.0	5.3226163894135443e+17
19135.0	5.321629631163051e+17
19136.0	5.320643376229034e+17
19137.0	5.3196330690587296e+17
19138.0	5.318668995701417e+17
19139.0	5.3176854740555085e+17
19140.0	5.316700119498751e+17
19141.0	5.3157147712334496e+17
19142.0	5.3147292593902925e+17
19143.0	5.3137363529891834e+17
19144.0	5.312758193760938e+17
19145.0	5.311775290774868e+17
19146.0	5.3107034860202656e+17
19147.0	5.3097928285224954e+17
19148.0	5.3088172781513376e+17
19149.0	5.3078328973721594e+17
19150.0	5.306854178903381e+17
19151.0	5.3058719924442445e+17
19152.0	5.30488871756322e+17
19153.0	5.3038956552738125e+17
19154.0	5.3029029222372685e+17
19155.0	5.301940208533502e+17
19156.0	5.300957450250921e+17
19157.0	5.299970241112745e+17
19158.0	5.298951717999956e+17
19159.0	5.2980083547176954e+17
19160.0	5.297029279733076e+17
19161.0	5.296047948911957e+17
19162.0	5.294985340867924e+17
19163.0	5.294082890224981e+17
19164.0	5.293105242002772e+17
19165.0	5.2921116029965645e+17
19166.0	5.2911229510178125e+17
19167.0	5.2901564051182925e+17
19168.0	5.2891830917092685e+17
19169.0	5.28820166861346e+17
19170.0	5.287224232902655e+17
19171.0	5.2862397130123936e+17
19172.0	5.2852655020223136e+17
19173.0	5.284286352239273e+17
19174.0	5.2832987823909536e+17
19175.0	5.2823288209298765e+17
19176.0	5.2813503974604794e+17
19177.0	5.280349790317225e+17
19178.0	5.279391200313343e+17
19179.0	5.2784085685589325e+17
19180.0	5.2774370684873376e+17
19181.0	5.2764385018729805e+17
19182.0	5.275479804914347e+17
19183.0	5.274505421258751e+17
19184.0	5.273527576603306e+17
19185.0	5.272550557526698e+17
19186.0	5.271574278744745e+17
19187.0	5.270597237997566e+17
19188.0	5.269621159843156e+17
19189.0	5.26864578842897e+17
19190.0	5.267669444635306e+17
19191.0	5.2666929162922656e+17
19192.0	5.2657182292486816e+17
19193.0	5.264742672586068e+17
19194.0	5.263767327735807e+17
19195.0	5.2627918444735136e+17
19196.0	5.261815014839636e+17
19197.0	5.260839726612478e+17
19198.0	5.2598621042551456e+17
19199.0	5.2583991331170976e+17
19200.0	5.257572277813247e+17
19201.0	5.256940237444437e+17
19202.0	5.25597001523746e+17
19203.0	5.254997228912638e+17
19204.0	5.2540199316138656e+17
19205.0	5.2530506440376314e+17
19206.0	5.2520756899566925e+17
19207.0	5.2510936600849056e+17
19208.0	5.250095582806015e+17
19209.0	5.249159264556372e+17
19210.0	5.2481867851147936e+17
19211.0	5.2472144189194234e+17
19212.0	5.246242179252223e+17
19213.0	5.245256438120447e+17
19214.0	5.2442783313210016e+17
19215.0	5.243324475288234e+17
19216.0	5.2423548444781216e+17
19217.0	5.2413829683172685e+17
19218.0	5.240292520580436e+17
19219.0	5.239420470252883e+17
19220.0	5.238470119260159e+17
19221.0	5.23745254056482e+17
19222.0	5.2365272533346976e+17
19223.0	5.235557845521747e+17
19224.0	5.234587816252757e+17
19225.0	5.233597046150483e+17
19226.0	5.2326477248593926e+17
19227.0	5.231678196809728e+17
19228.0	5.230708473724926e+17
19229.0	5.2297387072989856e+17
19230.0	5.2287687458379085e+17
19231.0	5.227800107679743e+17
19232.0	5.2268296771556685e+17
19233.0	5.2258585860287136e+17
19234.0	5.224889367658494e+17
19235.0	5.2239240457966925e+17
19236.0	5.222955265731242e+17
19237.0	5.2219843444735994e+17
19238.0	5.221004275438932e+17
19239.0	5.2200502530321056e+17
19240.0	5.219080833335294e+17
19241.0	5.2181137233018874e+17
19242.0	5.21714602676497e+17
19243.0	5.2161573209593165e+17
19244.0	5.215210904223743e+17
19245.0	5.2142433363121485e+17
19246.0	5.2132736565684896e+17
19247.0	5.212308487798783e+17
19248.0	5.2113414008340474e+17
19249.0	5.2103740873768954e+17
19250.0	5.2094061783285754e+17
19251.0	5.2084240575802016e+17
19252.0	5.207435756524883e+17
19253.0	5.2065047999938554e+17
19254.0	5.2055399821475834e+17
19255.0	5.2045484633620474e+17
19256.0	5.2036021354059085e+17
19257.0	5.2026409050876576e+17
19258.0	5.2016745010954234e+17
19259.0	5.2006986011989325e+17
19260.0	5.1997234478885536e+17
19261.0	5.198776100716543e+17
19262.0	5.1978100665221114e+17
19263.0	5.196838128145749e+17
19264.0	5.195796256041641e+17
19265.0	5.194880770200917e+17
19266.0	5.19390128836881e+17
19267.0	5.192980988166142e+17
19268.0	5.192015352430591e+17
19269.0	5.191049714597887e+17
19270.0	5.19008345391104e+17
19271.0	5.1890664945745894e+17
19272.0	5.188147633018196e+17
19273.0	5.1871173392902816e+17
19274.0	5.186152455733247e+17
19275.0	5.18525638672384e+17
19276.0	5.184291029909503e+17
19277.0	5.183325568237567e+17
19278.0	5.1823600688168954e+17
19279.0	5.1813943114465254e+17
19280.0	5.180417446161066e+17
19281.0	5.179462894572885e+17
19282.0	5.178497699938304e+17
19283.0	5.1775253617049594e+17
19284.0	5.1765647297740794e+17
19285.0	5.1755782273761274e+17
19286.0	5.174634607542271e+17
19287.0	5.173668529307646e+17
19288.0	5.1724664900157434e+17
19289.0	5.171172545134591e+17
19290.0	5.170770619662335e+17
19291.0	5.169769728704511e+17
19292.0	5.1688391258931194e+17
19293.0	5.167871797755903e+17
19294.0	5.166906445135872e+17
19295.0	5.165939886653439e+17
19296.0	5.164966650139988e+17
19297.0	5.164004507560617e+17
19298.0	5.163039263293439e+17
19299.0	5.1620643993900365e+17
19300.0	5.161104058264234e+17
19301.0	5.16013596746274e+17
19302.0	5.159166702256127e+17
19303.0	5.1581899816741536e+17
19304.0	5.157227746121045e+17
19305.0	5.1562639153343136e+17
19306.0	5.1552955148533754e+17
19307.0	5.154323004653567e+17
19308.0	5.153356713907541e+17
19309.0	5.152368625363626e+17
19310.0	5.1513907814072314e+17
19311.0	5.1504398418138445e+17
19312.0	5.149476573063849e+17
19313.0	5.1485045794624845e+17
19314.0	5.145935148832085e+17
19315.0	5.1450918127097184e+17
19316.0	5.1455787280629754e+17
19317.0	5.1446175865241594e+17
19318.0	5.143644560424959e+17
19319.0	5.142671162430804e+17
19320.0	5.141694001446911e+17
19321.0	5.140716437809834e+17
19322.0	5.1396970017368723e+17
19323.0	5.1385984778676896e+17
19324.0	5.1376289204578976e+17
19325.0	5.136635295432704e+17
19326.0	5.135674165777747e+17
19327.0	5.134693629078185e+17
19328.0	5.133704594019668e+17
19329.0	5.1327372581928954e+17
19330.0	5.131750796339883e+17
19331.0	5.130768186256042e+17
19332.0	5.1297919263484576e+17
19333.0	5.128809033149098e+17
19334.0	5.127823891103743e+17
19335.0	5.1268143458986656e+17
19336.0	5.1258517517325645e+17
19337.0	5.1248641350478496e+17
19338.0	5.1238455643996154e+17
19339.0	5.122886460593493e+17
19340.0	5.1218683156671136e+17
19341.0	5.120884724815189e+17
19342.0	5.11985254085427e+17
19343.0	5.118912924483583e+17
19344.0	5.1179069052900685e+17
19345.0	5.1166034218625696e+17
19346.0	5.115783883522046e+17
19347.0	5.1148940577341434e+17
19348.0	5.113912433311743e+17
19349.0	5.1129070733230074e+17
19350.0	5.1117171702497274e+17
19351.0	5.1106971679457274e+17
19352.0	5.10967197938483e+17
19353.0	5.108675096084479e+17
19354.0	5.107659149672447e+17
19355.0	5.1064369560507725e+17
19356.0	5.105381510479871e+17
19357.0	5.1043577235155616e+17
19358.0	5.103330255350441e+17
19359.0	5.1022925202281805e+17
19360.0	5.101253321293823e+17
19361.0	5.1002253274426003e+17
19362.0	5.099191137206272e+17
19363.0	5.098147509785939e+17
19364.0	5.0970998691157325e+17
19365.0	5.0960485066997766e+17
19366.0	5.0949928283450016e+17
19367.0	5.0939328864802125e+17
19368.0	5.092868246295892e+17
19369.0	5.091710104589651e+17
19370.0	5.090392026382334e+17
19371.0	5.089317311479807e+17
19372.0	5.088231246790655e+17
19373.0	5.087139181450581e+17
19374.0	5.0860408344412154e+17
19375.0	5.084935208217258e+17
19376.0	5.08382357295377e+17
19377.0	5.082703414165503e+17
19378.0	5.081336101819732e+17
19379.0	5.080007478433108e+17
19380.0	5.078862737528147e+17
19381.0	5.0777088131945805e+17
19382.0	5.0765345667590816e+17
19383.0	5.075354558048938e+17
19384.0	5.073892576766634e+17
19385.0	5.072430515093502e+17
19386.0	5.071221819441151e+17
19387.0	5.069999408414719e+17
19388.0	5.0686988435237536e+17
19389.0	5.0667454995278496e+17
19390.0	5.0654771797469856e+17
19391.0	5.063284180211027e+17
19392.0	5.062024331526143e+17
19393.0	5.060324785564329e+17
19394.0	5.0589816233219405e+17
19395.0	5.0572539559499085e+17
19396.0	5.0557120584963405e+17
19397.0	5.0543054734841165e+17
19398.0	5.0528677919020365e+17
19399.0	5.0512900142749005e+17
19400.0	5.0499099994794656e+17
19401.0	5.04839960404514e+17
19402.0	5.0466605414481914e+17
19403.0	5.0446008424857574e+17
19404.0	5.0429723941710496e+17
19405.0	5.0413028794258765e+17
19406.0	5.0395902458374816e+17
19407.0	5.037828464792917e+17
19408.0	5.035407290925056e+17
19409.0	5.033156860182528e+17
19410.0	5.0312318794683725e+17
19411.0	5.0292426084625056e+17
19412.0	5.0260406718955514e+17
19413.0	5.023611385544703e+17
19414.0	5.0211341771735014e+17
19415.0	5.017164712334676e+17
19416.0	5.0144644494786515e+17
19417.0	5.0096892015192736e+17
19418.0	5.005621742359893e+17
19419.0	5.0005674760164685e+17
19420.0	4.994214699291988e+17
19421.0	4.9863887026476346e+17
19422.0	4.976899895153997e+17
19423.0	4.966168017589587e+17
19424.0	4.959401344150187e+17
19425.0	4.9547241562221216e+17
19426.0	4.9497687580125856e+17
19427.0	4.943899912394069e+17
19428.0	4.9384158214662816e+17
19429.0	4.93225298100224e+17
19430.0	4.9257032733163514e+17
19431.0	4.9181597924065274e+17
19432.0	4.9100863758663686e+17
19433.0	4.9001193603945824e+17
19434.0	4.886478216407728e+17
19435.0	4.867237045338106e+17
19436.0	4.834148711661555e+17
19437.0	4.802537739081044e+17
19438.0	4.7825839368874656e+17
19439.0	4.764449316186794e+17
19440.0	4.742866128251561e+17
19441.0	4.7199605496654483e+17
19442.0	4.696071884941994e+17
19443.0	4.6718246358876154e+17
19444.0	4.6459663085294906e+17
19445.0	4.613486772486148e+17
19446.0	4.5447977156389715e+17
19447.0	4.445542725014865e+17
19448.0	4.364775794409473e+17
19449.0	4.2179043070225344e+17
19450.0	3.811446531380609e+17
19451.0	3.594275159801868e+17
19452.0	4.0599521745087123e+17
19453.0	4.308408678569313e+17
19454.0	4.403917776136871e+17
19455.0	4.485727909838829e+17
19456.0	4.581124096742738e+17
19457.0	4.6219593448598195e+17
19458.0	4.6433258872067475e+17
19459.0	4.6708420593582086e+17
19460.0	4.6935290035568614e+17
19461.0	4.715120294188372e+17
19462.0	4.735706086419115e+17
19463.0	4.754376106530132e+17
19464.0	4.771477487703381e+17
19465.0	4.7920340001969466e+17
19466.0	4.827530623538522e+17
19467.0	4.850246734927184e+17
19468.0	4.864103194907984e+17
19469.0	4.8735248110496384e+17
19470.0	4.881099851300862e+17
19471.0	4.88692054421231e+17
19472.0	4.891621467706708e+17
19473.0	4.8965909986235725e+17
19474.0	4.900332483466581e+17
19475.0	4.9040397875281914e+17
19476.0	4.907751595573247e+17
19477.0	4.910717935288318e+17
19478.0	4.914122864285012e+17
19479.0	4.9216896438545005e+17
19480.0	4.9299114688512e+17
19481.0	4.9364126183806266e+17
19482.0	4.941240653053952e+17
19483.0	4.944721454213802e+17
19484.0	4.9485224890859514e+17
19485.0	4.9502586198644064e+17
19486.0	4.9523511574309536e+17
19487.0	4.953511258576215e+17
19488.0	4.9551827788977485e+17
19489.0	4.9555037962458445e+17
19490.0	4.956409440152233e+17
19491.0	4.9573309462173e+17
19492.0	4.957443127771136e+17
19493.0	4.9574947638476794e+17
19494.0	4.958301323613525e+17
19495.0	4.9583860163979936e+17
19496.0	4.958206447757993e+17
19497.0	4.9581146840760314e+17
19498.0	4.957833704854868e+17
19499.0	4.956411733737472e+17
19500.0	4.957981960918355e+17
19501.0	4.9577355196934816e+17
19502.0	4.9573950897083725e+17
19503.0	4.957026450232661e+17
19504.0	4.956631256618324e+17
19505.0	4.9562086441396896e+17
19506.0	4.955761887150079e+17
19507.0	4.955565681104213e+17
19508.0	4.9552977559551994e+17
19509.0	4.954786252892842e+17
19510.0	4.954751432480085e+17
19511.0	4.951967669420029e+17
19512.0	4.9541215472844794e+17
19513.0	4.953347079536639e+17
19514.0	4.95353374843426e+17
19515.0	4.95310593921297e+17
19516.0	4.9525524560609274e+17
19517.0	4.9519051980581536e+17
19518.0	4.951439066879317e+17
19519.0	4.951183544287232e+17
19520.0	4.950502174010025e+17
19521.0	4.9498291832531616e+17
19522.0	4.949136309398185e+17
19523.0	4.948433188858539e+17
19524.0	4.94771808379426e+17
19525.0	4.9473734595051514e+17
19526.0	4.9466832525284685e+17
19527.0	4.945950188852564e+17
19528.0	4.945210294752596e+17
19529.0	4.944464093817514e+17
19530.0	4.943711804151125e+17
19531.0	4.9429537347338234e+17
19532.0	4.9421902239061325e+17
19533.0	4.941421575755093e+17
19534.0	4.940751504233812e+17
19535.0	4.9401695690205856e+17
19536.0	4.9393854424896845e+17
19537.0	4.938599254458366e+17
19538.0	4.937782739511978e+17
19539.0	4.9369266492101965e+17
19540.0	4.9362139684536314e+17
19541.0	4.9354124048029005e+17
19542.0	4.934607029927935e+17
19543.0	4.933790147979945e+17
19544.0	4.932986454321834e+17
19545.0	4.9320975198235296e+17
19546.0	4.93121573032209e+17
19547.0	4.930535477127851e+17
19548.0	4.929713348804607e+17
19549.0	4.9288757812483405e+17
19550.0	4.9280622575397536e+17
19551.0	4.9272796752117754e+17
19552.0	4.9266162341860685e+17
19553.0	4.9257796879428256e+17
19554.0	4.9249421532419405e+17
19555.0	4.9241117236920314e+17
19556.0	4.923273359218005e+17
19557.0	4.922432575329621e+17
19558.0	4.9215912461817165e+17
19559.0	4.920748423861589e+17
19560.0	4.9199166290657274e+17
19561.0	4.9190799458085536e+17
19562.0	4.9182294758741325e+17
19563.0	4.9173842530140154e+17
19564.0	4.916534550637225e+17
19565.0	4.915683703215445e+17
19566.0	4.9148286635868154e+17
19567.0	4.913978707454633e+17
19568.0	4.913214572374698e+17
19569.0	4.9124360186757126e+17
19570.0	4.911581602600276e+17
19571.0	4.9107247831886496e+17
19572.0	4.909866906113364e+17
19573.0	4.909005621166079e+17
19574.0	4.9081413771373216e+17
19575.0	4.907289414729727e+17
19576.0	4.9064287386555725e+17
19577.0	4.9055662639240525e+17
19578.0	4.9046990265603405e+17
19579.0	4.903842845381973e+17
19580.0	4.9029792095272954e+17
19581.0	4.902113313641813e+17
19582.0	4.9012517609581216e+17
19583.0	4.900386984252757e+17
19584.0	4.8995211575732896e+17
19585.0	4.898644903854079e+17
19586.0	4.897769723876692e+17
19587.0	4.8969198823888205e+17
19588.0	4.895984963638612e+17
19589.0	4.89518825279761e+17
19590.0	4.8943068925132794e+17
19591.0	4.8934531265549645e+17
19592.0	4.892584342891178e+17
19593.0	4.891716207247359e+17
19594.0	4.8908123990480205e+17
19595.0	4.889975183114239e+17
19596.0	4.889096737172138e+17
19597.0	4.888238176425302e+17
19598.0	4.887298293017257e+17
19599.0	4.8864981190792525e+17
19600.0	4.885627766046719e+17
19601.0	4.884751327778132e+17
19602.0	4.884015196667904e+17
19603.0	4.8830876731746976e+17
19604.0	4.882282396166826e+17
19605.0	4.8813724146510496e+17
19606.0	4.880542074579625e+17
19607.0	4.8796708372479994e+17
19608.0	4.8787982780115616e+17
19609.0	4.877923231552853e+17
19610.0	4.8770502766537376e+17
19611.0	4.87617515959091e+17
19612.0	4.875310360515925e+17
19613.0	4.8744379697506976e+17
19614.0	4.873565457350655e+17
19615.0	4.8726926555436365e+17
19616.0	4.871808970915839e+17
19617.0	4.870938847870975e+17
19618.0	4.8699839537479674e+17
19619.0	4.8690894422234445e+17
19620.0	4.8682225620746234e+17
19621.0	4.867447505726121e+17
19622.0	4.866583539220479e+17
19623.0	4.865710709451433e+17
19624.0	4.864837827253589e+17
19625.0	4.863964887034538e+17
19626.0	4.8630919230477645e+17
19627.0	4.8622186906255354e+17
19628.0	4.8613333758115834e+17
19629.0	4.8604374836619936e+17
19630.0	4.859561633994068e+17
19631.0	4.8581776353088845e+17
19632.0	4.857851875601066e+17
19633.0	4.8569809402593274e+17
19634.0	4.8561088458915834e+17
19635.0	4.8552348165515936e+17
19636.0	4.854353984050517e+17
19637.0	4.853435353879892e+17
19638.0	4.8526157106817696e+17
19639.0	4.851745916190719e+17
19640.0	4.8508615975239674e+17
19641.0	4.849809025051307e+17
19642.0	4.849128552355156e+17
19643.0	4.848256247573162e+17
19644.0	4.8473789054320634e+17
19645.0	4.8464690553378125e+17
19646.0	4.845629042502313e+17
19647.0	4.844767438787924e+17
19648.0	4.843895928127487e+17
19649.0	4.8430236785704954e+17
19650.0	4.8421522832534176e+17
19651.0	4.841280590140757e+17
19652.0	4.840408983710377e+17
19653.0	4.839537123524608e+17
19654.0	4.8386660434793805e+17
19655.0	4.837793981267968e+17
