# Flux units: erg / (cm m2 s)
# Wavelength units: Angstrom
wave	flux
19000.0	7.28513096397619e+17
19001.0	7.2837232604829e+17
19002.0	7.28246578577408e+17
19003.0	7.281130586417833e+17
19004.0	7.279795784122368e+17
19005.0	7.278462360354816e+17
19006.0	7.277126369673215e+17
19007.0	7.275780881689258e+17
19008.0	7.274413783252991e+17
19009.0	7.273022764701012e+17
19010.0	7.271482507220308e+17
19011.0	7.270411107216041e+17
19012.0	7.268978242093055e+17
19013.0	7.267804845004116e+17
19014.0	7.266544369969833e+17
19015.0	7.265220846157824e+17
19016.0	7.263881845364051e+17
19017.0	7.262570258541224e+17
19018.0	7.261220071538687e+17
19019.0	7.259882780622847e+17
19020.0	7.25852967857903e+17
19021.0	7.257203285863081e+17
19022.0	7.255868772974591e+17
19023.0	7.254485578197672e+17
19024.0	7.253160835241299e+17
19025.0	7.251825803657215e+17
19026.0	7.250462633885696e+17
19027.0	7.249069944602624e+17
19028.0	7.247793592729599e+17
19029.0	7.246448533962751e+17
19030.0	7.245116133605373e+17
19031.0	7.243769992708093e+17
19032.0	7.242422434136063e+17
19033.0	7.241003366875135e+17
19034.0	7.239699357761535e+17
19035.0	7.238207917785087e+17
19036.0	7.231882966073341e+17
19037.0	7.235570001160872e+17
19038.0	7.23430778409233e+17
19039.0	7.232993754786472e+17
19040.0	7.231651275516586e+17
19041.0	7.230305868622505e+17
19042.0	7.228876902804138e+17
19043.0	7.227612244650666e+17
19044.0	7.226255188776275e+17
19045.0	7.224914826231807e+17
19046.0	7.223533318963199e+17
19047.0	7.222199945527293e+17
19048.0	7.220880677535743e+17
19049.0	7.21957849853679e+17
19050.0	7.218258974692691e+17
19051.0	7.216152385508691e+17
19052.0	7.215359311129257e+17
19053.0	7.214252638426451e+17
19054.0	7.212914096209919e+17
19055.0	7.21137343467793e+17
19056.0	7.210201657988436e+17
19057.0	7.208862687952893e+17
19058.0	7.207497819488255e+17
19059.0	7.206166701189802e+17
19060.0	7.204806243734867e+17
19061.0	7.203468913672191e+17
19062.0	7.202115227222016e+17
19063.0	7.200763956690943e+17
19064.0	7.199336149898582e+17
19065.0	7.197928870029994e+17
19066.0	7.196666360758271e+17
19067.0	7.195364560644777e+17
19068.0	7.194013867529555e+17
19069.0	7.192663132471296e+17
19070.0	7.191295202164735e+17
19071.0	7.189960813707263e+17
19072.0	7.188609501233151e+17
19073.0	7.187255487627264e+17
19074.0	7.185906960171008e+17
19075.0	7.184555098243071e+17
19076.0	7.183191623685462e+17
19077.0	7.181839613558784e+17
19078.0	7.180483274910378e+17
19079.0	7.179146852215466e+17
19080.0	7.177784475167402e+17
19081.0	7.17641026179345e+17
19082.0	7.175065690963965e+17
19083.0	7.173648418865151e+17
19084.0	7.172202407395327e+17
19085.0	7.1710284986013e+17
19086.0	7.169367509478057e+17
19087.0	7.168221329227775e+17
19088.0	7.166873688167764e+17
19089.0	7.165424173055999e+17
19090.0	7.164228140706474e+17
19091.0	7.162890694601385e+17
19092.0	7.161495990654292e+17
19093.0	7.160210061787135e+17
19094.0	7.158861541321386e+17
19095.0	7.157510051288403e+17
19096.0	7.156149283454973e+17
19097.0	7.154803532627965e+17
19098.0	7.153448860516351e+17
19099.0	7.152095245369343e+17
19100.0	7.150735347154943e+17
19101.0	7.149390484122281e+17
19102.0	7.147978344453459e+17
19103.0	7.146689123057663e+17
19104.0	7.145335707839145e+17
19105.0	7.1439670589085e+17
19106.0	7.142609516494845e+17
19107.0	7.141254148128765e+17
19108.0	7.13988941807616e+17
19109.0	7.138239622152191e+17
19110.0	7.137131438101844e+17
19111.0	7.135814348352169e+17
19112.0	7.134366643781632e+17
19113.0	7.133020212079272e+17
19114.0	7.131665643427156e+17
19115.0	7.130273348408662e+17
19116.0	7.128940710374058e+17
19117.0	7.127585389543423e+17
19118.0	7.126154246881279e+17
19119.0	7.12225323378278e+17
19120.0	7.123473931436032e+17
19121.0	7.122153723920381e+17
19122.0	7.120839902931625e+17
19123.0	7.119487494346067e+17
19124.0	7.118098110174548e+17
19125.0	7.116771555278847e+17
19126.0	7.115379191753386e+17
19127.0	7.112938364076032e+17
19128.0	7.112614036723027e+17
19129.0	7.111291779590825e+17
19130.0	7.109998809885353e+17
19131.0	7.108657556750335e+17
19132.0	7.107301569025363e+17
19133.0	7.10589701685248e+17
19134.0	7.104569126770003e+17
19135.0	7.103239823207081e+17
19136.0	7.10188616192273e+17
19137.0	7.100437366833151e+17
19138.0	7.099166783526228e+17
19139.0	7.097827099060905e+17
19140.0	7.096475202180436e+17
19141.0	7.095121048764415e+17
19142.0	7.093747200294911e+17
19143.0	7.09237891207441e+17
19144.0	7.091024393753939e+17
19145.0	7.089701532641961e+17
19146.0	7.087895999414271e+17
19147.0	7.086941624685908e+17
19148.0	7.085629888266239e+17
19149.0	7.084274838667263e+17
19150.0	7.082922444062719e+17
19151.0	7.081569649601194e+17
19152.0	7.080212158917289e+17
19153.0	7.078829355608745e+17
19154.0	7.077420943278079e+17
19155.0	7.076135397490687e+17
19156.0	7.074775058874368e+17
19157.0	7.073377098749267e+17
19158.0	7.071884923371519e+17
19159.0	7.070669483977386e+17
19160.0	7.069331802991274e+17
19161.0	7.067952494936063e+17
19162.0	7.066126820660564e+17
19163.0	7.06516235723298e+17
19164.0	7.063915389255679e+17
19165.0	7.062552192920233e+17
19166.0	7.061131954050387e+17
19167.0	7.059808940545364e+17
19168.0	7.058488540091732e+17
19169.0	7.057135678521343e+17
19170.0	7.055785579599187e+17
19171.0	7.054411292125865e+17
19172.0	7.053068730367999e+17
19173.0	7.05171450564881e+17
19174.0	7.050323303945556e+17
19175.0	7.048998890941097e+17
19176.0	7.04758526509056e+17
19177.0	7.046073354114387e+17
19178.0	7.044807450252627e+17
19179.0	7.04343528509713e+17
19180.0	7.042094606581759e+17
19181.0	7.040674061527721e+17
19182.0	7.039373939135828e+17
19183.0	7.038013175496701e+17
19184.0	7.03657388679714e+17
19185.0	7.035212956783956e+17
19186.0	7.033852972586324e+17
19187.0	7.032434520489983e+17
19188.0	7.031125645284691e+17
19189.0	7.029762967644842e+17
19190.0	7.028394278868308e+17
19191.0	7.027005545512959e+17
19192.0	7.025666583866025e+17
19193.0	7.024295660923561e+17
19194.0	7.022912269014356e+17
19195.0	7.021540008787968e+17
19196.0	7.020135272764756e+17
19197.0	7.018691749915305e+17
19198.0	7.017023802441727e+17
19199.0	7.012562619072511e+17
19200.0	7.011766613573631e+17
19201.0	7.012970397696e+17
19202.0	7.011873423622143e+17
19203.0	7.010569542434813e+17
19204.0	7.009229586038781e+17
19205.0	7.007881275987284e+17
19206.0	7.006524402565119e+17
19207.0	7.005083110386346e+17
19208.0	7.003667931944276e+17
19209.0	7.002423683274068e+17
19210.0	7.001058842072404e+17
19211.0	6.999694916627114e+17
19212.0	6.998319939889833e+17
19213.0	6.996863228750505e+17
19214.0	6.995481001459711e+17
19215.0	6.994183245354324e+17
19216.0	6.992823023479465e+17
19217.0	6.991428900443476e+17
19218.0	6.989569954851497e+17
19219.0	6.988545663172607e+17
19220.0	6.987297624948733e+17
19221.0	6.985759140959572e+17
19222.0	6.984538560047785e+17
19223.0	6.983172526964735e+17
19224.0	6.981769630143827e+17
19225.0	6.980346055404201e+17
19226.0	6.97902980801058e+17
19227.0	6.9776481714176e+17
19228.0	6.976288278096553e+17
19229.0	6.974903279069866e+17
19230.0	6.973516886835199e+17
19231.0	6.972121906763091e+17
19232.0	6.970739255847593e+17
19233.0	6.969304780111871e+17
19234.0	6.967956113544532e+17
19235.0	6.966562277119316e+17
19236.0	6.965188178389673e+17
19237.0	6.963787181588479e+17
19238.0	6.96233552388642e+17
19239.0	6.961011632373759e+17
19240.0	6.959610871851689e+17
19241.0	6.958202247009619e+17
19242.0	6.956812679686826e+17
19243.0	6.955298130493439e+17
19244.0	6.954029608686931e+17
19245.0	6.952628871233535e+17
19246.0	6.951218589641385e+17
19247.0	6.949822522545491e+17
19248.0	6.948420024882516e+17
19249.0	6.946992231372116e+17
19250.0	6.945437257476778e+17
19251.0	6.943969232901459e+17
19252.0	6.942402629599231e+17
19253.0	6.941205655628457e+17
19254.0	6.939809750712319e+17
19255.0	6.938244769207635e+17
19256.0	6.936963493920765e+17
19257.0	6.935563697389567e+17
19258.0	6.934143950651391e+17
19259.0	6.932662519682387e+17
19260.0	6.931192807598761e+17
19261.0	6.929863122354175e+17
19262.0	6.928400357436073e+17
19263.0	6.926953022663338e+17
19264.0	6.925238512822953e+17
19265.0	6.924018596708351e+17
19266.0	6.922596424963412e+17
19267.0	6.921286551513769e+17
19268.0	6.91984906986018e+17
19269.0	6.918407080727892e+17
19270.0	6.916948031264084e+17
19271.0	6.91530473930752e+17
19272.0	6.914036196529492e+17
19273.0	6.912240029182633e+17
19274.0	6.910754863884969e+17
19275.0	6.909706939400192e+17
19276.0	6.908238940689748e+17
19277.0	6.906782238638079e+17
19278.0	6.905321670836223e+17
19279.0	6.90384744428339e+17
19280.0	6.90216643854336e+17
19281.0	6.900659775340543e+17
19282.0	6.899194384089087e+17
19283.0	6.897687331515049e+17
19284.0	6.896184956988074e+17
19285.0	6.894655357233834e+17
19286.0	6.893222975853908e+17
19287.0	6.891741537894399e+17
19288.0	6.888682139855528e+17
19289.0	6.885459843437903e+17
19290.0	6.887243604033535e+17
19291.0	6.885575852993194e+17
19292.0	6.884271576143188e+17
19293.0	6.882758534802089e+17
19294.0	6.88123735651123e+17
19295.0	6.8797269554845e+17
19296.0	6.878196414808061e+17
19297.0	6.876662728403625e+17
19298.0	6.874822989228713e+17
19299.0	6.873241109572266e+17
19300.0	6.87155909300497e+17
19301.0	6.869956908023807e+17
19302.0	6.868394687769258e+17
19303.0	6.866793030571348e+17
19304.0	6.865262719183529e+17
19305.0	6.863697312656042e+17
19306.0	6.862126323509929e+17
19307.0	6.860511790497791e+17
19308.0	6.858930793742335e+17
19309.0	6.857242049511423e+17
19310.0	6.855589213416106e+17
19311.0	6.854104211696297e+17
19312.0	6.852089328872106e+17
19313.0	6.850427000367786e+17
19314.0	6.844427057583442e+17
19315.0	6.843155901054981e+17
19316.0	6.845498890300074e+17
19317.0	6.843886178314924e+17
19318.0	6.842234262170281e+17
19319.0	6.84058991464721e+17
19320.0	6.838917160501245e+17
19321.0	6.837231502579028e+17
19322.0	6.834973876507987e+17
19323.0	6.833166413201407e+17
19324.0	6.831486962150057e+17
19325.0	6.829719949410301e+17
19326.0	6.828053226673491e+17
19327.0	6.826325038508714e+17
19328.0	6.824580279347881e+17
19329.0	6.822837416012457e+17
19330.0	6.820394827426473e+17
19331.0	6.818435554082815e+17
19332.0	6.816682055390547e+17
19333.0	6.814469748075176e+17
19334.0	6.812656620361044e+17
19335.0	6.810812389785599e+17
19336.0	6.808947309324969e+17
19337.0	6.806120390372009e+17
19338.0	6.804109237682175e+17
19339.0	6.80238352835106e+17
19340.0	6.800441864792745e+17
19341.0	6.798543146713087e+17
19342.0	6.796276177130835e+17
19343.0	6.79409606529297e+17
19344.0	6.792120452339027e+17
19345.0	6.788977763811325e+17
19346.0	6.787542802235391e+17
19347.0	6.786158477792598e+17
19348.0	6.784196996147881e+17
19349.0	6.781901473841151e+17
19350.0	6.779303103212202e+17
19351.0	6.777225059063123e+17
19352.0	6.775085667625641e+17
19353.0	6.773028248966484e+17
19354.0	6.770886533185536e+17
19355.0	6.768646799316308e+17
19356.0	6.766521979589972e+17
19357.0	6.764301594744148e+17
19358.0	6.762047668049236e+17
19359.0	6.759741645302441e+17
19360.0	6.756779056693245e+17
19361.0	6.753938043480746e+17
19362.0	6.751587754748585e+17
19363.0	6.749182935870121e+17
19364.0	6.746741199426899e+17
19365.0	6.744260991429289e+17
19366.0	6.741738817323008e+17
19367.0	6.739142532661247e+17
19368.0	6.735186620317695e+17
19369.0	6.732111637643263e+17
19370.0	6.729388175392768e+17
19371.0	6.726624496058367e+17
19372.0	6.723864786632703e+17
19373.0	6.721011294666751e+17
19374.0	6.71665144218692e+17
19375.0	6.712977255650643e+17
19376.0	6.709873532906154e+17
19377.0	6.706753590089044e+17
19378.0	6.703703572611071e+17
19379.0	6.698540070513321e+17
19380.0	6.694582234382335e+17
19381.0	6.691414057768275e+17
19382.0	6.688143903642964e+17
19383.0	6.683016854241281e+17
19384.0	6.67792369062161e+17
19385.0	6.674411544728916e+17
19386.0	6.670822980015443e+17
19387.0	6.663965301364049e+17
19388.0	6.658682884456447e+17
19389.0	6.654676691495593e+17
19390.0	6.648668536264027e+17
19391.0	6.63762806348185e+17
19392.0	6.637427436639571e+17
19393.0	6.631008991095468e+17
19394.0	6.623529506876074e+17
19395.0	6.618517618382163e+17
19396.0	6.611759286714365e+17
19397.0	6.60619740053504e+17
19398.0	6.601684413317119e+17
19399.0	6.596711822655487e+17
19400.0	6.590997625918804e+17
19401.0	6.585827088575146e+17
19402.0	6.580836088414205e+17
19403.0	6.575683945889791e+17
19404.0	6.568125234763092e+17
19405.0	6.562454302272169e+17
19406.0	6.556774821789695e+17
19407.0	6.548350921517734e+17
19408.0	6.540923302663508e+17
19409.0	6.53488016973278e+17
19410.0	6.524182138104492e+17
19411.0	6.517261091908265e+17
19412.0	6.506996821218644e+17
19413.0	6.497704953075027e+17
19414.0	6.487094246856026e+17
19415.0	6.476178272900436e+17
19416.0	6.464020362035203e+17
19417.0	6.451757295774377e+17
19418.0	6.437496423798102e+17
19419.0	6.424771491965609e+17
19420.0	6.406781062348796e+17
19421.0	6.39468518314257e+17
19422.0	6.379462246880595e+17
19423.0	6.368134636240895e+17
19424.0	6.356072857425238e+17
19425.0	6.343522468058452e+17
19426.0	6.330440201098579e+17
19427.0	6.316850074528426e+17
19428.0	6.30255230456081e+17
19429.0	6.287509215161001e+17
19430.0	6.27166289137937e+17
19431.0	6.254036007955114e+17
19432.0	6.235569489881769e+17
19433.0	6.215952628012372e+17
19434.0	6.193811750737238e+17
19435.0	6.169428455937363e+17
19436.0	6.143899031917911e+17
19437.0	6.115121954816e+17
19438.0	6.079449561475753e+17
19439.0	6.049554788341076e+17
19440.0	6.011163925370195e+17
19441.0	5.969062678320466e+17
19442.0	5.9218816139264e+17
19443.0	5.867927668523007e+17
19444.0	5.806507809570812e+17
19445.0	5.735101165294935e+17
19446.0	5.651159274487807e+17
19447.0	5.54996034140023e+17
19448.0	5.423110008340486e+17
19449.0	5.254516456117588e+17
19450.0	5.0027711605418515e+17
19451.0	4.846530169143306e+17
19452.0	5.1450029193297946e+17
19453.0	5.344551873019912e+17
19454.0	5.4866323670302656e+17
19455.0	5.596798125080575e+17
19456.0	5.686296796200963e+17
19457.0	5.760974985712978e+17
19458.0	5.81752716123615e+17
19459.0	5.879797525774339e+17
19460.0	5.928003590684668e+17
19461.0	5.970222457203369e+17
19462.0	6.007902935799126e+17
19463.0	6.042898567703208e+17
19464.0	6.072792988516351e+17
19465.0	6.100026035361108e+17
19466.0	6.124696187699197e+17
19467.0	6.146855541582506e+17
19468.0	6.168282265900372e+17
19469.0	6.186273361013417e+17
19470.0	6.203259482013695e+17
19471.0	6.219074165364052e+17
19472.0	6.233070396331347e+17
19473.0	6.245815379034111e+17
19474.0	6.258262197054124e+17
19475.0	6.269296559434409e+17
19476.0	6.280585172134569e+17
19477.0	6.291040718465706e+17
19478.0	6.300909469783379e+17
19479.0	6.31017862996514e+17
19480.0	6.321051937363286e+17
19481.0	6.331884875284479e+17
19482.0	6.345824286714534e+17
19483.0	6.355968985486676e+17
19484.0	6.370262256364195e+17
19485.0	6.377921800656216e+17
19486.0	6.390575227994112e+17
19487.0	6.39657881562863e+17
19488.0	6.407380694728703e+17
19489.0	6.412310185421482e+17
19490.0	6.421171548804435e+17
19491.0	6.426603421346473e+17
19492.0	6.433282264662011e+17
19493.0	6.438984543283881e+17
19494.0	6.442815141008724e+17
19495.0	6.449023810535425e+17
19496.0	6.452671022803625e+17
19497.0	6.455936157745151e+17
19498.0	6.459513336321363e+17
19499.0	6.457542748842662e+17
19500.0	6.466489709581652e+17
19501.0	6.469001135783935e+17
19502.0	6.472517292130301e+17
19503.0	6.475105844592639e+17
19504.0	6.477159560380415e+17
19505.0	6.479108376625151e+17
19506.0	6.48396824326963e+17
19507.0	6.486759126859775e+17
19508.0	6.489500924510209e+17
19509.0	6.495966443427156e+17
19510.0	6.497362630060713e+17
19511.0	6.491740380856316e+17
19512.0	6.50407808615492e+17
19513.0	6.504582007313745e+17
19514.0	6.506841495655763e+17
19515.0	6.512617194171049e+17
19516.0	6.51491356442624e+17
19517.0	6.515935982649343e+17
19518.0	6.516952916819968e+17
19519.0	6.521167106015232e+17
19520.0	6.521864244778324e+17
19521.0	6.522560915876521e+17
19522.0	6.523171983327231e+17
19523.0	6.525915453106857e+17
19524.0	6.527079288580777e+17
19525.0	6.527586753227434e+17
19526.0	6.528209543757823e+17
19527.0	6.528708900814847e+17
19528.0	6.530697074311165e+17
19529.0	6.531534259486719e+17
19530.0	6.531832094916607e+17
19531.0	6.532086286516223e+17
19532.0	6.53230042251264e+17
19533.0	6.532475427749887e+17
19534.0	6.53352454271795e+17
19535.0	6.534263089048233e+17
19536.0	6.534272664644265e+17
19537.0	6.534273442687657e+17
19538.0	6.534103818043391e+17
19539.0	6.533790547574784e+17
19540.0	6.53395432046592e+17
19541.0	6.533813112930304e+17
19542.0	6.534361378368169e+17
19543.0	6.534454102545748e+17
19544.0	6.534195656523773e+17
19545.0	6.533573556655444e+17
19546.0	6.533057759324841e+17
19547.0	6.53326077202705e+17
19548.0	6.532907812956841e+17
19549.0	6.532448016575146e+17
19550.0	6.53211214160418e+17
19551.0	6.53168211010082e+17
19552.0	6.531228481443156e+17
19553.0	6.531162025492479e+17
19554.0	6.530914595110911e+17
19555.0	6.530430090084351e+17
19556.0	6.52995039732258e+17
19557.0	6.529397268589225e+17
19558.0	6.528838607568895e+17
19559.0	6.528314581013844e+17
19560.0	6.528222348967933e+17
19561.0	6.527616551660202e+17
19562.0	6.527017886766422e+17
19563.0	6.526382158905343e+17
19564.0	6.525732451429034e+17
19565.0	6.525231273345023e+17
19566.0	6.525302064108884e+17
19567.0	6.524633503935146e+17
19568.0	6.523914953250132e+17
19569.0	6.523218519130111e+17
19570.0	6.522572888517289e+17
19571.0	6.522135720405674e+17
19572.0	6.52159192539682e+17
19573.0	6.521365668560896e+17
19574.0	6.520536862905684e+17
19575.0	6.519834038064468e+17
19576.0	6.519046941267284e+17
19577.0	6.518244530367146e+17
19578.0	6.517416717363882e+17
19579.0	6.516601925577385e+17
19580.0	6.515809764857172e+17
19581.0	6.515530597575338e+17
19582.0	6.514698862198783e+17
19583.0	6.513848875308372e+17
19584.0	6.512989219848192e+17
19585.0	6.512039760145066e+17
19586.0	6.51114622100002e+17
19587.0	6.510350922940415e+17
19588.0	6.509199503305385e+17
19589.0	6.508570302480383e+17
19590.0	6.507637642362879e+17
19591.0	6.506967619076095e+17
19592.0	6.506310008831999e+17
19593.0	6.505377057210368e+17
19594.0	6.504287234424831e+17
19595.0	6.503518733773482e+17
19596.0	6.502464377323519e+17
19597.0	6.501647277970772e+17
19598.0	6.500482242925908e+17
19599.0	6.499753679039146e+17
19600.0	6.4988044591104e+17
19601.0	6.497793393470122e+17
19602.0	6.496814621873491e+17
19603.0	6.495611977203711e+17
19604.0	6.494866624916138e+17
19605.0	6.49373433270545e+17
19606.0	6.493246868597417e+17
19607.0	6.492363008507903e+17
19608.0	6.491439699591168e+17
19609.0	6.490419879739391e+17
19610.0	6.489450467033087e+17
19611.0	6.488442611433471e+17
19612.0	6.487444727791615e+17
19613.0	6.486424728982868e+17
19614.0	6.485385985130495e+17
19615.0	6.484395301710505e+17
19616.0	6.483332108561066e+17
19617.0	6.482472422342655e+17
19618.0	6.481123908867411e+17
19619.0	6.479991651609257e+17
19620.0	6.479029505534634e+17
19621.0	6.478402754882217e+17
19622.0	6.477382684770304e+17
19623.0	6.476342352674815e+17
19624.0	6.475425339408383e+17
19625.0	6.474448510473558e+17
19626.0	6.473393129914365e+17
19627.0	6.472322322705065e+17
19628.0	6.47117676670703e+17
19629.0	6.470043191039316e+17
19630.0	6.468238212158804e+17
19631.0	6.464487727737514e+17
19632.0	6.466847067078655e+17
19633.0	6.465898660844884e+17
19634.0	6.464892086605139e+17
19635.0	6.463801616498687e+17
19636.0	6.462757482965674e+17
19637.0	6.461395832930304e+17
19638.0	6.460612320864938e+17
19639.0	6.459530100954451e+17
19640.0	6.458377663501652e+17
19641.0	6.456863606439936e+17
19642.0	6.456284522654378e+17
19643.0	6.455199054255443e+17
19644.0	6.454064206315519e+17
19645.0	6.452861045746344e+17
19646.0	6.451930920386559e+17
19647.0	6.450852264935423e+17
19648.0	6.449759799738365e+17
19649.0	6.448663944844627e+17
19650.0	6.447569632755711e+17
19651.0	6.446467173231274e+17
19652.0	6.445371927909715e+17
19653.0	6.444272526731945e+17
19654.0	6.443172204904447e+17
19655.0	6.442066494095359e+17
19656.0	6.440961522881876e+17
19657.0	6.439860913744554e+17
19658.0	6.438787484396202e+17
19659.0	6.437770095143593e+17
19660.0	6.436662578686634e+17
19661.0	6.435552820374185e+17
19662.0	6.434440661521747e+17
19663.0	6.433299998179327e+17
19664.0	6.432205185570132e+17
19665.0	6.431104071718227e+17
