# Flux units: erg / (cm m2 s)
# Wavelength units: Angstrom
wave	flux
19000.0	5.641679707744938e+17
19001.0	5.640518201507839e+17
19002.0	5.639652226629631e+17
19003.0	5.638629758074879e+17
19004.0	5.637604664584873e+17
19005.0	5.63654061859362e+17
19006.0	5.6355390174003194e+17
19007.0	5.634555023196158e+17
19008.0	5.6335128959385594e+17
19009.0	5.6323197548625914e+17
19010.0	5.6313274587327136e+17
19011.0	5.630337819694421e+17
19012.0	5.629001888432126e+17
19013.0	5.628464836466004e+17
19014.0	5.6274409159830176e+17
19015.0	5.626435207167999e+17
19016.0	5.6254631967894176e+17
19017.0	5.624466290420394e+17
19018.0	5.623442391607979e+17
19019.0	5.622441906099541e+17
19020.0	5.621420470741673e+17
19021.0	5.620425564356607e+17
19022.0	5.6194066043371514e+17
19023.0	5.618292967691604e+17
19024.0	5.617184800418473e+17
19025.0	5.6162347898634234e+17
19026.0	5.6151070191124474e+17
19027.0	5.61403609166643e+17
19028.0	5.6131787046256634e+17
19029.0	5.6121915961507834e+17
19030.0	5.6111837699112934e+17
19031.0	5.610134886329002e+17
19032.0	5.609001119121407e+17
19033.0	5.6076262633198925e+17
19034.0	5.605893250307411e+17
19035.0	5.6006918414882125e+17
19036.0	5.58386801418786e+17
19037.0	5.599524747739134e+17
19038.0	5.6019639962610336e+17
19039.0	5.601690404607315e+17
19040.0	5.6009218613138765e+17
19041.0	5.600030528372735e+17
19042.0	5.5948564000057965e+17
19043.0	5.5981507699452576e+17
19044.0	5.597146510961322e+17
19045.0	5.596082210515626e+17
19046.0	5.595095580890453e+17
19047.0	5.594041485885439e+17
19048.0	5.5923089705970323e+17
19049.0	5.5830284774058554e+17
19050.0	5.590128089104382e+17
19051.0	5.58706508046882e+17
19052.0	5.586858379575296e+17
19053.0	5.5874336409518074e+17
19054.0	5.5868753014947834e+17
19055.0	5.584595601500843e+17
19056.0	5.5847047960111763e+17
19057.0	5.584140834089641e+17
19058.0	5.5787216968526426e+17
19059.0	5.5804975148346016e+17
19060.0	5.5811811213748896e+17
19061.0	5.580166557685077e+17
19062.0	5.5791842216290976e+17
19063.0	5.578188910493694e+17
19064.0	5.5771445903141536e+17
19065.0	5.576075436359678e+17
19066.0	5.573564532348246e+17
19067.0	5.574161423750484e+17
19068.0	5.5732136019230714e+17
19069.0	5.572212717955753e+17
19070.0	5.5711764808990714e+17
19071.0	5.5701598081733965e+17
19072.0	5.567563535395497e+17
19073.0	5.5682101139210234e+17
19074.0	5.5671885142862496e+17
19075.0	5.566207316284756e+17
19076.0	5.565194255553876e+17
19077.0	5.564190074164564e+17
19078.0	5.563161150575956e+17
19079.0	5.5621871031637325e+17
19080.0	5.5611854726103034e+17
19081.0	5.5601302136859296e+17
19082.0	5.5591734293299194e+17
19083.0	5.5580819407066445e+17
19084.0	5.556950471977642e+17
19085.0	5.556090638958592e+17
19086.0	5.552363460187476e+17
19087.0	5.550223353621157e+17
19088.0	5.550635911654054e+17
19089.0	5.5518500130652154e+17
19090.0	5.55104303456802e+17
19091.0	5.5498037058164077e+17
19092.0	5.545598019174409e+17
19093.0	5.548169979669162e+17
19094.0	5.547203988116821e+17
19095.0	5.5462099205925536e+17
19096.0	5.54523441705779e+17
19097.0	5.544246408904703e+17
19098.0	5.5414246104978746e+17
19099.0	5.540045816244908e+17
19100.0	5.5411725621876045e+17
19101.0	5.540209561873066e+17
19102.0	5.5392078607155194e+17
19103.0	5.5382416349812045e+17
19104.0	5.537257578561535e+17
19105.0	5.532227958647478e+17
19106.0	5.535152917359274e+17
19107.0	5.5331383085629414e+17
19108.0	5.531465464239445e+17
19109.0	5.531786756314453e+17
19110.0	5.530938836516864e+17
19111.0	5.528956196006568e+17
19112.0	5.527824154755069e+17
19113.0	5.5282745726730234e+17
19114.0	5.5264611611443174e+17
19115.0	5.526102938921642e+17
19116.0	5.525270987538431e+17
19117.0	5.5242280270124365e+17
19118.0	5.522656483519147e+17
19119.0	5.5167427938003584e+17
19120.0	5.5208129191389856e+17
19121.0	5.520118625512105e+17
19122.0	5.51934409834496e+17
19123.0	5.5184118758331725e+17
19124.0	5.5171503983602336e+17
19125.0	5.5163959933665274e+17
19126.0	5.515259288048979e+17
19127.0	5.513840900964351e+17
19128.0	5.513210986408617e+17
19129.0	5.512387978679637e+17
19130.0	5.5115129042589e+17
19131.0	5.510555329975637e+17
19132.0	5.5095670995244365e+17
19133.0	5.508552258311508e+17
19134.0	5.507574038265855e+17
19135.0	5.506609042860715e+17
19136.0	5.505618463599274e+17
19137.0	5.504583033946111e+17
19138.0	5.5036339167778125e+17
19139.0	5.502672781530453e+17
19140.0	5.5016889683804154e+17
19141.0	5.500698863774379e+17
19142.0	5.4996807125565434e+17
19143.0	5.4987075795025914e+17
19144.0	5.497697515601919e+17
19145.0	5.4967390912730445e+17
19146.0	5.4951873169326086e+17
19147.0	5.4947433169988256e+17
19148.0	5.492363772297218e+17
19149.0	5.491113444682409e+17
19150.0	5.4918127113557325e+17
19151.0	5.4908101601525734e+17
19152.0	5.4897618211307514e+17
19153.0	5.485783783833594e+17
19154.0	5.487518317281279e+17
19155.0	5.4867636697169914e+17
19156.0	5.4857552688578554e+17
19157.0	5.483738363680088e+17
19158.0	5.4814770599034906e+17
19159.0	5.4826239699626656e+17
19160.0	5.4815989869226656e+17
19161.0	5.4804401971964576e+17
19162.0	5.479084828830379e+17
19163.0	5.4783548081220256e+17
19164.0	5.4776387586402976e+17
19165.0	5.473543817702053e+17
19166.0	5.4758042238976e+17
19167.0	5.47488204464674e+17
19168.0	5.4739577661467296e+17
19169.0	5.4730112382621005e+17
19170.0	5.472052329491113e+17
19171.0	5.471072103170047e+17
19172.0	5.470078362801492e+17
19173.0	5.4691353322673485e+17
19174.0	5.468154183898453e+17
19175.0	5.4671837247133005e+17
19176.0	5.466204499432787e+17
19177.0	5.465070758090068e+17
19178.0	5.4641782633267194e+17
19179.0	5.463210148757502e+17
19180.0	5.4622412603392e+17
19181.0	5.4612171706859514e+17
19182.0	5.4602217078565536e+17
19183.0	5.459306553365845e+17
19184.0	5.458335282582869e+17
19185.0	5.4573212201123834e+17
19186.0	5.4563327764507296e+17
19187.0	5.455255454089215e+17
19188.0	5.454299415620266e+17
19189.0	5.4532530612032845e+17
19190.0	5.452211616918186e+17
19191.0	5.451115757830143e+17
19192.0	5.450015702340949e+17
19193.0	5.4484303337226234e+17
19194.0	5.446922579301717e+17
19195.0	5.4461638059403936e+17
19196.0	5.444455422580053e+17
19197.0	5.442287590965247e+17
19198.0	5.43924620955921e+17
19199.0	5.434752197372585e+17
19200.0	5.434115267843413e+17
19201.0	5.436504832737279e+17
19202.0	5.437545680033108e+17
19203.0	5.437620755278506e+17
19204.0	5.4374260570849274e+17
19205.0	5.436891543371775e+17
19206.0	5.4361916314746874e+17
19207.0	5.435268957995006e+17
19208.0	5.4344841624726176e+17
19209.0	5.433678301058388e+17
19210.0	5.432763052195839e+17
19211.0	5.431867948575402e+17
19212.0	5.4309163959145805e+17
19213.0	5.429850126942206e+17
19214.0	5.428918588101974e+17
19215.0	5.4280494269508256e+17
19216.0	5.4271103719178234e+17
19217.0	5.4260971860568723e+17
19218.0	5.424976907730942e+17
19219.0	5.424038949508437e+17
19220.0	5.4232379464963405e+17
19221.0	5.422285835294037e+17
19222.0	5.4213515687581e+17
19223.0	5.420422958241109e+17
19224.0	5.4194388570821965e+17
19225.0	5.418505838351699e+17
19226.0	5.4175587784895136e+17
19227.0	5.416604504424447e+17
19228.0	5.415668934858067e+17
19229.0	5.414685455155199e+17
19230.0	5.4137303611037005e+17
19231.0	5.412764535925417e+17
19232.0	5.4118015223289165e+17
19233.0	5.410783869534207e+17
19234.0	5.409869667150506e+17
19235.0	5.408875055764821e+17
19236.0	5.407946440354474e+17
19237.0	5.406962319622143e+17
19238.0	5.405947291063636e+17
19239.0	5.4050486838012576e+17
19240.0	5.4040790376120314e+17
19241.0	5.4031018975996576e+17
19242.0	5.40213097214771e+17
19243.0	5.4010461273019725e+17
19244.0	5.40022109442321e+17
19245.0	5.399257125224447e+17
19246.0	5.398293432849749e+17
19247.0	5.397324359882068e+17
19248.0	5.3963517140664314e+17
19249.0	5.3952660862839443e+17
19250.0	5.3937554238122656e+17
19251.0	5.392738097474216e+17
19252.0	5.392235007486634e+17
19253.0	5.391520086272683e+17
19254.0	5.390575576547326e+17
19255.0	5.389429803144532e+17
19256.0	5.388630537273343e+17
19257.0	5.3876688225129805e+17
19258.0	5.386681302297258e+17
19259.0	5.38552886694161e+17
19260.0	5.383961847704234e+17
19261.0	5.3836669021498016e+17
19262.0	5.382685473461588e+17
19263.0	5.3816906845170336e+17
19264.0	5.380659214286847e+17
19265.0	5.3797724028054176e+17
19266.0	5.378798846825813e+17
19267.0	5.3780170628136954e+17
19268.0	5.377060597923839e+17
19269.0	5.3760999715853645e+17
19270.0	5.375095206488745e+17
19271.0	5.3740539006156794e+17
19272.0	5.3731777846094496e+17
19273.0	5.3720985091003725e+17
19274.0	5.370938733712723e+17
19275.0	5.370337599072938e+17
19276.0	5.3693526583541754e+17
19277.0	5.3683947960620365e+17
19278.0	5.3673232387713683e+17
19279.0	5.366411375411199e+17
19280.0	5.365443285308757e+17
19281.0	5.3644649177634125e+17
19282.0	5.3634897861236045e+17
19283.0	5.3624634546148685e+17
19284.0	5.3613796842100045e+17
19285.0	5.3602846982362445e+17
19286.0	5.358944982313642e+17
19287.0	5.3567205066233165e+17
19288.0	5.346192430989308e+17
19289.0	5.341923846564518e+17
19290.0	5.35348381884962e+17
19291.0	5.3538914765373446e+17
19292.0	5.3535954845040634e+17
19293.0	5.3528123037887136e+17
19294.0	5.351898239817045e+17
19295.0	5.3510306822881274e+17
19296.0	5.348089432200539e+17
19297.0	5.3487913902189235e+17
19298.0	5.348185686583978e+17
19299.0	5.3449871508985184e+17
19300.0	5.346256262004735e+17
19301.0	5.3453202932804256e+17
19302.0	5.3443436544873805e+17
19303.0	5.343310501642238e+17
19304.0	5.342396428582911e+17
19305.0	5.3413963520191136e+17
19306.0	5.3403930521326925e+17
19307.0	5.339304893087742e+17
19308.0	5.338252309430272e+17
19309.0	5.3370300452044794e+17
19310.0	5.335892747091967e+17
19311.0	5.3347896745000954e+17
19312.0	5.3332559957852154e+17
19313.0	5.3295615179052365e+17
19314.0	5.251826111392444e+17
19315.0	5.2550569033728365e+17
19316.0	5.324219446110894e+17
19317.0	5.3285620481174176e+17
19318.0	5.328322813405865e+17
19319.0	5.3276586628437325e+17
19320.0	5.3260472014602214e+17
19321.0	5.324133460781738e+17
19322.0	5.3249948561790285e+17
19323.0	5.3240410120301216e+17
19324.0	5.323078760398847e+17
19325.0	5.322137223735977e+17
19326.0	5.3212512846697805e+17
19327.0	5.3203248370155514e+17
19328.0	5.315827548378457e+17
19329.0	5.318481711639209e+17
19330.0	5.3175347440517114e+17
19331.0	5.316554236712277e+17
19332.0	5.315637377936042e+17
19333.0	5.3146559541411834e+17
19334.0	5.313647976207701e+17
19335.0	5.305488127645021e+17
19336.0	5.311748958934358e+17
19337.0	5.310861629456383e+17
19338.0	5.3097102979017363e+17
19339.0	5.3088977969042765e+17
19340.0	5.307815525264043e+17
19341.0	5.3041953543727834e+17
19342.0	5.30505964314078e+17
19343.0	5.304967983617366e+17
19344.0	5.301223729135619e+17
19345.0	5.301077413636781e+17
19346.0	5.301373665017856e+17
19347.0	5.297593259130879e+17
19348.0	5.300182008725503e+17
19349.0	5.299221044745557e+17
19350.0	5.2969419354494285e+17
19351.0	5.2972804325594445e+17
19352.0	5.2926754453804314e+17
19353.0	5.295422160153258e+17
19354.0	5.294466325807103e+17
19355.0	5.293409343023786e+17
19356.0	5.292516182065152e+17
19357.0	5.2915532677338445e+17
19358.0	5.2905602578732365e+17
19359.0	5.288789865922556e+17
19360.0	5.285745787579049e+17
19361.0	5.287632956642645e+17
19362.0	5.286672336595626e+17
19363.0	5.2856995530670074e+17
19364.0	5.2847195525393056e+17
19365.0	5.283727234738858e+17
19366.0	5.2827374628809376e+17
19367.0	5.281746052448255e+17
19368.0	5.2807732311709005e+17
19369.0	5.279728739723945e+17
19370.0	5.2787507531612154e+17
19371.0	5.277736099293866e+17
19372.0	5.2767694911788365e+17
19373.0	5.275749890129919e+17
19374.0	5.274752324556115e+17
19375.0	5.273754509421225e+17
19376.0	5.2727533073858554e+17
19377.0	5.271739492379307e+17
19378.0	5.270728632259923e+17
19379.0	5.269706456607403e+17
19380.0	5.2686498897592314e+17
19381.0	5.267630429918549e+17
19382.0	5.2665238264217594e+17
19383.0	5.265509712920575e+17
19384.0	5.2644615626424314e+17
19385.0	5.2634043044331514e+17
19386.0	5.2623102153413965e+17
19387.0	5.2611487468530336e+17
19388.0	5.259865513525247e+17
19389.0	5.258259919273983e+17
19390.0	5.254889986850815e+17
19391.0	5.2384177610642726e+17
19392.0	5.2484764402537805e+17
19393.0	5.2532799815898445e+17
19394.0	5.25312471404817e+17
19395.0	5.251285243308717e+17
19396.0	5.2510892497742496e+17
19397.0	5.2502321290717856e+17
19398.0	5.2480967180288006e+17
19399.0	5.2465353897629005e+17
19400.0	5.245883663428266e+17
19401.0	5.2456812393267194e+17
19402.0	5.2445216016520525e+17
19403.0	5.243297593294847e+17
19404.0	5.2420292560377165e+17
19405.0	5.2407491369806496e+17
19406.0	5.239465955382612e+17
19407.0	5.2368495247796883e+17
19408.0	5.236499513606143e+17
19409.0	5.2352405520165536e+17
19410.0	5.2338987585153696e+17
19411.0	5.2324859197958816e+17
19412.0	5.230999315152896e+17
19413.0	5.22821700751633e+17
19414.0	5.227922698098004e+17
19415.0	5.226257909634389e+17
19416.0	5.224390938940757e+17
19417.0	5.2227717215901005e+17
19418.0	5.2210116483263136e+17
19419.0	5.2191444336639994e+17
19420.0	5.217216399496533e+17
19421.0	5.215097190350847e+17
19422.0	5.21287733818163e+17
19423.0	5.210635050680319e+17
19424.0	5.208261332566015e+17
19425.0	5.205678619972949e+17
19426.0	5.2029264302353056e+17
19427.0	5.199960514843989e+17
19428.0	5.19671315046946e+17
19429.0	5.1929555762763085e+17
19430.0	5.187989838408362e+17
19431.0	5.1832387678153376e+17
19432.0	5.180734952876713e+17
19433.0	5.176606493857109e+17
19434.0	5.171388220440575e+17
19435.0	5.1648298228558496e+17
19436.0	5.157438529470462e+17
19437.0	5.1472352027170125e+17
19438.0	5.1096498823932614e+17
19439.0	5.1218751509845306e+17
19440.0	5.12570292384563e+17
19441.0	5.116981072800425e+17
19442.0	5.105246494436011e+17
19443.0	5.091229968629759e+17
19444.0	5.074576372749651e+17
19445.0	5.0545538454869344e+17
19446.0	5.030014849733972e+17
19447.0	4.9994313397261626e+17
19448.0	4.958718934384641e+17
19449.0	4.9004763215298554e+17
19450.0	4.793635526672376e+17
19451.0	4.70156582759083e+17
19452.0	4.8571332018831366e+17
19453.0	4.929679925794134e+17
19454.0	4.9752964700569594e+17
19455.0	5.0076571674869754e+17
19456.0	5.0316871970324474e+17
19457.0	5.0443044212353715e+17
19458.0	4.8520818855336794e+17
19459.0	5.033229123846187e+17
19460.0	5.0905247264713363e+17
19461.0	5.1039956984572576e+17
19462.0	5.11324572422417e+17
19463.0	5.120635554496511e+17
19464.0	5.126967844842153e+17
19465.0	5.132363995895125e+17
19466.0	5.1370028793419085e+17
19467.0	5.1408583842420045e+17
19468.0	5.144160123573588e+17
19469.0	5.144555203242662e+17
19470.0	5.1495492680417274e+17
19471.0	5.1517825664505165e+17
19472.0	5.1536163930548896e+17
19473.0	5.155168021992788e+17
19474.0	5.153826766061562e+17
19475.0	5.157122562064383e+17
19476.0	5.158343020642303e+17
19477.0	5.159193453527039e+17
19478.0	5.159827927990271e+17
19479.0	5.157791552853328e+17
19480.0	5.160606225836713e+17
19481.0	5.160875262476287e+17
19482.0	5.161082882621439e+17
19483.0	5.1611513294684154e+17
19484.0	5.1611200455529805e+17
19485.0	5.1610136248756896e+17
19486.0	5.1582207315148864e+17
19487.0	5.1606471251940685e+17
19488.0	5.1603158366945274e+17
19489.0	5.159695839570602e+17
19490.0	5.1590890782719994e+17
19491.0	5.159055463022591e+17
19492.0	5.158721908899839e+17
19493.0	5.15826220479283e+17
19494.0	5.157636258747732e+17
19495.0	5.1568081388612256e+17
19496.0	5.155478506045439e+17
19497.0	5.15315349917969e+17
19498.0	5.1405657665262906e+17
19499.0	5.125759817482239e+17
19500.0	5.149377994336938e+17
19501.0	5.1521792008082765e+17
19502.0	5.152361029479081e+17
19503.0	5.151975626069332e+17
19504.0	5.1513808262266874e+17
19505.0	5.15060648710417e+17
19506.0	5.1499287777553056e+17
19507.0	5.1489966272457376e+17
19508.0	5.1478187464458234e+17
19509.0	5.1457858148324685e+17
19510.0	5.1379706471819923e+17
19511.0	5.032407770071009e+17
19512.0	5.125294453861033e+17
19513.0	5.1311001493394746e+17
19514.0	5.1331325482762214e+17
19515.0	5.141061060001791e+17
19516.0	5.141343886114815e+17
19517.0	5.141369953714175e+17
19518.0	5.1400698341184826e+17
19519.0	5.139344862653097e+17
19520.0	5.1367593217010304e+17
19521.0	5.138726348914688e+17
19522.0	5.137486105105747e+17
19523.0	5.1364282457128986e+17
19524.0	5.1342818910317274e+17
19525.0	5.135437711889747e+17
19526.0	5.1346847315613005e+17
19527.0	5.133850341889366e+17
19528.0	5.132799924589908e+17
19529.0	5.1318439616184326e+17
19530.0	5.1313575174253216e+17
19531.0	5.1305140184241485e+17
19532.0	5.129664167149568e+17
19533.0	5.1288141641809914e+17
19534.0	5.1279679109201914e+17
19535.0	5.127119742260564e+17
19536.0	5.1262345511785805e+17
19537.0	5.125340346537299e+17
19538.0	5.1219002608844826e+17
19539.0	5.123480687913642e+17
19540.0	5.122746026906964e+17
19541.0	5.1213055693946874e+17
19542.0	5.120795214872575e+17
19543.0	5.117485439254529e+17
19544.0	5.1190580634801485e+17
19545.0	5.118041188728832e+17
19546.0	5.1171840225880736e+17
19547.0	5.1166255559038285e+17
19548.0	5.115824496268628e+17
19549.0	5.1148775272830285e+17
19550.0	5.114099025313792e+17
19551.0	5.1132373111493965e+17
19552.0	5.112353635609257e+17
19553.0	5.111478908616704e+17
19554.0	5.110583942709246e+17
19555.0	5.1093969148313594e+17
19556.0	5.108613496438782e+17
19557.0	5.107935070562987e+17
19558.0	5.1070894597297485e+17
19559.0	5.106221671514111e+17
19560.0	5.104355473271464e+17
19561.0	5.1044337229059405e+17
19562.0	5.1026123687635616e+17
19563.0	5.1027030601018016e+17
19564.0	5.101800705927849e+17
19565.0	5.100939925695146e+17
19566.0	5.1000341140165965e+17
19567.0	5.0991709416325114e+17
19568.0	5.098266474927445e+17
19569.0	5.097389949277525e+17
19570.0	5.096488392021332e+17
19571.0	5.0956162773811194e+17
19572.0	5.0947215456556365e+17
19573.0	5.093514709478057e+17
19574.0	5.0927768887623674e+17
19575.0	5.0920979406957216e+17
19576.0	5.091026762290517e+17
19577.0	5.0897957347655674e+17
19578.0	5.0894268653021856e+17
19579.0	5.0885315309950285e+17
19580.0	5.087643968034132e+17
19581.0	5.0867632655564794e+17
19582.0	5.0858948251265696e+17
19583.0	5.0850104176803834e+17
19584.0	5.084091470140756e+17
19585.0	5.0831144168106656e+17
19586.0	5.082189868477099e+17
19587.0	5.0813727831053645e+17
19588.0	5.080378494681087e+17
19589.0	5.079594073849855e+17
19590.0	5.078672230143315e+17
19591.0	5.0778890648070816e+17
19592.0	5.0770223419446605e+17
19593.0	5.0758610328398496e+17
19594.0	5.074786902343678e+17
19595.0	5.074350880675158e+17
19596.0	5.0733581294632954e+17
19597.0	5.072556367981225e+17
19598.0	5.071357470223017e+17
19599.0	5.0707637112668154e+17
19600.0	5.069900495541588e+17
19601.0	5.0689599151800314e+17
19602.0	5.0680123121554765e+17
19603.0	5.067024527698602e+17
19604.0	5.0662161315266554e+17
19605.0	5.0652486838517754e+17
19606.0	5.0645671828520954e+17
19607.0	5.063714149498879e+17
19608.0	5.062806879600638e+17
19609.0	5.061917729095679e+17
19610.0	5.059808613542573e+17
19611.0	5.058318052971862e+17
19612.0	5.059287422337023e+17
19613.0	5.058372086792191e+17
19614.0	5.057454425505791e+17
19615.0	5.0565347572449274e+17
19616.0	5.0542924935113395e+17
19617.0	5.052835189577046e+17
19618.0	5.05338848608256e+17
19619.0	5.0521989702833485e+17
19620.0	5.051114958706002e+17
19621.0	5.0484531275584845e+17
19622.0	5.0502765676680525e+17
19623.0	5.049226977345534e+17
19624.0	5.0480065488267936e+17
19625.0	5.047462965630292e+17
19626.0	5.046407873079978e+17
19627.0	5.0452190535352314e+17
19628.0	5.043730619476651e+17
19629.0	5.035423711625212e+17
19630.0	5.038232743269717e+17
19631.0	5.0354383651252896e+17
19632.0	5.038347878312619e+17
19633.0	5.039004890868394e+17
19634.0	5.038957895789225e+17
19635.0	5.038107337774419e+17
19636.0	5.0347398723010515e+17
19637.0	5.033773767502503e+17
19638.0	5.03592487433011e+17
19639.0	5.0352572767491405e+17
19640.0	5.034139927445503e+17
19641.0	5.032878042426026e+17
19642.0	5.03245013184239e+17
19643.0	5.0316051473585485e+17
19644.0	5.0309049705212576e+17
19645.0	5.030020772790271e+17
19646.0	5.026055375727269e+17
19647.0	5.0283135295815674e+17
19648.0	5.0275040638621005e+17
19649.0	5.026622559573334e+17
19650.0	5.025750405087232e+17
19651.0	5.0248727896173216e+17
19652.0	5.023994569468585e+17
19653.0	5.02310029492224e+17
19654.0	5.0222383521682765e+17
