# Flux units: erg / (cm m2 s)
# Wavelength units: Angstrom
wave	flux
19000.0	7.355055960577364e+17
19001.0	7.35340221501713e+17
19002.0	7.352318522905939e+17
19003.0	7.350931628752893e+17
19004.0	7.349557250402985e+17
19005.0	7.348176770738857e+17
19006.0	7.346799000595113e+17
19007.0	7.345220871345492e+17
19008.0	7.343866134921216e+17
19009.0	7.342403663604393e+17
19010.0	7.340040103395324e+17
19011.0	7.339816795854164e+17
19012.0	7.338043332274857e+17
19013.0	7.337149296803837e+17
19014.0	7.335594022316713e+17
19015.0	7.334295003026772e+17
19016.0	7.332889872039933e+17
19017.0	7.331467783482025e+17
19018.0	7.330219393635668e+17
19019.0	7.328860560774484e+17
19020.0	7.327385521924777e+17
19021.0	7.326086522208255e+17
19022.0	7.324747619281578e+17
19023.0	7.323256319115263e+17
19024.0	7.321945332077908e+17
19025.0	7.320593145790463e+17
19026.0	7.319146302450344e+17
19027.0	7.317584379991378e+17
19028.0	7.316481953322323e+17
19029.0	7.315060348507475e+17
19030.0	7.313757132117331e+17
19031.0	7.312396933311145e+17
19032.0	7.31101232505378e+17
19033.0	7.309367372152832e+17
19034.0	7.308203895990956e+17
19035.0	7.306759959303508e+17
19036.0	7.283746491334653e+17
19037.0	7.304078096160084e+17
19038.0	7.302670763163645e+17
19039.0	7.301351674129064e+17
19040.0	7.299989099948713e+17
19041.0	7.298584793841663e+17
19042.0	7.296965697426772e+17
19043.0	7.295858890506237e+17
19044.0	7.294440132225706e+17
19045.0	7.293088155653459e+17
19046.0	7.291536067439274e+17
19047.0	7.29028287930914e+17
19048.0	7.28836926026547e+17
19049.0	7.287376759313747e+17
19050.0	7.286058956532394e+17
19051.0	7.281479742652411e+17
19052.0	7.282801098009257e+17
19053.0	7.282012929567402e+17
19054.0	7.280680780868266e+17
19055.0	7.278566707647828e+17
19056.0	7.277856845463552e+17
19057.0	7.276529464289961e+17
19058.0	7.275087553451348e+17
19059.0	7.273790383849471e+17
19060.0	7.272357117471402e+17
19061.0	7.271053523593897e+17
19062.0	7.269654440793427e+17
19063.0	7.268289906475007e+17
19064.0	7.266526060434772e+17
19065.0	7.264999086314835e+17
19066.0	7.263981074208083e+17
19067.0	7.262738584349353e+17
19068.0	7.26140537868561e+17
19069.0	7.260028690672297e+17
19070.0	7.258563350451539e+17
19071.0	7.257250670313471e+17
19072.0	7.255898756655785e+17
19073.0	7.25449858892868e+17
19074.0	7.25314990768128e+17
19075.0	7.251773455947092e+17
19076.0	7.250336354577066e+17
19077.0	7.248982993884502e+17
19078.0	7.247505133666301e+17
19079.0	7.246252710297599e+17
19080.0	7.244835406042454e+17
19081.0	7.243388791990953e+17
19082.0	7.241993114965331e+17
19083.0	7.240402337092947e+17
19084.0	7.238655325590868e+17
19085.0	7.23796514308096e+17
19086.0	7.235471929944745e+17
19087.0	7.234550981023062e+17
19088.0	7.233605421323604e+17
19089.0	7.231610139181055e+17
19090.0	7.231033190296233e+17
19091.0	7.229659134907732e+17
19092.0	7.228056874429097e+17
19093.0	7.226996702576639e+17
19094.0	7.225615491705513e+17
19095.0	7.224244542898173e+17
19096.0	7.22282586710562e+17
19097.0	7.22149675648068e+17
19098.0	7.220119969202173e+17
19099.0	7.218739583210836e+17
19100.0	7.217339488185002e+17
19101.0	7.215990151228074e+17
19102.0	7.2143718083898e+17
19103.0	7.213242134123862e+17
19104.0	7.2118902470301e+17
19105.0	7.2105046587037e+17
19106.0	7.209016501469183e+17
19107.0	7.20770853572881e+17
19108.0	7.20639006745122e+17
19109.0	7.202884652717393e+17
19110.0	7.203573202244947e+17
19111.0	7.202267330860372e+17
19112.0	7.200901805288105e+17
19113.0	7.199525023602004e+17
19114.0	7.198139316436991e+17
19115.0	7.196609546114387e+17
19116.0	7.19534153671202e+17
19117.0	7.193955784807764e+17
19118.0	7.192324733228372e+17
19119.0	7.183216927921481e+17
19120.0	7.189693092681042e+17
19121.0	7.188411520297642e+17
19122.0	7.187179155488768e+17
19123.0	7.185793933464916e+17
19124.0	7.184315994953044e+17
19125.0	7.183028345023145e+17
19126.0	7.181659476590591e+17
19127.0	7.175421348369748e+17
19128.0	7.177528429685416e+17
19129.0	7.177326097858557e+17
19130.0	7.176136342984019e+17
19131.0	7.174779825378644e+17
19132.0	7.173444845524308e+17
19133.0	7.170934884532225e+17
19134.0	7.170086849391274e+17
19135.0	7.1693263451805e+17
19136.0	7.167981120039593e+17
19137.0	7.166147402487123e+17
19138.0	7.165113161220096e+17
19139.0	7.163862636473002e+17
19140.0	7.162500353097727e+17
19141.0	7.161129865663828e+17
19142.0	7.159681074768553e+17
19143.0	7.158224065833641e+17
19144.0	7.156897684302505e+17
19145.0	7.155624766166355e+17
19146.0	7.152556087530838e+17
19147.0	7.152612182152531e+17
19148.0	7.151518518782632e+17
19149.0	7.150141370793983e+17
19150.0	7.148770438763859e+17
19151.0	7.147411984788138e+17
19152.0	7.146007146004479e+17
19153.0	7.14463508570658e+17
19154.0	7.142950830779049e+17
19155.0	7.141945763692543e+17
19156.0	7.140572470269267e+17
19157.0	7.139154436205225e+17
19158.0	7.136352425825618e+17
19159.0	7.136408355471357e+17
19160.0	7.135023860460202e+17
19161.0	7.133590880692905e+17
19162.0	7.129033618401966e+17
19163.0	7.130878949982207e+17
19164.0	7.129626404978687e+17
19165.0	7.128177264558079e+17
19166.0	7.126523675585193e+17
19167.0	7.125208452300799e+17
19168.0	7.123909460972883e+17
19169.0	7.122596678773417e+17
19170.0	7.121409591476223e+17
19171.0	7.119847596315987e+17
19172.0	7.118651688397481e+17
19173.0	7.117301023244288e+17
19174.0	7.115770737022292e+17
19175.0	7.114571360414378e+17
19176.0	7.113189321867263e+17
19177.0	7.1113960863389e+17
19178.0	7.110382506213375e+17
19179.0	7.108833024060074e+17
19180.0	7.107538664641876e+17
19181.0	7.106074473660415e+17
19182.0	7.10485625484083e+17
19183.0	7.103594775969791e+17
19184.0	7.102022838910975e+17
19185.0	7.100827932033024e+17
19186.0	7.099506327814143e+17
19187.0	7.097900616821417e+17
19188.0	7.096746966515711e+17
19189.0	7.095342639437139e+17
19190.0	7.093959206982995e+17
19191.0	7.092539184818857e+17
19192.0	7.091276050595839e+17
19193.0	7.089803745034239e+17
19194.0	7.088454993881769e+17
19195.0	7.087154955375956e+17
19196.0	7.085746576599721e+17
19197.0	7.084385483008681e+17
19198.0	7.082964599614121e+17
19199.0	7.062291415564282e+17
19200.0	7.066696265236486e+17
19201.0	7.078868489863165e+17
19202.0	7.077566340224339e+17
19203.0	7.076166556975104e+17
19204.0	7.07476718896196e+17
19205.0	7.073438504757929e+17
19206.0	7.072039387004927e+17
19207.0	7.070415878182228e+17
19208.0	7.068812668392787e+17
19209.0	7.067934992105471e+17
19210.0	7.06657706381585e+17
19211.0	7.065241747019092e+17
19212.0	7.063866689191935e+17
19213.0	7.062121228184233e+17
19214.0	7.060589617960279e+17
19215.0	7.059675775587668e+17
19216.0	7.058344390251859e+17
19217.0	7.056988564706644e+17
19218.0	7.053264644909733e+17
19219.0	7.05378039051059e+17
19220.0	7.052798909393578e+17
19221.0	7.050559504777216e+17
19222.0	7.050106080941395e+17
19223.0	7.048680726418772e+17
19224.0	7.047182220438186e+17
19225.0	7.045544425816063e+17
19226.0	7.04454278128162e+17
19227.0	7.043161034937684e+17
19228.0	7.04186325017122e+17
19229.0	7.040491654042964e+17
19230.0	7.039021814732116e+17
19231.0	7.037648494744916e+17
19232.0	7.036274679130793e+17
19233.0	7.03475513172514e+17
19234.0	7.033510309134335e+17
19235.0	7.032093981452969e+17
19236.0	7.030825314243924e+17
19237.0	7.029388088442879e+17
19238.0	7.027777377839785e+17
19239.0	7.026680758184617e+17
19240.0	7.024861921323689e+17
19241.0	7.023695021211648e+17
19242.0	7.022453889608362e+17
19243.0	7.020608857920852e+17
19244.0	7.019753142310228e+17
19245.0	7.018351921812819e+17
19246.0	7.01692607865378e+17
19247.0	7.015562091692031e+17
19248.0	7.014204774372692e+17
19249.0	7.012797140085418e+17
19250.0	7.011362054777514e+17
19251.0	7.009615380217853e+17
19252.0	7.007795221452116e+17
19253.0	7.007177139727017e+17
19254.0	7.005780435096916e+17
19255.0	7.003917302890493e+17
19256.0	7.002887660677802e+17
19257.0	7.001646931028649e+17
19258.0	7.000255355333289e+17
19259.0	6.998651944916308e+17
19260.0	6.997059371881811e+17
19261.0	6.996012704290131e+17
19262.0	6.994480618012671e+17
19263.0	6.993075257737215e+17
19264.0	6.990353674534908e+17
19265.0	6.989910282775208e+17
19266.0	6.988616047788032e+17
19267.0	6.987628640818516e+17
19268.0	6.986196590089555e+17
19269.0	6.984794836915539e+17
19270.0	6.98338785763874e+17
19271.0	6.981028233084929e+17
19272.0	6.980446471236265e+17
19273.0	6.967274214085961e+17
19274.0	6.970929406017527e+17
19275.0	6.976278503970132e+17
19276.0	6.974801953073834e+17
19277.0	6.973389519104681e+17
19278.0	6.971970824437759e+17
19279.0	6.970439953110355e+17
19280.0	6.968456078775636e+17
19281.0	6.967022997645993e+17
19282.0	6.965638094389247e+17
19283.0	6.963897348478292e+17
19284.0	6.962218661489321e+17
19285.0	6.960715459985407e+17
19286.0	6.959787546421929e+17
19287.0	6.958450513455785e+17
19288.0	6.950644867574433e+17
19289.0	6.941900764348394e+17
19290.0	6.954112125326676e+17
19291.0	6.951881161747116e+17
19292.0	6.951204704397994e+17
19293.0	6.949724054268585e+17
19294.0	6.948253373999785e+17
19295.0	6.946823710528852e+17
19296.0	6.945338184521043e+17
19297.0	6.943808406508884e+17
19298.0	6.942324685449898e+17
19299.0	6.940935641716052e+17
19300.0	6.939453473947647e+17
19301.0	6.93795399209233e+17
19302.0	6.936432625756841e+17
19303.0	6.934761206098601e+17
19304.0	6.933358373590356e+17
19305.0	6.931946864465235e+17
19306.0	6.93047418561058e+17
19307.0	6.928869768560639e+17
19308.0	6.927418869328553e+17
19309.0	6.925308208174419e+17
19310.0	6.923509204079955e+17
19311.0	6.922800974878036e+17
19312.0	6.921227446080852e+17
19313.0	6.919572296826879e+17
19314.0	6.9071085156434e+17
19315.0	6.905994539958282e+17
19316.0	6.915007407893161e+17
19317.0	6.913490502899027e+17
19318.0	6.911918587510783e+17
19319.0	6.910398640248148e+17
19320.0	6.908814156627965e+17
19321.0	6.907260469684905e+17
19322.0	6.905331189809151e+17
19323.0	6.903511272914943e+17
19324.0	6.901604980621311e+17
19325.0	6.899450672840703e+17
19326.0	6.89840760955426e+17
19327.0	6.896771698174633e+17
19328.0	6.895195403233961e+17
19329.0	6.893569261786452e+17
19330.0	6.891820640370687e+17
19331.0	6.890155570888703e+17
19332.0	6.888612923353769e+17
19333.0	6.886901870318931e+17
19334.0	6.88524820934383e+17
19335.0	6.883605042517332e+17
19336.0	6.881896849298771e+17
19337.0	6.880188504386217e+17
19338.0	6.877882053820415e+17
19339.0	6.876755339334995e+17
19340.0	6.874857773290835e+17
19341.0	6.873216928011603e+17
19342.0	6.870369779930451e+17
19343.0	6.868620173552297e+17
19344.0	6.866791599614633e+17
19345.0	6.859886793763488e+17
19346.0	6.860774843962706e+17
19347.0	6.861193429909503e+17
19348.0	6.859544530168489e+17
19349.0	6.857584952737791e+17
19350.0	6.855725589113513e+17
19351.0	6.853811009574227e+17
19352.0	6.851792793676458e+17
19353.0	6.850093864277331e+17
19354.0	6.847618973958143e+17
19355.0	6.84448044618001e+17
19356.0	6.842772116646569e+17
19357.0	6.840752949340841e+17
19358.0	6.838588932445524e+17
19359.0	6.836058041876479e+17
19360.0	6.834471895214761e+17
19361.0	6.832396855585449e+17
19362.0	6.829804545026732e+17
19363.0	6.826483241364137e+17
19364.0	6.824294276049578e+17
19365.0	6.822071874442579e+17
19366.0	6.819844322230271e+17
19367.0	6.817574555746301e+17
19368.0	6.814437046484991e+17
19369.0	6.810444780011519e+17
19370.0	6.807076205144745e+17
19371.0	6.805868691587072e+17
19372.0	6.80356309246498e+17
19373.0	6.798714794409985e+17
19374.0	6.79553234178321e+17
19375.0	6.792959371859284e+17
19376.0	6.790333442555904e+17
19377.0	6.784877645703852e+17
19378.0	6.781958907843923e+17
19379.0	6.779166712135679e+17
19380.0	6.775051037354664e+17
19381.0	6.77171697951266e+17
19382.0	6.76854835061282e+17
19383.0	6.765415943023274e+17
19384.0	6.76264168076083e+17
19385.0	6.759484890983081e+17
19386.0	6.756268788154367e+17
19387.0	6.752856882632019e+17
19388.0	6.748820657056426e+17
19389.0	6.745363893452799e+17
19390.0	6.741808196703571e+17
19391.0	6.720384757923813e+17
19392.0	6.734014861104465e+17
19393.0	6.730633215388329e+17
19394.0	6.726690953407146e+17
19395.0	6.72202313904947e+17
19396.0	6.717364258559316e+17
19397.0	6.713143039710548e+17
19398.0	6.708680556806143e+17
19399.0	6.702404844825257e+17
19400.0	6.698288343067306e+17
19401.0	6.693153705470633e+17
19402.0	6.688184021461673e+17
19403.0	6.682584123004244e+17
19404.0	6.675737625668266e+17
19405.0	6.670159049654272e+17
19406.0	6.663203510200998e+17
19407.0	6.656050284112554e+17
19408.0	6.646963672623785e+17
19409.0	6.64023674650624e+17
19410.0	6.631467503321088e+17
19411.0	6.622533052792832e+17
19412.0	6.611371328274431e+17
19413.0	6.599661520770385e+17
19414.0	6.586775728990893e+17
19415.0	6.572317010995889e+17
19416.0	6.557949172383739e+17
19417.0	6.547400895583572e+17
19418.0	6.537243432845311e+17
19419.0	6.526484349627049e+17
19420.0	6.515344083866963e+17
19421.0	6.503653322697386e+17
19422.0	6.491395284708009e+17
19423.0	6.478546898430633e+17
19424.0	6.46477438255104e+17
19425.0	6.450804674265087e+17
19426.0	6.43573491118899e+17
19427.0	6.419432345698304e+17
19428.0	6.402700490397014e+17
19429.0	6.384653043411624e+17
19430.0	6.364469414330369e+17
19431.0	6.340280926076927e+17
19432.0	6.318851776053245e+17
19433.0	6.290662688642392e+17
19434.0	6.256904684000596e+17
19435.0	6.215356097320275e+17
19436.0	6.178214496610985e+17
19437.0	6.146610638269098e+17
19438.0	6.093541783284399e+17
19439.0	6.071766960395607e+17
19440.0	6.030068956528639e+17
19441.0	5.981528522402473e+17
19442.0	5.922903988808366e+17
19443.0	5.848421151102298e+17
19444.0	5.775310274428923e+17
19445.0	5.697281012880729e+17
19446.0	5.6029613129728006e+17
19447.0	5.48617743464311e+17
19448.0	5.3517730202692326e+17
19449.0	5.1787214136279046e+17
19450.0	4.9194141780104064e+17
19451.0	4.8350495901395654e+17
19452.0	5.055512039828142e+17
19453.0	5.27148723225669e+17
19454.0	5.418290655177379e+17
19455.0	5.541184656463188e+17
19456.0	5.6439902295818266e+17
19457.0	5.727171305100625e+17
19458.0	5.786269172891662e+17
19459.0	5.871870541474487e+17
19460.0	5.935849514467324e+17
19461.0	5.986358797533184e+17
19462.0	6.029178612744193e+17
19463.0	6.066985879557458e+17
19464.0	6.101657386134186e+17
19465.0	6.133323575328768e+17
19466.0	6.162933307757907e+17
19467.0	6.20273965325789e+17
19468.0	6.237143296901123e+17
19469.0	6.263948756822697e+17
19470.0	6.289139715189416e+17
19471.0	6.309426607336106e+17
19472.0	6.327435785491795e+17
19473.0	6.343406324984492e+17
19474.0	6.359043736076287e+17
19475.0	6.37098174727236e+17
19476.0	6.385843158996308e+17
19477.0	6.397815875960832e+17
19478.0	6.409092637655037e+17
19479.0	6.420083815481344e+17
19480.0	6.429952742260736e+17
19481.0	6.439396877620564e+17
19482.0	6.448316334910121e+17
19483.0	6.456788215922687e+17
19484.0	6.464711434436607e+17
19485.0	6.472363697416873e+17
19486.0	6.481915185288531e+17
19487.0	6.494382252709203e+17
19488.0	6.505628039468379e+17
19489.0	6.514939488720212e+17
19490.0	6.520177806715562e+17
19491.0	6.530323377203882e+17
19492.0	6.537851750230698e+17
19493.0	6.542656615568723e+17
19494.0	6.548980850753536e+17
19495.0	6.552474723461802e+17
19496.0	6.557134871330813e+17
19497.0	6.561180785748649e+17
19498.0	6.562004302386519e+17
19499.0	6.541015867457528e+17
19500.0	6.57119800983552e+17
19501.0	6.573550330707965e+17
19502.0	6.576765960978431e+17
19503.0	6.579229089071101e+17
19504.0	6.581113963151359e+17
19505.0	6.582913434211668e+17
19506.0	6.584594843303935e+17
19507.0	6.586850561665706e+17
19508.0	6.588600792296105e+17
19509.0	6.589903073356457e+17
19510.0	6.590608072944297e+17
19511.0	6.56730265415406e+17
19512.0	6.588454088824145e+17
19513.0	6.585583821739337e+17
19514.0	6.58896467123677e+17
19515.0	6.59510506937822e+17
19516.0	6.597207621544617e+17
19517.0	6.597735889939113e+17
19518.0	6.598445511649962e+17
19519.0	6.598920214588073e+17
19520.0	6.599283287523327e+17
19521.0	6.599743689282899e+17
19522.0	6.600645073873578e+17
19523.0	6.601918630942036e+17
19524.0	6.602122031617364e+17
19525.0	6.602548774786388e+17
19526.0	6.605109942637907e+17
19527.0	6.605143567674025e+17
19528.0	6.605148023422976e+17
19529.0	6.605580402338473e+17
19530.0	6.607414412094121e+17
19531.0	6.607717947583146e+17
19532.0	6.607545157637459e+17
19533.0	6.607352750931965e+17
19534.0	6.60772320304606e+17
19535.0	6.608754000090451e+17
19536.0	6.608394012764842e+17
19537.0	6.608161563738111e+17
19538.0	6.607487741110956e+17
19539.0	6.606007953610071e+17
19540.0	6.606913410170879e+17
19541.0	6.608136928493567e+17
19542.0	6.607676463819433e+17
19543.0	6.607172680373588e+17
19544.0	6.606667854643197e+17
19545.0	6.604805050291539e+17
19546.0	6.603237474609834e+17
19547.0	6.604987710133588e+17
19548.0	6.604389344433491e+17
19549.0	6.603814825448788e+17
19550.0	6.60443896025361e+17
19551.0	6.603789596710228e+17
19552.0	6.603112288616447e+17
19553.0	6.602354714127018e+17
19554.0	6.601607938572287e+17
19555.0	6.600955692143955e+17
19556.0	6.600256728858623e+17
19557.0	6.59950278943266e+17
19558.0	6.59873708708113e+17
19559.0	6.597928884546217e+17
19560.0	6.597102246647126e+17
19561.0	6.596302708146176e+17
19562.0	6.595640672212307e+17
19563.0	6.595765002567677e+17
19564.0	6.594927463672489e+17
19565.0	6.594074009490772e+17
19566.0	6.593145728226644e+17
19567.0	6.592361919763796e+17
19568.0	6.59140083065378e+17
19569.0	6.590548742417065e+17
19570.0	6.589713003577343e+17
19571.0	6.588803068897962e+17
19572.0	6.587806403701417e+17
19573.0	6.586921309088425e+17
19574.0	6.585799149617151e+17
19575.0	6.585122173572435e+17
19576.0	6.584187023436458e+17
19577.0	6.583127730290687e+17
19578.0	6.582163667419135e+17
19579.0	6.581250640838655e+17
19580.0	6.580285966297769e+17
19581.0	6.579356961516202e+17
19582.0	6.578423777110697e+17
19583.0	6.577440321874601e+17
19584.0	6.576419080153769e+17
19585.0	6.575137483303593e+17
19586.0	6.574026224828415e+17
19587.0	6.574058158161917e+17
19588.0	6.571861972353025e+17
19589.0	6.572083464459604e+17
19590.0	6.570929529640276e+17
19591.0	6.570114618316116e+17
19592.0	6.569106063665833e+17
19593.0	6.568013348907689e+17
19594.0	6.566348738701993e+17
19595.0	6.565854836337321e+17
19596.0	6.561806654898177e+17
19597.0	6.563740333200726e+17
19598.0	6.562030436395689e+17
19599.0	6.561776890718889e+17
19600.0	6.560736577497769e+17
19601.0	6.559482070958079e+17
19602.0	6.558459831691945e+17
19603.0	6.556167357945171e+17
19604.0	6.5562711963293e+17
19605.0	6.554527261349204e+17
19606.0	6.554285331797331e+17
19607.0	6.553234376927914e+17
19608.0	6.552101435299155e+17
19609.0	6.550908481568767e+17
19610.0	6.549977390820009e+17
19611.0	6.548865169053012e+17
19612.0	6.547800883986431e+17
19613.0	6.546670941285034e+17
19614.0	6.545484520183123e+17
19615.0	6.544503089397759e+17
19616.0	6.543246653478227e+17
19617.0	6.542294542974975e+17
19618.0	6.539634321042088e+17
19619.0	6.53821517199223e+17
19620.0	6.537148600330921e+17
19621.0	6.537847503497897e+17
19622.0	6.53674808694101e+17
19623.0	6.535639609988435e+17
19624.0	6.534493002618196e+17
19625.0	6.533401921541459e+17
19626.0	6.532249991599444e+17
19627.0	6.531157524305236e+17
19628.0	6.529551233799508e+17
19629.0	6.528649243131901e+17
19630.0	6.526386630732457e+17
19631.0	6.506322507857921e+17
19632.0	6.525492756043094e+17
19633.0	6.524257417472681e+17
19634.0	6.523432265056255e+17
19635.0	6.522212172780884e+17
19636.0	6.521167677139625e+17
19637.0	6.518884535719252e+17
19638.0	6.518898061650602e+17
19639.0	6.517730006007807e+17
19640.0	6.516357417227604e+17
19641.0	6.513825576648707e+17
19642.0	6.514340738542249e+17
19643.0	6.513168234141011e+17
19644.0	6.511906507806035e+17
19645.0	6.510193082193235e+17
19646.0	6.509805922768211e+17
19647.0	6.508661094481919e+17
19648.0	6.507501217032874e+17
19649.0	6.506345980581203e+17
19650.0	6.505220813094911e+17
19651.0	6.504053933255337e+17
19652.0	6.502894129206612e+17
19653.0	6.501759429465428e+17
19654.0	6.500591638762835e+17
19655.0	6.49942313992192e+17
19656.0	6.498294772880724e+17
19657.0	6.497144431880874e+17
19658.0	6.496006456388265e+17
19659.0	6.494847336710141e+17
19660.0	6.493705392706899e+17
19661.0	6.492542337373524e+17
19662.0	6.491394531131391e+17
19663.0	6.490092187855529e+17
19664.0	6.488984024077652e+17
19665.0	6.48792465613346e+17
