# Flux units: erg / (cm m2 s)
# Wavelength units: Angstrom
wave	flux
19000.0	8.519936529225042e+17
19001.0	8.518363321292115e+17
19002.0	8.516821545473364e+17
19003.0	8.515262023554387e+17
19004.0	8.513701281092948e+17
19005.0	8.512140369461245e+17
19006.0	8.510577733970604e+17
19007.0	8.509001824905897e+17
19008.0	8.507439003467775e+17
19009.0	8.505877339657555e+17
19010.0	8.504243571567273e+17
19011.0	8.502744888027818e+17
19012.0	8.501153120299689e+17
19013.0	8.499611787679063e+17
19014.0	8.498031821324285e+17
19015.0	8.49647016310647e+17
19016.0	8.494889060095315e+17
19017.0	8.49330427867955e+17
19018.0	8.491750061157033e+17
19019.0	8.49017667007283e+17
19020.0	8.488595477583187e+17
19021.0	8.487020333279913e+17
19022.0	8.485448243828054e+17
19023.0	8.48387042775313e+17
19024.0	8.482290413862911e+17
19025.0	8.480712713830399e+17
19026.0	8.479127615045631e+17
19027.0	8.477535960563711e+17
19028.0	8.475971243300179e+17
19029.0	8.474389316807337e+17
19030.0	8.472806803111935e+17
19031.0	8.471223534441812e+17
19032.0	8.469639692550143e+17
19033.0	8.468040952490662e+17
19034.0	8.466470338035712e+17
19035.0	8.46487760421956e+17
19036.0	8.462171928614227e+17
19037.0	8.461711019343868e+17
19038.0	8.460124314140671e+17
19039.0	8.458536489058301e+17
19040.0	8.456948034830335e+17
19041.0	8.455359026954239e+17
19042.0	8.453756140126208e+17
19043.0	8.452179580944383e+17
19044.0	8.450588656271357e+17
19045.0	8.448997945507837e+17
19046.0	8.44739867836416e+17
19047.0	8.445813650882557e+17
19048.0	8.44418969187123e+17
19049.0	8.442618083366228e+17
19050.0	8.44102870778948e+17
19051.0	8.439257312002045e+17
19052.0	8.437830325895165e+17
19053.0	8.436252906881021e+17
19054.0	8.43465806053376e+17
19055.0	8.433020528754685e+17
19056.0	8.431466744643583e+17
19057.0	8.42987049320448e+17
19058.0	8.428273862879913e+17
19059.0	8.426676639760381e+17
19060.0	8.425075352360275e+17
19061.0	8.423481494470653e+17
19062.0	8.421882667728897e+17
19063.0	8.420284495298557e+17
19064.0	8.418667424732497e+17
19065.0	8.417055436264787e+17
19066.0	8.415475806852436e+17
19067.0	8.413887131724458e+17
19068.0	8.412286781052243e+17
19069.0	8.410686413602816e+17
19070.0	8.4090839629824e+17
19071.0	8.407484402237439e+17
19072.0	8.405882916306943e+17
19073.0	8.404280201445375e+17
19074.0	8.402678925230079e+17
19075.0	8.401076503969791e+17
19076.0	8.399470131675135e+17
19077.0	8.397869353183914e+17
19078.0	8.396260651652438e+17
19079.0	8.394663761281024e+17
19080.0	8.393059244266834e+17
19081.0	8.391447978617514e+17
19082.0	8.389843197362175e+17
19083.0	8.388228019825322e+17
19084.0	8.386597960897876e+17
19085.0	8.385035869268652e+17
19086.0	8.383361932328957e+17
19087.0	8.381791691167059e+17
19088.0	8.380202669309952e+17
19089.0	8.378564493006162e+17
19090.0	8.377003697416872e+17
19091.0	8.375393632736595e+17
19092.0	8.373774767008425e+17
19093.0	8.372183814373375e+17
19094.0	8.37055385051682e+17
19095.0	8.368940525464233e+17
19096.0	8.367357227433981e+17
19097.0	8.365752058904575e+17
19098.0	8.364143839718058e+17
19099.0	8.362534592927059e+17
19100.0	8.360925857841148e+17
19101.0	8.359316567709012e+17
19102.0	8.357694136822442e+17
19103.0	8.35609719751748e+17
19104.0	8.354487036368211e+17
19105.0	8.352876418039808e+17
19106.0	8.351259835411116e+17
19107.0	8.349652337644883e+17
19108.0	8.348043136991231e+17
19109.0	8.34630763885363e+17
19110.0	8.344816331696809e+17
19111.0	8.343209089783123e+17
19112.0	8.34159730963251e+17
19113.0	8.339985111449599e+17
19114.0	8.338372523196416e+17
19115.0	8.336754262846122e+17
19116.0	8.335146461691903e+17
19117.0	8.333529927996755e+17
19118.0	8.331900997337088e+17
19119.0	8.329995360053928e+17
19120.0	8.328681954301268e+17
19121.0	8.327070701234856e+17
19122.0	8.325462652616701e+17
19123.0	8.323846135698772e+17
19124.0	8.322225265093289e+17
19125.0	8.320616109178879e+17
19126.0	8.31899946643183e+17
19127.0	8.317124980244479e+17
19128.0	8.315698730937002e+17
19129.0	8.314136514876753e+17
19130.0	8.312535111434239e+17
19131.0	8.310918231009961e+17
19132.0	8.30929997065967e+17
19133.0	8.30760650224435e+17
19134.0	8.306033997556392e+17
19135.0	8.30444683797026e+17
19136.0	8.302828458781354e+17
19137.0	8.301183928107008e+17
19138.0	8.299582607152468e+17
19139.0	8.297970087406249e+17
19140.0	8.296350928076799e+17
19141.0	8.294730875360595e+17
19142.0	8.293110147361449e+17
19143.0	8.291480707792896e+17
19144.0	8.289867298854227e+17
19145.0	8.288246973508264e+17
19146.0	8.286532287507113e+17
19147.0	8.284989211454121e+17
19148.0	8.283378946845353e+17
19149.0	8.281756004253693e+17
19150.0	8.280131375551827e+17
19151.0	8.278509393455786e+17
19152.0	8.2768833806336e+17
19153.0	8.275260614202708e+17
19154.0	8.273615248861866e+17
19155.0	8.272009880403969e+17
19156.0	8.270383083246932e+17
19157.0	8.268751827544745e+17
19158.0	8.267049966327123e+17
19159.0	8.26549859254272e+17
19160.0	8.263872593701548e+17
19161.0	8.262237479239679e+17
19162.0	8.260426090763604e+17
19163.0	8.25898469442628e+17
19164.0	8.257361512759296e+17
19165.0	8.255728956822867e+17
19166.0	8.25408344048708e+17
19167.0	8.252452412675411e+17
19168.0	8.250820940267519e+17
19169.0	8.249195300738387e+17
19170.0	8.24757420503859e+17
19171.0	8.245932913765033e+17
19172.0	8.244307355325782e+17
19173.0	8.242673707472211e+17
19174.0	8.241030832149843e+17
19175.0	8.23940408951876e+17
19176.0	8.237767908305577e+17
19177.0	8.236106854869676e+17
19178.0	8.234488997172564e+17
19179.0	8.232843083775999e+17
19180.0	8.231205928086182e+17
19181.0	8.229562462765053e+17
19182.0	8.22792895472162e+17
19183.0	8.226296612694696e+17
19184.0	8.224640691688787e+17
19185.0	8.223012834770943e+17
19186.0	8.221371388308137e+17
19187.0	8.219715883936426e+17
19188.0	8.218083439848104e+17
19189.0	8.216435346811561e+17
19190.0	8.214787720740863e+17
19191.0	8.213143986984275e+17
19192.0	8.211496763566762e+17
19193.0	8.209838193158825e+17
19194.0	8.208195443665578e+17
19195.0	8.206549363894953e+17
19196.0	8.204895450562557e+17
19197.0	8.203110614827007e+17
19198.0	8.201415117766655e+17
19199.0	8.198619830856361e+17
19200.0	8.197314020988246e+17
19201.0	8.196453453266943e+17
19202.0	8.194809362994518e+17
19203.0	8.193154799545002e+17
19204.0	8.191493244190719e+17
19205.0	8.189837836288e+17
19206.0	8.188175303660883e+17
19207.0	8.186506827705e+17
19208.0	8.18482189889263e+17
19209.0	8.183187661040297e+17
19210.0	8.181521718444028e+17
19211.0	8.17985415544832e+17
19212.0	8.178186730864637e+17
19213.0	8.176496719953917e+17
19214.0	8.17452331250483e+17
19215.0	8.172826099974143e+17
19216.0	8.171154254594047e+17
19217.0	8.169482870587391e+17
19218.0	8.167679470862335e+17
19219.0	8.166101053603839e+17
19220.0	8.16445108990771e+17
19221.0	8.162719651856383e+17
19222.0	8.161088222789631e+17
19223.0	8.1594045984058e+17
19224.0	8.157714362400767e+17
19225.0	8.156009064650068e+17
19226.0	8.154344552311466e+17
19227.0	8.152654605713407e+17
19228.0	8.150962708763987e+17
19229.0	8.149268818122068e+17
19230.0	8.147572483599016e+17
19231.0	8.145876128104447e+17
19232.0	8.144171026087936e+17
19233.0	8.142462951707987e+17
19234.0	8.140767783201449e+17
19235.0	8.139066615442089e+17
19236.0	8.137358918549501e+17
19237.0	8.135646779888978e+17
19238.0	8.133921554999977e+17
19239.0	8.132223790219263e+17
19240.0	8.130473303037268e+17
19241.0	8.128778187658578e+17
19242.0	8.127067989562708e+17
19243.0	8.125314728547667e+17
19244.0	8.12361881625122e+17
19245.0	8.121890199568381e+17
19246.0	8.120156725881513e+17
19247.0	8.11842476633839e+17
19248.0	8.116654112942761e+17
19249.0	8.114906716962815e+17
19250.0	8.113163966873599e+17
19251.0	8.111403446916436e+17
19252.0	8.109616725142185e+17
19253.0	8.107919704151379e+17
19254.0	8.106161960823466e+17
19255.0	8.104123194933247e+17
19256.0	8.102192057679871e+17
19257.0	8.100432320659455e+17
19258.0	8.098665323298815e+17
19259.0	8.096882187654483e+17
19260.0	8.095106417207977e+17
19261.0	8.093344706068479e+17
19262.0	8.091563761248937e+17
19263.0	8.089775273672703e+17
19264.0	8.087916548281683e+17
19265.0	8.086169701755561e+17
19266.0	8.084382827588264e+17
19267.0	8.08260047488068e+17
19268.0	8.080795274401108e+17
19269.0	8.078985776158036e+17
19270.0	8.077171580294483e+17
19271.0	8.075304590726483e+17
19272.0	8.073523510291113e+17
19273.0	8.070818357575679e+17
19274.0	8.069409718752595e+17
19275.0	8.068030217759402e+17
19276.0	8.066187757879293e+17
19277.0	8.064340073294506e+17
19278.0	8.062254710084948e+17
19279.0	8.060039122124799e+17
19280.0	8.058164812098217e+17
19281.0	8.056306216730621e+17
19282.0	8.054429791376724e+17
19283.0	8.052532661540179e+17
19284.0	8.050628896314708e+17
19285.0	8.048734337586515e+17
19286.0	8.04686318726895e+17
19287.0	8.044956030249642e+17
19288.0	8.042776985862143e+17
19289.0	8.04036837323571e+17
19290.0	8.039190872719357e+17
19291.0	8.037210708246528e+17
19292.0	8.035310894055421e+17
19293.0	8.0333529705786e+17
19294.0	8.030567057937747e+17
19295.0	8.028419068177066e+17
19296.0	8.026443819428522e+17
19297.0	8.024459565509289e+17
19298.0	8.022467058597888e+17
19299.0	8.02046521376768e+17
19300.0	8.018454019833853e+17
19301.0	8.016432519097e+17
19302.0	8.0144017419578e+17
19303.0	8.012348269439657e+17
19304.0	8.010303360292179e+17
19305.0	8.007617167228928e+17
19306.0	8.00526848561425e+17
19307.0	8.003182736528723e+17
19308.0	8.00109274140945e+17
19309.0	7.998953664544767e+17
19310.0	7.996816066871296e+17
19311.0	7.994733546001748e+17
19312.0	7.99260082770193e+17
19313.0	7.990435964256255e+17
19314.0	7.987424792324778e+17
19315.0	7.985197791663446e+17
19316.0	7.983346448247464e+17
19317.0	7.981140656783357e+17
19318.0	7.978916116780372e+17
19319.0	7.976676264771584e+17
19320.0	7.974417724342271e+17
19321.0	7.972148022870015e+17
19322.0	7.969838057477458e+17
19323.0	7.96737806742323e+17
19324.0	7.96479557013777e+17
19325.0	7.962516824347986e+17
19326.0	7.960195524547922e+17
19327.0	7.957815194113363e+17
19328.0	7.955418554826752e+17
19329.0	7.952998932152319e+17
19330.0	7.950551979393024e+17
19331.0	7.948089295197524e+17
19332.0	7.945612611813375e+17
19333.0	7.943106522163881e+17
19334.0	7.940573337310547e+17
19335.0	7.938022339248127e+17
19336.0	7.935442538900136e+17
19337.0	7.932836357778089e+17
19338.0	7.930172936989352e+17
19339.0	7.927080984160936e+17
19340.0	7.924219132248063e+17
19341.0	7.921505504242344e+17
19342.0	7.918703636469075e+17
19343.0	7.915979978484394e+17
19344.0	7.913168893029033e+17
19345.0	7.910034594507433e+17
19346.0	7.907358262252883e+17
19347.0	7.904522895971667e+17
19348.0	7.901582835668308e+17
19349.0	7.898026999808e+17
19350.0	7.894702964954451e+17
19351.0	7.891634937834153e+17
19352.0	7.888521917016745e+17
19353.0	7.885385322812755e+17
19354.0	7.882192327802876e+17
19355.0	7.87894104175411e+17
19356.0	7.875315537106259e+17
19357.0	7.871179388529321e+17
19358.0	7.867781588451327e+17
19359.0	7.864305038917632e+17
19360.0	7.860847263088637e+17
19361.0	7.857292794571436e+17
19362.0	7.852677214677676e+17
19363.0	7.848417294985896e+17
19364.0	7.844674070205779e+17
19365.0	7.840874668315987e+17
19366.0	7.836657975121238e+17
19367.0	7.831271199735807e+17
19368.0	7.827260842530131e+17
19369.0	7.823158323882664e+17
19370.0	7.817824886063101e+17
19371.0	7.812609783540393e+17
19372.0	7.808302894634323e+17
19373.0	7.803145976894804e+17
19374.0	7.796839512276991e+17
19375.0	7.792256264874664e+17
19376.0	7.786057558917114e+17
19377.0	7.779784297807871e+17
19378.0	7.774717574381567e+17
19379.0	7.768175491940352e+17
19380.0	7.76295652786176e+17
19381.0	7.757539169009661e+17
19382.0	7.752198273717586e+17
19383.0	7.746748080455679e+17
19384.0	7.74119281987857e+17
19385.0	7.735500401366356e+17
19386.0	7.729670125868372e+17
19387.0	7.723689681704276e+17
19388.0	7.71755924922914e+17
19389.0	7.710890405134335e+17
19390.0	7.704317128256169e+17
19391.0	7.69693202985779e+17
19392.0	7.690994726906538e+17
19393.0	7.684089462478164e+17
19394.0	7.676834305015807e+17
19395.0	7.668912061677567e+17
19396.0	7.661439519031293e+17
19397.0	7.653763900768255e+17
19398.0	7.645527912306003e+17
19399.0	7.636557442493097e+17
19400.0	7.628264113700863e+17
19401.0	7.619223147424425e+17
19402.0	7.609242053072212e+17
19403.0	7.600026605147476e+17
19404.0	7.589009565242706e+17
19405.0	7.578812549518675e+17
19406.0	7.566796810878975e+17
19407.0	7.555558157931859e+17
19408.0	7.542051896470186e+17
19409.0	7.528927118142117e+17
19410.0	7.51483117388868e+17
19411.0	7.49917719249988e+17
19412.0	7.4820857336518e+17
19413.0	7.464669839796906e+17
19414.0	7.449112685314045e+17
19415.0	7.434887599838548e+17
19416.0	7.420309012829523e+17
19417.0	7.405248936498514e+17
19418.0	7.389511844975956e+17
19419.0	7.373013210453331e+17
19420.0	7.355968158782802e+17
19421.0	7.337594863310166e+17
19422.0	7.31883117879842e+17
19423.0	7.298589274756435e+17
19424.0	7.277631201695059e+17
19425.0	7.2550744850432e+17
19426.0	7.231012839533224e+17
19427.0	7.205280367859027e+17
19428.0	7.177675437244412e+17
19429.0	7.148375689046696e+17
19430.0	7.116540172304385e+17
19431.0	7.081605742985217e+17
19432.0	7.04834118562611e+17
19433.0	7.01577940627183e+17
19434.0	6.98100914340932e+17
19435.0	6.94423047582515e+17
19436.0	6.904924935815168e+17
19437.0	6.862241204797439e+17
19438.0	6.815021371752447e+17
19439.0	6.76492803292092e+17
19440.0	6.710636439754066e+17
19441.0	6.652848988575057e+17
19442.0	6.593080305472854e+17
19443.0	6.528557634639188e+17
19444.0	6.457792816043345e+17
19445.0	6.38119521795004e+17
19446.0	6.298542732389034e+17
19447.0	6.209066953080826e+17
19448.0	6.111086588373678e+17
19449.0	5.998566042501119e+17
19450.0	5.842714358011188e+17
19451.0	5.776135433136813e+17
19452.0	5.92449320989491e+17
19453.0	6.055132025673048e+17
19454.0	6.156120764011855e+17
19455.0	6.247209692211882e+17
19456.0	6.330659834429441e+17
19457.0	6.407886208324946e+17
19458.0	6.478702496623274e+17
19459.0	6.544112874422273e+17
19460.0	6.603347871487314e+17
19461.0	6.659262912659456e+17
19462.0	6.713061168294573e+17
19463.0	6.762661893111807e+17
19464.0	6.808741257849516e+17
19465.0	6.850794201896278e+17
19466.0	6.888830047092733e+17
19467.0	6.92402008568627e+17
19468.0	6.957020886335488e+17
19469.0	6.988010588820818e+17
19470.0	7.01744780952644e+17
19471.0	7.049587485310977e+17
19472.0	7.080049747077798e+17
19473.0	7.107650683316904e+17
19474.0	7.133444277185194e+17
19475.0	7.157084511185576e+17
19476.0	7.178990689888936e+17
19477.0	7.19935833497054e+17
19478.0	7.218362453764777e+17
19479.0	7.236050191646719e+17
19480.0	7.252466313024851e+17
19481.0	7.268317717506729e+17
19482.0	7.283021989631316e+17
19483.0	7.296810171236351e+17
19484.0	7.310190463767892e+17
19485.0	7.322576914568531e+17
19486.0	7.334471079908692e+17
19487.0	7.345880118067199e+17
19488.0	7.357640205489492e+17
19489.0	7.371408622135977e+17
19490.0	7.385659299856383e+17
19491.0	7.398989924838053e+17
19492.0	7.410665183860051e+17
19493.0	7.422130931804841e+17
19494.0	7.431630125793279e+17
19495.0	7.440816634418518e+17
19496.0	7.4498351080407e+17
19497.0	7.45752140639983e+17
19498.0	7.465439641381545e+17
19499.0	7.471140743501139e+17
19500.0	7.478824781130409e+17
19501.0	7.485685258780672e+17
19502.0	7.491204789480106e+17
19503.0	7.496651481896275e+17
19504.0	7.502541138952191e+17
19505.0	7.507335221433683e+17
19506.0	7.511914721924435e+17
19507.0	7.516489247970646e+17
19508.0	7.521252783336105e+17
19509.0	7.525250623340544e+17
19510.0	7.529051452691796e+17
19511.0	7.531782826797736e+17
19512.0	7.536052357038079e+17
19513.0	7.53951420274005e+17
19514.0	7.54302193972019e+17
19515.0	7.546256216468138e+17
19516.0	7.549220040299862e+17
19517.0	7.551965216462164e+17
19518.0	7.554593128273235e+17
19519.0	7.557090689504596e+17
19520.0	7.559463896612863e+17
19521.0	7.561724514620756e+17
19522.0	7.564126799440553e+17
19523.0	7.566838166716416e+17
19524.0	7.569772594069501e+17
19525.0	7.571587444244479e+17
19526.0	7.575941233857874e+17
19527.0	7.57777035165696e+17
19528.0	7.579619249793705e+17
19529.0	7.583148116279292e+17
19530.0	7.584484270538751e+17
19531.0	7.585737276915711e+17
19532.0	7.588680769557844e+17
19533.0	7.590060488654847e+17
19534.0	7.591089308084905e+17
19535.0	7.592188832295593e+17
19536.0	7.594606115946493e+17
19537.0	7.595426011501908e+17
19538.0	7.596167572837718e+17
19539.0	7.596784177468756e+17
19540.0	7.59822049170773e+17
19541.0	7.599541998059519e+17
19542.0	7.600048751072595e+17
19543.0	7.600501015882409e+17
19544.0	7.600900685518164e+17
19545.0	7.601195965917864e+17
19546.0	7.60216449921843e+17
19547.0	7.602852035122515e+17
19548.0	7.603052188707498e+17
19549.0	7.603192892227583e+17
19550.0	7.60332380344593e+17
19551.0	7.603395567987369e+17
19552.0	7.603426517756585e+17
19553.0	7.603458949513216e+17
19554.0	7.604164663530836e+17
19555.0	7.604090106981032e+17
19556.0	7.603974598645076e+17
19557.0	7.603824167135913e+17
19558.0	7.603641527566335e+17
19559.0	7.603424129799508e+17
19560.0	7.603180843390292e+17
19561.0	7.602904912713042e+17
19562.0	7.602599721172991e+17
19563.0	7.602265607110656e+17
19564.0	7.602135902453757e+17
19565.0	7.602086499145044e+17
19566.0	7.601669406370472e+17
19567.0	7.60123244937216e+17
19568.0	7.60076960792576e+17
19569.0	7.600281642598397e+17
19570.0	7.599772928049151e+17
19571.0	7.599240998027261e+17
19572.0	7.598683772157952e+17
19573.0	7.598113560723453e+17
19574.0	7.597506535882752e+17
19575.0	7.596910142204586e+17
19576.0	7.596278583481683e+17
19577.0	7.595624498550102e+17
19578.0	7.594954300500649e+17
19579.0	7.594270328356863e+17
19580.0	7.593569511888211e+17
19581.0	7.593014673975977e+17
19582.0	7.592502320168957e+17
19583.0	7.591752150723242e+17
19584.0	7.590986472139434e+17
19585.0	7.590188648409769e+17
19586.0	7.589388171083775e+17
19587.0	7.5885952630784e+17
19588.0	7.587711015714816e+17
19589.0	7.586954300358655e+17
19590.0	7.586574640349183e+17
19591.0	7.585726090706944e+17
19592.0	7.58485418578193e+17
19593.0	7.583971054103209e+17
19594.0	7.583037758548649e+17
19595.0	7.582168856745302e+17
19596.0	7.58102765932817e+17
19597.0	7.580323671965696e+17
19598.0	7.579353737767594e+17
19599.0	7.578823725940736e+17
19600.0	7.578274323846484e+17
19601.0	7.577301523540649e+17
19602.0	7.576324812745388e+17
19603.0	7.575272394762921e+17
19604.0	7.574344356069375e+17
19605.0	7.573303349389993e+17
19606.0	7.572340335793492e+17
19607.0	7.571322903898794e+17
19608.0	7.570295728635901e+17
19609.0	7.569258185053523e+17
19610.0	7.568220535215446e+17
19611.0	7.567192803508224e+17
19612.0	7.566746377169577e+17
19613.0	7.565683472029011e+17
19614.0	7.564606872485888e+17
19615.0	7.563537835272874e+17
19616.0	7.562640542225748e+17
19617.0	7.561597751569064e+17
19618.0	7.560426971725821e+17
19619.0	7.559300500510036e+17
19620.0	7.558198984004948e+17
19621.0	7.557181391328596e+17
19622.0	7.556063107394216e+17
19623.0	7.554939386243753e+17
19624.0	7.553810246052522e+17
19625.0	7.552675962246483e+17
19626.0	7.551536611721216e+17
19627.0	7.550392177699497e+17
19628.0	7.549216823268692e+17
19629.0	7.548194026859177e+17
19630.0	7.547372007587837e+17
19631.0	7.54503462822434e+17
19632.0	7.545087944818687e+17
19633.0	7.543919850728105e+17
19634.0	7.542745350537216e+17
19635.0	7.541559044778666e+17
19636.0	7.540383350609236e+17
19637.0	7.539126073032703e+17
19638.0	7.538004397304489e+17
19639.0	7.536808826328403e+17
19640.0	7.535604039068328e+17
19641.0	7.534335129288703e+17
19642.0	7.533206242153811e+17
19643.0	7.531995722678271e+17
19644.0	7.530776435709267e+17
19645.0	7.529531953556138e+17
19646.0	7.528353763775827e+17
19647.0	7.52713295986688e+17
19648.0	7.525909110893225e+17
19649.0	7.524681914864982e+17
19650.0	7.52345287753728e+17
19651.0	7.522220430240424e+17
19652.0	7.520985390863699e+17
19653.0	7.519747476990632e+17
19654.0	7.518507453382655e+17
19655.0	7.517264043573247e+17
19656.0	7.516018331090943e+17
19657.0	7.514771762970624e+17
19658.0	7.513629985341437e+17
19659.0	7.512635822047232e+17
19660.0	7.51138162029363e+17
19661.0	7.510124973260799e+17
19662.0	7.508865925687978e+17
19663.0	7.507598074271062e+17
19664.0	7.506337336393725e+17
19665.0	7.505076943847424e+17
19666.0	7.503807680348157e+17
