# Flux units: erg / (cm m2 s)
# Wavelength units: Angstrom
wave	flux
19000.0	7.11825287160354e+17
19001.0	7.116886075157161e+17
19002.0	7.11566306644241e+17
19003.0	7.114358071667369e+17
19004.0	7.113053727009449e+17
19005.0	7.111764790826323e+17
19006.0	7.110466941747199e+17
19007.0	7.10913124606498e+17
19008.0	7.107845799542783e+17
19009.0	7.106456430750377e+17
19010.0	7.105094387848532e+17
19011.0	7.103812085656233e+17
19012.0	7.102174949539839e+17
19013.0	7.101342093585065e+17
19014.0	7.100029427428008e+17
19015.0	7.098746637298345e+17
19016.0	7.097463399776253e+17
19017.0	7.096172429355689e+17
19018.0	7.094858058913106e+17
19019.0	7.093568711688191e+17
19020.0	7.09225941635345e+17
19021.0	7.090970270455123e+17
19022.0	7.089667009325738e+17
19023.0	7.088328969027583e+17
19024.0	7.087015025005908e+17
19025.0	7.085631061273258e+17
19026.0	7.084229916273321e+17
19027.0	7.082718612073129e+17
19028.0	7.081735246315519e+17
19029.0	7.080475222867968e+17
19030.0	7.079188070662141e+17
19031.0	7.077847175441066e+17
19032.0	7.076462811851433e+17
19033.0	7.074914018962089e+17
19034.0	7.073096657797119e+17
19035.0	7.068025414309203e+17
19036.0	7.040423242148522e+17
19037.0	7.066325785859411e+17
19038.0	7.067970626912253e+17
19039.0	7.067184902351529e+17
19040.0	7.06605430673681e+17
19041.0	7.064823964980564e+17
19042.0	7.063235459022847e+17
19043.0	7.062288031460008e+17
19044.0	7.060986080351572e+17
19045.0	7.059656153235453e+17
19046.0	7.058360408298835e+17
19047.0	7.057018732937215e+17
19048.0	7.055580735384233e+17
19049.0	7.05364679214148e+17
19050.0	7.052406707017044e+17
19051.0	7.047622716030975e+17
19052.0	7.047846157789866e+17
19053.0	7.048742539274921e+17
19054.0	7.047810892081833e+17
19055.0	7.046379064350036e+17
19056.0	7.045323047654739e+17
19057.0	7.044084964611411e+17
19058.0	7.042499872817151e+17
19059.0	7.041405823571283e+17
19060.0	7.040201732565674e+17
19061.0	7.038915837252947e+17
19062.0	7.037614885786964e+17
19063.0	7.036310230750548e+17
19064.0	7.034967729111039e+17
19065.0	7.033607760292521e+17
19066.0	7.032271552206164e+17
19067.0	7.031109407735807e+17
19068.0	7.029813841756159e+17
19069.0	7.028512500219903e+17
19070.0	7.027199186042879e+17
19071.0	7.025872803113641e+17
19072.0	7.0244997543581e+17
19073.0	7.023303906557951e+17
19074.0	7.022002023956479e+17
19075.0	7.020698247626751e+17
19076.0	7.019389650643625e+17
19077.0	7.018080390960467e+17
19078.0	7.016771391324159e+17
19079.0	7.015479536604499e+17
19080.0	7.014163897384959e+17
19081.0	7.012831013284522e+17
19082.0	7.011539518575955e+17
19083.0	7.010157401036116e+17
19084.0	7.00874236240418e+17
19085.0	7.007550156658004e+17
19086.0	7.005699913547775e+17
19087.0	7.004426345294505e+17
19088.0	7.003219772659028e+17
19089.0	7.002016778463914e+17
19090.0	7.000925140942847e+17
19091.0	6.999670663064234e+17
19092.0	6.99815906106846e+17
19093.0	6.997176838957738e+17
19094.0	6.995913174854313e+17
19095.0	6.994632722350079e+17
19096.0	6.993340215416148e+17
19097.0	6.992048805292713e+17
19098.0	6.990631746404351e+17
19099.0	6.989309965325654e+17
19100.0	6.988065748811775e+17
19101.0	6.986807702978559e+17
19102.0	6.985502905335807e+17
19103.0	6.984229238516394e+17
19104.0	6.982913574131028e+17
19105.0	6.981308014133248e+17
19106.0	6.980192244684116e+17
19107.0	6.978758002431316e+17
19108.0	6.977174906426708e+17
19109.0	6.975218404119892e+17
19110.0	6.974411387873962e+17
19111.0	6.973476395024383e+17
19112.0	6.972332026014377e+17
19113.0	6.971188498661375e+17
19114.0	6.969840933098835e+17
19115.0	6.968526662620499e+17
19116.0	6.967299607101439e+17
19117.0	6.965987849710249e+17
19118.0	6.964517423895892e+17
19119.0	6.961224330422952e+17
19120.0	6.96177654759424e+17
19121.0	6.960580482389331e+17
19122.0	6.959522694299647e+17
19123.0	6.958262661065385e+17
19124.0	6.956651626102783e+17
19125.0	6.955645469895337e+17
19126.0	6.954261201376595e+17
19127.0	6.952471829501267e+17
19128.0	6.9514179407162e+17
19129.0	6.950415388114941e+17
19130.0	6.949188464017407e+17
19131.0	6.947903379603455e+17
19132.0	6.946611663994879e+17
19133.0	6.945262037630975e+17
19134.0	6.94389722578944e+17
19135.0	6.942700370657279e+17
19136.0	6.941399221359956e+17
19137.0	6.940063754966355e+17
19138.0	6.938795879781715e+17
19139.0	6.937515472715775e+17
19140.0	6.936221884350463e+17
19141.0	6.934924615483391e+17
19142.0	6.933594177361236e+17
19143.0	6.932309649391615e+17
19144.0	6.930998439357097e+17
19145.0	6.929724943106047e+17
19146.0	6.928014292724394e+17
19147.0	6.927096980264276e+17
19148.0	6.92572428313122e+17
19149.0	6.924405842815657e+17
19150.0	6.923217545461759e+17
19151.0	6.921912585639252e+17
19152.0	6.92054310064401e+17
19153.0	6.919075781410813e+17
19154.0	6.917900487098367e+17
19155.0	6.916578903851007e+17
19156.0	6.915213664190463e+17
19157.0	6.91366593176098e+17
19158.0	6.912045361048234e+17
19159.0	6.911068246900735e+17
19160.0	6.909747213806249e+17
19161.0	6.908087854869161e+17
19162.0	6.905620350020265e+17
19163.0	6.905124768535891e+17
19164.0	6.904541543574185e+17
19165.0	6.903243865063423e+17
19166.0	6.902162367272276e+17
19167.0	6.900847576700243e+17
19168.0	6.899660353787219e+17
19169.0	6.89843584770594e+17
19170.0	6.897165691518975e+17
19171.0	6.895857107118762e+17
19172.0	6.894558661749417e+17
19173.0	6.893309378516308e+17
19174.0	6.892021121810431e+17
19175.0	6.890740338655231e+17
19176.0	6.889438503589203e+17
19177.0	6.888020171729578e+17
19178.0	6.886769154850815e+17
19179.0	6.885450993456467e+17
19180.0	6.884198296758953e+17
19181.0	6.882885872473427e+17
19182.0	6.881608170034516e+17
19183.0	6.880341668484436e+17
19184.0	6.879032992508585e+17
19185.0	6.877724633901738e+17
19186.0	6.876406974425769e+17
19187.0	6.875016640244393e+17
19188.0	6.873735075550547e+17
19189.0	6.872385118535679e+17
19190.0	6.871009697901226e+17
19191.0	6.86961085068083e+17
19192.0	6.86822347907618e+17
19193.0	6.8667169570816e+17
19194.0	6.865116823115092e+17
19195.0	6.863423219083946e+17
19196.0	6.861315436620457e+17
19197.0	6.85844708074018e+17
19198.0	6.853616830775295e+17
19199.0	6.843394431822505e+17
19200.0	6.843072213505364e+17
19201.0	6.850117694914559e+17
19202.0	6.852128535827796e+17
19203.0	6.852211810937513e+17
19204.0	6.851761480400893e+17
19205.0	6.850914491039743e+17
19206.0	6.849888144850943e+17
19207.0	6.848674961293311e+17
19208.0	6.847510200975359e+17
19209.0	6.846357311236778e+17
19210.0	6.84512062349858e+17
19211.0	6.843859415859199e+17
19212.0	6.842562448982015e+17
19213.0	6.841141030813696e+17
19214.0	6.839825929863165e+17
19215.0	6.83866877731362e+17
19216.0	6.837437450594985e+17
19217.0	6.836126475441491e+17
19218.0	6.834650865467391e+17
19219.0	6.833445272201897e+17
19220.0	6.83227942555921e+17
19221.0	6.830957042597887e+17
19222.0	6.829712749188436e+17
19223.0	6.828440911784617e+17
19224.0	6.827124015671976e+17
19225.0	6.825828143508137e+17
19226.0	6.82455011950592e+17
19227.0	6.823255017695914e+17
19228.0	6.821975384479062e+17
19229.0	6.820673218762068e+17
19230.0	6.819361113243647e+17
19231.0	6.818050014358185e+17
19232.0	6.816751628408148e+17
19233.0	6.815404141139284e+17
19234.0	6.814143427728723e+17
19235.0	6.812820450574335e+17
19236.0	6.81153225888017e+17
19237.0	6.8102151747229e+17
19238.0	6.808850061590527e+17
19239.0	6.807601278178644e+17
19240.0	6.806277439793834e+17
19241.0	6.804946231317844e+17
19242.0	6.80363905131042e+17
19243.0	6.802226013361491e+17
19244.0	6.801026962511188e+17
19245.0	6.79970856903202e+17
19246.0	6.798394216764755e+17
19247.0	6.797082632738132e+17
19248.0	6.795756526632959e+17
19249.0	6.794418384972457e+17
19250.0	6.793073448539476e+17
19251.0	6.791708893948585e+17
19252.0	6.790286405533695e+17
19253.0	6.789161649788244e+17
19254.0	6.787848810965673e+17
19255.0	6.786393745391613e+17
19256.0	6.785187318158676e+17
19257.0	6.783876619130195e+17
19258.0	6.782538139129172e+17
19259.0	6.781083233637716e+17
19260.0	6.779170359083007e+17
19261.0	6.778484853222057e+17
19262.0	6.777166927407786e+17
19263.0	6.775811258449919e+17
19264.0	6.774354410296659e+17
19265.0	6.773123198222335e+17
19266.0	6.771806711054335e+17
19267.0	6.770569093578751e+17
19268.0	6.769237695660031e+17
19269.0	6.767896801138003e+17
19270.0	6.766527125301929e+17
19271.0	6.765103143015766e+17
19272.0	6.763842750469459e+17
19273.0	6.76236018983458e+17
19274.0	6.760899385054548e+17
19275.0	6.759837791333033e+17
19276.0	6.758481975574528e+17
19277.0	6.75713346839074e+17
19278.0	6.755735544616275e+17
19279.0	6.754328965895507e+17
19280.0	6.752978664947711e+17
19281.0	6.751611363087699e+17
19282.0	6.750226352876201e+17
19283.0	6.748795010285568e+17
19284.0	6.747318311190527e+17
19285.0	6.745941080014847e+17
19286.0	6.744345221442217e+17
19287.0	6.742067743031295e+17
19288.0	6.728118946846031e+17
19289.0	6.720505105787553e+17
19290.0	6.737680763191295e+17
19291.0	6.737331406329172e+17
19292.0	6.736421563225428e+17
19293.0	6.735158788314452e+17
19294.0	6.733822738912596e+17
19295.0	6.732483755595092e+17
19296.0	6.730980050075647e+17
19297.0	6.729660464016042e+17
19298.0	6.728314984420691e+17
19299.0	6.726785273517396e+17
19300.0	6.72554005176866e+17
19301.0	6.724113610222249e+17
19302.0	6.722648018343252e+17
19303.0	6.721187153444861e+17
19304.0	6.719811209221459e+17
19305.0	6.718368217650516e+17
19306.0	6.71690378060322e+17
19307.0	6.715398676283391e+17
19308.0	6.713842247663615e+17
19309.0	6.712002175041535e+17
19310.0	6.71035568562722e+17
19311.0	6.709251931460948e+17
19312.0	6.7078690715293e+17
19313.0	6.705764880788138e+17
19314.0	6.667073739904346e+17
19315.0	6.668099304554524e+17
19316.0	6.701219878447786e+17
19317.0	6.700698278996649e+17
19318.0	6.699430586264234e+17
19319.0	6.697959889218217e+17
19320.0	6.696442546618367e+17
19321.0	6.694884800288084e+17
19322.0	6.693441500435796e+17
19323.0	6.691904299903657e+17
19324.0	6.690413031194623e+17
19325.0	6.688865389641728e+17
19326.0	6.687489443321172e+17
19327.0	6.686055334587049e+17
19328.0	6.684353638345385e+17
19329.0	6.68309151355153e+17
19330.0	6.681570159798953e+17
19331.0	6.68002432529203e+17
19332.0	6.678427120347817e+17
19333.0	6.67681615389218e+17
19334.0	6.675266344583165e+17
19335.0	6.67321240719633e+17
19336.0	6.672074088469844e+17
19337.0	6.670510902127273e+17
19338.0	6.668782215539369e+17
19339.0	6.667289519368873e+17
19340.0	6.665632264574291e+17
19341.0	6.663824032311978e+17
19342.0	6.662180313235455e+17
19343.0	6.660724157841408e+17
19344.0	6.658701930790911e+17
19345.0	6.656458055745536e+17
19346.0	6.654999901765631e+17
19347.0	6.653582591219028e+17
19348.0	6.652174147431082e+17
19349.0	6.650429163874985e+17
19350.0	6.648624036096681e+17
19351.0	6.646962043136682e+17
19352.0	6.644944310282922e+17
19353.0	6.643451808448511e+17
19354.0	6.641600121099604e+17
19355.0	6.639637709717504e+17
19356.0	6.637826234559146e+17
19357.0	6.635996971357524e+17
19358.0	6.634125762319699e+17
19359.0	6.632202342585684e+17
19360.0	6.630183521310035e+17
19361.0	6.628467019175252e+17
19362.0	6.626570469550761e+17
19363.0	6.624641177092095e+17
19364.0	6.622692631379967e+17
19365.0	6.620725701334356e+17
19366.0	6.618740742073001e+17
19367.0	6.616728884740096e+17
19368.0	6.614706798198783e+17
19369.0	6.612584809627647e+17
19370.0	6.610373733340502e+17
19371.0	6.608222110613503e+17
19372.0	6.606094156343977e+17
19373.0	6.603878076252159e+17
19374.0	6.601672587476991e+17
19375.0	6.599405687799808e+17
19376.0	6.597120088517289e+17
19377.0	6.594785488579241e+17
19378.0	6.592428136639146e+17
19379.0	6.590021435217236e+17
19380.0	6.587563022920361e+17
19381.0	6.585042430066687e+17
19382.0	6.582309616615423e+17
19383.0	6.579613251665919e+17
19384.0	6.577000298840063e+17
19385.0	6.574310841909247e+17
19386.0	6.57155122336017e+17
19387.0	6.568706082952532e+17
19388.0	6.565759239760553e+17
19389.0	6.56254331588881e+17
19390.0	6.557973544086185e+17
19391.0	6.532086981372572e+17
19392.0	6.547568276974249e+17
19393.0	6.550132940778153e+17
19394.0	6.547405284922708e+17
19395.0	6.544235387944959e+17
19396.0	6.541022583237289e+17
19397.0	6.537673439881897e+17
19398.0	6.534063082962943e+17
19399.0	6.530171158222164e+17
19400.0	6.526600136185172e+17
19401.0	6.522946712152746e+17
19402.0	6.519042345009151e+17
19403.0	6.515013802699433e+17
19404.0	6.510881359091027e+17
19405.0	6.506597199118333e+17
19406.0	6.502176164326058e+17
19407.0	6.497483066004819e+17
19408.0	6.492605655285759e+17
19409.0	6.487893873437354e+17
19410.0	6.482920253074089e+17
19411.0	6.477730135321257e+17
19412.0	6.472252693064364e+17
19413.0	6.466494700104361e+17
19414.0	6.460895413316265e+17
19415.0	6.455009839415295e+17
19416.0	6.44870453731874e+17
19417.0	6.442240982035114e+17
19418.0	6.435565624186195e+17
19419.0	6.428642308172457e+17
19420.0	6.421395244318717e+17
19421.0	6.413783770944852e+17
19422.0	6.405808204720809e+17
19423.0	6.397390988771325e+17
19424.0	6.38849972769041e+17
19425.0	6.379196890043731e+17
19426.0	6.369458213879805e+17
19427.0	6.359280518518102e+17
19428.0	6.34866768019456e+17
19429.0	6.337067316062889e+17
19430.0	6.323176419448148e+17
19431.0	6.308762512698026e+17
19432.0	6.298158155956223e+17
19433.0	6.284115186461356e+17
19434.0	6.268365255475199e+17
19435.0	6.250504597624148e+17
19436.0	6.23172320685807e+17
19437.0	6.21170935341602e+17
19438.0	6.154958784517467e+17
19439.0	6.160429235568637e+17
19440.0	6.145738216046591e+17
19441.0	6.119631972466685e+17
19442.0	6.089872450955946e+17
19443.0	6.05598026703394e+17
19444.0	6.017687513726973e+17
19445.0	5.973400705040387e+17
19446.0	5.921584857131689e+17
19447.0	5.859360680269137e+17
19448.0	5.782339367294296e+17
19449.0	5.6820521640482125e+17
19450.0	5.534430545663307e+17
19451.0	5.434311531211435e+17
19452.0	5.6172996048104096e+17
19453.0	5.7332453109050054e+17
19454.0	5.817857418635942e+17
19455.0	5.884283830228308e+17
19456.0	5.938302599299073e+17
19457.0	5.982555493542568e+17
19458.0	5.941247877316698e+17
19459.0	6.045822421914984e+17
19460.0	6.085592299339773e+17
19461.0	6.112343122160297e+17
19462.0	6.13632864035362e+17
19463.0	6.157617929213267e+17
19464.0	6.177038353651027e+17
19465.0	6.194727704941908e+17
19466.0	6.210616191265449e+17
19467.0	6.225428381433855e+17
19468.0	6.239132193215828e+17
19469.0	6.251621943432531e+17
19470.0	6.263425052530003e+17
19471.0	6.274252616848724e+17
19472.0	6.284307990926675e+17
19473.0	6.293639955917481e+17
19474.0	6.301831875526655e+17
19475.0	6.309618404469417e+17
19476.0	6.317361383254697e+17
19477.0	6.324516253510314e+17
19478.0	6.331204525621247e+17
19479.0	6.337321532828329e+17
19480.0	6.343200834147668e+17
19481.0	6.348581086691327e+17
19482.0	6.35361163284753e+17
19483.0	6.358303337960788e+17
19484.0	6.362769587350185e+17
19485.0	6.367023209993556e+17
19486.0	6.370750535565311e+17
19487.0	6.374443677559466e+17
19488.0	6.377736103439017e+17
19489.0	6.380740661652137e+17
19490.0	6.383628408498857e+17
19491.0	6.386942195968681e+17
19492.0	6.389680961137322e+17
19493.0	6.392167525602644e+17
19494.0	6.39446392381986e+17
19495.0	6.396526634292564e+17
19496.0	6.398108853687636e+17
19497.0	6.398895930911401e+17
19498.0	6.388075999526907e+17
19499.0	6.365439511407273e+17
19500.0	6.402433634795519e+17
19501.0	6.406282964981076e+17
19502.0	6.408149033200297e+17
19503.0	6.409591745850025e+17
19504.0	6.410912307784361e+17
19505.0	6.411974554419199e+17
19506.0	6.412926224520532e+17
19507.0	6.413734728346282e+17
19508.0	6.414418290846378e+17
19509.0	6.414734195337897e+17
19510.0	6.412936652958377e+17
19511.0	6.352878314018107e+17
19512.0	6.402795300541779e+17
19513.0	6.403386311529806e+17
19514.0	6.406263687959887e+17
19515.0	6.416982803655337e+17
19516.0	6.41832666005504e+17
19517.0	6.418916593805993e+17
19518.0	6.419239755142484e+17
19519.0	6.419467709972479e+17
19520.0	6.419670315128148e+17
19521.0	6.42007926116625e+17
19522.0	6.42010011664384e+17
19523.0	6.420110253577556e+17
19524.0	6.419987380742826e+17
19525.0	6.420039597031423e+17
19526.0	6.4199377041053e+17
19527.0	6.4197870761629e+17
19528.0	6.419582979233108e+17
19529.0	6.419362198061055e+17
19530.0	6.419147070810793e+17
19531.0	6.418871348450644e+17
19532.0	6.418587541569536e+17
19533.0	6.418352922689536e+17
19534.0	6.417977532481535e+17
19535.0	6.417557052107433e+17
19536.0	6.417108051165183e+17
19537.0	6.416664624452948e+17
19538.0	6.41593124200994e+17
19539.0	6.415550325107369e+17
19540.0	6.415190916595711e+17
19541.0	6.414657806576298e+17
19542.0	6.414153205241172e+17
19543.0	6.413433916358655e+17
19544.0	6.413013561114623e+17
19545.0	6.412201687165609e+17
19546.0	6.411554502563156e+17
19547.0	6.411246474974548e+17
19548.0	6.410772631169705e+17
19549.0	6.410140158787583e+17
19550.0	6.40955829138227e+17
19551.0	6.408893285881172e+17
19552.0	6.40821278032964e+17
19553.0	6.407510797145427e+17
19554.0	6.406804798614185e+17
19555.0	6.406060998918144e+17
19556.0	6.405344084011689e+17
19557.0	6.404606340191572e+17
19558.0	6.403853140361215e+17
19559.0	6.403237564033706e+17
19560.0	6.402368235110399e+17
19561.0	6.401647963362643e+17
19562.0	6.400796758725971e+17
19563.0	6.400057467207677e+17
19564.0	6.399239419243176e+17
19565.0	6.398412211617791e+17
19566.0	6.397564388289193e+17
19567.0	6.396730706056531e+17
19568.0	6.395856268470954e+17
19569.0	6.395005541285887e+17
19570.0	6.39416862384674e+17
19571.0	6.393406991368191e+17
19572.0	6.392501518030166e+17
19573.0	6.391596304738985e+17
19574.0	6.390655951568895e+17
19575.0	6.389827327666857e+17
19576.0	6.388900856943956e+17
19577.0	6.387942278823935e+17
19578.0	6.387065669986985e+17
19579.0	6.38612969287407e+17
19580.0	6.385200242098175e+17
19581.0	6.384277295289683e+17
19582.0	6.383340805073578e+17
19583.0	6.382394320530089e+17
19584.0	6.381435931852797e+17
19585.0	6.380488307856723e+17
19586.0	6.379492002671273e+17
19587.0	6.37857448469026e+17
19588.0	6.377507659972607e+17
19589.0	6.37666352833058e+17
19590.0	6.375671083302911e+17
19591.0	6.374763006700202e+17
19592.0	6.373794385319252e+17
19593.0	6.372776097087487e+17
19594.0	6.371639510608553e+17
19595.0	6.370815744409597e+17
19596.0	6.369297535685974e+17
19597.0	6.368815689149098e+17
19598.0	6.367647385343316e+17
19599.0	6.366800670010025e+17
19600.0	6.365797125455871e+17
19601.0	6.364861360155305e+17
19602.0	6.363863422686548e+17
19603.0	6.362639881994239e+17
19604.0	6.361759468224511e+17
19605.0	6.360731161897642e+17
19606.0	6.359879542723924e+17
19607.0	6.358869138385577e+17
19608.0	6.35783062032657e+17
19609.0	6.35678131032337e+17
19610.0	6.35568340860928e+17
19611.0	6.354613417192106e+17
19612.0	6.353694129214803e+17
19613.0	6.352635560285524e+17
19614.0	6.351555971601748e+17
19615.0	6.35046836970018e+17
19616.0	6.349154477408255e+17
19617.0	6.348228291898025e+17
19618.0	6.347032024667476e+17
19619.0	6.345867515308714e+17
19620.0	6.344891881051475e+17
19621.0	6.343904005718015e+17
19622.0	6.343033802981375e+17
19623.0	6.341928596187817e+17
19624.0	6.340778636170579e+17
19625.0	6.339664331232596e+17
19626.0	6.338429946167295e+17
19627.0	6.337025163307689e+17
19628.0	6.335208694131369e+17
19629.0	6.332315598148947e+17
19630.0	6.325621848276991e+17
19631.0	6.318588074568362e+17
19632.0	6.328080283642538e+17
19633.0	6.329645079898793e+17
19634.0	6.329483263650473e+17
19635.0	6.328713996839593e+17
19636.0	6.327660479949482e+17
19637.0	6.326448860168191e+17
19638.0	6.325852560162813e+17
19639.0	6.324814354579455e+17
19640.0	6.323649973146964e+17
19641.0	6.322351007683924e+17
19642.0	6.321610517992788e+17
19643.0	6.320531258561876e+17
19644.0	6.319436061474815e+17
19645.0	6.318325060250281e+17
19646.0	6.317113527850323e+17
19647.0	6.316247785056938e+17
19648.0	6.315169332330496e+17
19649.0	6.314082660166313e+17
19650.0	6.312995006534996e+17
19651.0	6.311900591685631e+17
19652.0	6.310812499050495e+17
19653.0	6.309704376516607e+17
19654.0	6.308621501595648e+17
19655.0	6.307526375112704e+17
19656.0	6.306435736535039e+17
19657.0	6.305341618782208e+17
19658.0	6.304241689821184e+17
19659.0	6.303146376691711e+17
19660.0	6.302047332728831e+17
19661.0	6.300945426852522e+17
19662.0	6.29983662973474e+17
19663.0	6.298705109975037e+17
19664.0	6.2975858718365e+17
19665.0	6.296532366131199e+17
