# Flux units: erg / (cm m2 s)
# Wavelength units: Angstrom
wave	flux
19000.0	7.270222096498688e+17
19001.0	7.26888405480243e+17
19002.0	7.26756053099042e+17
19003.0	7.266228836674217e+17
19004.0	7.264896581719378e+17
19005.0	7.263564192546815e+17
19006.0	7.262230947736233e+17
19007.0	7.2608971241117e+17
19008.0	7.259559240400893e+17
19009.0	7.258219356007081e+17
19010.0	7.256863845034664e+17
19011.0	7.255555630432255e+17
19012.0	7.254240595891539e+17
19013.0	7.253055955271679e+17
19014.0	7.251718869876736e+17
19015.0	7.250381255999487e+17
19016.0	7.249039900803071e+17
19017.0	7.247704484741119e+17
19018.0	7.246366413684735e+17
19019.0	7.245027600236543e+17
19020.0	7.243688149254144e+17
19021.0	7.242348522110975e+17
19022.0	7.241008685252607e+17
19023.0	7.239668277968896e+17
19024.0	7.238326964715519e+17
19025.0	7.236986212100777e+17
19026.0	7.235670411400531e+17
19027.0	7.234444725321727e+17
19028.0	7.233107971276799e+17
19029.0	7.231766108569599e+17
19030.0	7.230423931289599e+17
19031.0	7.229081103892479e+17
19032.0	7.227738280689661e+17
19033.0	7.226388071317501e+17
19034.0	7.22511998222336e+17
19035.0	7.223779008708607e+17
19036.0	7.222116806033407e+17
19037.0	7.221093651709951e+17
19038.0	7.21975537513267e+17
19039.0	7.218412090556415e+17
19040.0	7.217067769987071e+17
19041.0	7.215723176787965e+17
19042.0	7.214378294181888e+17
19043.0	7.21303315152896e+17
19044.0	7.211687698497535e+17
19045.0	7.210342245466111e+17
19046.0	7.208993259432617e+17
19047.0	7.207647999339177e+17
19048.0	7.206292173793961e+17
19049.0	7.204958193582079e+17
19050.0	7.203611138326527e+17
19051.0	7.202217652125696e+17
19052.0	7.200903396327423e+17
19053.0	7.199572128432127e+17
19054.0	7.198226063032317e+17
19055.0	7.196865812496383e+17
19056.0	7.195532380340224e+17
19057.0	7.194185295724543e+17
19058.0	7.192838009782271e+17
19059.0	7.19149033796403e+17
19060.0	7.190141823090688e+17
19061.0	7.188795514421247e+17
19062.0	7.187447519641599e+17
19063.0	7.18609971360563e+17
19064.0	7.184745890141522e+17
19065.0	7.183399347989161e+17
19066.0	7.182056131919871e+17
19067.0	7.180708093799081e+17
19068.0	7.179359908877651e+17
19069.0	7.178011644264447e+17
19070.0	7.176662805031593e+17
19071.0	7.175314871768404e+17
19072.0	7.173966393245696e+17
19073.0	7.172617559605245e+17
19074.0	7.171269246058493e+17
19075.0	7.169920542441471e+17
19076.0	7.168570614087679e+17
19077.0	7.167221763670015e+17
19078.0	7.165872397352957e+17
19079.0	7.164525143567016e+17
19080.0	7.163176123979092e+17
19081.0	7.16182696178483e+17
19082.0	7.160475478742356e+17
19083.0	7.159127397280425e+17
19084.0	7.157761263534079e+17
19085.0	7.156430104690687e+17
19086.0	7.155054978356564e+17
19087.0	7.153725838371497e+17
19088.0	7.15237938569762e+17
19089.0	7.151016259267241e+17
19090.0	7.149682279055357e+17
19091.0	7.148333168590845e+17
19092.0	7.146983244431357e+17
19093.0	7.145635006382079e+17
19094.0	7.144284931227647e+17
19095.0	7.142935325835263e+17
19096.0	7.141585607196671e+17
19097.0	7.140236710641661e+17
19098.0	7.138887384869545e+17
19099.0	7.137537710970195e+17
19100.0	7.136187957379071e+17
19101.0	7.134837652936019e+17
19102.0	7.133481908480681e+17
19103.0	7.132138474307581e+17
19104.0	7.130788646617087e+17
19105.0	7.129438504353791e+17
19106.0	7.128087527423999e+17
19107.0	7.126737284497407e+17
19108.0	7.125387028987904e+17
19109.0	7.124018019347113e+17
19110.0	7.122683393212415e+17
19111.0	7.121279498147156e+17
19112.0	7.119912002650111e+17
19113.0	7.118562124627968e+17
19114.0	7.117211982364671e+17
19115.0	7.115859973636093e+17
19116.0	7.114511542648832e+17
19117.0	7.113160532164607e+17
19118.0	7.111805839081472e+17
19119.0	7.110197189279743e+17
19120.0	7.109106351472637e+17
19121.0	7.107758012760063e+17
19122.0	7.106410331155114e+17
19123.0	7.105060049081684e+17
19124.0	7.103709492980393e+17
19125.0	7.102358384629076e+17
19126.0	7.101003761451007e+17
19127.0	7.099544037403305e+17
19128.0	7.098301618847743e+17
19129.0	7.096955882001748e+17
19130.0	7.095606224879616e+17
19131.0	7.094255524773887e+17
19132.0	7.092904573009919e+17
19133.0	7.091552165822461e+17
19134.0	7.090123577491453e+17
19135.0	7.088713888694271e+17
19136.0	7.087362620959402e+17
19137.0	7.086002194262697e+17
19138.0	7.084659677244074e+17
19139.0	7.083310088628905e+17
19140.0	7.081959148049747e+17
19141.0	7.080608027115519e+17
19142.0	7.079256731418623e+17
19143.0	7.077902259235497e+17
19144.0	7.076553063486803e+17
19145.0	7.075202617835519e+17
19146.0	7.073805795764906e+17
19147.0	7.072494516524372e+17
19148.0	7.071147728306173e+17
19149.0	7.069796017373183e+17
19150.0	7.068443878621183e+17
19151.0	7.067092183067305e+17
19152.0	7.065740100239359e+17
19153.0	7.064387614758228e+17
19154.0	7.063027727728639e+17
19155.0	7.061682369768105e+17
19156.0	7.060329743078739e+17
19157.0	7.058974787152553e+17
19158.0	7.057613405552639e+17
19159.0	7.056268885054804e+17
19160.0	7.054917940281343e+17
19161.0	7.053563277956436e+17
19162.0	7.052179909814953e+17
19163.0	7.050851498240681e+17
19164.0	7.04950491414528e+17
19165.0	7.048151308784978e+17
19166.0	7.046790201212927e+17
19167.0	7.045441027833855e+17
19168.0	7.044089186877437e+17
19169.0	7.042735139717119e+17
19170.0	7.041381279902377e+17
19171.0	7.040025612342612e+17
19172.0	7.038671777693696e+17
19173.0	7.037316964373844e+17
19174.0	7.035958271322793e+17
19175.0	7.034606294750547e+17
19176.0	7.033250843197439e+17
19177.0	7.031883381254825e+17
19178.0	7.030537343817044e+17
19179.0	7.029180399091711e+17
19180.0	7.027825266305705e+17
19181.0	7.026461516322132e+17
19182.0	7.025110573645823e+17
19183.0	7.023754755091113e+17
19184.0	7.022396841481556e+17
19185.0	7.021039062089727e+17
19186.0	7.019681156868778e+17
19187.0	7.018322517644627e+17
19188.0	7.016963817603072e+17
19189.0	7.015605136435882e+17
19190.0	7.014245515045544e+17
19191.0	7.012778671865855e+17
19192.0	7.011341731976532e+17
19193.0	7.009981235374761e+17
19194.0	7.008620199804925e+17
19195.0	7.007258157602131e+17
19196.0	7.005894295770451e+17
19197.0	7.004527923647827e+17
19198.0	7.003146863072598e+17
19199.0	7.001590157628758e+17
19200.0	7.000262061326336e+17
19201.0	6.999061757078185e+17
19202.0	6.997715417650516e+17
19203.0	6.996356293285204e+17
19204.0	6.994992408384852e+17
19205.0	6.993630005471913e+17
19206.0	6.992264809152511e+17
19207.0	6.990897253537108e+17
19208.0	6.98952070603298e+17
19209.0	6.988167741003091e+17
19210.0	6.986800785872212e+17
19211.0	6.98543306248465e+17
19212.0	6.984064609288191e+17
19213.0	6.9826887825053e+17
19214.0	6.981318299265705e+17
19215.0	6.979955214778368e+17
19216.0	6.978585448764756e+17
19217.0	6.977212132971859e+17
19218.0	6.975791789244415e+17
19219.0	6.974454543067817e+17
19220.0	6.973096296710143e+17
19221.0	6.971704439996413e+17
19222.0	6.970345745547261e+17
19223.0	6.968973383958528e+17
19224.0	6.967596949700607e+17
19225.0	6.966212537876479e+17
19226.0	6.964843470913535e+17
19227.0	6.963465631563773e+17
19228.0	6.962086527631359e+17
19229.0	6.960706459009023e+17
19230.0	6.959325496999933e+17
19231.0	6.957944050548733e+17
19232.0	6.956560699184468e+17
19233.0	6.955176388722687e+17
19234.0	6.953792197798569e+17
19235.0	6.952408174646612e+17
19236.0	6.95102175514897e+17
19237.0	6.949633628569599e+17
19238.0	6.948243908154708e+17
19239.0	6.94685723000832e+17
19240.0	6.94546617930001e+17
19241.0	6.944075297062911e+17
19242.0	6.942683329200127e+17
19243.0	6.941277104898047e+17
19244.0	6.939895219443027e+17
19245.0	6.938499290759167e+17
19246.0	6.937101267020457e+17
19247.0	6.935703594904234e+17
19248.0	6.934303997602474e+17
19249.0	6.932902881962665e+17
19250.0	6.931500055745876e+17
19251.0	6.930089302294527e+17
19252.0	6.928667922573993e+17
19253.0	6.927283911305898e+17
19254.0	6.925876331544575e+17
19255.0	6.924392782452052e+17
19256.0	6.922897682246313e+17
19257.0	6.921486839316479e+17
19258.0	6.920072643040595e+17
19259.0	6.918656686555135e+17
19260.0	6.917232997870249e+17
19261.0	6.915819719447891e+17
19262.0	6.914398366990333e+17
19263.0	6.912970817448618e+17
19264.0	6.911516627785044e+17
19265.0	6.910109605167104e+17
19266.0	6.908681824239615e+17
19267.0	6.907263600033791e+17
19268.0	6.905830558750036e+17
19269.0	6.904395111333887e+17
19270.0	6.902955983415978e+17
19271.0	6.901496280339795e+17
19272.0	6.900071989073236e+17
19273.0	6.898593014568275e+17
19274.0	6.897141973428906e+17
19275.0	6.895733122793472e+17
19276.0	6.894281163101523e+17
19277.0	6.892826279979689e+17
19278.0	6.891368416804863e+17
19279.0	6.889907300947284e+17
19280.0	6.888439394511529e+17
19281.0	6.886976436655444e+17
19282.0	6.885506642083839e+17
19283.0	6.884003809678676e+17
19284.0	6.882312102171987e+17
19285.0	6.880828574750036e+17
19286.0	6.879354266408276e+17
19287.0	6.877869117887827e+17
19288.0	6.876283043927379e+17
19289.0	6.874680121447764e+17
19290.0	6.873394401596756e+17
19291.0	6.871877938402644e+17
19292.0	6.870395493810175e+17
19293.0	6.868888664932351e+17
19294.0	6.867378369462271e+17
19295.0	6.865863921631232e+17
19296.0	6.864345721296212e+17
19297.0	6.862823018375849e+17
19298.0	6.861296086898004e+17
19299.0	6.859764358534484e+17
19300.0	6.85822771864098e+17
19301.0	6.856377629321898e+17
19302.0	6.854783608553471e+17
19303.0	6.853230626952532e+17
19304.0	6.85167462195746e+17
19305.0	6.849937264345087e+17
19306.0	6.848344887044778e+17
19307.0	6.846770479540906e+17
19308.0	6.845192315338751e+17
19309.0	6.84360030364194e+17
19310.0	6.842006354875734e+17
19311.0	6.840417316241407e+17
19312.0	6.838814952303273e+17
19313.0	6.837202800257705e+17
19314.0	6.835168040626857e+17
19315.0	6.833212148591274e+17
19316.0	6.831835707342847e+17
19317.0	6.83019738423842e+17
19318.0	6.828550871755433e+17
19319.0	6.826898571831977e+17
19320.0	6.825237775646719e+17
19321.0	6.823568070759764e+17
19322.0	6.821884942701908e+17
19323.0	6.8202002382848e+17
19324.0	6.818068362341034e+17
19325.0	6.816150133058217e+17
19326.0	6.814439886727849e+17
19327.0	6.812715627227817e+17
19328.0	6.810980764527274e+17
19329.0	6.80923474567714e+17
19330.0	6.807475453952e+17
19331.0	6.80570856284706e+17
19332.0	6.803232629544275e+17
19333.0	6.801316084274515e+17
19334.0	6.799515499626496e+17
19335.0	6.79750660067601e+17
19336.0	6.795445694453076e+17
19337.0	6.79360591962658e+17
19338.0	6.791456356302848e+17
19339.0	6.788865717873321e+17
19340.0	6.7869829758976e+17
19341.0	6.785091596451839e+17
19342.0	6.783166060691456e+17
19343.0	6.781261179082068e+17
19344.0	6.778924359658153e+17
19345.0	6.776622587838463e+17
19346.0	6.774715592998911e+17
19347.0	6.772795535698602e+17
19348.0	6.770801683813716e+17
19349.0	6.768782897490601e+17
19350.0	6.766742928534185e+17
19351.0	6.764544771402408e+17
19352.0	6.761769796807337e+17
19353.0	6.759665960484863e+17
19354.0	6.757538304709971e+17
19355.0	6.755379910279167e+17
19356.0	6.753208465271465e+17
19357.0	6.75100454167074e+17
19358.0	6.748772517631316e+17
19359.0	6.746510526687914e+17
19360.0	6.744219920105472e+17
19361.0	6.741898326704127e+17
19362.0	6.738441882566656e+17
19363.0	6.735978695753727e+17
19364.0	6.733558062951084e+17
19365.0	6.731100416114687e+17
19366.0	6.728603246351699e+17
19367.0	6.726051028445865e+17
19368.0	6.723426507729577e+17
19369.0	6.720127031225001e+17
19370.0	6.716370827171155e+17
19371.0	6.71363385996083e+17
19372.0	6.710854123432617e+17
19373.0	6.708034097119232e+17
19374.0	6.705173539848191e+17
19375.0	6.701285128536064e+17
19376.0	6.697062610851156e+17
19377.0	6.694044990876329e+17
19378.0	6.690785122582527e+17
19379.0	6.687710321661268e+17
19380.0	6.68291555341107e+17
19381.0	6.678522456877737e+17
19382.0	6.675325726840148e+17
19383.0	6.672092038692863e+17
19384.0	6.667184647088812e+17
19385.0	6.661649299668991e+17
19386.0	6.658087795206825e+17
19387.0	6.654450338190676e+17
19388.0	6.647624713109503e+17
19389.0	6.642204845364563e+17
19390.0	6.638132427139753e+17
19391.0	6.631651234108758e+17
19392.0	6.625049209470975e+17
19393.0	6.620973827271337e+17
19394.0	6.614008283703976e+17
19395.0	6.606699682420052e+17
19396.0	6.601438788583423e+17
19397.0	6.594554980816211e+17
19398.0	6.589144492933119e+17
19399.0	6.584532642474665e+17
19400.0	6.57979272663313e+17
19401.0	6.573363919060991e+17
19402.0	6.568397503812947e+17
19403.0	6.56329142313506e+17
19404.0	6.557368131256319e+17
19405.0	6.550149403421353e+17
19406.0	6.54451790577664e+17
19407.0	6.538225250904745e+17
19408.0	6.529169153676628e+17
19409.0	6.522835044401152e+17
19410.0	6.514493713197741e+17
19411.0	6.505272796599636e+17
19412.0	6.497784376415578e+17
19413.0	6.485836547052883e+17
19414.0	6.478265125786963e+17
19415.0	6.464506354641574e+17
19416.0	6.456059606597627e+17
19417.0	6.440271918486865e+17
19418.0	6.429851677709649e+17
19419.0	6.41337255928354e+17
19420.0	6.399710543041887e+17
19421.0	6.383960586889897e+17
19422.0	6.370025767523667e+17
19423.0	6.356989936402431e+17
19424.0	6.345089147557204e+17
19425.0	6.332499533059412e+17
19426.0	6.319459861353811e+17
19427.0	6.30591483683362e+17
19428.0	6.291851290782377e+17
19429.0	6.276715552702463e+17
19430.0	6.26113354207505e+17
19431.0	6.244216618003113e+17
19432.0	6.225428845603497e+17
19433.0	6.205698112574806e+17
19434.0	6.184289154629628e+17
19435.0	6.159691592411817e+17
19436.0	6.134473157858644e+17
19437.0	6.10626470814242e+17
19438.0	6.075156069176659e+17
19439.0	6.041645843043671e+17
19440.0	6.002512810562899e+17
19441.0	5.960615930975571e+17
19442.0	5.913654613158572e+17
19443.0	5.860013265737044e+17
19444.0	5.798911310561275e+17
19445.0	5.727781012897795e+17
19446.0	5.6441031493331616e+17
19447.0	5.543133443347792e+17
19448.0	5.416431743139845e+17
19449.0	5.247758560657407e+17
19450.0	4.995454393647088e+17
19451.0	4.8387814707254726e+17
19452.0	5.138062165497176e+17
19453.0	5.337875635066203e+17
19454.0	5.4798892802594074e+17
19455.0	5.5898873437443405e+17
19456.0	5.6790951293965677e+17
19457.0	5.753628730763944e+17
19458.0	5.816588017423702e+17
19459.0	5.871980817416193e+17
19460.0	5.919712944149843e+17
19461.0	5.961615454590292e+17
19462.0	5.999787083388247e+17
19463.0	6.03381250077491e+17
19464.0	6.063437615114921e+17
19465.0	6.091017538590038e+17
19466.0	6.114976436933971e+17
19467.0	6.137454545338365e+17
19468.0	6.15818808332561e+17
19469.0	6.176082980678313e+17
19470.0	6.19326361042944e+17
19471.0	6.208524075226452e+17
19472.0	6.222355486823763e+17
19473.0	6.235293562699776e+17
19474.0	6.247439374396074e+17
19475.0	6.258800312276307e+17
19476.0	6.269718224699391e+17
19477.0	6.280091001334441e+17
19478.0	6.290009050404179e+17
19479.0	6.299091403276288e+17
19480.0	6.312221012044457e+17
19481.0	6.322232567529464e+17
19482.0	6.337242828111871e+17
19483.0	6.347826049056758e+17
19484.0	6.359469812350975e+17
19485.0	6.370002964490927e+17
19486.0	6.37905087164143e+17
19487.0	6.387916700560045e+17
19488.0	6.395715501337257e+17
19489.0	6.40297319076113e+17
19490.0	6.410255684599807e+17
19491.0	6.415312600345257e+17
19492.0	6.423065497261395e+17
19493.0	6.427062174045524e+17
19494.0	6.43219744568115e+17
19495.0	6.437562883943081e+17
19496.0	6.44079897682466e+17
19497.0	6.444527737547433e+17
19498.0	6.449052132573183e+17
19499.0	6.451388495517012e+17
19500.0	6.454348177473535e+17
19501.0	6.457528507083434e+17
19502.0	6.460667840167936e+17
19503.0	6.46280739168802e+17
19504.0	6.464840273668778e+17
19505.0	6.469448830200486e+17
19506.0	6.472463224056489e+17
19507.0	6.475059976383149e+17
19508.0	6.482003830505472e+17
19509.0	6.483636821251411e+17
19510.0	6.485683452160678e+17
19511.0	6.491054592578899e+17
19512.0	6.492889627142825e+17
19513.0	6.494578804785151e+17
19514.0	6.499470176944124e+17
19515.0	6.501391845556223e+17
19516.0	6.502504263057407e+17
19517.0	6.503808161720998e+17
19518.0	6.507887172692649e+17
19519.0	6.508641883171498e+17
19520.0	6.509341546206548e+17
19521.0	6.510001477298857e+17
19522.0	6.513158579552257e+17
19523.0	6.513974635222356e+17
19524.0	6.514534206406655e+17
19525.0	6.515245684796074e+17
19526.0	6.515745369008808e+17
19527.0	6.518235407755946e+17
19528.0	6.518597265042089e+17
19529.0	6.518917205153107e+17
19530.0	6.519196910004906e+17
19531.0	6.519436171280383e+17
19532.0	6.519638306674003e+17
19533.0	6.521368871611049e+17
19534.0	6.521502662918143e+17
19535.0	6.521574704283647e+17
19536.0	6.521574979010559e+17
19537.0	6.521534321524733e+17
19538.0	6.52144617263377e+17
19539.0	6.521310193298089e+17
19540.0	6.521541758724778e+17
19541.0	6.522114668494847e+17
19542.0	6.521904263331839e+17
19543.0	6.521663344607231e+17
19544.0	6.521392746288467e+17
19545.0	6.521061075408212e+17
19546.0	6.520716421059923e+17
19547.0	6.520421372045993e+17
19548.0	6.520048242567849e+17
19549.0	6.51964340834577e+17
19550.0	6.51923152769297e+17
19551.0	6.51931414569506e+17
19552.0	6.519060135149567e+17
19553.0	6.51859928949282e+17
19554.0	6.518095096403284e+17
19555.0	6.517574792992084e+17
19556.0	6.517033732669439e+17
19557.0	6.516480671044948e+17
19558.0	6.516317769869994e+17
19559.0	6.515906024833023e+17
19560.0	6.515309801024169e+17
19561.0	6.514697833895252e+17
19562.0	6.514070592509267e+17
19563.0	6.513429080702975e+17
19564.0	6.51368317653265e+17
19565.0	6.513040239362047e+17
19566.0	6.512359563941204e+17
19567.0	6.511668220308138e+17
19568.0	6.511296243564543e+17
19569.0	6.510630365648212e+17
19570.0	6.510092124596906e+17
19571.0	6.509908782481407e+17
19572.0	6.50915926385186e+17
19573.0	6.508398913432234e+17
19574.0	6.507628886054227e+17
19575.0	6.506847859813034e+17
19576.0	6.506055840301055e+17
19577.0	6.505253812480681e+17
19578.0	6.504564954671786e+17
19579.0	6.504202174638761e+17
19580.0	6.503373825463635e+17
19581.0	6.502536387930793e+17
19582.0	6.50169224790016e+17
19583.0	6.500839020909908e+17
19584.0	6.499978518200319e+17
19585.0	6.499107055774378e+17
19586.0	6.498229642330111e+17
19587.0	6.497357931042132e+17
19588.0	6.49650087465233e+17
19589.0	6.496006997453482e+17
19590.0	6.495103078105087e+17
19591.0	6.494199297168723e+17
19592.0	6.493285082202111e+17
19593.0	6.492364973539327e+17
19594.0	6.491420258992127e+17
19595.0	6.490506046821716e+17
19596.0	6.489560401838079e+17
19597.0	6.488625590741673e+17
19598.0	6.487658229050026e+17
19599.0	6.486723554268499e+17
19600.0	6.485765093588991e+17
19601.0	6.484813689126911e+17
19602.0	6.484002865152e+17
19603.0	6.483313950719999e+17
19604.0	6.482362024067072e+17
19605.0	6.481362189374804e+17
19606.0	6.480396852832938e+17
19607.0	6.47940739764497e+17
19608.0	6.478413934100479e+17
19609.0	6.477415506597203e+17
19610.0	6.476415801229311e+17
19611.0	6.475410766299135e+17
19612.0	6.474402831007743e+17
19613.0	6.473390914622804e+17
19614.0	6.47237545754624e+17
19615.0	6.471356477254314e+17
19616.0	6.470445791794516e+17
19617.0	6.46950945956386e+17
19618.0	6.468441644291411e+17
19619.0	6.467400631320573e+17
19620.0	6.466474333263188e+17
19621.0	6.465585509214889e+17
19622.0	6.464547357458431e+17
19623.0	6.463505356029951e+17
19624.0	6.46246038503424e+17
19625.0	6.461412719198207e+17
19626.0	6.460362207526911e+17
19627.0	6.459308418007039e+17
19628.0	6.458247642174804e+17
19629.0	6.457184069440852e+17
19630.0	6.456078213928276e+17
19631.0	6.454847510063785e+17
19632.0	6.45399830401297e+17
19633.0	6.452941207284394e+17
19634.0	6.451874711819603e+17
19635.0	6.450804928020479e+17
19636.0	6.449732703136425e+17
19637.0	6.448629282417322e+17
19638.0	6.447581494247423e+17
19639.0	6.446503834244435e+17
19640.0	6.445419613650943e+17
19641.0	6.444290249763497e+17
19642.0	6.44325865300514e+17
19643.0	6.442173692816041e+17
19644.0	6.441083828786516e+17
19645.0	6.439981729972223e+17
19646.0	6.438909040918528e+17
19647.0	6.437818257637376e+17
19648.0	6.436725870034943e+17
19649.0	6.435631984366931e+17
19650.0	6.434536966236841e+17
19651.0	6.433440480100351e+17
19652.0	6.432436889408852e+17
19653.0	6.431369909501951e+17
19654.0	6.430269616335529e+17
19655.0	6.429167699973462e+17
19656.0	6.428064756006911e+17
19657.0	6.426961239517866e+17
19658.0	6.425856154359124e+17
19659.0	6.424749875920896e+17
19660.0	6.423642685221545e+17
19661.0	6.422534384429737e+17
19662.0	6.421425036460031e+17
19663.0	6.420312146400596e+17
19664.0	6.419203077352106e+17
19665.0	6.418091848237055e+17
