# Flux units: erg / (cm m2 s)
# Wavelength units: Angstrom
wave	flux
19000.0	5.4222277371931296e+17
19001.0	5.4211169638591136e+17
19002.0	5.420223094063104e+17
19003.0	5.4192053077497165e+17
19004.0	5.418195905150975e+17
19005.0	5.4172043080717645e+17
19006.0	5.416210731281066e+17
19007.0	5.415058075724458e+17
19008.0	5.4141360936058874e+17
19009.0	5.413079273002323e+17
19010.0	5.4116836106567654e+17
19011.0	5.4111018502062074e+17
19012.0	5.40917081781043e+17
19013.0	5.409182226317311e+17
19014.0	5.40812982161681e+17
19015.0	5.4071406124946765e+17
19016.0	5.4061186535478605e+17
19017.0	5.405174835882666e+17
19018.0	5.4041210540523514e+17
19019.0	5.4031695978605216e+17
19020.0	5.4021525812019194e+17
19021.0	5.4011709225260365e+17
19022.0	5.4001656715892045e+17
19023.0	5.399127886135294e+17
19024.0	5.3981325743008403e+17
19025.0	5.397081556516864e+17
19026.0	5.3960445099595085e+17
19027.0	5.394319538825897e+17
19028.0	5.394162392935081e+17
19029.0	5.393135534342143e+17
19030.0	5.392168130008405e+17
19031.0	5.3911725832929274e+17
19032.0	5.3901648227642016e+17
19033.0	5.389072710587733e+17
19034.0	5.3881524802901325e+17
19035.0	5.3870755773590176e+17
19036.0	5.3258013166796794e+17
19037.0	5.385126150843049e+17
19038.0	5.3841411528021325e+17
19039.0	5.383169243086847e+17
19040.0	5.382170533866154e+17
19041.0	5.381160324562943e+17
19042.0	5.3798702964626765e+17
19043.0	5.3791747934781434e+17
19044.0	5.378153217611091e+17
19045.0	5.3771464728029856e+17
19046.0	5.3761144307493536e+17
19047.0	5.3751531976349005e+17
19048.0	5.3738997033205754e+17
19049.0	5.3727104328881485e+17
19050.0	5.3721154058540365e+17
19051.0	5.362916059862345e+17
19052.0	5.3684532877284685e+17
19053.0	5.3691466432293536e+17
19054.0	5.368186513915903e+17
19055.0	5.36686707675409e+17
19056.0	5.3661391273328634e+17
19057.0	5.365183508993364e+17
19058.0	5.3639387982506656e+17
19059.0	5.3631141491507194e+17
19060.0	5.362169521984853e+17
19061.0	5.3612070774155936e+17
19062.0	5.36020437312034e+17
19063.0	5.3592095729909754e+17
19064.0	5.358070515367935e+17
19065.0	5.357039213608959e+17
19066.0	5.356089159712767e+17
19067.0	5.355210334186153e+17
19068.0	5.354228492358996e+17
19069.0	5.353233943887871e+17
19070.0	5.3522063114458445e+17
19071.0	5.3512047780604576e+17
19072.0	5.350158183170048e+17
19073.0	5.349246216350377e+17
19074.0	5.348256713626964e+17
19075.0	5.3472614751928314e+17
19076.0	5.346244431970303e+17
19077.0	5.3452525098325325e+17
19078.0	5.344237739223721e+17
19079.0	5.343279189065726e+17
19080.0	5.342269356550826e+17
19081.0	5.341249317197141e+17
19082.0	5.340251729253717e+17
19083.0	5.339202373113172e+17
19084.0	5.338083221656917e+17
19085.0	5.337302163958442e+17
19086.0	5.335797854459221e+17
19087.0	5.333610118774785e+17
19088.0	5.334093621362687e+17
19089.0	5.3323460911650125e+17
19090.0	5.3323098328050336e+17
19091.0	5.3312957724317e+17
19092.0	5.3297944108291405e+17
19093.0	5.329369840309588e+17
19094.0	5.328377150614186e+17
19095.0	5.3273845406105594e+17
19096.0	5.326373219816788e+17
19097.0	5.3253990318953805e+17
19098.0	5.3243199633053e+17
19099.0	5.3233143936013645e+17
19100.0	5.322329712929451e+17
19101.0	5.321398989881343e+17
19102.0	5.320314509940051e+17
19103.0	5.319451208231594e+17
19104.0	5.318463759319039e+17
19105.0	5.317280186848598e+17
19106.0	5.3161844472982176e+17
19107.0	5.315415489467732e+17
19108.0	5.3144241118904314e+17
19109.0	5.309300628346191e+17
19110.0	5.312384992280574e+17
19111.0	5.311454557940393e+17
19112.0	5.31047211143441e+17
19113.0	5.309547287674879e+17
19114.0	5.3085232602371405e+17
19115.0	5.30738714771456e+17
19116.0	5.306561926092117e+17
19117.0	5.3055705555053216e+17
19118.0	5.304254943548757e+17
19119.0	5.295840044253173e+17
19120.0	5.302146629806761e+17
19121.0	5.301284919137619e+17
19122.0	5.3006533953672525e+17
19123.0	5.299665053766996e+17
19124.0	5.298426883342336e+17
19125.0	5.2976473376904525e+17
19126.0	5.296689437649578e+17
19127.0	5.2937342477926394e+17
19128.0	5.293745568219135e+17
19129.0	5.2936608181125114e+17
19130.0	5.2927299454675616e+17
19131.0	5.291731994716842e+17
19132.0	5.290774263147177e+17
19133.0	5.289534117205333e+17
19134.0	5.2883724851391136e+17
19135.0	5.2877961262530554e+17
19136.0	5.2868338445626016e+17
19137.0	5.2856690702636365e+17
19138.0	5.2848132651745274e+17
19139.0	5.2838740906038605e+17
19140.0	5.282890899608915e+17
19141.0	5.281905087173972e+17
19142.0	5.2808790178092365e+17
19143.0	5.279870704331434e+17
19144.0	5.278907473330175e+17
19145.0	5.2779567071013536e+17
19146.0	5.2763217729945594e+17
19147.0	5.275871702504788e+17
19148.0	5.2749139317882874e+17
19149.0	5.273920658385577e+17
19150.0	5.273032192251221e+17
19151.0	5.272048914573994e+17
19152.0	5.2710127823749114e+17
19153.0	5.2699376494400845e+17
19154.0	5.2689417308296525e+17
19155.0	5.2681040304537594e+17
19156.0	5.2671326932609683e+17
19157.0	5.2660457631470925e+17
19158.0	5.262244760431271e+17
19159.0	5.2641549065912314e+17
19160.0	5.263132664528894e+17
19161.0	5.262135342923775e+17
19162.0	5.254746348716037e+17
19163.0	5.2600537035571194e+17
19164.0	5.259265350565887e+17
19165.0	5.257995839602687e+17
19166.0	5.256994803242325e+17
19167.0	5.255704694052179e+17
19168.0	5.255313032041813e+17
19169.0	5.254222162777428e+17
19170.0	5.253375225845077e+17
19171.0	5.2519769266804045e+17
19172.0	5.251379264924331e+17
19173.0	5.2504074964172794e+17
19174.0	5.249392971175253e+17
19175.0	5.2484732127368525e+17
19176.0	5.24749050548497e+17
19177.0	5.246350434238462e+17
19178.0	5.2453663107099296e+17
19179.0	5.243971847236266e+17
19180.0	5.2435029869636256e+17
19181.0	5.2424449737796256e+17
19182.0	5.241566408998911e+17
19183.0	5.2406211296187725e+17
19184.0	5.239621313800874e+17
19185.0	5.238657287979006e+17
19186.0	5.237686781957459e+17
19187.0	5.2366258334597114e+17
19188.0	5.235706171490304e+17
19189.0	5.2347052176179194e+17
19190.0	5.23369742143761e+17
19191.0	5.232682744501588e+17
19192.0	5.231804028026879e+17
19193.0	5.2307788212906656e+17
19194.0	5.2297904286597114e+17
19195.0	5.228858086610262e+17
19196.0	5.227860070148777e+17
19197.0	5.2268743919315616e+17
19198.0	5.225833906743977e+17
19199.0	5.188446699476298e+17
19200.0	5.198470763074915e+17
19201.0	5.222910152496468e+17
19202.0	5.2219915698612896e+17
19203.0	5.2209146200937805e+17
19204.0	5.220006723846142e+17
19205.0	5.2190648837952845e+17
19206.0	5.2180827798241274e+17
19207.0	5.2169931045382816e+17
19208.0	5.215897349608787e+17
19209.0	5.2151541783592954e+17
19210.0	5.2141746182335136e+17
19211.0	5.213209597662549e+17
19212.0	5.212231028091562e+17
19213.0	5.210840586256383e+17
19214.0	5.209687528745642e+17
19215.0	5.2091418288237216e+17
19216.0	5.208314187786921e+17
19217.0	5.20732872347921e+17
19218.0	5.205437453085353e+17
19219.0	5.2052256910650016e+17
19220.0	5.204354790675796e+17
19221.0	5.203065068759721e+17
19222.0	5.2024300022005754e+17
19223.0	5.201445314538154e+17
19224.0	5.2004402118000634e+17
19225.0	5.199345889924436e+17
19226.0	5.1985096645454496e+17
19227.0	5.1975297695744e+17
19228.0	5.1965754619549e+17
19229.0	5.19559617515793e+17
19230.0	5.1945815254848845e+17
19231.0	5.193600914685951e+17
19232.0	5.192642292525738e+17
19233.0	5.191599185199103e+17
19234.0	5.19067569103394e+17
19235.0	5.1896924329301325e+17
19236.0	5.188742444744703e+17
19237.0	5.187745830578857e+17
19238.0	5.1866250356544845e+17
19239.0	5.1858047793889274e+17
19240.0	5.1847964022975136e+17
19241.0	5.183814885528915e+17
19242.0	5.1828465367777274e+17
19243.0	5.1817243493444256e+17
19244.0	5.180906750170453e+17
19245.0	5.1799214326633805e+17
19246.0	5.1789267681498445e+17
19247.0	5.177960110402219e+17
19248.0	5.1769734381349536e+17
19249.0	5.175971035130538e+17
19250.0	5.174970179824298e+17
19251.0	5.173868605298004e+17
19252.0	5.172790713909247e+17
19253.0	5.1720508967048525e+17
19254.0	5.17108780970803e+17
19255.0	5.1699364005587616e+17
19256.0	5.1690619182339405e+17
19257.0	5.1681465120849914e+17
19258.0	5.1671662410246816e+17
19259.0	5.166113792983039e+17
19260.0	5.1639672628401466e+17
19261.0	5.164200025041578e+17
19262.0	5.1631690350592e+17
19263.0	5.1621703747720525e+17
19264.0	5.1606505009097363e+17
19265.0	5.1600480597442554e+17
19266.0	5.1589997046442656e+17
19267.0	5.1583076074345805e+17
19268.0	5.157314166958761e+17
19269.0	5.156330613156522e+17
19270.0	5.1553451131972256e+17
19271.0	5.153980978735787e+17
19272.0	5.1533343128289274e+17
19273.0	5.1512825320133946e+17
19274.0	5.1505826634574483e+17
19275.0	5.1504063509954554e+17
19276.0	5.149395420271956e+17
19277.0	5.1484112240421536e+17
19278.0	5.147417338970111e+17
19279.0	5.1463759282394445e+17
19280.0	5.1453489913528314e+17
19281.0	5.1444395921462605e+17
19282.0	5.143463228779178e+17
19283.0	5.1418816748803405e+17
19284.0	5.1411523713979725e+17
19285.0	5.140285324875092e+17
19286.0	5.1394469757801805e+17
19287.0	5.138482338288981e+17
19288.0	5.119433957004607e+17
19289.0	5.0983818951829645e+17
19290.0	5.13548798132224e+17
19291.0	5.134233411867989e+17
19292.0	5.1334971759001594e+17
19293.0	5.1324890148154016e+17
19294.0	5.131484387431764e+17
19295.0	5.130492164003155e+17
19296.0	5.129394842501119e+17
19297.0	5.128408898644649e+17
19298.0	5.127445260795903e+17
19299.0	5.126366983531178e+17
19300.0	5.125447041242453e+17
19301.0	5.124444987064319e+17
19302.0	5.123420457009151e+17
19303.0	5.1223332200120314e+17
19304.0	5.121374390233771e+17
19305.0	5.120376175241898e+17
19306.0	5.119343801838251e+17
19307.0	5.118263831472809e+17
19308.0	5.117274829968724e+17
19309.0	5.114872348016639e+17
19310.0	5.1134752784820883e+17
19311.0	5.114060527894528e+17
19312.0	5.113239095825749e+17
19313.0	5.1122161400326816e+17
19314.0	5.030233668670881e+17
19315.0	5.033998032044092e+17
19316.0	5.1088863645750605e+17
19317.0	5.108091466372437e+17
19318.0	5.107055022396757e+17
19319.0	5.1060358876146336e+17
19320.0	5.104951649544874e+17
19321.0	5.103876412451498e+17
19322.0	5.1027396952500896e+17
19323.0	5.101262441108821e+17
19324.0	5.100772947656704e+17
19325.0	5.098386345339562e+17
19326.0	5.0986941764949325e+17
19327.0	5.097624287838207e+17
19328.0	5.096424550520149e+17
19329.0	5.095530881351679e+17
19330.0	5.094423774538409e+17
19331.0	5.0933486143406074e+17
19332.0	5.0923050197756576e+17
19333.0	5.0912154514445645e+17
19334.0	5.0901555116769274e+17
19335.0	5.088758777686698e+17
19336.0	5.0879659081291085e+17
19337.0	5.0869064828627616e+17
19338.0	5.085594196989269e+17
19339.0	5.0847050136289274e+17
19340.0	5.083455210302122e+17
19341.0	5.082335934414847e+17
19342.0	5.0808714337539405e+17
19343.0	5.0802800173165216e+17
19344.0	5.079044545926485e+17
19345.0	5.075817673523196e+17
19346.0	5.07585026466338e+17
19347.0	5.07554065092881e+17
19348.0	5.074635410374655e+17
19349.0	5.073432155433642e+17
19350.0	5.072226894916266e+17
19351.0	5.07113077018897e+17
19352.0	5.069755831899476e+17
19353.0	5.0688309088747514e+17
19354.0	5.0676573789661856e+17
19355.0	5.0663676123108685e+17
19356.0	5.06527306953523e+17
19357.0	5.0640728617560736e+17
19358.0	5.0628344844124154e+17
19359.0	5.06152244810001e+17
19360.0	5.060244792497493e+17
19361.0	5.059130589620906e+17
19362.0	5.0579353332176205e+17
19363.0	5.056678170984447e+17
19364.0	5.055410155290624e+17
19365.0	5.054136417867092e+17
19366.0	5.052848960875178e+17
19367.0	5.051543008400725e+17
19368.0	5.050242016389802e+17
19369.0	5.048831544655871e+17
19370.0	5.0474489531596794e+17
19371.0	5.0461858685692576e+17
19372.0	5.0448784334083405e+17
19373.0	5.0434720637037216e+17
19374.0	5.0421073021938336e+17
19375.0	5.040698271902378e+17
19376.0	5.039287715583317e+17
19377.0	5.0378383696418125e+17
19378.0	5.03638729564706e+17
19379.0	5.034917910719145e+17
19380.0	5.033426830753792e+17
19381.0	5.031912535315796e+17
19382.0	5.030314142684501e+17
19383.0	5.0287153536914765e+17
19384.0	5.027255085782358e+17
19385.0	5.025666426033493e+17
19386.0	5.0240548311313056e+17
19387.0	5.0224113049927674e+17
19388.0	5.020757540558164e+17
19389.0	5.0190700790852256e+17
19390.0	5.017074151718911e+17
19391.0	4.9617544759213357e+17
19392.0	5.012061525726541e+17
19393.0	5.0117413192772256e+17
19394.0	5.0098833334818125e+17
19395.0	5.007909115833002e+17
19396.0	5.006051338354688e+17
19397.0	5.004262274760703e+17
19398.0	5.002208157717844e+17
19399.0	4.999461988903593e+17
19400.0	4.9981857293052576e+17
19401.0	4.996260583615145e+17
19402.0	4.994184969366185e+17
19403.0	4.9920533094290765e+17
19404.0	4.989914991034368e+17
19405.0	4.987702810946217e+17
19406.0	4.985478753288191e+17
19407.0	4.9831525580363085e+17
19408.0	4.980012634253996e+17
19409.0	4.978501162980693e+17
19410.0	4.976119827311274e+17
19411.0	4.973700262658048e+17
19412.0	4.971216432179881e+17
19413.0	4.968309543927807e+17
19414.0	4.965427595007317e+17
19415.0	4.9628089561033376e+17
19416.0	4.959700992917502e+17
19417.0	4.956633615914323e+17
19418.0	4.9545385729501856e+17
19419.0	4.951554136211456e+17
19420.0	4.9475953920136525e+17
19421.0	4.9445351523177805e+17
19422.0	4.941365132307114e+17
19423.0	4.9372537825525754e+17
19424.0	4.933343120457728e+17
19425.0	4.92913839640849e+17
19426.0	4.924126759572821e+17
19427.0	4.9181156578426886e+17
19428.0	4.911666475040769e+17
19429.0	4.903365471371264e+17
19430.0	4.891756692766722e+17
19431.0	4.868544539918344e+17
19432.0	4.85760677865063e+17
19433.0	4.838833057169405e+17
19434.0	4.82842326859776e+17
19435.0	4.815764429209597e+17
19436.0	4.8001609968735514e+17
19437.0	4.7912868478539085e+17
19438.0	4.6853502946072275e+17
19439.0	4.756299217982807e+17
19440.0	4.7441559976673274e+17
19441.0	4.7247216089934445e+17
19442.0	4.698236024870231e+17
19443.0	4.648394037395451e+17
19444.0	4.57922037485841e+17
19445.0	4.532345928766807e+17
19446.0	4.479325977968638e+17
19447.0	4.419962251422376e+17
19448.0	4.294108385028768e+17
19449.0	4.1236969627320275e+17
19450.0	3.621875646551384e+17
19451.0	3.4172259773972294e+17
19452.0	3.9296269025280115e+17
19453.0	4.212261369413634e+17
19454.0	4.3695775804293037e+17
19455.0	4.4461130238306976e+17
19456.0	4.4991481908647264e+17
19457.0	4.547666584622419e+17
19458.0	4.408210109410174e+17
19459.0	4.6521395277988563e+17
19460.0	4.698288148884134e+17
19461.0	4.718443413984596e+17
19462.0	4.734965579251713e+17
19463.0	4.749280846457515e+17
19464.0	4.762417555483306e+17
19465.0	4.774297776859819e+17
19466.0	4.784951484481534e+17
19467.0	4.795533064754516e+17
19468.0	4.804551855745706e+17
19469.0	4.81523683120469e+17
19470.0	4.8359223926456326e+17
19471.0	4.8511487193033325e+17
19472.0	4.861224440649046e+17
19473.0	4.8688740696064e+17
19474.0	4.8746809688500896e+17
19475.0	4.878082960435878e+17
19476.0	4.8818883021591885e+17
19477.0	4.885486713700351e+17
19478.0	4.8870789952307194e+17
19479.0	4.889670575281494e+17
19480.0	4.891335155428009e+17
19481.0	4.8926068439340365e+17
19482.0	4.894230774284287e+17
19483.0	4.8960433413597856e+17
19484.0	4.8970741684633594e+17
19485.0	4.897995013226496e+17
19486.0	4.898790186156032e+17
19487.0	4.8997941256738125e+17
19488.0	4.9005961653780474e+17
19489.0	4.901623873317546e+17
19490.0	4.901037061526868e+17
19491.0	4.903202819058346e+17
19492.0	4.903824827351039e+17
19493.0	4.904373321378474e+17
19494.0	4.904870786105343e+17
19495.0	4.9053217129321805e+17
19496.0	4.9052562188752205e+17
19497.0	4.906081253851136e+17
19498.0	4.8979976060054176e+17
19499.0	4.8244289469153114e+17
19500.0	4.9069850844200954e+17
19501.0	4.907209347563519e+17
19502.0	4.9073598545701536e+17
19503.0	4.9075611545982285e+17
19504.0	4.907676785967103e+17
19505.0	4.907769322799103e+17
19506.0	4.9078368755602765e+17
19507.0	4.907834324724394e+17
19508.0	4.9078522889284256e+17
19509.0	4.907809025381717e+17
19510.0	4.9074810315079674e+17
19511.0	4.764181446262745e+17
19512.0	4.89283402980829e+17
19513.0	4.883860866553139e+17
19514.0	4.8890791462611366e+17
19515.0	4.906046051057664e+17
19516.0	4.907034463262036e+17
19517.0	4.906757674849622e+17
19518.0	4.906532363130196e+17
19519.0	4.9061999980926285e+17
19520.0	4.905818835823274e+17
19521.0	4.905644517752832e+17
19522.0	4.905243663226198e+17
19523.0	4.9048899247144954e+17
19524.0	4.904452955832319e+17
19525.0	4.904125653319679e+17
19526.0	4.903724350002517e+17
19527.0	4.903283268605268e+17
19528.0	4.90281811190306e+17
19529.0	4.902342945494356e+17
19530.0	4.901895832687957e+17
19531.0	4.9014024860685645e+17
19532.0	4.9008958875456845e+17
19533.0	4.900375399585108e+17
19534.0	4.899840971855189e+17
19535.0	4.899286386300244e+17
19536.0	4.8987044217268896e+17
19537.0	4.8981832682700794e+17
19538.0	4.8973464857477114e+17
19539.0	4.896423884969302e+17
19540.0	4.896397617441449e+17
19541.0	4.89579021930769e+17
19542.0	4.8951877382963194e+17
19543.0	4.8944571695322445e+17
19544.0	4.89393952321263e+17
19545.0	4.892742884786175e+17
19546.0	4.891690031295145e+17
19547.0	4.892019227536042e+17
19548.0	4.891354290541909e+17
19549.0	4.890595336126462e+17
19550.0	4.8900158063465805e+17
19551.0	4.889337877495806e+17
19552.0	4.888649970395817e+17
19553.0	4.88792930648064e+17
19554.0	4.887216629918378e+17
19555.0	4.8865238574257485e+17
19556.0	4.8858336043117216e+17
19557.0	4.885127807107072e+17
19558.0	4.884410276336981e+17
19559.0	4.88368613883904e+17
19560.0	4.8828863011444045e+17
19561.0	4.882196710730409e+17
19562.0	4.881444028197546e+17
19563.0	4.880748414763007e+17
19564.0	4.8800032183637325e+17
19565.0	4.879253961179136e+17
19566.0	4.8784680290003616e+17
19567.0	4.8777428576064845e+17
19568.0	4.876958598255956e+17
19569.0	4.876197408276479e+17
19570.0	4.8754528340322976e+17
19571.0	4.874675847604906e+17
19572.0	4.8738779267071994e+17
19573.0	4.8730938407212365e+17
19574.0	4.872262820473514e+17
19575.0	4.871576163276116e+17
19576.0	4.8707804206202874e+17
19577.0	4.8699487726250656e+17
19578.0	4.869169833050111e+17
19579.0	4.8683983865992525e+17
19580.0	4.8676043132764154e+17
19581.0	4.8668207334031354e+17
19582.0	4.866041784041471e+17
19583.0	4.8652421504696314e+17
19584.0	4.864410664654164e+17
19585.0	4.8635229479021216e+17
19586.0	4.862670420661589e+17
19587.0	4.8617807430724256e+17
19588.0	4.860687232794624e+17
19589.0	4.860374358687743e+17
19590.0	4.8594477663300256e+17
19591.0	4.858811000378709e+17
19592.0	4.858007368936106e+17
19593.0	4.857159674931881e+17
19594.0	4.856100384582313e+17
19595.0	4.8555017979822086e+17
19596.0	4.852792773924181e+17
19597.0	4.853814113512106e+17
19598.0	4.8525748197130234e+17
19599.0	4.852258716691114e+17
19600.0	4.851442208036181e+17
19601.0	4.850542219449685e+17
19602.0	4.849725243828906e+17
19603.0	4.84789166748467e+17
19604.0	4.8479898596365645e+17
19605.0	4.846982538111658e+17
19606.0	4.8464563221299194e+17
19607.0	4.845632385362602e+17
19608.0	4.8447779553061536e+17
19609.0	4.8439070961609376e+17
19610.0	4.8430626807043405e+17
19611.0	4.8421945618377376e+17
19612.0	4.8414544342548474e+17
19613.0	4.8406057434043725e+17
19614.0	4.8397370016836256e+17
19615.0	4.838916437835775e+17
19616.0	4.8375478553149434e+17
19617.0	4.8371613187440634e+17
19618.0	4.8357489036492774e+17
19619.0	4.834761753930409e+17
19620.0	4.8339331181445114e+17
19621.0	4.833770980332883e+17
19622.0	4.833046055004842e+17
19623.0	4.832194705664682e+17
19624.0	4.8313271348538016e+17
19625.0	4.8305085639994016e+17
19626.0	4.829664440046932e+17
19627.0	4.8288065084456954e+17
19628.0	4.827000167814486e+17
19629.0	4.8267155486365e+17
19630.0	4.823293118207317e+17
19631.0	4.7842102468061926e+17
19632.0	4.824538304304469e+17
19633.0	4.8236025348095994e+17
19634.0	4.822880644759552e+17
19635.0	4.8219701550339405e+17
19636.0	4.821043699690155e+17
19637.0	4.8198611869805216e+17
19638.0	4.819453678889642e+17
19639.0	4.818608025414314e+17
19640.0	4.817621410469205e+17
19641.0	4.815725506068482e+17
19642.0	4.816062477150889e+17
19643.0	4.8151959605084154e+17
19644.0	4.8143092727589523e+17
19645.0	4.813215946331476e+17
19646.0	4.812531665207295e+17
19647.0	4.811813840835925e+17
19648.0	4.810970566929065e+17
19649.0	4.8101096489833805e+17
19650.0	4.8092644491919354e+17
19651.0	4.808405131373225e+17
19652.0	4.8075485461435725e+17
19653.0	4.8066801231899296e+17
19654.0	4.805841626595328e+17
19655.0	4.8049833755279354e+17
