# Flux units: erg / (cm m2 s)
# Wavelength units: Angstrom
wave	flux
19000.0	4.1213795762175994e+17
19001.0	4.120610890317823e+17
19002.0	4.119873953202175e+17
19003.0	4.1191214069841914e+17
19004.0	4.118369036926975e+17
19005.0	4.1176151597165216e+17
19006.0	4.116844777919828e+17
19007.0	4.116112887250944e+17
19008.0	4.115351144322389e+17
19009.0	4.114592813460138e+17
19010.0	4.113769831596031e+17
19011.0	4.113100631790932e+17
19012.0	4.1123299025660576e+17
19013.0	4.1116051722731526e+17
19014.0	4.110854458966014e+17
19015.0	4.1100987817000954e+17
19016.0	4.109338989122901e+17
19017.0	4.108603241092436e+17
19018.0	4.107853358257493e+17
19019.0	4.1071000549676365e+17
19020.0	4.106353757563562e+17
19021.0	4.1056042745856e+17
19022.0	4.1048549433016314e+17
19023.0	4.1041058993274874e+17
19024.0	4.1033560752127994e+17
19025.0	4.102607999423828e+17
19026.0	4.101853877545643e+17
19027.0	4.101096167440383e+17
19028.0	4.100362453647359e+17
19029.0	4.099614335216297e+17
19030.0	4.098866353100117e+17
19031.0	4.0981184199174816e+17
19032.0	4.0973685196062714e+17
19033.0	4.096608766874964e+17
19034.0	4.095875887049386e+17
19035.0	4.095123699444393e+17
19036.0	4.093227679001259e+17
19037.0	4.093634861334527e+17
19038.0	4.092888158481066e+17
19039.0	4.092141680022868e+17
19040.0	4.091395339976704e+17
19041.0	4.0906489328216736e+17
19042.0	4.089812618663253e+17
19043.0	4.089157320179712e+17
19044.0	4.088411665203199e+17
19045.0	4.0876661171814394e+17
19046.0	4.086911285766827e+17
19047.0	4.0861730533102925e+17
19048.0	4.085379181314048e+17
19049.0	4.084520633849171e+17
19050.0	4.083931411032746e+17
19051.0	4.083042360492031e+17
19052.0	4.0824286233668256e+17
19053.0	4.081708074795006e+17
19054.0	4.0809639395546445e+17
19055.0	4.0801580313040205e+17
19056.0	4.0794641738847565e+17
19057.0	4.0787330416858445e+17
19058.0	4.077907342611796e+17
19059.0	4.077213836815018e+17
19060.0	4.076499541950463e+17
19061.0	4.0757606572796576e+17
19062.0	4.075017994239999e+17
19063.0	4.074275475903829e+17
19064.0	4.0735152583038285e+17
19065.0	4.072765123810645e+17
19066.0	4.0720100777874765e+17
19067.0	4.071306803456682e+17
19068.0	4.070565433660757e+17
19069.0	4.069823889801215e+17
19070.0	4.0690824948394656e+17
19071.0	4.0683414431115936e+17
19072.0	4.0675684664388256e+17
19073.0	4.066859513719466e+17
19074.0	4.0661187863511034e+17
19075.0	4.0653782288520525e+17
19076.0	4.064623620434602e+17
19077.0	4.0638943274379936e+17
19078.0	4.06315289612561e+17
19079.0	4.062417823378091e+17
19080.0	4.0616771477394765e+17
19081.0	4.0609310572543994e+17
19082.0	4.060192208934229e+17
19083.0	4.0594497374344525e+17
19084.0	4.058690797000021e+17
19085.0	4.0579815765442554e+17
19086.0	4.057154165495125e+17
19087.0	4.056412955781802e+17
19088.0	4.055717979182421e+17
19089.0	4.0549922855976954e+17
19090.0	4.054290235304618e+17
19091.0	4.0535411843399674e+17
19092.0	4.052745248746154e+17
19093.0	4.0520770716521805e+17
19094.0	4.051339704620374e+17
19095.0	4.0506024934768634e+17
19096.0	4.049862451178155e+17
19097.0	4.049128062102186e+17
19098.0	4.048358185719125e+17
19099.0	4.0476163147038714e+17
19100.0	4.0469137722791245e+17
19101.0	4.0461820060412576e+17
19102.0	4.0454223413903354e+17
19103.0	4.0447106274208416e+17
19104.0	4.0439748828856314e+17
19105.0	4.043167881319765e+17
19106.0	4.042503564383572e+17
19107.0	4.0417505966380365e+17
19108.0	4.041007848314196e+17
19109.0	4.040238120828928e+17
19110.0	4.03956297699601e+17
19111.0	4.0388091249513805e+17
19112.0	4.038061020501332e+17
19113.0	4.037360268345344e+17
19114.0	4.036613739555498e+17
19115.0	4.035881089717589e+17
19116.0	4.0351536610891085e+17
19117.0	4.034422843462997e+17
19118.0	4.033684421563732e+17
19119.0	4.03054366451302e+17
19120.0	4.03221707297041e+17
19121.0	4.031486305675946e+17
19122.0	4.030759535553195e+17
19123.0	4.030026924862122e+17
19124.0	4.0292944302134605e+17
19125.0	4.028562123609429e+17
19126.0	4.027829988971861e+17
19127.0	4.026772170822996e+17
19128.0	4.026366162195797e+17
19129.0	4.0256242107897165e+17
19130.0	4.0249017083712845e+17
19131.0	4.0241717303050234e+17
19132.0	4.023440556862121e+17
19133.0	4.0227043229914445e+17
19134.0	4.021978707001343e+17
19135.0	4.021248051554987e+17
19136.0	4.020517538714964e+17
19137.0	4.019758536764074e+17
19138.0	4.0190565144330234e+17
19139.0	4.018326971176277e+17
19140.0	4.017597133619199e+17
19141.0	4.01686740930833e+17
19142.0	4.0161378674496845e+17
19143.0	4.01539856334848e+17
19144.0	4.0146772276456096e+17
19145.0	4.0139502415162016e+17
19146.0	4.013115934332245e+17
19147.0	4.0124619989975034e+17
19148.0	4.011735514786474e+17
19149.0	4.010985103469225e+17
19150.0	4.0102815551105696e+17
19151.0	4.009553458189653e+17
19152.0	4.008824954421246e+17
19153.0	4.008041255709354e+17
19154.0	4.007340658742612e+17
19155.0	4.006642867066196e+17
19156.0	4.0059152056538445e+17
19157.0	4.0051676716291405e+17
19158.0	4.0043836835102714e+17
19159.0	4.0037250778180256e+17
19160.0	4.0030073219536205e+17
19161.0	4.00228095168785e+17
19162.0	4.00146226479104e+17
19163.0	4.0008276176622925e+17
19164.0	4.000101816423765e+17
19165.0	3.9993169656763725e+17
19166.0	3.9986267866617165e+17
19167.0	3.997907710989652e+17
19168.0	3.9972005848896845e+17
19169.0	3.996475486197077e+17
19170.0	3.995750490963967e+17
19171.0	3.99501953143057e+17
19172.0	3.994300938802516e+17
19173.0	3.993576455274496e+17
19174.0	3.99284140839185e+17
19175.0	3.992127918134613e+17
19176.0	3.991403883397118e+17
19177.0	3.990656173910698e+17
19178.0	3.989944174728532e+17
19179.0	3.989211432615935e+17
19180.0	3.9885093676427936e+17
19181.0	3.98775410561297e+17
19182.0	3.987060038478506e+17
19183.0	3.986340155402922e+17
19184.0	3.985612836525397e+17
19185.0	3.9848948185169914e+17
19186.0	3.984172352449195e+17
19187.0	3.983450123359572e+17
19188.0	3.982728018700969e+17
19189.0	3.9820060755230714e+17
19190.0	3.9812842987192314e+17
19191.0	3.9805626750074874e+17
19192.0	3.9798411959992314e+17
19193.0	3.9791129180241914e+17
19194.0	3.978388441486676e+17
19195.0	3.9776777767922336e+17
19196.0	3.9769569451048954e+17
19197.0	3.9762363007631354e+17
19198.0	3.9755157948334074e+17
19199.0	3.974219171889151e+17
19200.0	3.973687460670122e+17
19201.0	3.973354116961621e+17
19202.0	3.972635368445269e+17
19203.0	3.971915673414314e+17
19204.0	3.971191427563519e+17
19205.0	3.970476532913493e+17
19206.0	3.96975714336768e+17
19207.0	3.969025516939946e+17
19208.0	3.968272676421631e+17
19209.0	3.9676007761838074e+17
19210.0	3.9668821996339194e+17
19211.0	3.966163774078976e+17
19212.0	3.9654455016161274e+17
19213.0	3.9647171313664e+17
19214.0	3.963989342027776e+17
19215.0	3.963289482559487e+17
19216.0	3.962574020280319e+17
19217.0	3.961856540540928e+17
19218.0	3.9610006473714336e+17
19219.0	3.960402185901396e+17
19220.0	3.959705074401279e+17
19221.0	3.9589332336858445e+17
19222.0	3.9582706713668256e+17
19223.0	3.9575549993724576e+17
19224.0	3.956833899948714e+17
19225.0	3.9560984413252256e+17
19226.0	3.955406411923454e+17
19227.0	3.954690542796799e+17
19228.0	3.9539747994992634e+17
19229.0	3.953259225371989e+17
19230.0	3.952543798045355e+17
19231.0	3.951828557365247e+17
19232.0	3.9511122240689485e+17
19233.0	3.950387967033343e+17
19234.0	3.9496795204266656e+17
19235.0	3.9489691220705274e+17
19236.0	3.948254662230016e+17
19237.0	3.947540359675903e+17
19238.0	3.946810645151742e+17
19239.0	3.9461121089863674e+17
19240.0	3.945398372663295e+17
19241.0	3.944684730712064e+17
19242.0	3.943970754614612e+17
19243.0	3.943236396296875e+17
19244.0	3.9425446772735994e+17
19245.0	3.9418316455936e+17
19246.0	3.9411186139135994e+17
19247.0	3.940405995372544e+17
19248.0	3.939693401997311e+17
19249.0	3.938980676501504e+17
19250.0	3.93825832857327e+17
19251.0	3.937529533999786e+17
19252.0	3.9368062738104314e+17
19253.0	3.93613014151987e+17
19254.0	3.935421274783743e+17
19255.0	3.934683939209215e+17
19256.0	3.933993087707818e+17
19257.0	3.933287325455701e+17
19258.0	3.9325762993520634e+17
19259.0	3.931855571823275e+17
19260.0	3.931127307130197e+17
19261.0	3.9304442360627194e+17
19262.0	3.929729325334527e+17
19263.0	3.929013036777472e+17
19264.0	3.9282140533227514e+17
19265.0	3.927564103275862e+17
19266.0	3.926822006467243e+17
19267.0	3.926184358313983e+17
19268.0	3.9254748771123194e+17
19269.0	3.924765607723008e+17
19270.0	3.924056382373887e+17
19271.0	3.923284197026474e+17
19272.0	3.9226326615326714e+17
19273.0	3.9218518617838925e+17
19274.0	3.9211465881681914e+17
19275.0	3.920513144105642e+17
19276.0	3.9198049617401165e+17
19277.0	3.919096916388523e+17
19278.0	3.9183890325176314e+17
19279.0	3.917681117189461e+17
19280.0	3.9169620394202445e+17
19281.0	3.916266247727785e+17
19282.0	3.915558154141696e+17
19283.0	3.914824010432512e+17
19284.0	3.9141249457848314e+17
19285.0	3.913392951656447e+17
19286.0	3.912706660062548e+17
19287.0	3.912005115882154e+17
19288.0	3.910980157308927e+17
19289.0	3.90983143600947e+17
19290.0	3.909886671497898e+17
19291.0	3.909144116811091e+17
19292.0	3.9084750554180256e+17
19293.0	3.907769562300416e+17
19294.0	3.9070641698461e+17
19295.0	3.906358913007616e+17
19296.0	3.9056222750856525e+17
19297.0	3.9049411424856736e+17
19298.0	3.904244076423851e+17
19299.0	3.903502289294676e+17
19300.0	3.9028308301578234e+17
19301.0	3.9021306645053434e+17
19302.0	3.9014236369715194e+17
19303.0	3.900710481559551e+17
19304.0	3.9000129625128954e+17
19305.0	3.899314840185514e+17
19306.0	3.8986113051088205e+17
19307.0	3.8978994813883725e+17
19308.0	3.8972034072794445e+17
19309.0	3.896480093263189e+17
19310.0	3.8957694628222285e+17
19311.0	3.8950880540972365e+17
19312.0	3.8943930767988045e+17
19313.0	3.8936905889000096e+17
19314.0	3.8894110293797555e+17
19315.0	3.888871908223662e+17
19316.0	3.891540553018027e+17
19317.0	3.890882098320726e+17
19318.0	3.890180329046015e+17
19319.0	3.8894787359320736e+17
19320.0	3.8887623327307085e+17
19321.0	3.888047655485438e+17
19322.0	3.8873628689476256e+17
19323.0	3.886664942354432e+17
19324.0	3.8859729800615245e+17
19325.0	3.8852526810507936e+17
19326.0	3.884571705737215e+17
19327.0	3.883870006367571e+17
19328.0	3.883107374246571e+17
19329.0	3.882470931955711e+17
19330.0	3.881764509799764e+17
19331.0	3.8810645783292576e+17
19332.0	3.880370808291328e+17
19333.0	3.879671954756948e+17
19334.0	3.878968801361919e+17
19335.0	3.878145882412374e+17
19336.0	3.877571572443818e+17
19337.0	3.8768752333946874e+17
19338.0	3.876142124280491e+17
19339.0	3.8754778793465165e+17
19340.0	3.874725318448468e+17
19341.0	3.874019851894783e+17
19342.0	3.873304155433642e+17
19343.0	3.872684684694869e+17
19344.0	3.8719416238953805e+17
19345.0	3.8708882894574925e+17
19346.0	3.870427396964351e+17
19347.0	3.869823814249129e+17
19348.0	3.869196447733077e+17
19349.0	3.868499192228523e+17
19350.0	3.867777037937321e+17
19351.0	3.867099720755882e+17
19352.0	3.8663327153739085e+17
19353.0	3.865710653953365e+17
19354.0	3.8650150978409805e+17
19355.0	3.864304785468074e+17
19356.0	3.863622415548415e+17
19357.0	3.8629262799230285e+17
19358.0	3.8622301387052365e+17
19359.0	3.8615140256098976e+17
19360.0	3.8607887500574714e+17
19361.0	3.8601363246721696e+17
19362.0	3.859447533273087e+17
19363.0	3.858751940810069e+17
19364.0	3.858056325977429e+17
19365.0	3.857361843606868e+17
19366.0	3.8566668411426125e+17
19367.0	3.855971976391339e+17
19368.0	3.855277240265386e+17
19369.0	3.854577210927786e+17
19370.0	3.85388615110929e+17
19371.0	3.8531853975552e+17
19372.0	3.8524993785910605e+17
19373.0	3.851805248542038e+17
19374.0	3.851111188398079e+17
19375.0	3.850417235208874e+17
19376.0	3.849723370100053e+17
19377.0	3.849029642704213e+17
19378.0	3.848335974028629e+17
19379.0	3.847642418599254e+17
19380.0	3.846948951250261e+17
19381.0	3.846255586661716e+17
19382.0	3.8455515566571514e+17
19383.0	3.84485029838848e+17
19384.0	3.8441721297633274e+17
19385.0	3.8434827672398496e+17
19386.0	3.8427898675199994e+17
19387.0	3.842096930051413e+17
19388.0	3.8414040575945376e+17
19389.0	3.840711211002538e+17
19390.0	3.840018425227946e+17
19391.0	3.83825735791411e+17
19392.0	3.838618872665429e+17
19393.0	3.8379401979275936e+17
19394.0	3.837247502330538e+17
19395.0	3.8365371668889594e+17
19396.0	3.8358562817529165e+17
19397.0	3.8351690883836576e+17
19398.0	3.834455528920406e+17
19399.0	3.8336174447656954e+17
19400.0	3.83306950578449e+17
19401.0	3.8323971518627834e+17
19402.0	3.831704558327125e+17
19403.0	3.831011312577195e+17
19404.0	3.8303179011522554e+17
19405.0	3.82962429469218e+17
19406.0	3.828930452652031e+17
19407.0	3.8282133559924045e+17
19408.0	3.827386997713579e+17
19409.0	3.8268470677558605e+17
19410.0	3.8261523064640845e+17
19411.0	3.825456798586195e+17
19412.0	3.8247591257483936e+17
19413.0	3.824028397600768e+17
19414.0	3.8233480514327885e+17
19415.0	3.82265684201745e+17
19416.0	3.8219337440078515e+17
19417.0	3.8212537403746976e+17
19418.0	3.820557737568938e+17
19419.0	3.8198558424651085e+17
19420.0	3.8191524206346234e+17
19421.0	3.818447387492351e+17
19422.0	3.817733267390463e+17
19423.0	3.8170313904619514e+17
19424.0	3.816319753388031e+17
19425.0	3.8156051572326394e+17
19426.0	3.814887113359359e+17
19427.0	3.8141649856320845e+17
19428.0	3.813438007891285e+17
19429.0	3.812705300731221e+17
19430.0	3.811950055478613e+17
19431.0	3.8110240461291514e+17
19432.0	3.810459399137963e+17
19433.0	3.809688601406122e+17
19434.0	3.808902058956116e+17
19435.0	3.8080697923010554e+17
19436.0	3.807168216869546e+17
19437.0	3.806399840649216e+17
19438.0	3.803020831053142e+17
19439.0	3.8044528789858976e+17
19440.0	3.80347054432802e+17
19441.0	3.8023049856942074e+17
19442.0	3.800952238768128e+17
19443.0	3.7993450136316576e+17
19444.0	3.7972916215043405e+17
19445.0	3.794499049007786e+17
19446.0	3.7902538611097594e+17
19447.0	3.7828537911432525e+17
19448.0	3.767084563562497e+17
19449.0	3.6921832300871795e+17
19450.0	3.1388830615469843e+17
19451.0	2.7776635091899667e+17
19452.0	3.324661284383413e+17
19453.0	3.7295250976276595e+17
19454.0	3.768373974401022e+17
19455.0	3.7796297415065594e+17
19456.0	3.784594159566848e+17
19457.0	3.7869921634003616e+17
19458.0	3.773986499111615e+17
19459.0	3.788209499318958e+17
19460.0	3.7889036727091194e+17
19461.0	3.788846026893995e+17
19462.0	3.7886114380731725e+17
19463.0	3.788274353045504e+17
19464.0	3.787860867372372e+17
19465.0	3.787392962701995e+17
19466.0	3.786879828754432e+17
19467.0	3.786345944885931e+17
19468.0	3.7857839801521485e+17
19469.0	3.785105327084885e+17
19470.0	3.7846066012706125e+17
19471.0	3.7840001929925965e+17
19472.0	3.783374371378517e+17
19473.0	3.782747118807721e+17
19474.0	3.7820795736555514e+17
19475.0	3.781307761601195e+17
19476.0	3.780834516183721e+17
19477.0	3.7801966841801376e+17
19478.0	3.779553548479146e+17
19479.0	3.778856169941674e+17
19480.0	3.778242849450666e+17
19481.0	3.7775766220090016e+17
19482.0	3.776933736568148e+17
19483.0	3.7762742123233274e+17
19484.0	3.7756133263278074e+17
19485.0	3.774939784719018e+17
19486.0	3.774230820115797e+17
19487.0	3.7736239364833274e+17
19488.0	3.7729593825689594e+17
19489.0	3.7722745701662714e+17
19490.0	3.7713402470072314e+17
19491.0	3.770955100848127e+17
19492.0	3.7702940177203194e+17
19493.0	3.7696264921415674e+17
19494.0	3.7689585890754554e+17
19495.0	3.768290390310911e+17
19496.0	3.7675315966771194e+17
19497.0	3.766947785211904e+17
19498.0	3.766178054930432e+17
19499.0	3.763861572288511e+17
19500.0	3.7649459110215674e+17
19501.0	3.764340622622719e+17
19502.0	3.7637079684874234e+17
19503.0	3.763034516357119e+17
19504.0	3.7623612340961274e+17
19505.0	3.761688052498432e+17
19506.0	3.7610146653798394e+17
19507.0	3.760337773920255e+17
19508.0	3.759669489172479e+17
19509.0	3.758996950701397e+17
19510.0	3.758284438416042e+17
19511.0	3.752070109375143e+17
19512.0	3.7567180105755296e+17
19513.0	3.7557755169122963e+17
19514.0	3.7552779571145376e+17
19515.0	3.754872053344938e+17
19516.0	3.75428343730449e+17
19517.0	3.7536058782515194e+17
19518.0	3.752937470470827e+17
19519.0	3.752266097317204e+17
19520.0	3.7515620484382714e+17
19521.0	3.7509370496068256e+17
19522.0	3.750261452789076e+17
19523.0	3.749583800063317e+17
19524.0	3.748894570359466e+17
19525.0	3.748256060276735e+17
19526.0	3.7475859929497594e+17
19527.0	3.7469135649286816e+17
19528.0	3.7462430159557965e+17
19529.0	3.745571881877504e+17
19530.0	3.74490726924288e+17
19531.0	3.7442379380162554e+17
19532.0	3.7435687934361594e+17
19533.0	3.7428997474222074e+17
19534.0	3.742230864986111e+17
19535.0	3.7415621440307194e+17
19536.0	3.740888324898816e+17
19537.0	3.740225100578815e+17
19538.0	3.739495247642623e+17
19539.0	3.738783262441472e+17
19540.0	3.7382205734911994e+17
19541.0	3.737544469162666e+17
19542.0	3.7368812042977274e+17
19543.0	3.736174327059797e+17
19544.0	3.735547004583936e+17
19545.0	3.734796596761942e+17
19546.0	3.734046637730474e+17
19547.0	3.733548821381119e+17
19548.0	3.73288152928529e+17
19549.0	3.7322013564818765e+17
19550.0	3.731548769615871e+17
19551.0	3.7308823939754656e+17
19552.0	3.7302161672328525e+17
19553.0	3.7295485514765645e+17
19554.0	3.7288761870690976e+17
19555.0	3.728213647818751e+17
19556.0	3.7275498153246714e+17
19557.0	3.7268871656243194e+17
19558.0	3.726221816889344e+17
19559.0	3.7255565834977274e+17
19560.0	3.7248763163224736e+17
19561.0	3.7242266046518605e+17
19562.0	3.723546610805419e+17
19563.0	3.7228971619778554e+17
19564.0	3.722232682861908e+17
19565.0	3.721568350546602e+17
19566.0	3.7209003328361805e+17
19567.0	3.7202399613419514e+17
19568.0	3.719576205044395e+17
19569.0	3.718912444552533e+17
19570.0	3.7182488308613114e+17
19571.0	3.71758471245551e+17
19572.0	3.716918043912874e+17
19573.0	3.7162519772528634e+17
19574.0	3.7155811234938874e+17
19575.0	3.714932851867648e+17
19576.0	3.714267725430784e+17
19577.0	3.7135993791665485e+17
19578.0	3.7129371740624205e+17
19579.0	3.7122793184515405e+17
19580.0	3.711617224496469e+17
19581.0	3.7109554933486925e+17
19582.0	3.7102967904884045e+17
19583.0	3.709635073321642e+17
19584.0	3.7089725110026234e+17
19585.0	3.7082947359429965e+17
19586.0	3.7076301918153376e+17
19587.0	3.7069896405046605e+17
19588.0	3.7062411676549114e+17
19589.0	3.705665674193578e+17
19590.0	3.704981637038079e+17
19591.0	3.7043461699229e+17
19592.0	3.7036856732986035e+17
19593.0	3.703021915602944e+17
19594.0	3.7023255555822925e+17
19595.0	3.7017020569135776e+17
19596.0	3.701036162220031e+17
19597.0	3.70038584517154e+17
19598.0	3.699607776613717e+17
19599.0	3.699067195839829e+17
19600.0	3.698407922554197e+17
19601.0	3.6977374385930234e+17
19602.0	3.6970817150866765e+17
19603.0	3.6963470673619616e+17
19604.0	3.695765068535125e+17
19605.0	3.695067354453332e+17
19606.0	3.6944553698481485e+17
19607.0	3.69379712766225e+17
19608.0	3.6931390071111674e+17
19609.0	3.6924766209529165e+17
19610.0	3.691800685095595e+17
19611.0	3.6911333098127354e+17
19612.0	3.690507992913236e+17
19613.0	3.689850700737193e+17
19614.0	3.689187509272576e+17
19615.0	3.6885358374638925e+17
19616.0	3.6878477933499725e+17
19617.0	3.6871867542623565e+17
19618.0	3.686456832120148e+17
19619.0	3.685764823689898e+17
19620.0	3.685111365806763e+17
19621.0	3.6845545614650016e+17
19622.0	3.6839405593995936e+17
19623.0	3.683282652758016e+17
19624.0	3.682623273915732e+17
19625.0	3.68197305962769e+17
19626.0	3.6813176276254714e+17
19627.0	3.680662220789076e+17
19628.0	3.6799916802048e+17
19629.0	3.6792302930930336e+17
19630.0	3.6786707337925965e+17
19631.0	3.677421912631978e+17
19632.0	3.677387501862912e+17
19633.0	3.6767296644273485e+17
19634.0	3.676078619667114e+17
19635.0	3.6754162209259514e+17
19636.0	3.674721502975316e+17
19637.0	3.674023581974527e+17
19638.0	3.673453989898922e+17
19639.0	3.672808225068372e+17
19640.0	3.6721329008803846e+17
19641.0	3.671191016789333e+17
19642.0	3.670845520784042e+17
19643.0	3.670192667579733e+17
19644.0	3.6695328371507194e+17
19645.0	3.668836962970282e+17
19646.0	3.6681834044238496e+17
19647.0	3.6675823410872314e+17
19648.0	3.666932355388756e+17
19649.0	3.666280119446185e+17
19650.0	3.6656280324014074e+17
19651.0	3.664976077477205e+17
19652.0	3.6643242756450976e+17
19653.0	3.6636726248079354e+17
19654.0	3.663021099799893e+17
19655.0	3.662369723689642e+17
