# Flux units: erg / (cm m2 s)
# Wavelength units: Angstrom
wave	flux
19000.0	5.987215492513791e+17
19001.0	5.985986453088938e+17
19002.0	5.984980264026112e+17
19003.0	5.98385426047522e+17
19004.0	5.982732142946986e+17
19005.0	5.981615084448425e+17
19006.0	5.980506970303145e+17
19007.0	5.979338128927402e+17
19008.0	5.978194827367764e+17
19009.0	5.977054774296576e+17
19010.0	5.975475815972861e+17
19011.0	5.974864883438931e+17
19012.0	5.973344573369001e+17
19013.0	5.972668907345235e+17
19014.0	5.9714929440413e+17
19015.0	5.970391989572948e+17
19016.0	5.969256726396928e+17
19017.0	5.968201359818751e+17
19018.0	5.967058617499647e+17
19019.0	5.965962264881833e+17
19020.0	5.964828462022655e+17
19021.0	5.963733112542547e+17
19022.0	5.962612508459008e+17
19023.0	5.961459268496042e+17
19024.0	5.960359786927443e+17
19025.0	5.959242148915882e+17
19026.0	5.958086686670847e+17
19027.0	5.956694571308371e+17
19028.0	5.955919130482004e+17
19029.0	5.954781484941311e+17
19030.0	5.953701286685354e+17
19031.0	5.95258616385809e+17
19032.0	5.95146438676753e+17
19033.0	5.950252117568169e+17
19034.0	5.949219415610708e+17
19035.0	5.948040347123711e+17
19036.0	5.922584846314148e+17
19037.0	5.945850177344852e+17
19038.0	5.944749887673684e+17
19039.0	5.943666285040979e+17
19040.0	5.942553571841363e+17
19041.0	5.941430639220052e+17
19042.0	5.940134932731219e+17
19043.0	5.939214179543721e+17
19044.0	5.938085945322154e+17
19045.0	5.936974123412138e+17
19046.0	5.93581479961122e+17
19047.0	5.934743872165204e+17
19048.0	5.933378896745812e+17
19049.0	5.932279465508863e+17
19050.0	5.931359069536255e+17
19051.0	5.926672004022266e+17
19052.0	5.928624234430463e+17
19053.0	5.928070170367316e+17
19054.0	5.92697308025105e+17
19055.0	5.925553074165078e+17
19056.0	5.92470832456226e+17
19057.0	5.923630755435862e+17
19058.0	5.922414494657193e+17
19059.0	5.9213769356957e+17
19060.0	5.920278685155327e+17
19061.0	5.919196492507817e+17
19062.0	5.918080121875114e+17
19063.0	5.916972060158634e+17
19064.0	5.915718513415508e+17
19065.0	5.914562373091327e+17
19066.0	5.913547570326186e+17
19067.0	5.912519492588884e+17
19068.0	5.911424173167956e+17
19069.0	5.910316568630612e+17
19070.0	5.90917333557794e+17
19071.0	5.90808085500177e+17
19072.0	5.906951850426368e+17
19073.0	5.905875397683882e+17
19074.0	5.904772973111977e+17
19075.0	5.903664657640106e+17
19076.0	5.90253272404241e+17
19077.0	5.901431641647785e+17
19078.0	5.900300521745065e+17
19079.0	5.899231170658303e+17
19080.0	5.89810821636642e+17
19081.0	5.896970284214953e+17
19082.0	5.895860664314537e+17
19083.0	5.894693834107562e+17
19084.0	5.89345210831121e+17
19085.0	5.892581317672959e+17
19086.0	5.891011871331668e+17
19087.0	5.889663791966892e+17
19088.0	5.889105204346879e+17
19089.0	5.887634800203092e+17
19090.0	5.887017796414121e+17
19091.0	5.885912302310739e+17
19092.0	5.88457905889826e+17
19093.0	5.883742974727508e+17
19094.0	5.882640132822356e+17
19095.0	5.881535634866175e+17
19096.0	5.880411903929001e+17
19097.0	5.879324852180308e+17
19098.0	5.878183965141673e+17
19099.0	5.877073463738368e+17
19100.0	5.875968856031231e+17
19101.0	5.874897056869034e+17
19102.0	5.87367807328802e+17
19103.0	5.87270210069026e+17
19104.0	5.871602877071359e+17
19105.0	5.870412653832873e+17
19106.0	5.869274783197865e+17
19107.0	5.868251907795625e+17
19108.0	5.867151953668778e+17
19109.0	5.864331043056296e+17
19110.0	5.864930900530516e+17
19111.0	5.863851193008127e+17
19112.0	5.862754413969405e+17
19113.0	5.861680396020393e+17
19114.0	5.860563965269331e+17
19115.0	5.859377077900628e+17
19116.0	5.858357002895359e+17
19117.0	5.857256277715626e+17
19118.0	5.85598513656627e+17
19119.0	5.848153010645663e+17
19120.0	5.853765094954323e+17
19121.0	5.85273522135586e+17
19122.0	5.851780991330986e+17
19123.0	5.850681546113023e+17
19124.0	5.849469019663018e+17
19125.0	5.848470671851519e+17
19126.0	5.84737439752738e+17
19127.0	5.844261735322963e+17
19128.0	5.844865554317312e+17
19129.0	5.843999154416297e+17
19130.0	5.842970026005843e+17
19131.0	5.841882928818857e+17
19132.0	5.840789877817343e+17
19133.0	5.8395586999965e+17
19134.0	5.838450571870208e+17
19135.0	5.837489569442473e+17
19136.0	5.836405434133161e+17
19137.0	5.835123121455103e+17
19138.0	5.834187688203604e+17
19139.0	5.833114177765376e+17
19140.0	5.832019655262207e+17
19141.0	5.830923446648831e+17
19142.0	5.829792793012906e+17
19143.0	5.828664539916969e+17
19144.0	5.827593121737386e+17
19145.0	5.826538069032959e+17
19146.0	5.824763222731434e+17
19147.0	5.82423634125346e+17
19148.0	5.823213018458794e+17
19149.0	5.822109445346644e+17
19150.0	5.821055224512512e+17
19151.0	5.819963617749673e+17
19152.0	5.818847962944851e+17
19153.0	5.817698286043135e+17
19154.0	5.816534925224618e+17
19155.0	5.815585048188244e+17
19156.0	5.814492998926335e+17
19157.0	5.813341533153962e+17
19158.0	5.811107095991635e+17
19159.0	5.811180801097727e+17
19160.0	5.810086278594559e+17
19161.0	5.808992387334143e+17
19162.0	5.805212220522497e+17
19163.0	5.806763063028394e+17
19164.0	5.805748995664554e+17
19165.0	5.804528623069866e+17
19166.0	5.803360926040064e+17
19167.0	5.802219104370687e+17
19168.0	5.801367312531455e+17
19169.0	5.80023347052544e+17
19170.0	5.79920046727714e+17
19171.0	5.797941697227433e+17
19172.0	5.797002935795712e+17
19173.0	5.795921369497599e+17
19174.0	5.794776580358144e+17
19175.0	5.793749351268351e+17
19176.0	5.792656270207657e+17
19177.0	5.791400074761556e+17
19178.0	5.790409649990314e+17
19179.0	5.789148498274986e+17
19180.0	5.788271639177898e+17
19181.0	5.787061646786559e+17
19182.0	5.786094841539242e+17
19183.0	5.785031045109076e+17
19184.0	5.783929877430271e+17
19185.0	5.782840744607743e+17
19186.0	5.781762124808191e+17
19187.0	5.780596183793663e+17
19188.0	5.779580522594303e+17
19189.0	5.778486985752576e+17
19190.0	5.777384612910422e+17
19191.0	5.776255669851476e+17
19192.0	5.775229669692756e+17
19193.0	5.774118777520127e+17
19194.0	5.773020306079743e+17
19195.0	5.771957828059135e+17
19196.0	5.770842468952746e+17
19197.0	5.76974428901649e+17
19198.0	5.768573641992874e+17
19199.0	5.751513327250086e+17
19200.0	5.7554677715872474e+17
19201.0	5.765327707876009e+17
19202.0	5.76432119025937e+17
19203.0	5.7632074249885e+17
19204.0	5.7621359718563834e+17
19205.0	5.7610781809704954e+17
19206.0	5.759990815348052e+17
19207.0	5.7587982272211616e+17
19208.0	5.757574135676926e+17
19209.0	5.7567363514149536e+17
19210.0	5.755648894915924e+17
19211.0	5.7545778758942714e+17
19212.0	5.7534911170478074e+17
19213.0	5.752179111493631e+17
19214.0	5.7510215975348896e+17
19215.0	5.7501682824642554e+17
19216.0	5.7491460732573005e+17
19217.0	5.7480535738067616e+17
19218.0	5.746043780071421e+17
19219.0	5.745723953206611e+17
19220.0	5.7447710290083834e+17
19221.0	5.743350003007487e+17
19222.0	5.7426263534469114e+17
19223.0	5.7415236967901856e+17
19224.0	5.74041179169314e+17
19225.0	5.73920774402867e+17
19226.0	5.7382668442009594e+17
19227.0	5.737179956729172e+17
19228.0	5.736122855107241e+17
19229.0	5.7350365457503565e+17
19230.0	5.733935938011135e+17
19231.0	5.732843175717545e+17
19232.0	5.7317685090495136e+17
19233.0	5.7306138639947085e+17
19234.0	5.7295819988008954e+17
19235.0	5.728491084797268e+17
19236.0	5.726690275753983e+17
19237.0	5.724963189992105e+17
19238.0	5.723769903513599e+17
19239.0	5.722812480225279e+17
19240.0	5.7217038355005434e+17
19241.0	5.7206114527914656e+17
19242.0	5.7195381590589434e+17
19243.0	5.718294675150164e+17
19244.0	5.717386859293353e+17
19245.0	5.7162948869270163e+17
19246.0	5.71519504814353e+17
19247.0	5.7141240298209274e+17
19248.0	5.713039437332479e+17
19249.0	5.7119454328258554e+17
19250.0	5.7108351355453434e+17
19251.0	5.7096377134830925e+17
19252.0	5.7083965238586016e+17
19253.0	5.7075846659877536e+17
19254.0	5.7065235860684794e+17
19255.0	5.7052395369485645e+17
19256.0	5.7043071138092365e+17
19257.0	5.7032662567266976e+17
19258.0	5.702179092430847e+17
19259.0	5.701014080454655e+17
19260.0	5.699509989059241e+17
19261.0	5.6989002763687245e+17
19262.0	5.697764218372094e+17
19263.0	5.696670341791743e+17
19264.0	5.6950247863091174e+17
19265.0	5.6943326324763296e+17
19266.0	5.693194255029588e+17
19267.0	5.692386181119998e+17
19268.0	5.691288835850239e+17
19269.0	5.690202609680382e+17
19270.0	5.6891139990487034e+17
19271.0	5.68763830239232e+17
19272.0	5.6868948927665485e+17
19273.0	5.684943387273896e+17
19274.0	5.6840372812950176e+17
19275.0	5.6836607677125965e+17
19276.0	5.6825468598353914e+17
19277.0	5.681460323287038e+17
19278.0	5.6803704970062496e+17
19279.0	5.6792453232285005e+17
19280.0	5.678087716995071e+17
19281.0	5.677080699557204e+17
19282.0	5.676002301356713e+17
19283.0	5.6746716416354976e+17
19284.0	5.673684527568211e+17
19285.0	5.672512415334399e+17
19286.0	5.6715774853993805e+17
19287.0	5.670513043046399e+17
19288.0	5.662775939082914e+17
19289.0	5.652265264917135e+17
19290.0	5.667215552544767e+17
19291.0	5.6658454258210125e+17
19292.0	5.665027505083732e+17
19293.0	5.6639184870659405e+17
19294.0	5.6628131831043405e+17
19295.0	5.661722365569706e+17
19296.0	5.6605713947252045e+17
19297.0	5.659472613605374e+17
19298.0	5.6583780232942925e+17
19299.0	5.65725504942899e+17
19300.0	5.6561861065878176e+17
19301.0	5.65507822592546e+17
19302.0	5.6539588360929274e+17
19303.0	5.652777053891243e+17
19304.0	5.65171272618257e+17
19305.0	5.650617178172073e+17
19306.0	5.649507157715625e+17
19307.0	5.6476612696910496e+17
19308.0	5.645492697082538e+17
19309.0	5.643819750697643e+17
19310.0	5.642505520764243e+17
19311.0	5.642076237245098e+17
19312.0	5.6410428208578534e+17
19313.0	5.639925571518463e+17
19314.0	5.6084132028306854e+17
19315.0	5.6095653900233766e+17
19316.0	5.636434546043563e+17
19317.0	5.635410650027349e+17
19318.0	5.634278008291328e+17
19319.0	5.633165517389823e+17
19320.0	5.632010712252415e+17
19321.0	5.630855850491903e+17
19322.0	5.6296358812494496e+17
19323.0	5.628352755575467e+17
19324.0	5.627440528009898e+17
19325.0	5.6257585925324794e+17
19326.0	5.6251567707258874e+17
19327.0	5.623999696470015e+17
19328.0	5.622791722937002e+17
19329.0	5.621712026599423e+17
19330.0	5.6205086087796045e+17
19331.0	5.6193405713121274e+17
19332.0	5.6182230891888634e+17
19333.0	5.6155548449505286e+17
19334.0	5.613358598324223e+17
19335.0	5.6120372842113696e+17
19336.0	5.6109898350810445e+17
19337.0	5.609813832630271e+17
19338.0	5.6083976286808723e+17
19339.0	5.6074300600702285e+17
19340.0	5.606090005807103e+17
19341.0	5.604945160044543e+17
19342.0	5.603366719717374e+17
19343.0	5.602621482773161e+17
19344.0	5.6013536949698554e+17
19345.0	5.597869949408592e+17
19346.0	5.598001521928873e+17
19347.0	5.596925133499052e+17
19348.0	5.5937795082594976e+17
19349.0	5.592485950652415e+17
19350.0	5.5912169716667725e+17
19351.0	5.5899787222493856e+17
19352.0	5.588597456153257e+17
19353.0	5.5874858020154003e+17
19354.0	5.586209705994921e+17
19355.0	5.5848160072826874e+17
19356.0	5.5836263537704954e+17
19357.0	5.579695550627838e+17
19358.0	5.577683837998421e+17
19359.0	5.576285922612564e+17
19360.0	5.5749257077282125e+17
19361.0	5.5736385534252365e+17
19362.0	5.572324786263381e+17
19363.0	5.570955165652308e+17
19364.0	5.5658033642646163e+17
19365.0	5.5642197097185274e+17
19366.0	5.5627997903148365e+17
19367.0	5.5613680751301965e+17
19368.0	5.5599235505411405e+17
19369.0	5.5567660973643085e+17
19370.0	5.55456016818722e+17
19371.0	5.5531053556695034e+17
19372.0	5.5516466676148896e+17
19373.0	5.5500911114103456e+17
19374.0	5.5485563379821216e+17
19375.0	5.546990621076137e+17
19376.0	5.545405957100885e+17
19377.0	5.543785596802388e+17
19378.0	5.542160853456213e+17
19379.0	5.5405132518522874e+17
19380.0	5.5386024940229965e+17
19381.0	5.5365319604742816e+17
19382.0	5.5347305551407776e+17
19383.0	5.532934893207551e+17
19384.0	5.531271999870292e+17
19385.0	5.529467940940458e+17
19386.0	5.52763874414865e+17
19387.0	5.525774552181417e+17
19388.0	5.5238782961582074e+17
19389.0	5.521947215527935e+17
19390.0	5.519970238726143e+17
19391.0	5.496411918783797e+17
19392.0	5.5156427879437626e+17
19393.0	5.513389601543508e+17
19394.0	5.510752211304447e+17
19395.0	5.5085303975990605e+17
19396.0	5.5063361677339296e+17
19397.0	5.5041277765003936e+17
19398.0	5.501764406433109e+17
19399.0	5.4986153425633274e+17
19400.0	5.495840925111637e+17
19401.0	5.493113462194175e+17
19402.0	5.490588301044393e+17
19403.0	5.4879748504944634e+17
19404.0	5.484486180820309e+17
19405.0	5.4805546765298336e+17
19406.0	5.477736000083285e+17
19407.0	5.473930255706796e+17
19408.0	5.468294865747969e+17
19409.0	5.466008938610688e+17
19410.0	5.459523928763051e+17
19411.0	5.4556622589351226e+17
19412.0	5.4482342367286605e+17
19413.0	5.4418577614875334e+17
19414.0	5.4343921261608896e+17
19415.0	5.4249394050607795e+17
19416.0	5.41294348660463e+17
19417.0	5.399202395848698e+17
19418.0	5.3896604514167456e+17
19419.0	5.3830897575307936e+17
19420.0	5.3762162789362336e+17
19421.0	5.3690540204141216e+17
19422.0	5.361525816557566e+17
19423.0	5.353687123055956e+17
19424.0	5.3454811532274336e+17
19425.0	5.336814356616533e+17
19426.0	5.32771916428083e+17
19427.0	5.3180670222008314e+17
19428.0	5.307958642606079e+17
19429.0	5.2975646875320294e+17
19430.0	5.2869013714589024e+17
19431.0	5.2733411467810195e+17
19432.0	5.2662447660946765e+17
19433.0	5.254940672218453e+17
19434.0	5.243091676037119e+17
19435.0	5.230848828418729e+17
19436.0	5.216855967574696e+17
19437.0	5.2043308670648326e+17
19438.0	5.1527643565479334e+17
19439.0	5.1633813793887546e+17
19440.0	5.1253771934979226e+17
19441.0	5.065984475223377e+17
19442.0	5.0307746339225606e+17
19443.0	4.994674067155626e+17
19444.0	4.955108283864402e+17
19445.0	4.9110632034030906e+17
19446.0	4.849403042988033e+17
19447.0	4.7315890897332717e+17
19448.0	4.618410976957784e+17
19449.0	4.4414778362647846e+17
19450.0	3.9903581189789446e+17
19451.0	3.793986757416282e+17
19452.0	4.258566279353684e+17
19453.0	4.5472961793447296e+17
19454.0	4.6704666971122304e+17
19455.0	4.791970699760975e+17
19456.0	4.8763622360350765e+17
19457.0	4.924246265080488e+17
19458.0	4.8922102585099354e+17
19459.0	4.9976536699590176e+17
19460.0	5.031664933666814e+17
19461.0	5.0773899286500685e+17
19462.0	5.128624120965802e+17
19463.0	5.155512514161325e+17
19464.0	5.1728933806844576e+17
19465.0	5.185917952895657e+17
19466.0	5.196965186895872e+17
19467.0	5.207634609176574e+17
19468.0	5.217326131576832e+17
19469.0	5.226731950571519e+17
19470.0	5.2360810583818234e+17
19471.0	5.2445311611699194e+17
19472.0	5.2528503758083405e+17
19473.0	5.2611435095654394e+17
19474.0	5.2694582607653536e+17
19475.0	5.276511070322685e+17
19476.0	5.284613059160745e+17
19477.0	5.2915147682174285e+17
19478.0	5.2979252935174816e+17
19479.0	5.303869248634879e+17
19480.0	5.3095181596317e+17
19481.0	5.3147790338949114e+17
19482.0	5.3197819395877536e+17
19483.0	5.324475725075798e+17
19484.0	5.330321410446674e+17
19485.0	5.340503391688025e+17
19486.0	5.3505738526774624e+17
19487.0	5.3586504219361306e+17
19488.0	5.364738341644972e+17
19489.0	5.3713187733067117e+17
19490.0	5.3731806563095904e+17
19491.0	5.3785387580347725e+17
19492.0	5.3815256812967206e+17
19493.0	5.3843160175301965e+17
19494.0	5.38560502222029e+17
19495.0	5.388840817306281e+17
19496.0	5.389195819701588e+17
19497.0	5.39037523841297e+17
19498.0	5.390667943510017e+17
19499.0	5.359128019643031e+17
19500.0	5.39409636270626e+17
19501.0	5.394576097411071e+17
19502.0	5.3956739075495264e+17
19503.0	5.396724065501183e+17
19504.0	5.3970075025844896e+17
19505.0	5.397240868765696e+17
19506.0	5.3974399136563194e+17
19507.0	5.397557867970558e+17
19508.0	5.3976857075602765e+17
19509.0	5.398248718772907e+17
19510.0	5.3984309123481594e+17
19511.0	5.344735837989515e+17
19512.0	5.39332873027583e+17
19513.0	5.388753528247621e+17
19514.0	5.3913406371703366e+17
19515.0	5.397417622328662e+17
19516.0	5.397957417369598e+17
19517.0	5.3976840032747514e+17
19518.0	5.397494293506729e+17
19519.0	5.397194890106196e+17
19520.0	5.396834853147987e+17
19521.0	5.3965932507518285e+17
19522.0	5.396195804796244e+17
19523.0	5.3962434213314554e+17
19524.0	5.3959734227981645e+17
19525.0	5.395575659473577e+17
19526.0	5.3951418328241485e+17
19527.0	5.394669694003881e+17
19528.0	5.394174205493247e+17
19529.0	5.393665523799381e+17
19530.0	5.393169612363091e+17
19531.0	5.392633594991956e+17
19532.0	5.392081867156138e+17
19533.0	5.391515127906303e+17
19534.0	5.3929125308880224e+17
19535.0	5.3924830914805754e+17
19536.0	5.39183274856721e+17
19537.0	5.391247167804757e+17
19538.0	5.390440772315818e+17
19539.0	5.390547341890899e+17
19540.0	5.3929157423267834e+17
19541.0	5.392238927063722e+17
19542.0	5.3915415457300474e+17
19543.0	5.3907837475444045e+17
19544.0	5.390117239084372e+17
19545.0	5.388861298791763e+17
19546.0	5.387636358600021e+17
19547.0	5.3905637905530874e+17
19548.0	5.390215396982782e+17
19549.0	5.3893441960017914e+17
19550.0	5.388672730573483e+17
19551.0	5.387894000713726e+17
19552.0	5.387105110152532e+17
19553.0	5.386285426409471e+17
19554.0	5.3854672176633165e+17
19555.0	5.3846839600523936e+17
19556.0	5.3838931491990176e+17
19557.0	5.383538934633812e+17
19558.0	5.384751288418303e+17
19559.0	5.383920906403838e+17
19560.0	5.383036015214591e+17
19561.0	5.382214743228414e+17
19562.0	5.3813820648325114e+17
19563.0	5.380554628617555e+17
19564.0	5.379702796233386e+17
19565.0	5.378847087613268e+17
19566.0	5.377953151407444e+17
19567.0	5.3771242772452685e+17
19568.0	5.3762311861917005e+17
19569.0	5.375365267237545e+17
19570.0	5.374517943730175e+17
19571.0	5.3736385128256845e+17
19572.0	5.3727266487664634e+17
19573.0	5.3718529109306016e+17
19574.0	5.370898334875647e+17
19575.0	5.371792799563778e+17
19576.0	5.371201052475391e+17
19577.0	5.370275089962324e+17
19578.0	5.36937163128832e+17
19579.0	5.3684893181979296e+17
19580.0	5.3675901272282445e+17
19581.0	5.366698513268735e+17
19582.0	5.365814040111786e+17
19583.0	5.36490779152657e+17
19584.0	5.363986207866879e+17
19585.0	5.362966735443283e+17
19586.0	5.362018365560149e+17
19587.0	5.3611638103736314e+17
19588.0	5.359818452413098e+17
19589.0	5.359407128903679e+17
19590.0	5.358387497096532e+17
19591.0	5.3575864514423456e+17
19592.0	5.3568770995650554e+17
19593.0	5.356050863620094e+17
19594.0	5.3548749862993914e+17
19595.0	5.354189943209984e+17
19596.0	5.352628711413077e+17
19597.0	5.352349189712554e+17
19598.0	5.350962316531028e+17
19599.0	5.350513567247017e+17
19600.0	5.3495932712386554e+17
19601.0	5.348585917557418e+17
19602.0	5.3476738738421754e+17
19603.0	5.346074840880468e+17
19604.0	5.345784209866752e+17
19605.0	5.3445937153966074e+17
19606.0	5.3439842117222394e+17
19607.0	5.343057199235071e+17
19608.0	5.342099421528062e+17
19609.0	5.34112180056883e+17
19610.0	5.340214675374079e+17
19611.0	5.3392524901526176e+17
19612.0	5.3393943967389e+17
19613.0	5.338937205719038e+17
19614.0	5.3379618259162445e+17
19615.0	5.337057862527658e+17
19616.0	5.335897420245675e+17
19617.0	5.335124837138432e+17
19618.0	5.333566564422996e+17
19619.0	5.332453528961023e+17
19620.0	5.3315491363553254e+17
19621.0	5.3313382131957754e+17
19622.0	5.3304455758260896e+17
19623.0	5.3294950941108896e+17
19624.0	5.328536808893098e+17
19625.0	5.327601636387498e+17
19626.0	5.326652284338175e+17
19627.0	5.3256978802496845e+17
19628.0	5.3243508592476154e+17
19629.0	5.323549004092756e+17
19630.0	5.321870801545899e+17
19631.0	5.304070510215166e+17
19632.0	5.320900684895572e+17
19633.0	5.319925997152939e+17
19634.0	5.3190499098077856e+17
19635.0	5.3180526133684896e+17
19636.0	5.317085299911338e+17
19637.0	5.3157627701493754e+17
19638.0	5.3152317635734176e+17
19639.0	5.3142827820209485e+17
19640.0	5.313232071120214e+17
19641.0	5.311218033448279e+17
19642.0	5.311425378866515e+17
19643.0	5.31046451974417e+17
19644.0	5.309463535113557e+17
19645.0	5.308262830309374e+17
19646.0	5.307563397261994e+17
19647.0	5.306673245716479e+17
19648.0	5.305722387912021e+17
19649.0	5.3047603830456314e+17
19650.0	5.3038147737135763e+17
19651.0	5.302854094247253e+17
19652.0	5.301897277734911e+17
19653.0	5.300941553838762e+17
19654.0	5.299989055362387e+17
19655.0	5.2990305974790816e+17
19656.0	5.2980813202281805e+17
19657.0	5.297134668611583e+17
19658.0	5.296177726270122e+17
