# Flux units: erg / (cm m2 s)
# Wavelength units: Angstrom
wave	flux
19000.0	7.324034928738303e+17
19001.0	7.322637997615785e+17
19002.0	7.321332879807828e+17
19003.0	7.319979879825408e+17
19004.0	7.318626784772093e+17
19005.0	7.317275052867583e+17
19006.0	7.315921395777535e+17
19007.0	7.314547882852352e+17
19008.0	7.313184391517523e+17
19009.0	7.311814742944425e+17
19010.0	7.31030011266116e+17
19011.0	7.309129130093226e+17
19012.0	7.307710142524074e+17
19013.0	7.30643389411055e+17
19014.0	7.305042925890217e+17
19015.0	7.303697927241727e+17
19016.0	7.302335140549972e+17
19017.0	7.300990174057811e+17
19018.0	7.299633903916372e+17
19019.0	7.298283532364457e+17
19020.0	7.296908575200596e+17
19021.0	7.295562227384319e+17
19022.0	7.29420798169361e+17
19023.0	7.292836760256511e+17
19024.0	7.291474686596436e+17
19025.0	7.290122311565311e+17
19026.0	7.288750361717416e+17
19027.0	7.28735074624034e+17
19028.0	7.28604307689745e+17
19029.0	7.284681095512063e+17
19030.0	7.283319390950739e+17
19031.0	7.281957079613437e+17
19032.0	7.280594537589417e+17
19033.0	7.279189997999444e+17
19034.0	7.277868312690687e+17
19035.0	7.276484186778281e+17
19036.0	7.271594277033299e+17
19037.0	7.273775937268394e+17
19038.0	7.272402778062847e+17
19039.0	7.271050858812756e+17
19040.0	7.26968680124689e+17
19041.0	7.268321927189844e+17
19042.0	7.26692047041331e+17
19043.0	7.265593475115688e+17
19044.0	7.264227513335807e+17
19045.0	7.262863514490195e+17
19046.0	7.261475356453545e+17
19047.0	7.260124418670591e+17
19048.0	7.25867668054562e+17
19049.0	7.257371387974995e+17
19050.0	7.256016370532351e+17
19051.0	7.254123823671977e+17
19052.0	7.253198811867817e+17
19053.0	7.251937636384765e+17
19054.0	7.250571116762451e+17
19055.0	7.249086468762281e+17
19056.0	7.247828889195862e+17
19057.0	7.246467785818111e+17
19058.0	7.24510010577169e+17
19059.0	7.243738062869844e+17
19060.0	7.242360979193855e+17
19061.0	7.2410049047866e+17
19062.0	7.239635614127446e+17
19063.0	7.238269288841215e+17
19064.0	7.236849147838463e+17
19065.0	7.235452267047594e+17
19066.0	7.234139746293075e+17
19067.0	7.232799474625194e+17
19068.0	7.23143295640098e+17
19069.0	7.230065741922304e+17
19070.0	7.228693410392745e+17
19071.0	7.227330293749075e+17
19072.0	7.225962504650751e+17
19073.0	7.224592094112425e+17
19074.0	7.223226606288893e+17
19075.0	7.22185857671714e+17
19076.0	7.22048097993796e+17
19077.0	7.219116249885353e+17
19078.0	7.21774164644113e+17
19079.0	7.216385896393385e+17
19080.0	7.215013627778387e+17
19081.0	7.213631162810365e+17
19082.0	7.212260580305578e+17
19083.0	7.210865409392639e+17
19084.0	7.209430363231572e+17
19085.0	7.20817494233361e+17
19086.0	7.206628129155753e+17
19087.0	7.205329014794921e+17
19088.0	7.204026698782035e+17
19089.0	7.202564532251305e+17
19090.0	7.201320205287423e+17
19091.0	7.199948820272468e+17
19092.0	7.198548493161812e+17
19093.0	7.19722553418274e+17
19094.0	7.195847483020628e+17
19095.0	7.194476461512019e+17
19096.0	7.19311180276258e+17
19097.0	7.191749498415786e+17
19098.0	7.190382257373181e+17
19099.0	7.189013267305812e+17
19100.0	7.187644449204905e+17
19101.0	7.186273898856447e+17
19102.0	7.184865159370067e+17
19103.0	7.183537525140136e+17
19104.0	7.182168514101247e+17
19105.0	7.180799100409174e+17
19106.0	7.179410455833258e+17
19107.0	7.178053597091156e+17
19108.0	7.176690618859517e+17
19109.0	7.174998099755007e+17
19110.0	7.173939300838057e+17
19111.0	7.172584140789075e+17
19112.0	7.171215347853994e+17
19113.0	7.169846206791679e+17
19114.0	7.168476990231892e+17
19115.0	7.167090876219391e+17
19116.0	7.165727319173802e+17
19117.0	7.164357739107667e+17
19118.0	7.162946028655955e+17
19119.0	7.160190802941266e+17
19120.0	7.160230678189395e+17
19121.0	7.158868206070441e+17
19122.0	7.157521865244672e+17
19123.0	7.156151214232916e+17
19124.0	7.154763693730474e+17
19125.0	7.153409476001791e+17
19126.0	7.152039554798932e+17
19127.0	7.149891878212947e+17
19128.0	7.149179414162089e+17
19129.0	7.147895337779199e+17
19130.0	7.146558922074793e+17
19131.0	7.14519340069683e+17
19132.0	7.143821952767316e+17
19133.0	7.142340261751466e+17
19134.0	7.141025269153791e+17
19135.0	7.13971363619362e+17
19136.0	7.138344608377513e+17
19137.0	7.136901188987561e+17
19138.0	7.135591731473066e+17
19139.0	7.134232940554921e+17
19140.0	7.132863581388799e+17
19141.0	7.131493291087187e+17
19142.0	7.130111558724265e+17
19143.0	7.128729401338538e+17
19144.0	7.127376377588393e+17
19145.0	7.126011207133866e+17
19146.0	7.124377036390399e+17
19147.0	7.123224438854998e+17
19148.0	7.121896649435817e+17
19149.0	7.120525939703807e+17
19150.0	7.119151933248851e+17
19151.0	7.117785078082217e+17
19152.0	7.116410260728489e+17
19153.0	7.115033107147433e+17
19154.0	7.113611965104125e+17
19155.0	7.112298622266025e+17
19156.0	7.110925024056659e+17
19157.0	7.109544671619753e+17
19158.0	7.107961577712297e+17
19159.0	7.106798681762474e+17
19160.0	7.105431696572416e+17
19161.0	7.104049967005693e+17
19162.0	7.102188413255679e+17
19163.0	7.101300368648874e+17
19164.0	7.099947514068991e+17
19165.0	7.098565265806675e+17
19166.0	7.097142871064575e+17
19167.0	7.095781050460841e+17
19168.0	7.094433981224276e+17
19169.0	7.09306094784785e+17
19170.0	7.091706846161578e+17
19171.0	7.09030556274961e+17
19172.0	7.088958459958611e+17
19173.0	7.087584942839123e+17
19174.0	7.086185953711444e+17
19175.0	7.08483717599505e+17
19176.0	7.083462154518527e+17
19177.0	7.082017172051284e+17
19178.0	7.080696891834368e+17
19179.0	7.079296693349033e+17
19180.0	7.077946818123092e+17
19181.0	7.076537113946794e+17
19182.0	7.075193105154047e+17
19183.0	7.073829026616662e+17
19184.0	7.072435701197481e+17
19185.0	7.07107300118801e+17
19186.0	7.069698074782377e+17
19187.0	7.06829088858658e+17
19188.0	7.066941375468884e+17
19189.0	7.065559406826836e+17
19190.0	7.064177452165802e+17
19191.0	7.062801654743039e+17
19192.0	7.061426889119059e+17
19193.0	7.060041172167338e+17
19194.0	7.058664590409727e+17
19195.0	7.057285668230483e+17
19196.0	7.055898163107156e+17
19197.0	7.054513303191551e+17
19198.0	7.053115105389225e+17
19199.0	7.04875240567603e+17
19200.0	7.048247910596608e+17
19201.0	7.048972199788543e+17
19202.0	7.047607313148586e+17
19203.0	7.046228298694655e+17
19204.0	7.044834562233684e+17
19205.0	7.043461864401577e+17
19206.0	7.042071242910377e+17
19207.0	7.040659498904233e+17
19208.0	7.039219236427092e+17
19209.0	7.037921040618836e+17
19210.0	7.036534055589203e+17
19211.0	7.035146156201299e+17
19212.0	7.033758442061823e+17
19213.0	7.032316621400745e+17
19214.0	7.030904029446143e+17
19215.0	7.029578502853972e+17
19216.0	7.028197896661674e+17
19217.0	7.026809247192404e+17
19218.0	7.02504479507524e+17
19219.0	7.023951268020223e+17
19220.0	7.02262152405538e+17
19221.0	7.021094515681961e+17
19222.0	7.019840441155583e+17
19223.0	7.018448775981738e+17
19224.0	7.017037254972755e+17
19225.0	7.015591755907071e+17
19226.0	7.014261068223827e+17
19227.0	7.012853083013119e+17
19228.0	7.011464727145129e+17
19229.0	7.010064918730068e+17
19230.0	7.00866293277218e+17
19231.0	7.007263842981204e+17
19232.0	7.005853601234943e+17
19233.0	7.004424309658963e+17
19234.0	7.003042954783401e+17
19235.0	7.001638181710505e+17
19236.0	7.000242481616212e+17
19237.0	6.998828198658047e+17
19238.0	6.997382759011668e+17
19239.0	6.996018825876819e+17
19240.0	6.994571300263252e+17
19241.0	6.993174105598634e+17
19242.0	6.991776100035242e+17
19243.0	6.990292081879721e+17
19244.0	6.988957624216233e+17
19245.0	6.987541636972543e+17
19246.0	6.986117269509459e+17
19247.0	6.98470535074065e+17
19248.0	6.983286500185427e+17
19249.0	6.981864757657599e+17
19250.0	6.980439960977407e+17
19251.0	6.978957147286185e+17
19252.0	6.977464107881812e+17
19253.0	6.976162429403135e+17
19254.0	6.974733115457535e+17
19255.0	6.973225315598335e+17
19256.0	6.971857256666452e+17
19257.0	6.970445322518527e+17
19258.0	6.969010386807465e+17
19259.0	6.967541535954259e+17
19260.0	6.966073880477695e+17
19261.0	6.964696532560553e+17
19262.0	6.963232533818026e+17
19263.0	6.961783125661012e+17
19264.0	6.960130908225535e+17
19265.0	6.958869509046271e+17
19266.0	6.957473420978857e+17
19267.0	6.956093587936595e+17
19268.0	6.954639998757546e+17
19269.0	6.953184183801171e+17
19270.0	6.951725388791807e+17
19271.0	6.950119208037034e+17
19272.0	6.948787777262932e+17
19273.0	6.946245079728125e+17
19274.0	6.945207777318227e+17
19275.0	6.944404321337343e+17
19276.0	6.942924395424425e+17
19277.0	6.941459879384404e+17
19278.0	6.939983170502655e+17
19279.0	6.938501755611817e+17
19280.0	6.936986780696573e+17
19281.0	6.935534614784681e+17
19282.0	6.934047088792916e+17
19283.0	6.932512959889407e+17
19284.0	6.931014729334783e+17
19285.0	6.929480914305023e+17
19286.0	6.928050681806847e+17
19287.0	6.926561777287167e+17
19288.0	6.92403106427699e+17
19289.0	6.9213126960087e+17
19290.0	6.922031680804182e+17
19291.0	6.920393233967786e+17
19292.0	6.918994016949587e+17
19293.0	6.917465843258708e+17
19294.0	6.915940987262292e+17
19295.0	6.914408431921834e+17
19296.0	6.912871724220415e+17
19297.0	6.911329649907027e+17
19298.0	6.909777353375743e+17
19299.0	6.90823615217664e+17
19300.0	6.906680996528127e+17
19301.0	6.905119901745151e+17
19302.0	6.903551050295978e+17
19303.0	6.901955439187284e+17
19304.0	6.900397504113321e+17
19305.0	6.898829515292671e+17
19306.0	6.897255159518547e+17
19307.0	6.895639726828201e+17
19308.0	6.894055410281129e+17
19309.0	6.892370214431402e+17
19310.0	6.890722902234452e+17
19311.0	6.889144159917396e+17
19312.0	6.886942999663955e+17
19313.0	6.885311162351615e+17
19314.0	6.881554264140458e+17
19315.0	6.880023262090582e+17
19316.0	6.880401503027197e+17
19317.0	6.878762785658196e+17
19318.0	6.877097721768618e+17
19319.0	6.875442048925693e+17
19320.0	6.873768920088575e+17
19321.0	6.872091462729727e+17
19322.0	6.870356190385492e+17
19323.0	6.868663803401555e+17
19324.0	6.86700258009634e+17
19325.0	6.865202396703402e+17
19326.0	6.863569885506217e+17
19327.0	6.861836425800361e+17
19328.0	6.860104473946794e+17
19329.0	6.858356873844052e+17
19330.0	6.856581511643133e+17
19331.0	6.854810415748435e+17
19332.0	6.853050047485268e+17
19333.0	6.851263282369875e+17
19334.0	6.849460989941076e+17
19335.0	6.847652629053439e+17
19336.0	6.845829219003049e+17
19337.0	6.843996049506304e+17
19338.0	6.842060556468221e+17
19339.0	6.840302218248191e+17
19340.0	6.838409194635263e+17
19341.0	6.836542761511593e+17
19342.0	6.834496403232083e+17
19343.0	6.832724411853481e+17
19344.0	6.829769784732329e+17
19345.0	6.827009026730664e+17
19346.0	6.825481136155305e+17
19347.0	6.823871844625065e+17
19348.0	6.821917263309481e+17
19349.0	6.819901467525119e+17
19350.0	6.817879822084777e+17
19351.0	6.815841231656276e+17
19352.0	6.813762072521385e+17
19353.0	6.811719960974676e+17
19354.0	6.809555048595455e+17
19355.0	6.807367685505024e+17
19356.0	6.805267993154899e+17
19357.0	6.803110364883625e+17
19358.0	6.800882169544703e+17
19359.0	6.797178585131689e+17
19360.0	6.794981028484436e+17
19361.0	6.792717756880212e+17
19362.0	6.790445254311935e+17
19363.0	6.78812991951121e+17
19364.0	6.785788673698474e+17
19365.0	6.783421859408553e+17
19366.0	6.781027392072361e+17
19367.0	6.778604908882601e+17
19368.0	6.774410776849066e+17
19369.0	6.77163503259921e+17
19370.0	6.769023305209172e+17
19371.0	6.766559659119955e+17
19372.0	6.763988802426195e+17
19373.0	6.761350123137705e+17
19374.0	6.757528504718676e+17
19375.0	6.753412284678143e+17
19376.0	6.750643272286207e+17
19377.0	6.747828060334761e+17
19378.0	6.744968076285267e+17
19379.0	6.739961041300142e+17
19380.0	6.735860099011924e+17
19381.0	6.732797764960255e+17
19382.0	6.729643630176937e+17
19383.0	6.723057118871551e+17
19384.0	6.719338221753684e+17
19385.0	6.715986607254185e+17
19386.0	6.708950118432768e+17
19387.0	6.704416031069523e+17
19388.0	6.699847876171098e+17
19389.0	6.691655929298943e+17
19390.0	6.687783387835049e+17
19391.0	6.675224061105494e+17
19392.0	6.673332258734077e+17
19393.0	6.665602639506088e+17
19394.0	6.661167362255529e+17
19395.0	6.656625556673876e+17
19396.0	6.651965989715965e+17
19397.0	6.647027435132246e+17
19398.0	6.641902220738559e+17
19399.0	6.636613076167337e+17
19400.0	6.631707223872852e+17
19401.0	6.626445355559593e+17
19402.0	6.621004052824061e+17
19403.0	6.615404046712831e+17
19404.0	6.609650843647999e+17
19405.0	6.603732269662205e+17
19406.0	6.597597871472639e+17
19407.0	6.590612481856852e+17
19408.0	6.583846697609897e+17
19409.0	6.57744347599121e+17
19410.0	6.57051848155682e+17
19411.0	6.563150501511168e+17
19412.0	6.554836636008447e+17
19413.0	6.547289023010131e+17
19414.0	6.539399043656361e+17
19415.0	6.529791635226623e+17
19416.0	6.521500617495892e+17
19417.0	6.511178732448425e+17
19418.0	6.501707799680342e+17
19419.0	6.489334081388543e+17
19420.0	6.47714460209425e+17
19421.0	6.46325685050846e+17
19422.0	6.447583578816508e+17
19423.0	6.429512740197723e+17
19424.0	6.40844748938718e+17
19425.0	6.381348514867877e+17
19426.0	6.356582422719142e+17
19427.0	6.339057820893183e+17
19428.0	6.321054967747924e+17
19429.0	6.302724508002985e+17
19430.0	6.283731460074154e+17
19431.0	6.263708272208554e+17
19432.0	6.242950542174888e+17
19433.0	6.220884887644842e+17
19434.0	6.196636784350548e+17
19435.0	6.170750079729663e+17
19436.0	6.141962793691821e+17
19437.0	6.108946890751995e+17
19438.0	6.064911597000024e+17
19439.0	6.0172066577449e+17
19440.0	5.958660464661842e+17
19441.0	5.910070188223142e+17
19442.0	5.858793214705667e+17
19443.0	5.800386440287574e+17
19444.0	5.731953188448936e+17
19445.0	5.645694163484678e+17
19446.0	5.539818143132324e+17
19447.0	5.4241062848648474e+17
19448.0	5.2779791871727014e+17
19449.0	5.082680207081472e+17
19450.0	4.8060504239417555e+17
19451.0	4.7240511180417805e+17
19452.0	4.947040321317555e+17
19453.0	5.188218864183987e+17
19454.0	5.352693760873807e+17
19455.0	5.478141337621845e+17
19456.0	5.586083506378072e+17
19457.0	5.6809626879918035e+17
19458.0	5.7521417101858176e+17
19459.0	5.815032867367597e+17
19460.0	5.867373329033896e+17
19461.0	5.913518631725737e+17
19462.0	5.965526002739881e+17
19463.0	6.019599785700009e+17
19464.0	6.062280970076154e+17
19465.0	6.096540417742163e+17
19466.0	6.124522674935123e+17
19467.0	6.149450586128384e+17
19468.0	6.171812948519594e+17
19469.0	6.192474212357459e+17
19470.0	6.211838301700095e+17
19471.0	6.229751096847018e+17
19472.0	6.246636530084521e+17
19473.0	6.262751949925034e+17
19474.0	6.27856160919825e+17
19475.0	6.293201317003263e+17
19476.0	6.311871719494988e+17
19477.0	6.336792106805926e+17
19478.0	6.357021967603027e+17
19479.0	6.374692905899347e+17
19480.0	6.38865438496085e+17
19481.0	6.40087392063761e+17
19482.0	6.411872048425638e+17
19483.0	6.420868132154022e+17
19484.0	6.429060376821759e+17
19485.0	6.43693571875362e+17
19486.0	6.443392924560042e+17
19487.0	6.449805873468755e+17
19488.0	6.456114860261375e+17
19489.0	6.461211156327082e+17
19490.0	6.46603660870724e+17
19491.0	6.47207477907729e+17
19492.0	6.47661538578705e+17
19493.0	6.480901250045267e+17
19494.0	6.484955467786921e+17
19495.0	6.489101362528253e+17
19496.0	6.493047397984938e+17
19497.0	6.496653235541332e+17
19498.0	6.499563334533119e+17
19499.0	6.498690270582099e+17
19500.0	6.506098652960083e+17
19501.0	6.50893214229026e+17
19502.0	6.511611827890857e+17
19503.0	6.514156233905491e+17
19504.0	6.516590075969535e+17
19505.0	6.519178099250516e+17
19506.0	6.521421987577855e+17
19507.0	6.523473577552553e+17
19508.0	6.525416304366932e+17
19509.0	6.528784951934975e+17
19510.0	6.532234060933802e+17
19511.0	6.532637877338108e+17
19512.0	6.540434436958889e+17
19513.0	6.54240567245756e+17
19514.0	6.547784110265683e+17
19515.0	6.549585326156458e+17
19516.0	6.553315059957755e+17
19517.0	6.555960678722217e+17
19518.0	6.55675854299682e+17
19519.0	6.55905796600627e+17
19520.0	6.561732740775936e+17
19521.0	6.562285947103914e+17
19522.0	6.562765730043219e+17
19523.0	6.56490351156702e+17
19524.0	6.566559039007401e+17
19525.0	6.566840648772266e+17
19526.0	6.567094206332927e+17
19527.0	6.567298523463679e+17
19528.0	6.568935147175933e+17
19529.0	6.569964377647785e+17
19530.0	6.570029819275946e+17
19531.0	6.570059586251433e+17
19532.0	6.570055074578431e+17
19533.0	6.570017670474409e+17
19534.0	6.569948920239444e+17
19535.0	6.571563846817107e+17
19536.0	6.571545028373161e+17
19537.0	6.57139530150707e+17
19538.0	6.571149706832553e+17
19539.0	6.570754254569472e+17
19540.0	6.5707188434589e+17
19541.0	6.570461798334463e+17
19542.0	6.570164737452714e+17
19543.0	6.569838041716052e+17
19544.0	6.56972812858163e+17
19545.0	6.570273935458303e+17
19546.0	6.569709356974079e+17
19547.0	6.569659728571049e+17
19548.0	6.569215323886931e+17
19549.0	6.568709894176768e+17
19550.0	6.568272386326527e+17
19551.0	6.56777299501602e+17
19552.0	6.567254140037802e+17
19553.0	6.566707656480084e+17
19554.0	6.566195651499348e+17
19555.0	6.565690248353108e+17
19556.0	6.56510479901218e+17
19557.0	6.564502791258111e+17
19558.0	6.563888351586985e+17
19559.0	6.563256672627369e+17
19560.0	6.562603023204351e+17
19561.0	6.562434174506323e+17
19562.0	6.562246227744083e+17
19563.0	6.561559439824212e+17
19564.0	6.56086084493858e+17
19565.0	6.560150011073876e+17
19566.0	6.559420681726634e+17
19567.0	6.558697836773376e+17
19568.0	6.557943656873983e+17
19569.0	6.557200327639039e+17
19570.0	6.556440722407423e+17
19571.0	6.555664650338303e+17
19572.0	6.554869920606889e+17
19573.0	6.55407934743074e+17
19574.0	6.553245756074665e+17
19575.0	6.552475398744745e+17
19576.0	6.551655292775082e+17
19577.0	6.550818636780884e+17
19578.0	6.549969218218665e+17
19579.0	6.549130260250623e+17
19580.0	6.548276503379965e+17
19581.0	6.54741880246545e+17
19582.0	6.546556406027603e+17
19583.0	6.545679579086847e+17
19584.0	6.54479186792721e+17
19585.0	6.543855314097491e+17
19586.0	6.542940862851754e+17
19587.0	6.5420823901853e+17
19588.0	6.540984473092096e+17
19589.0	6.540263579189247e+17
19590.0	6.539315515490304e+17
19591.0	6.538421180825599e+17
19592.0	6.537485340726612e+17
19593.0	6.536535444815871e+17
19594.0	6.535496279435946e+17
19595.0	6.534627060263593e+17
19596.0	6.533353972957183e+17
19597.0	6.532712176637268e+17
19598.0	6.531637614127785e+17
19599.0	6.530795635561811e+17
19600.0	6.529820450095101e+17
19601.0	6.528809327132671e+17
19602.0	6.527926291223891e+17
19603.0	6.527262753729193e+17
19604.0	6.526454147142995e+17
19605.0	6.525353177295529e+17
19606.0	6.524483737223165e+17
19607.0	6.523479852930388e+17
19608.0	6.522467532494163e+17
19609.0	6.521435735807316e+17
19610.0	6.520438860895572e+17
19611.0	6.519415580742995e+17
19612.0	6.518394039129428e+17
19613.0	6.51736632140322e+17
19614.0	6.516315792954708e+17
19615.0	6.515300001731923e+17
19616.0	6.514237587324928e+17
19617.0	6.513223048800938e+17
19618.0	6.511930633442644e+17
19619.0	6.510831121814867e+17
19620.0	6.509792800189098e+17
19621.0	6.509032250540031e+17
19622.0	6.507977952810323e+17
19623.0	6.506920749826047e+17
19624.0	6.505860942178985e+17
19625.0	6.504798357203625e+17
19626.0	6.503733535965183e+17
19627.0	6.502665386546515e+17
19628.0	6.50152528454178e+17
19629.0	6.50048158372113e+17
19630.0	6.499214924185597e+17
19631.0	6.495176427394388e+17
19632.0	6.497289196186282e+17
19633.0	6.496205173424127e+17
19634.0	6.495134667505663e+17
19635.0	6.494032405812564e+17
19636.0	6.492966089304745e+17
19637.0	6.49169757868305e+17
19638.0	6.490785530074452e+17
19639.0	6.489689603178495e+17
19640.0	6.488556780388351e+17
19641.0	6.487220506591232e+17
19642.0	6.486414671740927e+17
19643.0	6.485314443586217e+17
19644.0	6.484187865415679e+17
19645.0	6.482995522655571e+17
19646.0	6.482014040839508e+17
19647.0	6.480910195097599e+17
19648.0	6.479804940069546e+17
19649.0	6.478697027949908e+17
19650.0	6.477590172794879e+17
19651.0	6.476480788474538e+17
19652.0	6.475370145163946e+17
19653.0	6.474257299144704e+17
19654.0	6.473145006773588e+17
19655.0	6.472028508913663e+17
19656.0	6.470912008956585e+17
19657.0	6.469798375806291e+17
19658.0	6.468680680472575e+17
19659.0	6.467561078827689e+17
19660.0	6.466441846281556e+17
19661.0	6.465320886381226e+17
19662.0	6.464198842253312e+17
19663.0	6.463055256180052e+17
19664.0	6.461940214442666e+17
19665.0	6.460827129348095e+17
