# Flux units: erg / (cm m2 s)
# Wavelength units: Angstrom
wave	flux
19000.0	7.274291484338858e+17
19001.0	7.272479687617194e+17
19002.0	7.271628098502655e+17
19003.0	7.270265202758995e+17
19004.0	7.268917617623039e+17
19005.0	7.26757022961937e+17
19006.0	7.2662270359197e+17
19007.0	7.264670821908479e+17
19008.0	7.2632421594781e+17
19009.0	7.261696647932585e+17
19010.0	7.258730911498236e+17
19011.0	7.259321870756521e+17
19012.0	7.257314022479186e+17
19013.0	7.256785782046719e+17
19014.0	7.255146730531497e+17
19015.0	7.25392260473378e+17
19016.0	7.252523127668735e+17
19017.0	7.251264923151017e+17
19018.0	7.249976221848916e+17
19019.0	7.248645295090345e+17
19020.0	7.247209801536851e+17
19021.0	7.24596805546803e+17
19022.0	7.244641968936276e+17
19023.0	7.243108211228671e+17
19024.0	7.241864149904041e+17
19025.0	7.240539580312233e+17
19026.0	7.239090059608063e+17
19027.0	7.237397852280147e+17
19028.0	7.236544332387667e+17
19029.0	7.235109816107008e+17
19030.0	7.233893714012841e+17
19031.0	7.232572575361706e+17
19032.0	7.231207950166697e+17
19033.0	7.229407029275305e+17
19034.0	7.228418399666175e+17
19035.0	7.226924658414931e+17
19036.0	7.188618383370922e+17
19037.0	7.224356652449791e+17
19038.0	7.222972820138666e+17
19039.0	7.221720823190868e+17
19040.0	7.220393869836287e+17
19041.0	7.218995733550419e+17
19042.0	7.217231619074729e+17
19043.0	7.216321421552297e+17
19044.0	7.214920396789075e+17
19045.0	7.213609234989055e+17
19046.0	7.211962173751296e+17
19047.0	7.210802094975658e+17
19048.0	7.208563123770708e+17
19049.0	7.207834802454527e+17
19050.0	7.206598436279636e+17
19051.0	7.19964398804445e+17
19052.0	7.202885628592125e+17
19053.0	7.202721449552552e+17
19054.0	7.201398149436756e+17
19055.0	7.198807041245187e+17
19056.0	7.198585555430058e+17
19057.0	7.197318408656211e+17
19058.0	7.195877347863208e+17
19059.0	7.194628797235199e+17
19060.0	7.193182720054611e+17
19061.0	7.19194994839825e+17
19062.0	7.19055733461265e+17
19063.0	7.189222040185514e+17
19064.0	7.187208107371178e+17
19065.0	7.185619450418518e+17
19066.0	7.184865111834623e+17
19067.0	7.183719304877395e+17
19068.0	7.18242621633331e+17
19069.0	7.181082594814633e+17
19070.0	7.179584801865725e+17
19071.0	7.178335664035156e+17
19072.0	7.177009539754666e+17
19073.0	7.175624765123241e+17
19074.0	7.174314096852991e+17
19075.0	7.172957387707732e+17
19076.0	7.171500503203837e+17
19077.0	7.170174005630291e+17
19078.0	7.168670034471594e+17
19079.0	7.167502796019028e+17
19080.0	7.166076626403327e+17
19081.0	7.164607888796329e+17
19082.0	7.163227813183487e+17
19083.0	7.161510128254973e+17
19084.0	7.15953591549952e+17
19085.0	7.159303886602237e+17
19086.0	7.156086661098156e+17
19087.0	7.155467534292308e+17
19088.0	7.154806748261033e+17
19089.0	7.152457708732416e+17
19090.0	7.152407428814164e+17
19091.0	7.151066706957654e+17
19092.0	7.149330810361172e+17
19093.0	7.148489013548372e+17
19094.0	7.147141594786474e+17
19095.0	7.145793576239101e+17
19096.0	7.144363617768787e+17
19097.0	7.143071760951978e+17
19098.0	7.141705358770175e+17
19099.0	7.140339875140948e+17
19100.0	7.138934698016768e+17
19101.0	7.137616972130985e+17
19102.0	7.135836161529171e+17
19103.0	7.134906537388713e+17
19104.0	7.133584364142591e+17
19105.0	7.132195765704019e+17
19106.0	7.13064644153617e+17
19107.0	7.129404158596436e+17
19108.0	7.128134100975615e+17
19109.0	7.123374710980602e+17
19110.0	7.125264391733247e+17
19111.0	7.124059519188991e+17
19112.0	7.122715876698794e+17
19113.0	7.121350893589844e+17
19114.0	7.119971574349823e+17
19115.0	7.118344455629481e+17
19116.0	7.117167782789119e+17
19117.0	7.115782812423506e+17
19118.0	7.11399273660416e+17
19119.0	7.097485347170966e+17
19120.0	7.111449031038292e+17
19121.0	7.11024259961105e+17
19122.0	7.109135973045587e+17
19123.0	7.107757199065087e+17
19124.0	7.106216751442602e+17
19125.0	7.105006054408191e+17
19126.0	7.103660468557139e+17
19127.0	7.094002553716735e+17
19128.0	7.099412492845053e+17
19129.0	7.099212441321471e+17
19130.0	7.098145583748438e+17
19131.0	7.096839662032211e+17
19132.0	7.095519026697555e+17
19133.0	7.093029401089366e+17
19134.0	7.092131764109311e+17
19135.0	7.091428860275369e+17
19136.0	7.090111250431999e+17
19137.0	7.087974817376936e+17
19138.0	7.087258206557526e+17
19139.0	7.086020569508522e+17
19140.0	7.084677308699987e+17
19141.0	7.083316490534911e+17
19142.0	7.081825809727487e+17
19143.0	7.080320008454144e+17
19144.0	7.079023410675711e+17
19145.0	7.077843364216832e+17
19146.0	7.073640034074625e+17
19147.0	7.074636479070207e+17
19148.0	7.073760704200704e+17
19149.0	7.072386850138794e+17
19150.0	7.071022663947604e+17
19151.0	7.069685187084287e+17
19152.0	7.068369751288492e+17
19153.0	7.067010040419667e+17
19154.0	7.065123137694377e+17
19155.0	7.064373060523347e+17
19156.0	7.063003560148991e+17
19157.0	7.06153400045841e+17
19158.0	7.057946497602897e+17
19159.0	7.058808962547711e+17
19160.0	7.057450129686527e+17
19161.0	7.056037186109439e+17
19162.0	7.049525898248196e+17
19163.0	7.05322809434658e+17
19164.0	7.0521180927645e+17
19165.0	7.050618960434516e+17
19166.0	7.048765993822889e+17
19167.0	7.04752683983394e+17
19168.0	7.046450265456639e+17
19169.0	7.045091705225215e+17
19170.0	7.043939144040447e+17
19171.0	7.042263662198783e+17
19172.0	7.041162882493097e+17
19173.0	7.039846811959293e+17
19174.0	7.038210279822676e+17
19175.0	7.037132870778879e+17
19176.0	7.035749109071871e+17
19177.0	7.033658672152575e+17
19178.0	7.032887863934975e+17
19179.0	7.031249561103017e+17
19180.0	7.030150748525908e+17
19181.0	7.028453784158207e+17
19182.0	7.027414033672873e+17
19183.0	7.026192948745555e+17
19184.0	7.024646938077865e+17
19185.0	7.023404400683689e+17
19186.0	7.022104237746857e+17
19187.0	7.020343347991891e+17
19188.0	7.019342251513172e+17
19189.0	7.0179480417949e+17
19190.0	7.016555775437481e+17
19191.0	7.015069284739753e+17
19192.0	7.013886650395304e+17
19193.0	7.012433710634323e+17
19194.0	7.011035666623145e+17
19195.0	7.009749017034751e+17
19196.0	7.00829598220288e+17
19197.0	7.006921855511209e+17
19198.0	7.005371867944275e+17
19199.0	6.973427534178977e+17
19200.0	6.98075661065695e+17
19201.0	7.001299164506793e+17
19202.0	7.000120985911295e+17
19203.0	6.998717941590697e+17
19204.0	6.997302337426772e+17
19205.0	6.99599955235089e+17
19206.0	6.994588244552361e+17
19207.0	6.992773293714089e+17
19208.0	6.991013179206312e+17
19209.0	6.990493774774272e+17
19210.0	6.989139896784211e+17
19211.0	6.987830007256403e+17
19212.0	6.986440377019049e+17
19213.0	6.984456189509631e+17
19214.0	6.982806309000532e+17
19215.0	6.982188842440019e+17
19216.0	6.980916689065299e+17
19217.0	6.979518049462953e+17
19218.0	6.974192075407354e+17
19219.0	6.976008275449171e+17
19220.0	6.975281251571028e+17
19221.0	6.972461078457002e+17
19222.0	6.972591665315839e+17
19223.0	6.971144063505748e+17
19224.0	6.969614057603071e+17
19225.0	6.967745835608745e+17
19226.0	6.966977726425769e+17
19227.0	6.965586802944681e+17
19228.0	6.964327029058217e+17
19229.0	6.962940459264681e+17
19230.0	6.961460537546068e+17
19231.0	6.960063400902655e+17
19232.0	6.958698100424703e+17
19233.0	6.957023598652074e+17
19234.0	6.955857299723603e+17
19235.0	6.954406637469695e+17
19236.0	6.953196809355264e+17
19237.0	6.951709823729661e+17
19238.0	6.949931607304873e+17
19239.0	6.949011921567743e+17
19240.0	6.947243078014291e+17
19241.0	6.945975296502441e+17
19242.0	6.944701995985578e+17
19243.0	6.94254380008516e+17
19244.0	6.942010456582825e+17
19245.0	6.940579638280191e+17
19246.0	6.93910829670946e+17
19247.0	6.93773834335027e+17
19248.0	6.936379913841322e+17
19249.0	6.934947589084499e+17
19250.0	6.933464687312895e+17
19251.0	6.931448109989887e+17
19252.0	6.92937504797491e+17
19253.0	6.929203352043519e+17
19254.0	6.927848250714793e+17
19255.0	6.925607914263891e+17
19256.0	6.924793668435967e+17
19257.0	6.923626179723263e+17
19258.0	6.922213148065791e+17
19259.0	6.920451966107647e+17
19260.0	6.918626296725501e+17
19261.0	6.917860165156863e+17
19262.0	6.916215173808128e+17
19263.0	6.914756155801597e+17
19264.0	6.911097279873019e+17
19265.0	6.911284919752019e+17
19266.0	6.909994528145408e+17
19267.0	6.90933184139537e+17
19268.0	6.90785337090594e+17
19269.0	6.906406991735466e+17
19270.0	6.904976496394239e+17
19271.0	6.901929966480045e+17
19272.0	6.901896424630953e+17
19273.0	6.889998748658337e+17
19274.0	6.892539147015501e+17
19275.0	6.897719538876415e+17
19276.0	6.896168808917674e+17
19277.0	6.894716691240276e+17
19278.0	6.893270292496383e+17
19279.0	6.89164644323601e+17
19280.0	6.889925920161792e+17
19281.0	6.888824760871593e+17
19282.0	6.887425661293908e+17
19283.0	6.885477278460585e+17
19284.0	6.883827766351187e+17
19285.0	6.882002957500413e+17
19286.0	6.881310414296403e+17
19287.0	6.880005118230527e+17
19288.0	6.867384839875228e+17
19289.0	6.853911417017652e+17
19290.0	6.875519442223103e+17
19291.0	6.872728949402284e+17
19292.0	6.87250199421474e+17
19293.0	6.870963569644884e+17
19294.0	6.869429758809427e+17
19295.0	6.867784220803071e+17
19296.0	6.86593911431714e+17
19297.0	6.864289397385897e+17
19298.0	6.862757543193258e+17
19299.0	6.861363051757565e+17
19300.0	6.859812003730772e+17
19301.0	6.858243738086057e+17
19302.0	6.856617890938879e+17
19303.0	6.854796952032596e+17
19304.0	6.853394780826281e+17
19305.0	6.851925835601236e+17
19306.0	6.850384219865087e+17
19307.0	6.848593530279252e+17
19308.0	6.847088474193919e+17
19309.0	6.84453353768004e+17
19310.0	6.842491476464979e+17
19311.0	6.842195591386452e+17
19312.0	6.840820170052948e+17
19313.0	6.839213056764588e+17
19314.0	6.814555864126824e+17
19315.0	6.81393144410933e+17
19316.0	6.834285461897215e+17
19317.0	6.832729072424276e+17
19318.0	6.831063566035625e+17
19319.0	6.829481650727594e+17
19320.0	6.827824852413098e+17
19321.0	6.826161615841961e+17
19322.0	6.823991819195731e+17
19323.0	6.822295077126144e+17
19324.0	6.821052339104425e+17
19325.0	6.818448485122047e+17
19326.0	6.817667438608383e+17
19327.0	6.815928014602239e+17
19328.0	6.814273556010324e+17
19329.0	6.812555441165652e+17
19330.0	6.810629496460627e+17
19331.0	6.808840992107178e+17
19332.0	6.807255412375551e+17
19333.0	6.805418419770708e+17
19334.0	6.803698393022464e+17
19335.0	6.801900348724563e+17
19336.0	6.800089509702314e+17
19337.0	6.798274660226388e+17
19338.0	6.795449177822546e+17
19339.0	6.794599768347988e+17
19340.0	6.792438944017065e+17
19341.0	6.790753558025555e+17
19342.0	6.787116690309115e+17
19343.0	6.787078926893055e+17
19344.0	6.785125366890495e+17
19345.0	6.774634722623474e+17
19346.0	6.776366238269434e+17
19347.0	6.778280984881833e+17
19348.0	6.7766470588061e+17
19349.0	6.774488616839849e+17
19350.0	6.772523688875348e+17
19351.0	6.770469959106559e+17
19352.0	6.768247860188499e+17
19353.0	6.766576864154964e+17
19354.0	6.764510125053268e+17
19355.0	6.761948481847296e+17
19356.0	6.760305758917972e+17
19357.0	6.758165723654825e+17
19358.0	6.755887362342911e+17
19359.0	6.7532745094813e+17
19360.0	6.751424220932778e+17
19361.0	6.749264438187347e+17
19362.0	6.747210497305257e+17
19363.0	6.744395225235455e+17
19364.0	6.741464734236671e+17
19365.0	6.739118661479082e+17
19366.0	6.736775619106131e+17
19367.0	6.734392471497385e+17
19368.0	6.731981970036052e+17
19369.0	6.729107689701373e+17
19370.0	6.725876768396627e+17
19371.0	6.72430865654306e+17
19372.0	6.722021968139604e+17
19373.0	6.718466160241321e+17
19374.0	6.715172545975636e+17
19375.0	6.712552264302591e+17
19376.0	6.709885865558015e+17
19377.0	6.707116672811007e+17
19378.0	6.704356118233087e+17
19379.0	6.701488169200297e+17
19380.0	6.696590404222976e+17
19381.0	6.693517343937876e+17
19382.0	6.690242620817407e+17
19383.0	6.687045730697215e+17
19384.0	6.6841921716224e+17
19385.0	6.678535208260948e+17
19386.0	6.675316621006164e+17
19387.0	6.672006438540628e+17
19388.0	6.667181920791206e+17
19389.0	6.661700918269268e+17
19390.0	6.658125939605503e+17
19391.0	6.623824479693444e+17
19392.0	6.645592473556303e+17
19393.0	6.642639262711807e+17
19394.0	6.634124678092114e+17
19395.0	6.629412687926612e+17
19396.0	6.620684077061463e+17
19397.0	6.614911626335572e+17
19398.0	6.603867901569709e+17
19399.0	6.594509592854524e+17
19400.0	6.58938856018193e+17
19401.0	6.584460709462015e+17
19402.0	6.579127443608915e+17
19403.0	6.573530502834857e+17
19404.0	6.567938586836991e+17
19405.0	6.561799358207316e+17
19406.0	6.555628056434003e+17
19407.0	6.549458443567104e+17
19408.0	6.539969571760814e+17
19409.0	6.53628635488802e+17
19410.0	6.529603436806143e+17
19411.0	6.522550631443114e+17
19412.0	6.515049287909376e+17
19413.0	6.506916747061929e+17
19414.0	6.498935236810067e+17
19415.0	6.490950262063103e+17
19416.0	6.481601977734483e+17
19417.0	6.472516716112553e+17
19418.0	6.464204473805482e+17
19419.0	6.454031250270888e+17
19420.0	6.444123442293417e+17
19421.0	6.432428042922669e+17
19422.0	6.420491652126039e+17
19423.0	6.407139050389501e+17
19424.0	6.391928330736983e+17
19425.0	6.374512815767548e+17
19426.0	6.354257639549606e+17
19427.0	6.330668714470061e+17
19428.0	6.299877065621494e+17
19429.0	6.272285622490449e+17
19430.0	6.251927499177987e+17
19431.0	6.227643470271834e+17
19432.0	6.211539235941033e+17
19433.0	6.189813212381184e+17
19434.0	6.165909915129172e+17
19435.0	6.140274450016934e+17
19436.0	6.111758264216232e+17
19437.0	6.08389517488947e+17
19438.0	6.01654424012938e+17
19439.0	6.006673394455892e+17
19440.0	5.957221228391086e+17
19441.0	5.893370887012353e+17
19442.0	5.836635149172737e+17
19443.0	5.779384211690839e+17
19444.0	5.71369725799082e+17
19445.0	5.63375071227631e+17
19446.0	5.530239954321407e+17
19447.0	5.4078761878596186e+17
19448.0	5.262559826761053e+17
19449.0	5.0628928118019405e+17
19450.0	4.7741632368693984e+17
19451.0	4.686579550038702e+17
19452.0	4.922212235957594e+17
19453.0	5.171564500746248e+17
19454.0	5.3370041523677786e+17
19455.0	5.4647996515614694e+17
19456.0	5.5768886378059104e+17
19457.0	5.66555510728294e+17
19458.0	5.705563841931982e+17
19459.0	5.791771012715873e+17
19460.0	5.845463095836671e+17
19461.0	5.906890038269267e+17
19462.0	5.962126234135209e+17
19463.0	6.005319574487037e+17
19464.0	6.040447202536106e+17
19465.0	6.069559422702934e+17
19466.0	6.094920400677544e+17
19467.0	6.119157721115305e+17
19468.0	6.141244185684652e+17
19469.0	6.160070474377896e+17
19470.0	6.180374668028586e+17
19471.0	6.198566119451308e+17
19472.0	6.216192884036948e+17
19473.0	6.235485869441021e+17
19474.0	6.264893892897443e+17
19475.0	6.286512515710979e+17
19476.0	6.308264950104058e+17
19477.0	6.32446981767168e+17
19478.0	6.337894231485101e+17
19479.0	6.349368619696125e+17
19480.0	6.359681290556756e+17
19481.0	6.369289058298536e+17
19482.0	6.376986084988244e+17
19483.0	6.385209582813184e+17
19484.0	6.391843728829097e+17
19485.0	6.39806290998067e+17
19486.0	6.40500478439151e+17
19487.0	6.410811751443113e+17
19488.0	6.416311803095721e+17
19489.0	6.421156540885674e+17
19490.0	6.421864347860987e+17
19491.0	6.431723122327551e+17
19492.0	6.436339440418815e+17
19493.0	6.440550186090495e+17
19494.0	6.444540007983785e+17
19495.0	6.44831387984418e+17
19496.0	6.450409758173865e+17
19497.0	6.455554930464084e+17
19498.0	6.454234614595583e+17
19499.0	6.417070685508941e+17
19500.0	6.464985644750164e+17
19501.0	6.467784336037203e+17
19502.0	6.470934751870977e+17
19503.0	6.476564745857706e+17
19504.0	6.482221828756818e+17
19505.0	6.487345043166548e+17
19506.0	6.493175244565161e+17
19507.0	6.496482242854911e+17
19508.0	6.500856277674668e+17
19509.0	6.50433048748578e+17
19510.0	6.504851131334652e+17
19511.0	6.463121203920882e+17
19512.0	6.503529663430651e+17
19513.0	6.49888075350014e+17
19514.0	6.506594453247302e+17
19515.0	6.515666602775896e+17
19516.0	6.518657143625044e+17
19517.0	6.519637992800252e+17
19518.0	6.522693692861098e+17
19519.0	6.523184873821524e+17
19520.0	6.523529698039123e+17
19521.0	6.524084288487423e+17
19522.0	6.524729545108137e+17
19523.0	6.526819532537855e+17
19524.0	6.527066104485204e+17
19525.0	6.527229278988969e+17
19526.0	6.527538651551059e+17
19527.0	6.527643968427348e+17
19528.0	6.527740051543379e+17
19529.0	6.528331166689961e+17
19530.0	6.529406649150121e+17
19531.0	6.529426744060585e+17
19532.0	6.5293653128861e+17
19533.0	6.529319675363328e+17
19534.0	6.529196866841257e+17
19535.0	6.528997645090815e+17
19536.0	6.528748676098729e+17
19537.0	6.528732079936852e+17
19538.0	6.527938005215916e+17
19539.0	6.52592165997773e+17
19540.0	6.528772347352406e+17
19541.0	6.528789244805119e+17
19542.0	6.52844799762978e+17
19543.0	6.528085978163882e+17
19544.0	6.527745333570217e+17
19545.0	6.525055169200125e+17
19546.0	6.52302967828207e+17
19547.0	6.526539443907242e+17
19548.0	6.526078524850175e+17
19549.0	6.525144960161107e+17
19550.0	6.525140386971647e+17
19551.0	6.524650910995796e+17
19552.0	6.524125066209961e+17
19553.0	6.523470782747988e+17
19554.0	6.52285114913041e+17
19555.0	6.522397198909439e+17
19556.0	6.521873365292372e+17
19557.0	6.521264755703808e+17
19558.0	6.520645054278313e+17
19559.0	6.520000306566484e+17
19560.0	6.519903980180819e+17
19561.0	6.519315336877395e+17
19562.0	6.51875568390417e+17
19563.0	6.518113001887059e+17
19564.0	6.517413390581759e+17
19565.0	6.516709835232598e+17
19566.0	6.515850425838249e+17
19567.0	6.515274123575295e+17
19568.0	6.514394445206867e+17
19569.0	6.513682808132948e+17
19570.0	6.513029809526099e+17
19571.0	6.51223995777024e+17
19572.0	6.5113175373469e+17
19573.0	6.510585001454249e+17
19574.0	6.509471266242559e+17
19575.0	6.509083799934291e+17
19576.0	6.508274323729065e+17
19577.0	6.507319528172202e+17
19578.0	6.506418432988499e+17
19579.0	6.505651756859391e+17
19580.0	6.504803444195327e+17
19581.0	6.504020507448662e+17
19582.0	6.503232998910633e+17
19583.0	6.502362675937279e+17
19584.0	6.501426376562003e+17
19585.0	6.500071175269033e+17
19586.0	6.499007277476524e+17
19587.0	6.498606861254655e+17
19588.0	6.495701589906775e+17
19589.0	6.496860427168425e+17
19590.0	6.49566730986018e+17
19591.0	6.495122868928511e+17
19592.0	6.494229798147412e+17
19593.0	6.493199886800212e+17
19594.0	6.491233066505555e+17
19595.0	6.491171179550036e+17
19596.0	6.487138675021143e+17
19597.0	6.489300155061588e+17
19598.0	6.487071165601108e+17
19599.0	6.487567219643732e+17
19600.0	6.486631598347604e+17
19601.0	6.485335852012884e+17
19602.0	6.484412167006889e+17
19603.0	6.4814033970135e+17
19604.0	6.482375250804736e+17
19605.0	6.480281192802986e+17
19606.0	6.48069161034274e+17
19607.0	6.479711897124863e+17
19608.0	6.478646930483882e+17
19609.0	6.477456711439699e+17
19610.0	6.476711681414483e+17
19611.0	6.475655172587519e+17
19612.0	6.474701038332584e+17
19613.0	6.473628427572563e+17
19614.0	6.47245511856401e+17
19615.0	6.471613235068927e+17
19616.0	6.470325678112767e+17
19617.0	6.469551262094676e+17
19618.0	6.465838329277093e+17
19619.0	6.464281838441807e+17
19620.0	6.463326306784595e+17
19621.0	6.465368844752212e+17
19622.0	6.464361876946943e+17
19623.0	6.463325376348159e+17
19624.0	6.462225571119104e+17
19625.0	6.46121948132147e+17
19626.0	6.460108751328596e+17
19627.0	6.459093332699817e+17
19628.0	6.457227736339798e+17
19629.0	6.456492536365055e+17
19630.0	6.453151465646761e+17
19631.0	6.422250524420783e+17
19632.0	6.453679037087743e+17
19633.0	6.452453194421588e+17
19634.0	6.451628875273556e+17
19635.0	6.450359288113833e+17
19636.0	6.449424693723136e+17
19637.0	6.446799386574847e+17
19638.0	6.447659899071146e+17
19639.0	6.44654274060834e+17
19640.0	6.445002103543126e+17
19641.0	6.441346824230234e+17
19642.0	6.44332857205282e+17
19643.0	6.442201472390484e+17
19644.0	6.440889159953065e+17
19645.0	6.43882420482867e+17
19646.0	6.439016048798377e+17
19647.0	6.437927927502164e+17
19648.0	6.43680877884211e+17
19649.0	6.435695411331071e+17
19650.0	6.434630118233428e+17
19651.0	6.433503485536937e+17
19652.0	6.432383470753107e+17
19653.0	6.431304755183615e+17
19654.0	6.43016320684305e+17
19655.0	6.429037635305472e+17
19656.0	6.427970012271955e+17
19657.0	6.426860225997481e+17
19658.0	6.425777985115475e+17
19659.0	6.424663183851519e+17
19660.0	6.423572755688105e+17
19661.0	6.422437652594687e+17
19662.0	6.421346403745792e+17
19663.0	6.419982495776767e+17
19664.0	6.418951670770345e+17
19665.0	6.418001080702292e+17
