# Flux units: erg / (cm m2 s)
# Wavelength units: Angstrom
wave	flux
19000.0	6.047118744966484e+17
19001.0	6.045451014897663e+17
19002.0	6.044885050895018e+17
19003.0	6.043739377456468e+17
19004.0	6.042612156858367e+17
19005.0	6.041472437234345e+17
19006.0	6.04034792825378e+17
19007.0	6.039087501453994e+17
19008.0	6.037761020657663e+17
19009.0	6.036059323716948e+17
19010.0	6.033497378521087e+17
19011.0	6.03445416497425e+17
19012.0	6.032889157604691e+17
19013.0	6.032438337732607e+17
19014.0	6.031001328637267e+17
19015.0	6.029993128405673e+17
19016.0	6.028776692165289e+17
19017.0	6.027797777962324e+17
19018.0	6.026741550153727e+17
19019.0	6.02560796889361e+17
19020.0	6.024405485005482e+17
19021.0	6.023390679444138e+17
19022.0	6.022281353844052e+17
19023.0	6.020976159839572e+17
19024.0	6.019954108618068e+17
19025.0	6.018870025038506e+17
19026.0	6.01764399083247e+17
19027.0	6.016332545916927e+17
19028.0	6.015552580135593e+17
19029.0	6.014342946357247e+17
19030.0	6.013355828794708e+17
19031.0	6.012269582352383e+17
19032.0	6.011115840471039e+17
19033.0	6.009480286306303e+17
19034.0	6.00880177095202e+17
19035.0	6.007266492809213e+17
19036.0	5.976404976642734e+17
19037.0	6.005362336115369e+17
19038.0	6.004257678775635e+17
19039.0	6.003249005985791e+17
19040.0	6.002153284610729e+17
19041.0	6.000947920633855e+17
19042.0	5.999411160503636e+17
19043.0	5.998771111111337e+17
19044.0	5.997597477743274e+17
19045.0	5.996528758598314e+17
19046.0	5.995055668701865e+17
19047.0	5.994032791202473e+17
19048.0	5.992082601323176e+17
19049.0	5.991623352298153e+17
19050.0	5.990645892819625e+17
19051.0	5.985707877903016e+17
19052.0	5.987305328214013e+17
19053.0	5.987523008397311e+17
19054.0	5.986332358737919e+17
19055.0	5.983879849224874e+17
19056.0	5.984061100479828e+17
19057.0	5.983027404472319e+17
19058.0	5.981848061258409e+17
19059.0	5.980799281834665e+17
19060.0	5.979600524585642e+17
19061.0	5.978606406729728e+17
19062.0	5.977453488330068e+17
19063.0	5.97634554335505e+17
19064.0	5.974471550697471e+17
19065.0	5.973126337440425e+17
19066.0	5.972711980750164e+17
19067.0	5.971770737688575e+17
19068.0	5.97074476409378e+17
19069.0	5.969636324190889e+17
19070.0	5.968372555229866e+17
19071.0	5.967381049027242e+17
19072.0	5.966281472387754e+17
19073.0	5.965141457065299e+17
19074.0	5.964072085706068e+17
19075.0	5.962956656694612e+17
19076.0	5.96173407719697e+17
19077.0	5.960605364125695e+17
19078.0	5.95936664494626e+17
19079.0	5.958446102173012e+17
19080.0	5.957243871341225e+17
19081.0	5.956034831056895e+17
19082.0	5.954886097174527e+17
19083.0	5.953392650922665e+17
19084.0	5.951600006092116e+17
19085.0	5.951699958453588e+17
19086.0	5.948695615548074e+17
19087.0	5.948485180325887e+17
19088.0	5.947863441866751e+17
19089.0	5.945978297952938e+17
19090.0	5.946038998619475e+17
19091.0	5.944899852217001e+17
19092.0	5.943501048337748e+17
19093.0	5.942843870806015e+17
19094.0	5.941737909736788e+17
19095.0	5.940635745211732e+17
19096.0	5.93943573176866e+17
19097.0	5.938381157214889e+17
19098.0	5.937267702322515e+17
19099.0	5.936143119941631e+17
19100.0	5.934986910411434e+17
19101.0	5.93386421686545e+17
19102.0	5.932286648953513e+17
19103.0	5.931695587633833e+17
19104.0	5.930621483701588e+17
19105.0	5.929468990324735e+17
19106.0	5.928229487509503e+17
19107.0	5.927167745589247e+17
19108.0	5.926164614873087e+17
19109.0	5.92276229473348e+17
19110.0	5.923721238457001e+17
19111.0	5.922825609849514e+17
19112.0	5.921720036054356e+17
19113.0	5.920601578056361e+17
19114.0	5.919461078990847e+17
19115.0	5.918084807611732e+17
19116.0	5.917148079718399e+17
19117.0	5.915988778986154e+17
19118.0	5.914026866726231e+17
19119.0	5.887735109779438e+17
19120.0	5.912513787636393e+17
19121.0	5.911524589699072e+17
19122.0	5.910624094300842e+17
19123.0	5.909494896088403e+17
19124.0	5.908275698597887e+17
19125.0	5.907238727538004e+17
19126.0	5.906130520418986e+17
19127.0	5.894962642856621e+17
19128.0	5.90272677561412e+17
19129.0	5.902448273828521e+17
19130.0	5.901578668081151e+17
19131.0	5.900578163698345e+17
19132.0	5.899485669840212e+17
19133.0	5.897130306000212e+17
19134.0	5.89681300340736e+17
19135.0	5.896171168639657e+17
19136.0	5.89510135058705e+17
19137.0	5.893113171498324e+17
19138.0	5.892713171910655e+17
19139.0	5.891768647505236e+17
19140.0	5.890682487046143e+17
19141.0	5.889564623940265e+17
19142.0	5.888329681731583e+17
19143.0	5.887049982803967e+17
19144.0	5.885994920312831e+17
19145.0	5.885104508021417e+17
19146.0	5.880907286882986e+17
19147.0	5.88206190956817e+17
19148.0	5.881800611419476e+17
19149.0	5.880676189121193e+17
19150.0	5.879562095296511e+17
19151.0	5.878480807220563e+17
19152.0	5.877330487891284e+17
19153.0	5.876204128523604e+17
19154.0	5.874472496835241e+17
19155.0	5.874084462897833e+17
19156.0	5.872982094949034e+17
19157.0	5.871800015650815e+17
19158.0	5.869073409769471e+17
19159.0	5.869580756975615e+17
19160.0	5.868473194381312e+17
19161.0	5.867356158951423e+17
19162.0	5.862752260194304e+17
19163.0	5.864915369022803e+17
19164.0	5.864162839582035e+17
19165.0	5.862937490445652e+17
19166.0	5.861222029197311e+17
19167.0	5.860497737908223e+17
19168.0	5.859490702295039e+17
19169.0	5.85841816703249e+17
19170.0	5.857545744110932e+17
19171.0	5.856202848206847e+17
19172.0	5.855299499283795e+17
19173.0	5.854235414145705e+17
19174.0	5.852802226061312e+17
19175.0	5.852028906154665e+17
19176.0	5.850919134560255e+17
19177.0	5.848973448664403e+17
19178.0	5.848614447000234e+17
19179.0	5.847331970744319e+17
19180.0	5.84639427256866e+17
19181.0	5.844855522940244e+17
19182.0	5.844067165754707e+17
19183.0	5.843208314901844e+17
19184.0	5.841909155102719e+17
19185.0	5.84094461338146e+17
19186.0	5.839920531417769e+17
19187.0	5.838430080598015e+17
19188.0	5.837683871973375e+17
19189.0	5.836591645851645e+17
19190.0	5.835475965881001e+17
19191.0	5.834249595431593e+17
19192.0	5.833313888152233e+17
19193.0	5.832159238903124e+17
19194.0	5.831027459096576e+17
19195.0	5.830004905257641e+17
19196.0	5.828841614344191e+17
19197.0	5.827779738206207e+17
19198.0	5.826701812563967e+17
19199.0	5.804407690100728e+17
19200.0	5.808508557590534e+17
19201.0	5.823417838206975e+17
19202.0	5.822346086580223e+17
19203.0	5.821195833660756e+17
19204.0	5.820008060594858e+17
19205.0	5.818963958519126e+17
19206.0	5.817792279696723e+17
19207.0	5.816083193091412e+17
19208.0	5.814675481908563e+17
19209.0	5.814575101728084e+17
19210.0	5.81349321876002e+17
19211.0	5.812461916301993e+17
19212.0	5.811353996492799e+17
19213.0	5.809706093598035e+17
19214.0	5.808287728183978e+17
19215.0	5.807983497838592e+17
19216.0	5.806945834718548e+17
19217.0	5.805834128151892e+17
19218.0	5.800021820353189e+17
19219.0	5.802823897841663e+17
19220.0	5.802442530051412e+17
19221.0	5.799758140538879e+17
19222.0	5.800167970876073e+17
19223.0	5.799148776674643e+17
19224.0	5.797863674085375e+17
19225.0	5.796211257420457e+17
19226.0	5.795862287133354e+17
19227.0	5.794764699992063e+17
19228.0	5.793771305653588e+17
19229.0	5.792683387082068e+17
19230.0	5.791499843272704e+17
19231.0	5.790410507725482e+17
19232.0	5.789289751947945e+17
19233.0	5.787910051026259e+17
19234.0	5.787054216577023e+17
19235.0	5.785915562306217e+17
19236.0	5.785001757682345e+17
19237.0	5.783800242678441e+17
19238.0	5.782305877874003e+17
19239.0	5.781696179164499e+17
19240.0	5.780187043419476e+17
19241.0	5.779222928818175e+17
19242.0	5.778231437994666e+17
19243.0	5.776432669480276e+17
19244.0	5.776224787890175e+17
19245.0	5.775102462743892e+17
19246.0	5.773924881836714e+17
19247.0	5.772862113710077e+17
19248.0	5.771833603959465e+17
19249.0	5.770695488656723e+17
19250.0	5.769519923811668e+17
19251.0	5.767609477758976e+17
19252.0	5.766023563881129e+17
19253.0	5.766188532847956e+17
19254.0	5.765158060862122e+17
19255.0	5.763241013673982e+17
19256.0	5.7626222454811296e+17
19257.0	5.761902693755561e+17
19258.0	5.760809666521769e+17
19259.0	5.7593705211275936e+17
19260.0	5.7579117394001914e+17
19261.0	5.7574105676076365e+17
19262.0	5.7560818903941114e+17
19263.0	5.75474611921442e+17
19264.0	5.7511911522740864e+17
19265.0	5.7518618746115386e+17
19266.0	5.750915354416469e+17
19267.0	5.750887118361941e+17
19268.0	5.7497425347433805e+17
19269.0	5.748637329347924e+17
19270.0	5.7474747102221645e+17
19271.0	5.744540236731735e+17
19272.0	5.7451298412298234e+17
19273.0	5.731308349860516e+17
19274.0	5.734401538610509e+17
19275.0	5.742021620094292e+17
19276.0	5.7408028685981005e+17
19277.0	5.739709228296874e+17
19278.0	5.738604892520447e+17
19279.0	5.73736214471202e+17
19280.0	5.7359378660283725e+17
19281.0	5.735232717542741e+17
19282.0	5.734235792299349e+17
19283.0	5.7327445851067725e+17
19284.0	5.731514607555924e+17
19285.0	5.7298044493059405e+17
19286.0	5.7295713249962656e+17
19287.0	5.728647182112083e+17
19288.0	5.7169017999196045e+17
19289.0	5.7086395033845645e+17
19290.0	5.725315350746453e+17
19291.0	5.7227795157920435e+17
19292.0	5.7230107743354874e+17
19293.0	5.7219051620925434e+17
19294.0	5.720772018438143e+17
19295.0	5.719701965504511e+17
19296.0	5.7185351898234874e+17
19297.0	5.7172829572956154e+17
19298.0	5.7161640316327245e+17
19299.0	5.715184398805673e+17
19300.0	5.714037165785087e+17
19301.0	5.712896589124947e+17
19302.0	5.7116347250769914e+17
19303.0	5.7102547641084576e+17
19304.0	5.7092788802901325e+17
19305.0	5.7082647870614176e+17
19306.0	5.707184958603262e+17
19307.0	5.705810278962517e+17
19308.0	5.704742589519188e+17
19309.0	5.7029275212404045e+17
19310.0	5.701476436060842e+17
19311.0	5.7012102913938765e+17
19312.0	5.7002949334794234e+17
19313.0	5.6991300738962765e+17
19314.0	5.670841371066391e+17
19315.0	5.670516736830124e+17
19316.0	5.695653715902463e+17
19317.0	5.6945591836125856e+17
19318.0	5.693379639072085e+17
19319.0	5.692274806270635e+17
19320.0	5.691114933015892e+17
19321.0	5.6899568423403514e+17
19322.0	5.6882193358301856e+17
19323.0	5.6872232844001274e+17
19324.0	5.68601405956642e+17
19325.0	5.6841345646810445e+17
19326.0	5.683674304828756e+17
19327.0	5.682436127413589e+17
19328.0	5.681311689037141e+17
19329.0	5.6801494865455776e+17
19330.0	5.678747074166783e+17
19331.0	5.67750470804002e+17
19332.0	5.676509212355241e+17
19333.0	5.675258696695807e+17
19334.0	5.6741163835938125e+17
19335.0	5.6729043758394016e+17
19336.0	5.6716884212449274e+17
19337.0	5.670461592218281e+17
19338.0	5.668073194039977e+17
19339.0	5.668008247339689e+17
19340.0	5.6662939828660896e+17
19341.0	5.6651804727487136e+17
19342.0	5.662159479155368e+17
19343.0	5.663015308711252e+17
19344.0	5.661723987367252e+17
19345.0	5.650536006505804e+17
19346.0	5.652998552289272e+17
19347.0	5.657588732876117e+17
19348.0	5.6567079472114336e+17
19349.0	5.655227620043434e+17
19350.0	5.653955004596223e+17
19351.0	5.652609464882517e+17
19352.0	5.651092427068756e+17
19353.0	5.6501924629490336e+17
19354.0	5.6488755116113914e+17
19355.0	5.647005316896086e+17
19356.0	5.6462004166765203e+17
19357.0	5.644837374132223e+17
19358.0	5.64327814721263e+17
19359.0	5.641413814736211e+17
19360.0	5.640442512495956e+17
19361.0	5.639139738604885e+17
19362.0	5.6379462969371296e+17
19363.0	5.636514268577792e+17
19364.0	5.635069753076394e+17
19365.0	5.6336198800506874e+17
19366.0	5.6321785193649485e+17
19367.0	5.6307164674785274e+17
19368.0	5.6292407288791034e+17
19369.0	5.6271365681971174e+17
19370.0	5.6247646641192954e+17
19371.0	5.6244095072337914e+17
19372.0	5.623119861514239e+17
19373.0	5.6214358170009594e+17
19374.0	5.6199367825380685e+17
19375.0	5.6183574334450336e+17
19376.0	5.616746548778324e+17
19377.0	5.615034250035198e+17
19378.0	5.613383576103594e+17
19379.0	5.6117059852260685e+17
19380.0	5.6099743234785274e+17
19381.0	5.608209285556905e+17
19382.0	5.6060797283642016e+17
19383.0	5.6040222873354234e+17
19384.0	5.602779583567188e+17
19385.0	5.600970752917503e+17
19386.0	5.599098269510315e+17
19387.0	5.5971584213865805e+17
19388.0	5.5951796445293216e+17
19389.0	5.59321308008721e+17
19390.0	5.5911652656851616e+17
19391.0	5.5638687611180166e+17
19392.0	5.58448447481446e+17
19393.0	5.5847962821700256e+17
19394.0	5.582528854010539e+17
19395.0	5.580252197683199e+17
19396.0	5.5779569312290125e+17
19397.0	5.575655831197013e+17
19398.0	5.573051469004798e+17
19399.0	5.566322554088105e+17
19400.0	5.566673688636073e+17
19401.0	5.5648353161052154e+17
19402.0	5.562255734560084e+17
19403.0	5.559432268917417e+17
19404.0	5.556720910729216e+17
19405.0	5.5537711063586125e+17
19406.0	5.550851822540118e+17
19407.0	5.5478828599869434e+17
19408.0	5.5405239962610374e+17
19409.0	5.540909756186623e+17
19410.0	5.537119736954879e+17
19411.0	5.5337062676561914e+17
19412.0	5.530169874492074e+17
19413.0	5.52657541608243e+17
19414.0	5.522601161348437e+17
19415.0	5.5172380900720634e+17
19416.0	5.512341893764436e+17
19417.0	5.5087178948717216e+17
19418.0	5.5031335202324474e+17
19419.0	5.498104917437098e+17
19420.0	5.492145963488599e+17
19421.0	5.485828641914879e+17
19422.0	5.477797678721707e+17
19423.0	5.4703573238633754e+17
19424.0	5.4609440900382714e+17
19425.0	5.4495796072721114e+17
19426.0	5.4358426269341024e+17
19427.0	5.419194914264401e+17
19428.0	5.3994400073646086e+17
19429.0	5.3873664460499616e+17
19430.0	5.3754298315571206e+17
19431.0	5.3603081793481395e+17
19432.0	5.352189022524755e+17
19433.0	5.338936034110122e+17
19434.0	5.3248734156991136e+17
19435.0	5.308216834173609e+17
19436.0	5.2909220760125446e+17
19437.0	5.2744133451011405e+17
19438.0	5.214916217318075e+17
19439.0	5.2235201210395226e+17
19440.0	5.195216887742453e+17
19441.0	5.143287551055194e+17
19442.0	5.0866600884742835e+17
19443.0	5.044975830739626e+17
19444.0	4.9978320970492563e+17
19445.0	4.943644839291566e+17
19446.0	4.8725091030138886e+17
19447.0	4.753295551059295e+17
19448.0	4.63094508124024e+17
19449.0	4.418079515738112e+17
19450.0	3.952866034537776e+17
19451.0	3.824676240708945e+17
19452.0	4.2036179930972275e+17
19453.0	4.54773150965215e+17
19454.0	4.6903262686740435e+17
19455.0	4.812583166367082e+17
19456.0	4.90411893054942e+17
19457.0	4.9623680264000826e+17
19458.0	4.958712816293229e+17
19459.0	5.043979210282342e+17
19460.0	5.096222165565453e+17
19461.0	5.1553275055090234e+17
19462.0	5.1937881477174566e+17
19463.0	5.22016174322483e+17
19464.0	5.240411443778901e+17
19465.0	5.257753468250793e+17
19466.0	5.272376961575593e+17
19467.0	5.286996516448938e+17
19468.0	5.29986204274961e+17
19469.0	5.30903636063027e+17
19470.0	5.3220837002226336e+17
19471.0	5.332615204001109e+17
19472.0	5.34178280050961e+17
19473.0	5.3499728830136326e+17
19474.0	5.3649220717335866e+17
19475.0	5.376940311576574e+17
19476.0	5.39411314132036e+17
19477.0	5.404374565475668e+17
19478.0	5.412324142394026e+17
19479.0	5.4192495674436256e+17
19480.0	5.4247418344680083e+17
19481.0	5.428746496507903e+17
19482.0	5.434101797137066e+17
19483.0	5.4368780076537165e+17
19484.0	5.440520896293544e+17
19485.0	5.4431605577482234e+17
19486.0	5.4452416196990285e+17
19487.0	5.4479617272053766e+17
19488.0	5.4507169599105696e+17
19489.0	5.4507144880674106e+17
19490.0	5.446829335729492e+17
19491.0	5.4550082893469e+17
19492.0	5.456541718500692e+17
19493.0	5.458796354732031e+17
19494.0	5.459861880613545e+17
19495.0	5.460814976079188e+17
19496.0	5.459554703769598e+17
19497.0	5.462394501332991e+17
19498.0	5.455116410814455e+17
19499.0	5.42548568659286e+17
19500.0	5.464652716703742e+17
19501.0	5.465198524279466e+17
19502.0	5.4656547030739616e+17
19503.0	5.4660810421917005e+17
19504.0	5.466790769459199e+17
19505.0	5.467445652706644e+17
19506.0	5.4677551510978554e+17
19507.0	5.467849991301802e+17
19508.0	5.4681209957690016e+17
19509.0	5.4682041031065594e+17
19510.0	5.467099515671892e+17
19511.0	5.417321101262842e+17
19512.0	5.4591535968856774e+17
19513.0	5.454975471015244e+17
19514.0	5.458073307054072e+17
19515.0	5.4655232270226784e+17
19516.0	5.467694579755689e+17
19517.0	5.467330279986515e+17
19518.0	5.4674174851590816e+17
19519.0	5.467107653320704e+17
19520.0	5.4666770989274445e+17
19521.0	5.466537058806442e+17
19522.0	5.465987348430847e+17
19523.0	5.4658255971942394e+17
19524.0	5.4654268335281485e+17
19525.0	5.4648950013733536e+17
19526.0	5.464557583597566e+17
19527.0	5.464059667283967e+17
19528.0	5.463584003850239e+17
19529.0	5.4630619164617376e+17
19530.0	5.462612649181183e+17
19531.0	5.4621005365466445e+17
19532.0	5.4615408947582285e+17
19533.0	5.4610002000390816e+17
19534.0	5.460383282233343e+17
19535.0	5.4597181495050234e+17
19536.0	5.4589780177278285e+17
19537.0	5.458564810975913e+17
19538.0	5.456867086740139e+17
19539.0	5.454608909817174e+17
19540.0	5.456481509965823e+17
19541.0	5.4559488207749114e+17
19542.0	5.45525032165922e+17
19543.0	5.454541940763306e+17
19544.0	5.453868539663701e+17
19545.0	5.449920340645207e+17
19546.0	5.447820749657427e+17
19547.0	5.4517275404096845e+17
19548.0	5.450923029561342e+17
19549.0	5.4497450012617376e+17
19550.0	5.449486702739456e+17
19551.0	5.448743649629524e+17
19552.0	5.4479647499004576e+17
19553.0	5.4470221220194976e+17
19554.0	5.4461995302256634e+17
19555.0	5.4455386351424845e+17
19556.0	5.4448175133491194e+17
19557.0	5.4440048033355085e+17
19558.0	5.4431897361230496e+17
19559.0	5.442342228066303e+17
19560.0	5.441434757540521e+17
19561.0	5.4405976485614925e+17
19562.0	5.439884543481172e+17
19563.0	5.4391012530148685e+17
19564.0	5.43825460339234e+17
19565.0	5.4374133553343136e+17
19566.0	5.4364042638131194e+17
19567.0	5.435705605313877e+17
19568.0	5.4347072029764256e+17
19569.0	5.4338845412775245e+17
19570.0	5.433144280875006e+17
19571.0	5.432232725796181e+17
19572.0	5.431238208083286e+17
19573.0	5.430375347475796e+17
19574.0	5.429223379785044e+17
19575.0	5.4287583461157536e+17
19576.0	5.427898867515391e+17
19577.0	5.4267840243083936e+17
19578.0	5.425852438631764e+17
19579.0	5.425096304885758e+17
19580.0	5.4241849336572576e+17
19581.0	5.4233901906438816e+17
19582.0	5.4225776029641363e+17
19583.0	5.421678647574526e+17
19584.0	5.4206509564122445e+17
19585.0	5.419282761165481e+17
19586.0	5.418179223005867e+17
19587.0	5.4178984402179405e+17
19588.0	5.414438863634433e+17
19589.0	5.4160597831734605e+17
19590.0	5.414774168180052e+17
19591.0	5.4143558828250426e+17
19592.0	5.4134796990109005e+17
19593.0	5.4124586642090656e+17
19594.0	5.4104575568773114e+17
19595.0	5.4102940678007443e+17
19596.0	5.40752559927023e+17
19597.0	5.408490992435199e+17
19598.0	5.405843506506411e+17
19599.0	5.406970355209555e+17
19600.0	5.406098599182336e+17
19601.0	5.404796522244778e+17
19602.0	5.403737266148692e+17
19603.0	5.400931724165117e+17
19604.0	5.401891731144703e+17
19605.0	5.39985555943151e+17
19606.0	5.400449891609258e+17
19607.0	5.3995393529501005e+17
19608.0	5.398523207308628e+17
19609.0	5.3974026507605325e+17
19610.0	5.396737454418602e+17
19611.0	5.395758238225749e+17
19612.0	5.394884154359806e+17
19613.0	5.393884439205205e+17
19614.0	5.39278423691537e+17
19615.0	5.392029225844735e+17
19616.0	5.390905873793023e+17
19617.0	5.3901405971633485e+17
19618.0	5.385762623892133e+17
19619.0	5.3842045217450624e+17
19620.0	5.383647368577023e+17
19621.0	5.386344936592725e+17
19622.0	5.3854379938501965e+17
19623.0	5.384500873789439e+17
19624.0	5.383499826244266e+17
19625.0	5.382602328375296e+17
19626.0	5.381594537787391e+17
19627.0	5.380683704827903e+17
19628.0	5.3791638127902714e+17
19629.0	5.378284068711081e+17
19630.0	5.3741097386857766e+17
19631.0	5.3547082648125504e+17
19632.0	5.375897606204073e+17
19633.0	5.3747342202197325e+17
19634.0	5.3740244873598285e+17
19635.0	5.372870334436692e+17
19636.0	5.3720412191020365e+17
19637.0	5.369137705866579e+17
19638.0	5.3701042496689485e+17
19639.0	5.3691470822331725e+17
19640.0	5.3670838230056966e+17
19641.0	5.363093527855106e+17
19642.0	5.366338627305471e+17
19643.0	5.365340367574356e+17
19644.0	5.364038151525715e+17
19645.0	5.362018258605395e+17
19646.0	5.362565353832448e+17
19647.0	5.3616220814267725e+17
19648.0	5.3606407666838176e+17
19649.0	5.359663835687594e+17
19650.0	5.35874552078882e+17
19651.0	5.3577621543321594e+17
19652.0	5.356780513132543e+17
19653.0	5.355854649884672e+17
19654.0	5.354855057063936e+17
19655.0	5.3538613838042445e+17
19656.0	5.352952104834388e+17
19657.0	5.351994792695125e+17
19658.0	5.35106039194146e+17
19659.0	5.350101641854974e+17
