# Flux units: erg / (cm m2 s)
# Wavelength units: Angstrom
wave	flux
19000.0	5.826442907265705e+17
19001.0	5.825253538966186e+17
19002.0	5.824269493032276e+17
19003.0	5.823178311991295e+17
19004.0	5.822091471355903e+17
19005.0	5.820998575543635e+17
19006.0	5.81992083165457e+17
19007.0	5.818814608441344e+17
19008.0	5.817676934239572e+17
19009.0	5.816560760040105e+17
19010.0	5.815070398698835e+17
19011.0	5.814444121303721e+17
19012.0	5.813194931044351e+17
19013.0	5.812302086056617e+17
19014.0	5.811161800201556e+17
19015.0	5.810090986700799e+17
19016.0	5.808987570175999e+17
19017.0	5.807963230262611e+17
19018.0	5.806860217789097e+17
19019.0	5.805782243213312e+17
19020.0	5.804680404445865e+17
19021.0	5.803614997402963e+17
19022.0	5.802526593690282e+17
19023.0	5.801408000775508e+17
19024.0	5.800341207515135e+17
19025.0	5.79927189557521e+17
19026.0	5.798154390383274e+17
19027.0	5.796988828953258e+17
19028.0	5.796021987355306e+17
19029.0	5.794926225435306e+17
19030.0	5.793865586617002e+17
19031.0	5.792781673605802e+17
19032.0	5.791692240890537e+17
19033.0	5.790519979059882e+17
19034.0	5.789515899731967e+17
19035.0	5.788402164520276e+17
19036.0	5.778124661500584e+17
19037.0	5.78626355462144e+17
19038.0	5.785171974422527e+17
19039.0	5.784114185633791e+17
19040.0	5.783031703579306e+17
19041.0	5.781939822089558e+17
19042.0	5.780750223802367e+17
19043.0	5.779784946679807e+17
19044.0	5.778689871926611e+17
19045.0	5.777616108432041e+17
19046.0	5.776484072073897e+17
19047.0	5.775437377918292e+17
19048.0	5.774144809467903e+17
19049.0	5.773182081783124e+17
19050.0	5.772161159528447e+17
19051.0	5.769791191820968e+17
19052.0	5.769808099060393e+17
19053.0	5.768964404325033e+17
19054.0	5.767889219660457e+17
19055.0	5.76654117315106e+17
19056.0	5.765697067373907e+17
19057.0	5.764641388320084e+17
19058.0	5.7635361416806394e+17
19059.0	5.762476131308884e+17
19060.0	5.761385005492906e+17
19061.0	5.760331958364843e+17
19062.0	5.7592473798574086e+17
19063.0	5.758170508383573e+17
19064.0	5.756958568437075e+17
19065.0	5.755839555392853e+17
19066.0	5.754871174485332e+17
19067.0	5.753850362680662e+17
19068.0	5.7527794576042656e+17
19069.0	5.751703089446911e+17
19070.0	5.750600116819283e+17
19071.0	5.7495443867347616e+17
19072.0	5.748460852609022e+17
19073.0	5.74738826072337e+17
19074.0	5.7463168537285965e+17
19075.0	5.745239899766783e+17
19076.0	5.7441417044514125e+17
19077.0	5.743070209376255e+17
19078.0	5.7419735170198176e+17
19079.0	5.740931921739775e+17
19080.0	5.7398411622263456e+17
19081.0	5.7387396673918285e+17
19082.0	5.737660669405866e+17
19083.0	5.736529288757247e+17
19084.0	5.7353308789364045e+17
19085.0	5.734473870781098e+17
19086.0	5.733023635647145e+17
19087.0	5.73206732804369e+17
19088.0	5.7311604209527456e+17
19089.0	5.729880996752042e+17
19090.0	5.729078859180715e+17
19091.0	5.728003220832256e+17
19092.0	5.726844448582315e+17
19093.0	5.7258868372493645e+17
19094.0	5.724813103114922e+17
19095.0	5.7237397052238496e+17
19096.0	5.722649796455081e+17
19097.0	5.721591746221396e+17
19098.0	5.720512299444905e+17
19099.0	5.719438066188287e+17
19100.0	5.71835350585617e+17
19101.0	5.7172968718991354e+17
19102.0	5.716113616098643e+17
19103.0	5.7151581781142163e+17
19104.0	5.7140902656737274e+17
19105.0	5.712997105620308e+17
19106.0	5.7119032723810976e+17
19107.0	5.710855036818772e+17
19108.0	5.709796227416063e+17
19109.0	5.7080767522187936e+17
19110.0	5.707645300244479e+17
19111.0	5.7065877288605005e+17
19112.0	5.705517071248042e+17
19113.0	5.7044513167769594e+17
19114.0	5.7033827374421325e+17
19115.0	5.702252236199253e+17
19116.0	5.70122364396066e+17
19117.0	5.700154813666643e+17
19118.0	5.698989730387284e+17
19119.0	5.691602987821729e+17
19120.0	5.696885304066047e+17
19121.0	5.6958467678317216e+17
19122.0	5.694834025867945e+17
19123.0	5.693765608712873e+17
19124.0	5.692658023748949e+17
19125.0	5.6916244067341645e+17
19126.0	5.69055635238639e+17
19127.0	5.687619233688234e+17
19128.0	5.688291118546943e+17
19129.0	5.687281825699156e+17
19130.0	5.6862734681811616e+17
19131.0	5.685224302182399e+17
19132.0	5.684156935001427e+17
19133.0	5.6829691912956576e+17
19134.0	5.681956104000852e+17
19135.0	5.6809556080066554e+17
19136.0	5.6798981820252154e+17
19137.0	5.6786617137889274e+17
19138.0	5.677747531677694e+17
19139.0	5.6767011087537485e+17
19140.0	5.675637698199551e+17
19141.0	5.6745726833240723e+17
19142.0	5.673482497731242e+17
19143.0	5.672386451297621e+17
19144.0	5.671341298548735e+17
19145.0	5.670315169764692e+17
19146.0	5.668645752187563e+17
19147.0	5.668076255182847e+17
19148.0	5.6671125537204896e+17
19149.0	5.666042330218494e+17
19150.0	5.664988319798611e+17
19151.0	5.663934419828736e+17
19152.0	5.662857861529599e+17
19153.0	5.661773470367743e+17
19154.0	5.66061057511697e+17
19155.0	5.659683852036777e+17
19156.0	5.6586184254204576e+17
19157.0	5.657542584347305e+17
19158.0	5.6560398435177805e+17
19159.0	5.655413498314751e+17
19160.0	5.6543548552861005e+17
19161.0	5.653296961639763e+17
19162.0	5.6512258499761485e+17
19163.0	5.6511625984737274e+17
19164.0	5.6501288129877325e+17
19165.0	5.6490217970510496e+17
19166.0	5.647854844510207e+17
19167.0	5.646851593557332e+17
19168.0	5.6458704277121696e+17
19169.0	5.6447960784131405e+17
19170.0	5.6437665850982394e+17
19171.0	5.6426428709382816e+17
19172.0	5.6416432781175456e+17
19173.0	5.640586011519658e+17
19174.0	5.6394693011483296e+17
19175.0	5.6384689715281914e+17
19176.0	5.637413516170579e+17
19177.0	5.6361977691941536e+17
19178.0	5.6352693544113485e+17
19179.0	5.6341445231684256e+17
19180.0	5.633159246905343e+17
19181.0	5.631985851913556e+17
19182.0	5.631037572207956e+17
19183.0	5.630002912908628e+17
19184.0	5.6289309243037005e+17
19185.0	5.6278819973802656e+17
19186.0	5.626828274270207e+17
19187.0	5.6257048383324154e+17
19188.0	5.6247116033774925e+17
19189.0	5.623654436743849e+17
19190.0	5.6225922292558496e+17
19191.0	5.621504914664105e+17
19192.0	5.6204881755286176e+17
19193.0	5.619424623067134e+17
19194.0	5.618357448824149e+17
19195.0	5.617316184894122e+17
19196.0	5.6162410994947405e+17
19197.0	5.615190422847487e+17
19198.0	5.6141258798312096e+17
19199.0	5.607078666873512e+17
19200.0	5.6079173025792006e+17
19201.0	5.6109624777332045e+17
19202.0	5.609917978596694e+17
19203.0	5.606113140189867e+17
19204.0	5.605030361038847e+17
19205.0	5.6039917129564154e+17
19206.0	5.602934001063252e+17
19207.0	5.6017771945437856e+17
19208.0	5.6006074562860365e+17
19209.0	5.599775720210432e+17
19210.0	5.5987257146518176e+17
19211.0	5.5976807639285754e+17
19212.0	5.5966269338637645e+17
19213.0	5.5954485979818656e+17
19214.0	5.594350867535188e+17
19215.0	5.5934419884223136e+17
19216.0	5.5924104112373754e+17
19217.0	5.5913579380299085e+17
19218.0	5.5894475402117094e+17
19219.0	5.5891024881035936e+17
19220.0	5.588171716820992e+17
19221.0	5.586805717991424e+17
19222.0	5.586083089743871e+17
19223.0	5.585016181140138e+17
19224.0	5.5839376298475514e+17
19225.0	5.58277459059234e+17
19226.0	5.5818567230859936e+17
19227.0	5.58080216740659e+17
19228.0	5.5797744007468365e+17
19229.0	5.5787208551956474e+17
19230.0	5.577664008727209e+17
19231.0	5.576602108122453e+17
19232.0	5.5755522535587834e+17
19233.0	5.574438647671466e+17
19234.0	5.573431314961747e+17
19235.0	5.5723737191109965e+17
19236.0	5.571349977584981e+17
19237.0	5.570280606225749e+17
19238.0	5.569142966976511e+17
19239.0	5.5681927117537274e+17
19240.0	5.5671101472112634e+17
19241.0	5.566056015855615e+17
19242.0	5.5650156250398714e+17
19243.0	5.5638195395624954e+17
19244.0	5.562928263943509e+17
19245.0	5.5618699250018976e+17
19246.0	5.560803228909567e+17
19247.0	5.559768382963711e+17
19248.0	5.5587159586897914e+17
19249.0	5.557659249934335e+17
19250.0	5.5565848614884685e+17
19251.0	5.555424512879274e+17
19252.0	5.554231660511232e+17
19253.0	5.553421402068308e+17
19254.0	5.552389344635562e+17
19255.0	5.551162010894335e+17
19256.0	5.5502431311626234e+17
19257.0	5.5492317201913165e+17
19258.0	5.548176585697962e+17
19259.0	5.5470534908968954e+17
19260.0	5.5458768970492576e+17
19261.0	5.544998723736915e+17
19262.0	5.543898492086954e+17
19263.0	5.5428344719605754e+17
19264.0	5.5412669717763405e+17
19265.0	5.5405766501553485e+17
19266.0	5.539478202482688e+17
19267.0	5.538679209241257e+17
19268.0	5.537615580583254e+17
19269.0	5.536561932271614e+17
19270.0	5.535506761427625e+17
19271.0	5.534092655329279e+17
19272.0	5.5333570471089485e+17
19273.0	5.5312740124371616e+17
19274.0	5.530513382397267e+17
19275.0	5.530219312054271e+17
19276.0	5.529140168665771e+17
19277.0	5.528086547617109e+17
19278.0	5.527029370497705e+17
19279.0	5.525954921234431e+17
19280.0	5.5248280375787514e+17
19281.0	5.523842148947285e+17
19282.0	5.5227993687763616e+17
19283.0	5.521645193483604e+17
19284.0	5.52061199589922e+17
19285.0	5.51942270938863e+17
19286.0	5.516616794811045e+17
19287.0	5.514297866889898e+17
19288.0	5.5105969619380864e+17
19289.0	5.5062585787023245e+17
19290.0	5.5111028215644154e+17
19291.0	5.5097815633756154e+17
19292.0	5.508971021817173e+17
19293.0	5.507895517686441e+17
19294.0	5.5068240757391334e+17
19295.0	5.505765472556373e+17
19296.0	5.5046792212206925e+17
19297.0	5.5036055171454285e+17
19298.0	5.502525168593577e+17
19299.0	5.5014689512707405e+17
19300.0	5.500399643525119e+17
19301.0	5.499324977556138e+17
19302.0	5.498238117347326e+17
19303.0	5.4971024543143245e+17
19304.0	5.496063276351488e+17
19305.0	5.494850833787562e+17
19306.0	5.4933142029817165e+17
19307.0	5.49218802536721e+17
19308.0	5.4911269384574285e+17
19309.0	5.4898447215493114e+17
19310.0	5.4886831943406925e+17
19311.0	5.487848791386794e+17
19312.0	5.486806787162111e+17
19313.0	5.4857278416049485e+17
19314.0	5.47315559921528e+17
19315.0	5.472822312828938e+17
19316.0	5.4824228775526394e+17
19317.0	5.4799512664801254e+17
19318.0	5.4783959053107194e+17
19319.0	5.4773142544274765e+17
19320.0	5.476207576132266e+17
19321.0	5.4751014305136634e+17
19322.0	5.473914985644031e+17
19323.0	5.4727991302116685e+17
19324.0	5.4717817696201376e+17
19325.0	5.47046860923426e+17
19326.0	5.4695598503581e+17
19327.0	5.468429451875668e+17
19328.0	5.467308515044009e+17
19329.0	5.46620740468736e+17
19330.0	5.465043285398868e+17
19331.0	5.4639108547761485e+17
19332.0	5.462823105374889e+17
19333.0	5.46168729973555e+17
19334.0	5.460557215825919e+17
19335.0	5.459385029492736e+17
19336.0	5.458276040835071e+17
19337.0	5.4571280423540045e+17
19338.0	5.455769608650751e+17
19339.0	5.4548285375556256e+17
19340.0	5.453539488825343e+17
19341.0	5.4524584600971936e+17
19342.0	5.450946596656468e+17
19343.0	5.450177951301631e+17
19344.0	5.448993084888404e+17
19345.0	5.4457619874228864e+17
19346.0	5.445701506957311e+17
19347.0	5.445375739559935e+17
19348.0	5.444277016461311e+17
19349.0	5.4430422986478925e+17
19350.0	5.441839856702804e+17
19351.0	5.4406290618013005e+17
19352.0	5.4393571740658336e+17
19353.0	5.4382331551197856e+17
19354.0	5.4370089048910496e+17
19355.0	5.435676471678292e+17
19356.0	5.434532450795519e+17
19357.0	5.4332869738932896e+17
19358.0	5.4320232559629645e+17
19359.0	5.43069535469568e+17
19360.0	5.4294391760267936e+17
19361.0	5.428179309166591e+17
19362.0	5.4269319252541434e+17
19363.0	5.4256341719449594e+17
19364.0	5.424325649760255e+17
19365.0	5.4230104453502285e+17
19366.0	5.4216829746981536e+17
19367.0	5.420345747395924e+17
19368.0	5.41899787215394e+17
19369.0	5.417577804551508e+17
19370.0	5.416148770226175e+17
19371.0	5.414271180253865e+17
19372.0	5.41251162219042e+17
19373.0	5.411071890991786e+17
19374.0	5.409654086216361e+17
19375.0	5.408208936676009e+17
19376.0	5.4067479061026125e+17
19377.0	5.405255414054911e+17
19378.0	5.403760682248875e+17
19379.0	5.4022467761821e+17
19380.0	5.4007113456462496e+17
19381.0	5.399152169058302e+17
19382.0	5.3975094223612576e+17
19383.0	5.395869483051689e+17
19384.0	5.3943608065829536e+17
19385.0	5.3927221863819936e+17
19386.0	5.391059981609641e+17
19387.0	5.388300544813738e+17
19388.0	5.3862404634705914e+17
19389.0	5.3844775772269216e+17
19390.0	5.382682709415253e+17
19391.0	5.3726554476598483e+17
19392.0	5.3788425256086163e+17
19393.0	5.377117277650943e+17
19394.0	5.375182896802473e+17
19395.0	5.3717757119692774e+17
19396.0	5.369294742705491e+17
19397.0	5.3672452184255136e+17
19398.0	5.3651040884490234e+17
19399.0	5.3622057314112845e+17
19400.0	5.3590809777274906e+17
19401.0	5.3560104032665594e+17
19402.0	5.353670606585855e+17
19403.0	5.35107225133602e+17
19404.0	5.345678346332842e+17
19405.0	5.343052956696575e+17
19406.0	5.339163055707473e+17
19407.0	5.333803885133824e+17
19408.0	5.329458979056298e+17
19409.0	5.3232584863252474e+17
19410.0	5.317919440721234e+17
19411.0	5.3112032226618016e+17
19412.0	5.3019724389635386e+17
19413.0	5.292996244624729e+17
19414.0	5.2838463767401805e+17
19415.0	5.276847073219924e+17
19416.0	5.2715083358972576e+17
19417.0	5.2661468088238086e+17
19418.0	5.260556713852928e+17
19419.0	5.2545817278764365e+17
19420.0	5.248352361556649e+17
19421.0	5.24183083609839e+17
19422.0	5.234946990582441e+17
19423.0	5.227786992091135e+17
19424.0	5.2202461340194125e+17
19425.0	5.212340517601279e+17
19426.0	5.204077376613034e+17
19427.0	5.195425255172778e+17
19428.0	5.186407270886058e+17
19429.0	5.1772012202994336e+17
19430.0	5.167510566120106e+17
19431.0	5.156392121226582e+17
19432.0	5.147450528497662e+17
19433.0	5.13647983005969e+17
19434.0	5.125899907235839e+17
19435.0	5.1144521220969805e+17
19436.0	5.1018724536920723e+17
19437.0	5.088543578434219e+17
19438.0	5.0576589404678835e+17
19439.0	5.045654117504343e+17
19440.0	5.0031287361426746e+17
19441.0	4.951889772107087e+17
19442.0	4.919134605978283e+17
19443.0	4.882854369908053e+17
19444.0	4.844799309905918e+17
19445.0	4.8021584936086163e+17
19446.0	4.739234498521755e+17
19447.0	4.618109298846358e+17
19448.0	4.512941557328563e+17
19449.0	4.327373382090746e+17
19450.0	3.849219655161177e+17
19451.0	3.653945834602468e+17
19452.0	4.131671727144977e+17
19453.0	4.442243108700174e+17
19454.0	4.563945171976187e+17
19455.0	4.676120439248203e+17
19456.0	4.7683970286660243e+17
19457.0	4.8148869787156435e+17
19458.0	4.824363900250832e+17
19459.0	4.886854974657887e+17
19460.0	4.9206421499849363e+17
19461.0	4.957521745805308e+17
19462.0	5.009127324865871e+17
19463.0	5.0389401315136826e+17
19464.0	5.056973323457879e+17
19465.0	5.070579345741142e+17
19466.0	5.081435814406825e+17
19467.0	5.09148439720755e+17
19468.0	5.1001185914934605e+17
19469.0	5.1088506472802976e+17
19470.0	5.117803679973375e+17
19471.0	5.126008715171157e+17
19472.0	5.1337751086585165e+17
19473.0	5.141127046889471e+17
19474.0	5.148284774165162e+17
19475.0	5.154436742294185e+17
19476.0	5.1616104967045114e+17
19477.0	5.16777896452642e+17
19478.0	5.173535706884777e+17
19479.0	5.1788942196517536e+17
19480.0	5.183901629328042e+17
19481.0	5.188586206920703e+17
19482.0	5.192974916911103e+17
19483.0	5.197106834833407e+17
19484.0	5.200927940149247e+17
19485.0	5.2044357554230605e+17
19486.0	5.2077362944846496e+17
19487.0	5.210934409341608e+17
19488.0	5.217424620126207e+17
19489.0	5.2256447736927584e+17
19490.0	5.2305937539181274e+17
19491.0	5.2363861569481395e+17
19492.0	5.242616927660713e+17
19493.0	5.244990475905703e+17
19494.0	5.249203686430036e+17
19495.0	5.250375407894529e+17
19496.0	5.254065060227753e+17
19497.0	5.255123985672873e+17
19498.0	5.255510503369386e+17
19499.0	5.246068750374223e+17
19500.0	5.2595536516437325e+17
19501.0	5.2598883801716045e+17
19502.0	5.2614854865496755e+17
19503.0	5.2627139681320954e+17
19504.0	5.262854197695828e+17
19505.0	5.262947326623742e+17
19506.0	5.2630102272027296e+17
19507.0	5.263516572669268e+17
19508.0	5.264790409357994e+17
19509.0	5.2647056333864954e+17
19510.0	5.264368073004372e+17
19511.0	5.2440056666084595e+17
19512.0	5.2621266474325306e+17
19513.0	5.260132568356175e+17
19514.0	5.2610474579066835e+17
19515.0	5.262964670070784e+17
19516.0	5.264203940102143e+17
19517.0	5.2641286928902816e+17
19518.0	5.263835129359017e+17
19519.0	5.263442529921706e+17
19520.0	5.263008053854207e+17
19521.0	5.2626255403199136e+17
19522.0	5.2621496783557965e+17
19523.0	5.2617152400370336e+17
19524.0	5.261225863326378e+17
19525.0	5.260721246612138e+17
19526.0	5.260217837857449e+17
19527.0	5.2596799568172365e+17
19528.0	5.259125751545856e+17
19529.0	5.2585653932305056e+17
19530.0	5.25799796122146e+17
19531.0	5.2574070704701434e+17
19532.0	5.25680310817041e+17
19533.0	5.2561867349251405e+17
19534.0	5.2562911884738554e+17
19535.0	5.2557957495958176e+17
19536.0	5.255109755797503e+17
19537.0	5.2544860033733965e+17
19538.0	5.2536759301789005e+17
19539.0	5.2525497812254726e+17
19540.0	5.252401991428777e+17
19541.0	5.2517236794982394e+17
19542.0	5.251008938639359e+17
19543.0	5.2502787585474554e+17
19544.0	5.2495641721787725e+17
19545.0	5.248311621582847e+17
19546.0	5.24715789717777e+17
19547.0	5.24734516166656e+17
19548.0	5.2465876396059296e+17
19549.0	5.245734233658709e+17
19550.0	5.245060345320789e+17
19551.0	5.2442894070797645e+17
19552.0	5.2435092287870285e+17
19553.0	5.2426993170732365e+17
19554.0	5.2418948383812256e+17
19555.0	5.2411260427304954e+17
19556.0	5.2403420224552954e+17
19557.0	5.239533252291241e+17
19558.0	5.238726279386453e+17
19559.0	5.2379133855225165e+17
19560.0	5.237066174562302e+17
19561.0	5.236248294369962e+17
19562.0	5.2354479037262496e+17
19563.0	5.234624422739967e+17
19564.0	5.2337924419966285e+17
19565.0	5.232956943630334e+17
19566.0	5.23208633754146e+17
19567.0	5.231274822904489e+17
19568.0	5.230404976683689e+17
19569.0	5.2295600593087136e+17
19570.0	5.2287319065668256e+17
19571.0	5.227873170358271e+17
19572.0	5.226992997061973e+17
19573.0	5.2261395205106336e+17
19574.0	5.225212646435498e+17
19575.0	5.224437114732543e+17
19576.0	5.22356797874722e+17
19577.0	5.2226732407302816e+17
19578.0	5.2217880971837434e+17
19579.0	5.220931982415188e+17
19580.0	5.2200576881349965e+17
19581.0	5.219192498989738e+17
19582.0	5.218332139585536e+17
19583.0	5.2174521829949434e+17
19584.0	5.2165632149422074e+17
19585.0	5.215576867733503e+17
19586.0	5.214659719550293e+17
19587.0	5.2138766744507725e+17
19588.0	5.212535774336341e+17
19589.0	5.2121142342014285e+17
19590.0	5.211134431505066e+17
19591.0	5.2103458869739514e+17
19592.0	5.209458063267157e+17
19593.0	5.2085456574436685e+17
19594.0	5.207434764571987e+17
19595.0	5.206728102641662e+17
19596.0	5.205551822667775e+17
19597.0	5.2049504370687994e+17
19598.0	5.203624486851924e+17
19599.0	5.204038745675091e+17
19600.0	5.203964990936404e+17
19601.0	5.2029897719152634e+17
19602.0	5.202099117053268e+17
19603.0	5.200731773250217e+17
19604.0	5.2002785619258016e+17
19605.0	5.1991262405154125e+17
19606.0	5.1985127844085754e+17
19607.0	5.197611264202069e+17
19608.0	5.196680924233728e+17
19609.0	5.195733911906985e+17
19610.0	5.19486930157568e+17
19611.0	5.193946456828585e+17
19612.0	5.193050210260308e+17
19613.0	5.192125543787177e+17
19614.0	5.191181477958996e+17
19615.0	5.190304279822334e+17
19616.0	5.189312793892181e+17
19617.0	5.188455213214379e+17
19618.0	5.186942928945151e+17
19619.0	5.185890410299391e+17
19620.0	5.185008635478014e+17
19621.0	5.1847916033146874e+17
19622.0	5.1838866151178234e+17
19623.0	5.182967735386111e+17
19624.0	5.182038776741887e+17
19625.0	5.1811282716371616e+17
19626.0	5.180208172062036e+17
19627.0	5.1792863947653114e+17
19628.0	5.178218411720702e+17
19629.0	5.17731931861811e+17
19630.0	5.1761220671242234e+17
19631.0	5.168940544163839e+17
19632.0	5.174668707932841e+17
19633.0	5.1737118578660685e+17
19634.0	5.1728343157964794e+17
19635.0	5.171873388167168e+17
19636.0	5.170968467079166e+17
19637.0	5.1697053419438074e+17
19638.0	5.169130959273983e+17
19639.0	5.1682041795706874e+17
19640.0	5.167167973272234e+17
19641.0	5.1653108221433197e+17
19642.0	5.165437790715903e+17
19643.0	5.164509512247978e+17
19644.0	5.163532291844777e+17
19645.0	5.1623799844154016e+17
19646.0	5.16173286412561e+17
19647.0	5.16082333000226e+17
19648.0	5.1598990508031994e+17
19649.0	5.158970968768511e+17
19650.0	5.158048345620479e+17
19651.0	5.1571170213887994e+17
19652.0	5.1561946415103994e+17
19653.0	5.1552696653578234e+17
19654.0	5.154337642774527e+17
19655.0	5.153407794937855e+17
19656.0	5.152486757236735e+17
