# Flux units: erg / (cm m2 s)
# Wavelength units: Angstrom
wave	flux
19000.0	6.980573455887017e+17
19001.0	6.979238120215891e+17
19002.0	6.977950700273663e+17
19003.0	6.976638630406826e+17
19004.0	6.975326680077652e+17
19005.0	6.974015704924159e+17
19006.0	6.972703981087402e+17
19007.0	6.971381826016596e+17
19008.0	6.970065029868202e+17
19009.0	6.968749036929021e+17
19010.0	6.96735027429376e+17
19011.0	6.966136906186751e+17
19012.0	6.964801144094719e+17
19013.0	6.963521458449065e+17
19014.0	6.962197146806953e+17
19015.0	6.960897854188201e+17
19016.0	6.959572223437482e+17
19017.0	6.958255532845736e+17
19018.0	6.956961376152233e+17
19019.0	6.955650874955092e+17
19020.0	6.95433162793506e+17
19021.0	6.953021335754068e+17
19022.0	6.951716102602752e+17
19023.0	6.950404379465044e+17
19024.0	6.94909055078673e+17
19025.0	6.947781230286163e+17
19026.0	6.946462218846207e+17
19027.0	6.94514270408977e+17
19028.0	6.943847787528191e+17
19029.0	6.9425365005981e+17
19030.0	6.941225505172136e+17
19031.0	6.939914479686996e+17
19032.0	6.938603487756287e+17
19033.0	6.937270935005865e+17
19034.0	6.935981636015444e+17
19035.0	6.934661848629247e+17
19036.0	6.932204716993194e+17
19037.0	6.932049725576531e+17
19038.0	6.930739473940479e+17
19039.0	6.929429153098409e+17
19040.0	6.928118911948116e+17
19041.0	6.926808565940223e+17
19042.0	6.925479188277929e+17
19043.0	6.924188830924799e+17
19044.0	6.922878412215636e+17
19045.0	6.921569272769194e+17
19046.0	6.920247751038292e+17
19047.0	6.918946720579583e+17
19048.0	6.917593055799978e+17
19049.0	6.916315653253801e+17
19050.0	6.915012314529791e+17
19051.0	6.913539628684628e+17
19052.0	6.912376326586367e+17
19053.0	6.911095478419455e+17
19054.0	6.909786790559741e+17
19055.0	6.908417028740435e+17
19056.0	6.907170142552063e+17
19057.0	6.905861895793321e+17
19058.0	6.904553772766548e+17
19059.0	6.903245501541034e+17
19060.0	6.901932132139007e+17
19061.0	6.9006302131869e+17
19062.0	6.899321542803455e+17
19063.0	6.898014608861865e+17
19064.0	6.896679771613865e+17
19065.0	6.895357102740819e+17
19066.0	6.894078633443327e+17
19067.0	6.892786353700863e+17
19068.0	6.891479962222591e+17
19069.0	6.890173721739263e+17
19070.0	6.888864898962772e+17
19071.0	6.887561148497919e+17
19072.0	6.886255032445609e+17
19073.0	6.884947744784383e+17
19074.0	6.883643349794815e+17
19075.0	6.88233770909696e+17
19076.0	6.881027193219752e+17
19077.0	6.879724028559359e+17
19078.0	6.878413333026131e+17
19079.0	6.877116775093588e+17
19080.0	6.875810045274793e+17
19081.0	6.874497625882623e+17
19082.0	6.873191801334442e+17
19083.0	6.871873838470484e+17
19084.0	6.870534763577341e+17
19085.0	6.869290157692243e+17
19086.0	6.867893158761812e+17
19087.0	6.86664632640034e+17
19088.0	6.865360710707881e+17
19089.0	6.864016980836351e+17
19090.0	6.862771762582867e+17
19091.0	6.861462095353172e+17
19092.0	6.860147346025129e+17
19093.0	6.858863875719167e+17
19094.0	6.857552439891284e+17
19095.0	6.856247930956457e+17
19096.0	6.854952026636287e+17
19097.0	6.853654058718548e+17
19098.0	6.852353043638954e+17
19099.0	6.851050982080511e+17
19100.0	6.849749804122111e+17
19101.0	6.848447976046591e+17
19102.0	6.847126178889728e+17
19103.0	6.845846402367487e+17
19104.0	6.844545599799295e+17
19105.0	6.843244891602943e+17
19106.0	6.841937938087935e+17
19107.0	6.840640461602815e+17
19108.0	6.8393436708864e+17
19109.0	6.837932305066665e+17
19110.0	6.836741509305684e+17
19111.0	6.835444553613311e+17
19112.0	6.834145154039807e+17
19113.0	6.832845867712511e+17
19114.0	6.831546763837437e+17
19115.0	6.830240746351273e+17
19116.0	6.828948922389843e+17
19117.0	6.827644951724031e+17
19118.0	6.82632747749649e+17
19119.0	6.824365097571667e+17
19120.0	6.823746499248127e+17
19121.0	6.822450571160234e+17
19122.0	6.821159938381139e+17
19123.0	6.819860914896893e+17
19124.0	6.818564541513727e+17
19125.0	6.817266930111827e+17
19126.0	6.815967942978217e+17
19127.0	6.814270024406355e+17
19128.0	6.813330007479635e+17
19129.0	6.812059622004052e+17
19130.0	6.810781244981247e+17
19131.0	6.809486868086783e+17
19132.0	6.808189861363711e+17
19133.0	6.806794397548543e+17
19134.0	6.805574388460202e+17
19135.0	6.804303642973523e+17
19136.0	6.803008585203711e+17
19137.0	6.801675046092799e+17
19138.0	6.800408599068672e+17
19139.0	6.799122690473981e+17
19140.0	6.797828309385215e+17
19141.0	6.796533651472383e+17
19142.0	6.795238786640554e+17
19143.0	6.793932560138237e+17
19144.0	6.792648108365139e+17
19145.0	6.791356897471146e+17
19146.0	6.789926814569812e+17
19147.0	6.788747228086271e+17
19148.0	6.787475429829289e+17
19149.0	6.786182151143423e+17
19150.0	6.784886720779603e+17
19151.0	6.783596119457791e+17
19152.0	6.782300768086697e+17
19153.0	6.781010177250644e+17
19154.0	6.779686745713322e+17
19155.0	6.778424707601748e+17
19156.0	6.777131465965568e+17
19157.0	6.775837846842026e+17
19158.0	6.774468510045523e+17
19159.0	6.773250774269951e+17
19160.0	6.771959480887978e+17
19161.0	6.770671005379241e+17
19162.0	6.769206436211368e+17
19163.0	6.768084453599914e+17
19164.0	6.766796863788372e+17
19165.0	6.765502091231231e+17
19166.0	6.764186229713578e+17
19167.0	6.762906848154964e+17
19168.0	6.761608858566655e+17
19169.0	6.760325316258474e+17
19170.0	6.759050135295316e+17
19171.0	6.757749979348991e+17
19172.0	6.75646913188113e+17
19173.0	6.755178560618495e+17
19174.0	6.75387524915746e+17
19175.0	6.752598447794857e+17
19176.0	6.751308265903443e+17
19177.0	6.749982262558719e+17
19178.0	6.748724304106836e+17
19179.0	6.747424881464659e+17
19180.0	6.746136294806868e+17
19181.0	6.744834911327572e+17
19182.0	6.743555691948713e+17
19183.0	6.742277804261375e+17
19184.0	6.740969245026985e+17
19185.0	6.739698024185855e+17
19186.0	6.73841060913698e+17
19187.0	6.737105772347391e+17
19188.0	6.73583031456017e+17
19189.0	6.734541661492564e+17
19190.0	6.733251878759081e+17
19191.0	6.731961334759423e+17
19192.0	6.730673439462739e+17
19193.0	6.729378420839766e+17
19194.0	6.728093520975187e+17
19195.0	6.726807062926676e+17
19196.0	6.725515516488362e+17
19197.0	6.724226509701119e+17
19198.0	6.722937817486676e+17
19199.0	6.720613711697235e+17
19200.0	6.719653332123647e+17
19201.0	6.719072132311722e+17
19202.0	6.717785475033769e+17
19203.0	6.716497248387071e+17
19204.0	6.7152026547869e+17
19205.0	6.713919798946474e+17
19206.0	6.712627920459092e+17
19207.0	6.711326298603519e+17
19208.0	6.710007996000938e+17
19209.0	6.708765084614655e+17
19210.0	6.707476037981524e+17
19211.0	6.706186538363561e+17
19212.0	6.704898420768768e+17
19213.0	6.70358559662626e+17
19214.0	6.702286873034751e+17
19215.0	6.701027173247657e+17
19216.0	6.699737687610708e+17
19217.0	6.698452959013545e+17
19218.0	6.696969579790335e+17
19219.0	6.695835860817236e+17
19220.0	6.694585373818879e+17
19221.0	6.693219161778857e+17
19222.0	6.692004401861972e+17
19223.0	6.690715232195924e+17
19224.0	6.689412423352319e+17
19225.0	6.688099856460457e+17
19226.0	6.686845707135657e+17
19227.0	6.685555714686975e+17
19228.0	6.684265225213268e+17
19229.0	6.682974226830676e+17
19230.0	6.681682508425897e+17
19231.0	6.680392631320575e+17
19232.0	6.679093256912895e+17
19233.0	6.677792134179498e+17
19234.0	6.67651231851042e+17
19235.0	6.675226263814143e+17
19236.0	6.673933971488767e+17
19237.0	6.672637747003391e+17
19238.0	6.671326580310015e+17
19239.0	6.670056549253119e+17
19240.0	6.668718734049277e+17
19241.0	6.667455197872127e+17
19242.0	6.666175671610025e+17
19243.0	6.664841061553491e+17
19244.0	6.663587674892969e+17
19245.0	6.662293531481427e+17
19246.0	6.660994728198143e+17
19247.0	6.659702411405993e+17
19248.0	6.658407596905812e+17
19249.0	6.657111117266943e+17
19250.0	6.655813397512192e+17
19251.0	6.654486689524393e+17
19252.0	6.653150296888662e+17
19253.0	6.651920417204906e+17
19254.0	6.650617573408768e+17
19255.0	6.649281013699923e+17
19256.0	6.648016591126527e+17
19257.0	6.646726970572799e+17
19258.0	6.645426226724861e+17
19259.0	6.644108209334953e+17
19260.0	6.642804943312212e+17
19261.0	6.641522422317055e+17
19262.0	6.640212804719956e+17
19263.0	6.638902980203859e+17
19264.0	6.637494514046291e+17
19265.0	6.636264176484351e+17
19266.0	6.634967341028692e+17
19267.0	6.633697076488873e+17
19268.0	6.632390373234003e+17
19269.0	6.631082927587327e+17
19270.0	6.629774336895657e+17
19271.0	6.628388952692054e+17
19272.0	6.62714704933683e+17
19273.0	6.624626376092328e+17
19274.0	6.623867625799679e+17
19275.0	6.623188581963092e+17
19276.0	6.621652480338601e+17
19277.0	6.620338103604563e+17
19278.0	6.619022688081236e+17
19279.0	6.617703933891924e+17
19280.0	6.616370186463914e+17
19281.0	6.615068991728297e+17
19282.0	6.613749681793705e+17
19283.0	6.612412534183251e+17
19284.0	6.611082000990208e+17
19285.0	6.609734990473898e+17
19286.0	6.608450236710911e+17
19287.0	6.607131523066538e+17
19288.0	6.605480152880467e+17
19289.0	6.603735155343359e+17
19290.0	6.603144591747753e+17
19291.0	6.601748581274964e+17
19292.0	6.600478871781376e+17
19293.0	6.599141671742122e+17
19294.0	6.597806835193172e+17
19295.0	6.596468196507647e+17
19296.0	6.595127688560639e+17
19297.0	6.593468436578304e+17
19298.0	6.591972491220308e+17
19299.0	6.590626553047721e+17
19300.0	6.589278121361408e+17
19301.0	6.587926712418303e+17
19302.0	6.58657202213137e+17
19303.0	6.585200663680339e+17
19304.0	6.583851336510121e+17
19305.0	6.582522041335807e+17
19306.0	6.581170619110739e+17
19307.0	6.579792284134058e+17
19308.0	6.578436684382208e+17
19309.0	6.577034276197716e+17
19310.0	6.575645377167359e+17
19311.0	6.574310279872511e+17
19312.0	6.572943498805247e+17
19313.0	6.571549041623039e+17
19314.0	6.569581785819817e+17
19315.0	6.568222590850388e+17
19316.0	6.567397905399808e+17
19317.0	6.566006173816148e+17
19318.0	6.564607806843561e+17
19319.0	6.563206143847082e+17
19320.0	6.561796794089472e+17
19321.0	6.560390407607636e+17
19322.0	6.558946928798378e+17
19323.0	6.557542124967252e+17
19324.0	6.556135335133183e+17
19325.0	6.554677936127997e+17
19326.0	6.553276073203028e+17
19327.0	6.551835809327785e+17
19328.0	6.550397441977001e+17
19329.0	6.548950444146687e+17
19330.0	6.547488504108372e+17
19331.0	6.546028805925546e+17
19332.0	6.544573980824916e+17
19333.0	6.543104712638464e+17
19334.0	6.541624107947348e+17
19335.0	6.540145251581951e+17
19336.0	6.538654787480233e+17
19337.0	6.536864001425407e+17
19338.0	6.534987855691775e+17
19339.0	6.533527222878207e+17
19340.0	6.531995649703933e+17
19341.0	6.530476182689107e+17
19342.0	6.528857048525482e+17
19343.0	6.527400345075711e+17
19344.0	6.525847042610516e+17
19345.0	6.523845740243625e+17
19346.0	6.522514372384084e+17
19347.0	6.521111584615082e+17
19348.0	6.519535213477887e+17
19349.0	6.517930802719401e+17
19350.0	6.516308621393919e+17
19351.0	6.514680922461523e+17
19352.0	6.513029074124799e+17
19353.0	6.511394317576873e+17
19354.0	6.509728183440724e+17
19355.0	6.507345948792148e+17
19356.0	6.505564372030803e+17
19357.0	6.503854356387156e+17
19358.0	6.502117007163391e+17
19359.0	6.50032682508834e+17
19360.0	6.498621793675946e+17
19361.0	6.496842735594153e+17
19362.0	6.495057780320938e+17
19363.0	6.493242548464298e+17
19364.0	6.491406723274068e+17
19365.0	6.489221488093866e+17
19366.0	6.486688987611136e+17
19367.0	6.484787917225983e+17
19368.0	6.48286270722321e+17
19369.0	6.480881715074388e+17
19370.0	6.478793954121044e+17
19371.0	6.476917858719059e+17
19372.0	6.474734843024723e+17
19373.0	6.471271665631231e+17
19374.0	6.469087704820393e+17
19375.0	6.466957200414035e+17
19376.0	6.464792991279785e+17
19377.0	6.462590892201299e+17
19378.0	6.459210267099135e+17
19379.0	6.456636354155862e+17
19380.0	6.454314797105151e+17
19381.0	6.451949023701674e+17
19382.0	6.448510428424872e+17
19383.0	6.445355242968403e+17
19384.0	6.442870420537343e+17
19385.0	6.439901058127188e+17
19386.0	6.435715762793129e+17
19387.0	6.433034695868415e+17
19388.0	6.429890372960255e+17
19389.0	6.426060277852841e+17
19390.0	6.42271216280098e+17
19391.0	6.418776534111571e+17
19392.0	6.416707611175593e+17
19393.0	6.413615198371839e+17
19394.0	6.410420118093823e+17
19395.0	6.407137575392595e+17
19396.0	6.403759996054186e+17
19397.0	6.399819448145235e+17
19398.0	6.395714596765695e+17
19399.0	6.391855867144873e+17
19400.0	6.388171714942292e+17
19401.0	6.384238853095423e+17
19402.0	6.379473650494122e+17
19403.0	6.374618290629289e+17
19404.0	6.370234391505578e+17
19405.0	6.365705994414761e+17
19406.0	6.359354803836244e+17
19407.0	6.354407806118569e+17
19408.0	6.348428139298813e+17
19409.0	6.341895455593812e+17
19410.0	6.335725340808535e+17
19411.0	6.328032003708244e+17
19412.0	6.32036541787887e+17
19413.0	6.31236221748292e+17
19414.0	6.302457674072064e+17
19415.0	6.292248910801577e+17
19416.0	6.280779959806632e+17
19417.0	6.268024957610662e+17
19418.0	6.255877658334548e+17
19419.0	6.246442040208042e+17
19420.0	6.236656992518144e+17
19421.0	6.226490274349055e+17
19422.0	6.215984919259818e+17
19423.0	6.204970935604563e+17
19424.0	6.1934105788416e+17
19425.0	6.180990593182377e+17
19426.0	6.167665013249363e+17
19427.0	6.154056275154262e+17
19428.0	6.138910986644136e+17
19429.0	6.123341834354685e+17
19430.0	6.10580837695488e+17
19431.0	6.08688025964817e+17
19432.0	6.066167732327762e+17
19433.0	6.041983621529599e+17
19434.0	6.014186992347814e+17
19435.0	5.980506383799635e+17
19436.0	5.940375404063405e+17
19437.0	5.908036474372095e+17
19438.0	5.874461103707475e+17
19439.0	5.840273719077548e+17
19440.0	5.801220118325929e+17
19441.0	5.756755001387687e+17
19442.0	5.70431045037807e+17
19443.0	5.638094745938603e+17
19444.0	5.561949335060476e+17
19445.0	5.48834081749948e+17
19446.0	5.400192383713279e+17
19447.0	5.2861126759328435e+17
19448.0	5.1557018548305984e+17
19449.0	4.979410282566998e+17
19450.0	4.6997653471013216e+17
19451.0	4.618662668752212e+17
19452.0	4.8457436826173466e+17
19453.0	5.07583223265144e+17
19454.0	5.220259822130511e+17
19455.0	5.340409744763566e+17
19456.0	5.438571284529155e+17
19457.0	5.5158163992739795e+17
19458.0	5.5859496885070464e+17
19459.0	5.658454992967e+17
19460.0	5.7144368081578624e+17
19461.0	5.7600586113788576e+17
19462.0	5.799250412350124e+17
19463.0	5.834025649657171e+17
19464.0	5.86553433854225e+17
19465.0	5.894318793424896e+17
19466.0	5.929500338552831e+17
19467.0	5.964713717749078e+17
19468.0	5.992506811132586e+17
19469.0	6.015860644074836e+17
19470.0	6.035875927774548e+17
19471.0	6.053384854787412e+17
19472.0	6.068892815676755e+17
19473.0	6.082969075362474e+17
19474.0	6.096136293056512e+17
19475.0	6.107853690153641e+17
19476.0	6.118898342559744e+17
19477.0	6.12967579053807e+17
19478.0	6.139084143591424e+17
19479.0	6.147981858308095e+17
19480.0	6.156315783069696e+17
19481.0	6.164161380395689e+17
19482.0	6.17184402411793e+17
19483.0	6.178792930978474e+17
19484.0	6.186915260093777e+17
19485.0	6.197387891223209e+17
19486.0	6.207119978135552e+17
19487.0	6.215463437249192e+17
19488.0	6.222550777113256e+17
19489.0	6.228577891297962e+17
19490.0	6.234835922190333e+17
19491.0	6.239309325664255e+17
19492.0	6.244456751693823e+17
19493.0	6.247662403016018e+17
19494.0	6.252260902305791e+17
19495.0	6.25484197073169e+17
19496.0	6.257773396361216e+17
19497.0	6.261019538096127e+17
19498.0	6.262922095362047e+17
19499.0	6.263360139384147e+17
19500.0	6.267635545145343e+17
19501.0	6.26948623634705e+17
19502.0	6.270936641350313e+17
19503.0	6.27226720739874e+17
19504.0	6.273482352492543e+17
19505.0	6.275256873735508e+17
19506.0	6.276518219786921e+17
19507.0	6.277414193725439e+17
19508.0	6.278222964588541e+17
19509.0	6.278943389428393e+17
19510.0	6.279542418527572e+17
19511.0	6.278776131769684e+17
19512.0	6.280383497415337e+17
19513.0	6.280815830892541e+17
19514.0	6.282624723757737e+17
19515.0	6.283361842626559e+17
19516.0	6.283693426824531e+17
19517.0	6.285574494573907e+17
19518.0	6.285836969923924e+17
19519.0	6.285894578689364e+17
19520.0	6.286513392320511e+17
19521.0	6.287460324955476e+17
19522.0	6.287375033084585e+17
19523.0	6.287249612210176e+17
19524.0	6.287081888284672e+17
19525.0	6.288180659617792e+17
19526.0	6.287977471453866e+17
19527.0	6.287699554773674e+17
19528.0	6.287388259822249e+17
19529.0	6.287044112285696e+17
19530.0	6.286976924428969e+17
19531.0	6.28752669352482e+17
19532.0	6.287365297405951e+17
19533.0	6.28690487747106e+17
19534.0	6.28641921831185e+17
19535.0	6.285909335648937e+17
19536.0	6.285366494145193e+17
19537.0	6.284821033298601e+17
19538.0	6.284597818731178e+17
19539.0	6.284434852544511e+17
19540.0	6.283931940115796e+17
19541.0	6.283303987096234e+17
19542.0	6.282650831902035e+17
19543.0	6.281980647833599e+17
19544.0	6.281294006714368e+17
19545.0	6.280484295628116e+17
19546.0	6.279674756508329e+17
19547.0	6.279140779666089e+17
19548.0	6.27839520018705e+17
19549.0	6.277613442738857e+17
19550.0	6.277185820863145e+17
19551.0	6.276801053589503e+17
19552.0	6.2760047621789e+17
19553.0	6.275191915151359e+17
19554.0	6.274370912299689e+17
19555.0	6.273550762988884e+17
19556.0	6.272712101418324e+17
19557.0	6.271862694739967e+17
19558.0	6.271005442615977e+17
19559.0	6.270135237083135e+17
19560.0	6.269257111306239e+17
19561.0	6.268380684222464e+17
19562.0	6.267489288366761e+17
19563.0	6.266589528369834e+17
19564.0	6.265683512568489e+17
19565.0	6.264769942126591e+17
19566.0	6.263844775133183e+17
19567.0	6.262921350873087e+17
19568.0	6.26198159888657e+17
19569.0	6.261046966747135e+17
19570.0	6.260103186830676e+17
19571.0	6.259150590487209e+17
19572.0	6.258354820568404e+17
19573.0	6.257775252340735e+17
19574.0	6.256790566775465e+17
19575.0	6.255840087157417e+17
19576.0	6.254863112121001e+17
19577.0	6.253871502458879e+17
19578.0	6.252883757148842e+17
19579.0	6.251897425319254e+17
19580.0	6.250902673424383e+17
19581.0	6.249905553145855e+17
19582.0	6.248906375561215e+17
19583.0	6.247899641238867e+17
19584.0	6.246887692697599e+17
19585.0	6.245849401830058e+17
19586.0	6.244822922821631e+17
19587.0	6.243828128284671e+17
19588.0	6.242701508870144e+17
19589.0	6.241780204830719e+17
19590.0	6.240739188364628e+17
19591.0	6.239724296121002e+17
19592.0	6.238688439347881e+17
19593.0	6.237650943300948e+17
19594.0	6.236555461001215e+17
19595.0	6.235561366213972e+17
19596.0	6.234338532261887e+17
19597.0	6.23346753540369e+17
19598.0	6.232358737586857e+17
19599.0	6.231370251982164e+17
19600.0	6.2303155257344e+17
19601.0	6.229242482961065e+17
19602.0	6.228188109034836e+17
19603.0	6.227034156040191e+17
19604.0	6.226062055484073e+17
19605.0	6.224941450002432e+17
19606.0	6.223944062686548e+17
19607.0	6.222878083820202e+17
19608.0	6.221807431101098e+17
19609.0	6.220731176889001e+17
19610.0	6.219664517147306e+17
19611.0	6.218588992045055e+17
19612.0	6.217514718942548e+17
19613.0	6.216437545478825e+17
19614.0	6.215348851660116e+17
19615.0	6.214279002849279e+17
19616.0	6.213189660311552e+17
19617.0	6.212115807338495e+17
19618.0	6.210905329106941e+17
19619.0	6.209791869321215e+17
19620.0	6.208710865758889e+17
19621.0	6.207774859285846e+17
19622.0	6.206686895276031e+17
19623.0	6.205597896671231e+17
19624.0	6.204508010971136e+17
19625.0	6.203416753733631e+17
19626.0	6.202324993179647e+17
19627.0	6.201232093872128e+17
19628.0	6.200114630623231e+17
19629.0	6.199022948362922e+17
19630.0	6.197890187089235e+17
19631.0	6.195757287735295e+17
19632.0	6.19575466140194e+17
19633.0	6.194657367861929e+17
19634.0	6.193559423505748e+17
19635.0	6.192450469800618e+17
19636.0	6.191360847642623e+17
19637.0	6.190165070446592e+17
19638.0	6.189157502156799e+17
19639.0	6.188054240821247e+17
19640.0	6.186936497253033e+17
19641.0	6.185708337932969e+17
19642.0	6.184749482289834e+17
19643.0	6.18364274807057e+17
19644.0	6.182526087331839e+17
19645.0	6.181373747746131e+17
19646.0	6.18033099973154e+17
19647.0	6.179225207832575e+17
19648.0	6.178118944074409e+17
19649.0	6.177011582806697e+17
19650.0	6.175905100245673e+17
19651.0	6.174797615245993e+17
19652.0	6.173689712913066e+17
19653.0	6.17258101575953e+17
19654.0	6.171472832408233e+17
19655.0	6.170362755328682e+17
19656.0	6.169252881672873e+17
19657.0	6.168144893356714e+17
19658.0	6.167149834578602e+17
19659.0	6.166313555372714e+17
19660.0	6.165203243412137e+17
19661.0	6.164092252673364e+17
19662.0	6.162981009577299e+17
19663.0	6.161859217806676e+17
19664.0	6.160753706227027e+17
19665.0	6.159645865410559e+17
