# Flux units: erg / (cm m2 s)
# Wavelength units: Angstrom
wave	flux
19000.0	8.166172957955412e+17
19001.0	8.164417123035816e+17
19002.0	8.163107819312467e+17
19003.0	8.161556466499583e+17
19004.0	8.160010016828073e+17
19005.0	8.158478988214271e+17
19006.0	8.156937238959443e+17
19007.0	8.154703907695273e+17
19008.0	8.153686741439827e+17
19009.0	8.15225584484352e+17
19010.0	8.149720948714152e+17
19011.0	8.149181952688125e+17
19012.0	8.14694276617557e+17
19013.0	8.146147493980842e+17
19014.0	8.144457396387839e+17
19015.0	8.142987524920659e+17
19016.0	8.141435102560255e+17
19017.0	8.139209175640745e+17
19018.0	8.1383712110237e+17
19019.0	8.136881517275817e+17
19020.0	8.135184381640703e+17
19021.0	8.133722395465046e+17
19022.0	8.132284438457002e+17
19023.0	8.130642778084691e+17
19024.0	8.129156927717375e+17
19025.0	8.127577405958826e+17
19026.0	8.126007546478592e+17
19027.0	8.124130827523411e+17
19028.0	8.123035981359786e+17
19029.0	8.121450746959187e+17
19030.0	8.119980704923645e+17
19031.0	8.118454333385386e+17
19032.0	8.116909887193088e+17
19033.0	8.11515436265199e+17
19034.0	8.11377651421457e+17
19035.0	8.112190633891155e+17
19036.0	8.073061580406756e+17
19037.0	8.109164734360232e+17
19038.0	8.107603678724093e+17
19039.0	8.106108192642387e+17
19040.0	8.104582213970602e+17
19041.0	8.1030227703453e+17
19042.0	8.101287589576703e+17
19043.0	8.099953954695849e+17
19044.0	8.098389188498774e+17
19045.0	8.096855170744317e+17
19046.0	8.095176989168979e+17
19047.0	8.09379017470771e+17
19048.0	8.091777360374441e+17
19049.0	8.090541730998952e+17
19050.0	8.089054804093609e+17
19051.0	8.082217589451424e+17
19052.0	8.085682559909888e+17
19053.0	8.084370968892756e+17
19054.0	8.082991979604649e+17
19055.0	8.080876042715137e+17
19056.0	8.079860902308521e+17
19057.0	8.078356454397267e+17
19058.0	8.076627130275155e+17
19059.0	8.07529718218752e+17
19060.0	8.0737103539514e+17
19061.0	8.072229588478633e+17
19062.0	8.070678674669565e+17
19063.0	8.069148887569748e+17
19064.0	8.067301655969791e+17
19065.0	8.065627386281981e+17
19066.0	8.064372014317567e+17
19067.0	8.062957194488489e+17
19068.0	8.061446396400978e+17
19069.0	8.059912806465535e+17
19070.0	8.058299356981928e+17
19071.0	8.056796607763795e+17
19072.0	8.055292558311424e+17
19073.0	8.053740296732671e+17
19074.0	8.052224968796842e+17
19075.0	8.050686404416854e+17
19076.0	8.049095158180522e+17
19077.0	8.047586678145021e+17
19078.0	8.04585697793365e+17
19079.0	8.044523197650259e+17
19080.0	8.042959501000705e+17
19081.0	8.041334399740585e+17
19082.0	8.039748786454528e+17
19083.0	8.038080479668905e+17
19084.0	8.036231775868246e+17
19085.0	8.035263104155647e+17
19086.0	8.032764790745769e+17
19087.0	8.031127341454676e+17
19088.0	8.030453095901864e+17
19089.0	8.028115379595945e+17
19090.0	8.02751329145105e+17
19091.0	8.025996726195539e+17
19092.0	8.024127257793876e+17
19093.0	8.022989896766803e+17
19094.0	8.021434955027795e+17
19095.0	8.019895652450301e+17
19096.0	8.018282211355305e+17
19097.0	8.016837856635561e+17
19098.0	8.015312851042301e+17
19099.0	8.013760653776211e+17
19100.0	8.012184679000748e+17
19101.0	8.010700019815763e+17
19102.0	8.009000591294461e+17
19103.0	8.007636103113385e+17
19104.0	8.006119528071165e+17
19105.0	8.0045695579805e+17
19106.0	8.002830430371839e+17
19107.0	8.001463840844457e+17
19108.0	7.99996870848239e+17
19109.0	7.993835470017869e+17
19110.0	7.996844997782185e+17
19111.0	7.995359171182591e+17
19112.0	7.993839447616169e+17
19113.0	7.992308030330195e+17
19114.0	7.990766051786751e+17
19115.0	7.989070068187136e+17
19116.0	7.987653254665556e+17
19117.0	7.986125128510122e+17
19118.0	7.984252924024147e+17
19119.0	7.978895805164193e+17
19120.0	7.98124793869107e+17
19121.0	7.979860495084202e+17
19122.0	7.978508093489152e+17
19123.0	7.976904637633875e+17
19124.0	7.975219116026536e+17
19125.0	7.973829492779689e+17
19126.0	7.972235388824232e+17
19127.0	7.967189923528698e+17
19128.0	7.965132190995789e+17
19129.0	7.967555304729257e+17
19130.0	7.966217458767186e+17
19131.0	7.964565613226664e+17
19132.0	7.963174087163903e+17
19133.0	7.959645712809988e+17
19134.0	7.958082748765527e+17
19135.0	7.958572871363241e+17
19136.0	7.957064921208148e+17
19137.0	7.955156691845119e+17
19138.0	7.953369258437289e+17
19139.0	7.952445374900905e+17
19140.0	7.950942741725181e+17
19141.0	7.949416339428691e+17
19142.0	7.947808781544105e+17
19143.0	7.946211000582143e+17
19144.0	7.944703388767572e+17
19145.0	7.943264770457599e+17
19146.0	7.940295868721836e+17
19147.0	7.940041281459539e+17
19148.0	7.938669929999017e+17
19149.0	7.937140793016319e+17
19150.0	7.935581633205587e+17
19151.0	7.934074396082173e+17
19152.0	7.932436228166995e+17
19153.0	7.930967308806824e+17
19154.0	7.929202636488703e+17
19155.0	7.927946772392617e+17
19156.0	7.926416642757974e+17
19157.0	7.924787370961578e+17
19158.0	7.920179509985275e+17
19159.0	7.921757433714003e+17
19160.0	7.92013646663953e+17
19161.0	7.918307407560703e+17
19162.0	7.910174624142684e+17
19163.0	7.915624936243199e+17
19164.0	7.914192786948093e+17
19165.0	7.912555712348157e+17
19166.0	7.910813668300115e+17
19167.0	7.908934868970153e+17
19168.0	7.907647823020032e+17
19169.0	7.906251874762751e+17
19170.0	7.905019188390569e+17
19171.0	7.903175329011027e+17
19172.0	7.90192096228147e+17
19173.0	7.900430691117738e+17
19174.0	7.898788498068822e+17
19175.0	7.897388025555626e+17
19176.0	7.895844046329174e+17
19177.0	7.893987427876863e+17
19178.0	7.892685985677311e+17
19179.0	7.890789374536362e+17
19180.0	7.888631168849238e+17
19181.0	7.887954032022867e+17
19182.0	7.886331889145175e+17
19183.0	7.885032619595092e+17
19184.0	7.883169404900692e+17
19185.0	7.882047341898409e+17
19186.0	7.88056882177638e+17
19187.0	7.878817021777238e+17
19188.0	7.877452270753108e+17
19189.0	7.875795831051603e+17
19190.0	7.874227527658153e+17
19191.0	7.872760034361344e+17
19192.0	7.871258655282518e+17
19193.0	7.868619118258854e+17
19194.0	7.867749667001684e+17
19195.0	7.866680910807039e+17
19196.0	7.865199423913983e+17
19197.0	7.863651862751913e+17
19198.0	7.861960445351251e+17
19199.0	7.820064834540873e+17
19200.0	7.832140469239823e+17
19201.0	7.857405260638889e+17
19202.0	7.856033369511254e+17
19203.0	7.854457498195283e+17
19204.0	7.852947846550867e+17
19205.0	7.851466253402111e+17
19206.0	7.849928730607615e+17
19207.0	7.848242553290751e+17
19208.0	7.846452169889108e+17
19209.0	7.845305868004009e+17
19210.0	7.843809979269117e+17
19211.0	7.842287516822186e+17
19212.0	7.840780666972841e+17
19213.0	7.83869173580868e+17
19214.0	7.836924690912599e+17
19215.0	7.836026037512872e+17
19216.0	7.834517733638144e+17
19217.0	7.83309516133717e+17
19218.0	7.829777422133926e+17
19219.0	7.829656199757824e+17
19220.0	7.828430798891689e+17
19221.0	7.826196934950911e+17
19222.0	7.825447917540692e+17
19223.0	7.823852124678825e+17
19224.0	7.822056724889597e+17
19225.0	7.820448168760659e+17
19226.0	7.819232024723455e+17
19227.0	7.817689246466047e+17
19228.0	7.816222708072447e+17
19229.0	7.814684208005117e+17
19230.0	7.812935819373225e+17
19231.0	7.811429190423892e+17
19232.0	7.809871069402454e+17
19233.0	7.808346326652244e+17
19234.0	7.8069227337373e+17
19235.0	7.805350944877225e+17
19236.0	7.803903891821906e+17
19237.0	7.802317176831999e+17
19238.0	7.800552219301203e+17
19239.0	7.79926488953651e+17
19240.0	7.796906942704296e+17
19241.0	7.79589901230626e+17
19242.0	7.794549051796136e+17
19243.0	7.792640678428671e+17
19244.0	7.791538095172262e+17
19245.0	7.789978669722281e+17
19246.0	7.788408188086953e+17
19247.0	7.78684514574882e+17
19248.0	7.785342339208532e+17
19249.0	7.783782074897748e+17
19250.0	7.782195784930646e+17
19251.0	7.780469749142866e+17
19252.0	7.778281098401108e+17
19253.0	7.77753106736742e+17
19254.0	7.775896965130922e+17
19255.0	7.773966740837714e+17
19256.0	7.772743732122964e+17
19257.0	7.771334666878973e+17
19258.0	7.769774002711208e+17
19259.0	7.768029994330793e+17
19260.0	7.766191579157844e+17
19261.0	7.765065881092093e+17
19262.0	7.763385336725501e+17
19263.0	7.761854358443348e+17
19264.0	7.759269720664742e+17
19265.0	7.758420438417407e+17
19266.0	7.757002635040084e+17
19267.0	7.755686761638569e+17
19268.0	7.754085458859348e+17
19269.0	7.752518501837481e+17
19270.0	7.750933026963455e+17
19271.0	7.748653829586947e+17
19272.0	7.747706141977257e+17
19273.0	7.7261017714087e+17
19274.0	7.734700179892893e+17
19275.0	7.74304207872546e+17
19276.0	7.741413236146177e+17
19277.0	7.739817549540008e+17
19278.0	7.738240233985363e+17
19279.0	7.7363940425728e+17
19280.0	7.734855843097258e+17
19281.0	7.733427630855508e+17
19282.0	7.731819931762687e+17
19283.0	7.72956160664098e+17
19284.0	7.727002205989544e+17
19285.0	7.72646787822387e+17
19286.0	7.725325528771241e+17
19287.0	7.723800696542547e+17
19288.0	7.713546251010043e+17
19289.0	7.694783901685025e+17
19290.0	7.718950705386836e+17
19291.0	7.716700360627542e+17
19292.0	7.715698282681684e+17
19293.0	7.714054862099795e+17
19294.0	7.712411437323604e+17
19295.0	7.710805436923901e+17
19296.0	7.709148577791999e+17
19297.0	7.707438945927165e+17
19298.0	7.705802262795603e+17
19299.0	7.70422326951936e+17
19300.0	7.702571232438954e+17
19301.0	7.700887040425981e+17
19302.0	7.699211755716607e+17
19303.0	7.697332049018879e+17
19304.0	7.695741117355348e+17
19305.0	7.694187309476522e+17
19306.0	7.692493722222591e+17
19307.0	7.690678695886845e+17
19308.0	7.689059758855508e+17
19309.0	7.686192240437928e+17
19310.0	7.683748834661714e+17
19311.0	7.683836207606441e+17
19312.0	7.682240343441407e+17
19313.0	7.680171153468076e+17
19314.0	7.66855746403258e+17
19315.0	7.667416276402196e+17
19316.0	7.675331734754642e+17
19317.0	7.673628275507199e+17
19318.0	7.671833804057257e+17
19319.0	7.670120851701757e+17
19320.0	7.668262828157612e+17
19321.0	7.666592080287059e+17
19322.0	7.664407321859414e+17
19323.0	7.662324694734166e+17
19324.0	7.661197257430355e+17
19325.0	7.658500279413417e+17
19326.0	7.657606150269608e+17
19327.0	7.655778599742122e+17
19328.0	7.65400355910451e+17
19329.0	7.652169975769769e+17
19330.0	7.650228749817172e+17
19331.0	7.648369844071081e+17
19332.0	7.646583155851263e+17
19333.0	7.644665416602964e+17
19334.0	7.642697479924394e+17
19335.0	7.640921791965866e+17
19336.0	7.63890746069265e+17
19337.0	7.636977530000722e+17
19338.0	7.634595513455955e+17
19339.0	7.633100638344532e+17
19340.0	7.631017053519872e+17
19341.0	7.629116856249002e+17
19342.0	7.626202253972819e+17
19343.0	7.625155125007699e+17
19344.0	7.62309298286319e+17
19345.0	7.616708971156808e+17
19346.0	7.617856002850816e+17
19347.0	7.616750930974038e+17
19348.0	7.614728497703593e+17
19349.0	7.612440804065279e+17
19350.0	7.610306855436287e+17
19351.0	7.608130892464125e+17
19352.0	7.605881831161855e+17
19353.0	7.60385320989491e+17
19354.0	7.601610314219519e+17
19355.0	7.599140701033812e+17
19356.0	7.596938168543913e+17
19357.0	7.594618380091391e+17
19358.0	7.592100826010964e+17
19359.0	7.588845243596799e+17
19360.0	7.58744989372689e+17
19361.0	7.584992706865833e+17
19362.0	7.582547507325608e+17
19363.0	7.580010922289832e+17
19364.0	7.57747287064576e+17
19365.0	7.574775186587647e+17
19366.0	7.572183211573247e+17
19367.0	7.5694578101562e+17
19368.0	7.566759945743017e+17
19369.0	7.563591409117862e+17
19370.0	7.558787358173866e+17
19371.0	7.558310627988819e+17
19372.0	7.555564754173951e+17
19373.0	7.552570086828713e+17
19374.0	7.549541642753364e+17
19375.0	7.546416859709437e+17
19376.0	7.543315048868521e+17
19377.0	7.540143874026153e+17
19378.0	7.536925957860009e+17
19379.0	7.533615546105853e+17
19380.0	7.530227563495424e+17
19381.0	7.526536710193151e+17
19382.0	7.522827076195668e+17
19383.0	7.51909455527936e+17
19384.0	7.515633724598953e+17
19385.0	7.511714600495786e+17
19386.0	7.507615279306068e+17
19387.0	7.503613848977407e+17
19388.0	7.499511860210345e+17
19389.0	7.495034662988458e+17
19390.0	7.490512712542889e+17
19391.0	7.455640435818449e+17
19392.0	7.481112940336467e+17
19393.0	7.476274916928169e+17
19394.0	7.471334163830102e+17
19395.0	7.465544760426496e+17
19396.0	7.460328244423336e+17
19397.0	7.454390007540394e+17
19398.0	7.448722756250281e+17
19399.0	7.44091672868727e+17
19400.0	7.436031207582377e+17
19401.0	7.429598128111616e+17
19402.0	7.423176373261654e+17
19403.0	7.416598184853501e+17
19404.0	7.409847905550333e+17
19405.0	7.402650240811007e+17
19406.0	7.395067916451839e+17
19407.0	7.387470624019796e+17
19408.0	7.378148650560174e+17
19409.0	7.370539393176916e+17
19410.0	7.362118785433599e+17
19411.0	7.352642936941225e+17
19412.0	7.343178168401919e+17
19413.0	7.332624664799913e+17
19414.0	7.321872682538322e+17
19415.0	7.310400675293868e+17
19416.0	7.297575356290387e+17
19417.0	7.28453017187123e+17
19418.0	7.271273730146305e+17
19419.0	7.256330554660177e+17
19420.0	7.240179100854952e+17
19421.0	7.225099635654655e+17
19422.0	7.210030475859284e+17
19423.0	7.194042507635369e+17
19424.0	7.177470163812352e+17
19425.0	7.159477613275817e+17
19426.0	7.140434771268947e+17
19427.0	7.119944960092842e+17
19428.0	7.09857055482402e+17
19429.0	7.075185245028351e+17
19430.0	7.049463877074944e+17
19431.0	7.018164697169929e+17
19432.0	6.993031012024319e+17
19433.0	6.960566367158272e+17
19434.0	6.929369893175295e+17
19435.0	6.896605047291901e+17
19436.0	6.860508751724541e+17
19437.0	6.824626390127955e+17
19438.0	6.76341255259204e+17
19439.0	6.738542525590189e+17
19440.0	6.688218939042474e+17
19441.0	6.636321957915302e+17
19442.0	6.582575615180801e+17
19443.0	6.523115282628607e+17
19444.0	6.45750892737331e+17
19445.0	6.386562895271255e+17
19446.0	6.310122482914643e+17
19447.0	6.224689386313041e+17
19448.0	6.127864734111064e+17
19449.0	6.000362405582164e+17
19450.0	5.718445414241556e+17
19451.0	5.597931472857779e+17
19452.0	5.882219214143493e+17
19453.0	6.069174651934042e+17
19454.0	6.172933342188881e+17
19455.0	6.260883922266793e+17
19456.0	6.339252279312387e+17
19457.0	6.409935659903656e+17
19458.0	6.470623277962591e+17
19459.0	6.535956484063235e+17
19460.0	6.589856596273833e+17
19461.0	6.639209464987647e+17
19462.0	6.688908942595416e+17
19463.0	6.733516038821203e+17
19464.0	6.773765110584659e+17
19465.0	6.810318054708566e+17
19466.0	6.842878139564028e+17
19467.0	6.874561714847743e+17
19468.0	6.903215941484543e+17
19469.0	6.930916942632275e+17
19470.0	6.961285076527784e+17
19471.0	6.986803986825215e+17
19472.0	7.010259096130899e+17
19473.0	7.031483603965268e+17
19474.0	7.05116337270511e+17
19475.0	7.068201273087314e+17
19476.0	7.086017313330516e+17
19477.0	7.101703729272148e+17
19478.0	7.116106909089791e+17
19479.0	7.129505372744361e+17
19480.0	7.142158730876244e+17
19481.0	7.154280751781202e+17
19482.0	7.167246823238313e+17
19483.0	7.179875098034173e+17
19484.0	7.191325132718077e+17
19485.0	7.20181052641553e+17
19486.0	7.211455662609748e+17
19487.0	7.220330155562323e+17
19488.0	7.228880104456191e+17
19489.0	7.23644696301841e+17
19490.0	7.241222527647739e+17
19491.0	7.25007805255953e+17
19492.0	7.256307263690067e+17
19493.0	7.261985544601599e+17
19494.0	7.267550886887423e+17
19495.0	7.272289406025727e+17
19496.0	7.276376100962301e+17
19497.0	7.281620300769961e+17
19498.0	7.284254821406043e+17
19499.0	7.24257126621725e+17
19500.0	7.292992944952662e+17
19501.0	7.296499597006164e+17
19502.0	7.300095396194985e+17
19503.0	7.303316923656874e+17
19504.0	7.306498064165548e+17
19505.0	7.309477769030314e+17
19506.0	7.3122322593437e+17
19507.0	7.314617374081024e+17
19508.0	7.3172424603293e+17
19509.0	7.319128726918484e+17
19510.0	7.320894935749972e+17
19511.0	7.290143442468844e+17
19512.0	7.318324088842895e+17
19513.0	7.311892482970938e+17
19514.0	7.31807742182467e+17
19515.0	7.327198516084741e+17
19516.0	7.3297736775325e+17
19517.0	7.330872803284308e+17
19518.0	7.331917183582207e+17
19519.0	7.332670584040106e+17
19520.0	7.333358410749267e+17
19521.0	7.334055601941161e+17
19522.0	7.334698200072191e+17
19523.0	7.335282851097257e+17
19524.0	7.335660927057919e+17
19525.0	7.33583086907119e+17
19526.0	7.336196956312916e+17
19527.0	7.336378271880532e+17
19528.0	7.336557607736659e+17
19529.0	7.336765394954921e+17
19530.0	7.336807916808874e+17
19531.0	7.336799003912872e+17
19532.0	7.336712089545386e+17
19533.0	7.336598795801939e+17
19534.0	7.336429302579199e+17
19535.0	7.336162939109373e+17
19536.0	7.335967327955625e+17
19537.0	7.335769669981523e+17
19538.0	7.33538582265856e+17
19539.0	7.334034907245231e+17
19540.0	7.334741641876819e+17
19541.0	7.334465414802088e+17
19542.0	7.334064945452372e+17
19543.0	7.333570100068351e+17
19544.0	7.333065465178793e+17
19545.0	7.331807587816783e+17
19546.0	7.330000600563713e+17
19547.0	7.331308004267347e+17
19548.0	7.330837059425619e+17
19549.0	7.32997078046037e+17
19550.0	7.329548749591891e+17
19551.0	7.328866620145663e+17
19552.0	7.328151674464938e+17
19553.0	7.327381274492927e+17
19554.0	7.326579441008639e+17
19555.0	7.325868217073663e+17
19556.0	7.32511264256819e+17
19557.0	7.324427496019284e+17
19558.0	7.323651182078633e+17
19559.0	7.322737805273769e+17
19560.0	7.321900132859903e+17
19561.0	7.321031342904659e+17
19562.0	7.320197435577684e+17
19563.0	7.319296570381654e+17
19564.0	7.318407440848214e+17
19565.0	7.317469813975721e+17
19566.0	7.316484729951572e+17
19567.0	7.315591496990717e+17
19568.0	7.314566302837417e+17
19569.0	7.313620306930345e+17
19570.0	7.312697480358568e+17
19571.0	7.311778355959126e+17
19572.0	7.310701500563456e+17
19573.0	7.309774331488936e+17
19574.0	7.308537614390611e+17
19575.0	7.307740110826152e+17
19576.0	7.306706556026879e+17
19577.0	7.305495681433599e+17
19578.0	7.304528602158419e+17
19579.0	7.303487883487913e+17
19580.0	7.302429931820372e+17
19581.0	7.301378446371497e+17
19582.0	7.300331432050687e+17
19583.0	7.299238990621353e+17
19584.0	7.298121116330664e+17
19585.0	7.296748480015016e+17
19586.0	7.295419130314752e+17
19587.0	7.294331467595775e+17
19588.0	7.292545717501953e+17
19589.0	7.292133299978237e+17
19590.0	7.291200914587647e+17
19591.0	7.290260929118207e+17
19592.0	7.289134859157504e+17
19593.0	7.287924531221844e+17
19594.0	7.286191165188777e+17
19595.0	7.28567973552674e+17
19596.0	7.274498885681158e+17
19597.0	7.283332629572266e+17
19598.0	7.281721145819135e+17
19599.0	7.281051225991849e+17
19600.0	7.279886512510292e+17
19601.0	7.278557659135999e+17
19602.0	7.277429257142271e+17
19603.0	7.27484380427059e+17
19604.0	7.274983112485545e+17
19605.0	7.27323652460817e+17
19606.0	7.272689822247594e+17
19607.0	7.271514821536425e+17
19608.0	7.270280601447081e+17
19609.0	7.268964672121513e+17
19610.0	7.267900142387199e+17
19611.0	7.266689463528106e+17
19612.0	7.265516072031572e+17
19613.0	7.264260440020308e+17
19614.0	7.262969297633279e+17
19615.0	7.261837530409641e+17
19616.0	7.260322995197267e+17
19617.0	7.259371352358911e+17
19618.0	7.257100894513832e+17
19619.0	7.255478643982331e+17
19620.0	7.254315633388198e+17
19621.0	7.254406338008403e+17
19622.0	7.253185989880489e+17
19623.0	7.251948119348564e+17
19624.0	7.250676937654271e+17
19625.0	7.249445097133396e+17
19626.0	7.24817266413841e+17
19627.0	7.246945005338624e+17
19628.0	7.244710826825047e+17
19629.0	7.244214994381481e+17
19630.0	7.242290502303744e+17
19631.0	7.200360175239149e+17
19632.0	7.240602325701972e+17
19633.0	7.239264025356969e+17
19634.0	7.238135062724607e+17
19635.0	7.23677265212211e+17
19636.0	7.235579519434751e+17
19637.0	7.233347190609239e+17
19638.0	7.233049585167016e+17
19639.0	7.231745640366079e+17
19640.0	7.230381304578045e+17
19641.0	7.22821240621193e+17
19642.0	7.227962989128361e+17
19643.0	7.226629839388671e+17
19644.0	7.225305866786131e+17
19645.0	7.223610744416936e+17
19646.0	7.222892696349352e+17
19647.0	7.221614672347135e+17
19648.0	7.220323977352531e+17
19649.0	7.219037540974591e+17
19650.0	7.217774336846505e+17
19651.0	7.21647474713122e+17
19652.0	7.215187731939327e+17
19653.0	7.213906093845161e+17
19654.0	7.2126112478877e+17
19655.0	7.211314002788351e+17
19656.0	7.210041969650344e+17
19657.0	7.208759358477654e+17
19658.0	7.20748112056593e+17
19659.0	7.206198338824874e+17
19660.0	7.204919612975786e+17
19661.0	7.203618489543336e+17
19662.0	7.202340011158186e+17
19663.0	7.20093779661073e+17
19664.0	7.199546801826474e+17
19665.0	7.198493322685097e+17
19666.0	7.197169025723049e+17
