# Flux units: erg / (cm m2 s)
# Wavelength units: Angstrom
wave	flux
19000.0	8.18855934112563e+17
19001.0	8.187158120628224e+17
19002.0	8.185734976503804e+17
19003.0	8.184294795116543e+17
19004.0	8.182855091879933e+17
19005.0	8.181448271986688e+17
19006.0	8.180013631275008e+17
19007.0	8.178571492545875e+17
19008.0	8.176869546044073e+17
19009.0	8.175239628324861e+17
19010.0	8.172279277376849e+17
19011.0	8.172652580219561e+17
19012.0	8.170888641904636e+17
19013.0	8.16992530534673e+17
19014.0	8.168479177834493e+17
19015.0	8.167025223750995e+17
19016.0	8.165331558203391e+17
19017.0	8.164031821687466e+17
19018.0	8.162644185142611e+17
19019.0	8.161205875813033e+17
19020.0	8.160514749584724e+17
19021.0	8.15979518178099e+17
19022.0	8.158369772732415e+17
19023.0	8.156901729981779e+17
19024.0	8.155387075930794e+17
19025.0	8.153898228034217e+17
19026.0	8.152284886204415e+17
19027.0	8.150496214078803e+17
19028.0	8.149545583465811e+17
19029.0	8.148072316010496e+17
19030.0	8.14660555392068e+17
19031.0	8.145125856597331e+17
19032.0	8.143641675563007e+17
19033.0	8.142147591776936e+17
19034.0	8.140620975570943e+17
19035.0	8.138756955570175e+17
19036.0	8.105382354354166e+17
19037.0	8.135898320688467e+17
19038.0	8.13469171589666e+17
19039.0	8.133244660045139e+17
19040.0	8.131769313613139e+17
19041.0	8.130285262602239e+17
19042.0	8.128785621363369e+17
19043.0	8.127307446572372e+17
19044.0	8.125802053544617e+17
19045.0	8.124291983867903e+17
19046.0	8.122597736710143e+17
19047.0	8.121202501484543e+17
19048.0	8.118951502413821e+17
19049.0	8.118277077904041e+17
19050.0	8.116751336909481e+17
19051.0	8.110159178672804e+17
19052.0	8.112529558820179e+17
19053.0	8.112271435759615e+17
19054.0	8.110802182253224e+17
19055.0	8.109304242503679e+17
19056.0	8.107804075578708e+17
19057.0	8.106298015656616e+17
19058.0	8.104777323205972e+17
19059.0	8.103264639079763e+17
19060.0	8.101771919840595e+17
19061.0	8.10077811446033e+17
19062.0	8.099242632893779e+17
19063.0	8.097728248676351e+17
19064.0	8.095798028577449e+17
19065.0	8.094389270915753e+17
19066.0	8.093190878571178e+17
19067.0	8.091675181536594e+17
19068.0	8.090153553756157e+17
19069.0	8.088636116085417e+17
19070.0	8.08707358545237e+17
19071.0	8.08557256848179e+17
19072.0	8.084062680558249e+17
19073.0	8.082522600636416e+17
19074.0	8.081019244642303e+17
19075.0	8.079491515547648e+17
19076.0	8.077877182463999e+17
19077.0	8.076371407754582e+17
19078.0	8.074794006915753e+17
19079.0	8.073374172097194e+17
19080.0	8.07184274502451e+17
19081.0	8.07030472450594e+17
19082.0	8.068582617382911e+17
19083.0	8.067147683069951e+17
19084.0	8.065688677646333e+17
19085.0	8.064125910734164e+17
19086.0	8.062484812398591e+17
19087.0	8.060380939725481e+17
19088.0	8.059262791406931e+17
19089.0	8.057592757966164e+17
19090.0	8.056344323380564e+17
19091.0	8.054836743722322e+17
19092.0	8.053205159466323e+17
19093.0	8.051826651125076e+17
19094.0	8.050306305403561e+17
19095.0	8.048769790640128e+17
19096.0	8.047166397699412e+17
19097.0	8.045677717574996e+17
19098.0	8.044145816545961e+17
19099.0	8.042598329483264e+17
19100.0	8.040999973901651e+17
19101.0	8.039470193792339e+17
19102.0	8.037568748016979e+17
19103.0	8.036407585712808e+17
19104.0	8.034853087171923e+17
19105.0	8.033268876181503e+17
19106.0	8.031598914043901e+17
19107.0	8.030074153118376e+17
19108.0	8.028488394429779e+17
19109.0	8.024369455082149e+17
19110.0	8.025041184052564e+17
19111.0	8.023905952333821e+17
19112.0	8.022404799747411e+17
19113.0	8.020865427264854e+17
19114.0	8.019307427878228e+17
19115.0	8.017592381166932e+17
19116.0	8.016181125098153e+17
19117.0	8.014577895735296e+17
19118.0	8.012794003718144e+17
19119.0	8.000163978499396e+17
19120.0	8.009609938381481e+17
19121.0	8.008141609020073e+17
19122.0	8.006816498363049e+17
19123.0	8.005249359588008e+17
19124.0	8.003681802780671e+17
19125.0	8.0020957574813e+17
19126.0	8.000390786886314e+17
19127.0	7.991499820105725e+17
19128.0	7.997211886135978e+17
19129.0	7.9957955983005e+17
19130.0	7.994267838447616e+17
19131.0	7.992688104177664e+17
19132.0	7.991087142535165e+17
19133.0	7.989202303407446e+17
19134.0	7.987968579644073e+17
19135.0	7.98639898440499e+17
19136.0	7.984812932115113e+17
19137.0	7.98256302076723e+17
19138.0	7.981585543812434e+17
19139.0	7.980087434892628e+17
19140.0	7.978520670808748e+17
19141.0	7.976941000851455e+17
19142.0	7.975350878688595e+17
19143.0	7.973552280043519e+17
19144.0	7.972135258204842e+17
19145.0	7.970602828693501e+17
19146.0	7.968958790150826e+17
19147.0	7.966226308748628e+17
19148.0	7.964345006817279e+17
19149.0	7.962759063579305e+17
19150.0	7.961158402528596e+17
19151.0	7.959590331219965e+17
19152.0	7.957953838230186e+17
19153.0	7.956383598466387e+17
19154.0	7.954247317804372e+17
19155.0	7.953150654109012e+17
19156.0	7.951523213825364e+17
19157.0	7.949651342087508e+17
19158.0	7.94689742918997e+17
19159.0	7.946495610672468e+17
19160.0	7.945059440437928e+17
19161.0	7.94336382174276e+17
19162.0	7.937757513689772e+17
19163.0	7.939672617517053e+17
19164.0	7.938697125866154e+17
19165.0	7.937076336350548e+17
19166.0	7.935037353754621e+17
19167.0	7.933548922492242e+17
19168.0	7.932203693157034e+17
19169.0	7.93063160370517e+17
19170.0	7.929112232460285e+17
19171.0	7.927372672838316e+17
19172.0	7.925862087262205e+17
19173.0	7.924291317618003e+17
19174.0	7.922456239712938e+17
19175.0	7.921069707668136e+17
19176.0	7.919458559459325e+17
19177.0	7.917799558436179e+17
19178.0	7.916064903353683e+17
19179.0	7.914351685358932e+17
19180.0	7.912892965147987e+17
19181.0	7.910887602694824e+17
19182.0	7.909600798616233e+17
19183.0	7.908069412088488e+17
19184.0	7.906363836115624e+17
19185.0	7.904775676887039e+17
19186.0	7.903158715372884e+17
19187.0	7.901494411351382e+17
19188.0	7.899862160201042e+17
19189.0	7.898238574482772e+17
19190.0	7.896560638973266e+17
19191.0	7.894878637785085e+17
19192.0	7.893248151038633e+17
19193.0	7.891545908139346e+17
19194.0	7.889857305116671e+17
19195.0	7.888113991592617e+17
19196.0	7.886237118846291e+17
19197.0	7.884167984797012e+17
19198.0	7.879587146323284e+17
19199.0	7.853643000709112e+17
19200.0	7.856908386609839e+17
19201.0	7.874227329127764e+17
19202.0	7.874009447617876e+17
19203.0	7.872674070702761e+17
19204.0	7.871127166648317e+17
19205.0	7.869648587806036e+17
19206.0	7.867993177107113e+17
19207.0	7.866263028105215e+17
19208.0	7.86389727986756e+17
19209.0	7.863077696088744e+17
19210.0	7.861408530868905e+17
19211.0	7.859725910321833e+17
19212.0	7.858027243765761e+17
19213.0	7.856155323094358e+17
19214.0	7.854079694864384e+17
19215.0	7.852843841792681e+17
19216.0	7.851251204445526e+17
19217.0	7.849461232085673e+17
19218.0	7.84438688061849e+17
19219.0	7.846057271973204e+17
19220.0	7.84445330021854e+17
19221.0	7.841448225406977e+17
19222.0	7.840942632818003e+17
19223.0	7.839341251745108e+17
19224.0	7.837597250355197e+17
19225.0	7.833705811454632e+17
19226.0	7.831694420388521e+17
19227.0	7.829987145722538e+17
19228.0	7.82825976775748e+17
19229.0	7.8265200962874e+17
19230.0	7.824357412481706e+17
19231.0	7.822592453552809e+17
19232.0	7.820786130397864e+17
19233.0	7.818988111964841e+17
19234.0	7.817246053935786e+17
19235.0	7.815588485966505e+17
19236.0	7.813822591707817e+17
19237.0	7.8119939632442e+17
19238.0	7.81012803203891e+17
19239.0	7.808528678212947e+17
19240.0	7.806601283676842e+17
19241.0	7.804911492268032e+17
19242.0	7.802994408729257e+17
19243.0	7.798275907605842e+17
19244.0	7.796486957258067e+17
19245.0	7.7946918273024e+17
19246.0	7.79283077547076e+17
19247.0	7.791067086017875e+17
19248.0	7.789277924556799e+17
19249.0	7.78745617335364e+17
19250.0	7.785629493843284e+17
19251.0	7.783807562285055e+17
19252.0	7.782008229636778e+17
19253.0	7.780138141876224e+17
19254.0	7.778324078832296e+17
19255.0	7.776507729892691e+17
19256.0	7.774654324277247e+17
19257.0	7.7692189802496e+17
19258.0	7.767111703199743e+17
19259.0	7.765251769849172e+17
19260.0	7.762865915516242e+17
19261.0	7.761526263207251e+17
19262.0	7.759652105573715e+17
19263.0	7.757578447268522e+17
19264.0	7.753765457231867e+17
19265.0	7.753187072496978e+17
19266.0	7.751498097579348e+17
19267.0	7.750224253900115e+17
19268.0	7.748321583387986e+17
19269.0	7.744672744428882e+17
19270.0	7.742139791660372e+17
19271.0	7.738886229502638e+17
19272.0	7.738093735335251e+17
19273.0	7.731734053388283e+17
19274.0	7.731122129600508e+17
19275.0	7.73161422631731e+17
19276.0	7.729694745034748e+17
19277.0	7.727732059624786e+17
19278.0	7.725749694540457e+17
19279.0	7.72369849253888e+17
19280.0	7.721449420051794e+17
19281.0	7.719720976733526e+17
19282.0	7.717688488318292e+17
19283.0	7.71544093556736e+17
19284.0	7.7134773092352e+17
19285.0	7.710942670356479e+17
19286.0	7.709483537705641e+17
19287.0	7.70743899206451e+17
19288.0	7.696605861205322e+17
19289.0	7.683293678578316e+17
19290.0	7.701226331657556e+17
19291.0	7.699223533322237e+17
19292.0	7.697154641144488e+17
19293.0	7.695031688582484e+17
19294.0	7.692942126874621e+17
19295.0	7.6908188415645e+17
19296.0	7.687818910367743e+17
19297.0	7.685214296517289e+17
19298.0	7.683068265496573e+17
19299.0	7.680871449843028e+17
19300.0	7.678662336490153e+17
19301.0	7.676427615513257e+17
19302.0	7.674209969547944e+17
19303.0	7.671828284353194e+17
19304.0	7.66957839397683e+17
19305.0	7.667460513726461e+17
19306.0	7.665192997486591e+17
19307.0	7.662625345241087e+17
19308.0	7.660505001536169e+17
19309.0	7.657435054822739e+17
19310.0	7.652934766559228e+17
19311.0	7.651544414901587e+17
19312.0	7.649366393924264e+17
19313.0	7.64693799117346e+17
19314.0	7.628756172668924e+17
19315.0	7.627511683525313e+17
19316.0	7.639647900751186e+17
19317.0	7.637376426486441e+17
19318.0	7.634959032385533e+17
19319.0	7.632515851703638e+17
19320.0	7.628542685391528e+17
19321.0	7.624922750779391e+17
19322.0	7.621994388389887e+17
19323.0	7.619532722012157e+17
19324.0	7.617202043748351e+17
19325.0	7.61424452115934e+17
19326.0	7.612098940327251e+17
19327.0	7.609536747667453e+17
19328.0	7.606994322762409e+17
19329.0	7.601617775886333e+17
19330.0	7.59813445394978e+17
19331.0	7.595492192026624e+17
19332.0	7.592772574554793e+17
19333.0	7.58996621468194e+17
19334.0	7.587154883160745e+17
19335.0	7.582741162535596e+17
19336.0	7.577114277227177e+17
19337.0	7.57417292088388e+17
19338.0	7.571160261372585e+17
19339.0	7.568233106942633e+17
19340.0	7.565008765102761e+17
19341.0	7.556899359337128e+17
19342.0	7.552310643960488e+17
19343.0	7.550514705902249e+17
19344.0	7.54727221810517e+17
19345.0	7.53685238277733e+17
19346.0	7.531204457441955e+17
19347.0	7.53078197358865e+17
19348.0	7.527673381956266e+17
19349.0	7.522702262097236e+17
19350.0	7.513261196967936e+17
19351.0	7.509680648268457e+17
19352.0	7.505988223500287e+17
19353.0	7.500019319264595e+17
19354.0	7.494310524791464e+17
19355.0	7.490504077869055e+17
19356.0	7.486633238593536e+17
19357.0	7.482735144730621e+17
19358.0	7.478724141602132e+17
19359.0	7.47457168417314e+17
19360.0	7.470625330648404e+17
19361.0	7.466540282675197e+17
19362.0	7.46255432233779e+17
19363.0	7.45837690041139e+17
19364.0	7.45414282182656e+17
19365.0	7.449742009871017e+17
19366.0	7.445408822678867e+17
19367.0	7.441024620167165e+17
19368.0	7.436583376519165e+17
19369.0	7.431876797005823e+17
19370.0	7.42711159230737e+17
19371.0	7.422876233061715e+17
19372.0	7.418171413757952e+17
19373.0	7.413396184672938e+17
19374.0	7.408600033001471e+17
19375.0	7.403703645853011e+17
19376.0	7.398750273492306e+17
19377.0	7.393720301955753e+17
19378.0	7.388655517695999e+17
19379.0	7.383524610233684e+17
19380.0	7.378332548420947e+17
19381.0	7.372887112897875e+17
19382.0	7.367392735439529e+17
19383.0	7.361787726222676e+17
19384.0	7.356538809221117e+17
19385.0	7.351034077424297e+17
19386.0	7.345457897056938e+17
19387.0	7.339705484618408e+17
19388.0	7.333802218444116e+17
19389.0	7.327789374679722e+17
19390.0	7.321424729473023e+17
19391.0	7.293126662160353e+17
19392.0	7.307677596123131e+17
19393.0	7.301915129937919e+17
19394.0	7.295302843236351e+17
19395.0	7.288554312957952e+17
19396.0	7.281161613082624e+17
19397.0	7.273421718508884e+17
19398.0	7.266148834519722e+17
19399.0	7.256542277533692e+17
19400.0	7.250857256375638e+17
19401.0	7.241533170384896e+17
19402.0	7.233255064119977e+17
19403.0	7.224719898749612e+17
19404.0	7.215099345371135e+17
19405.0	7.204582800577875e+17
19406.0	7.195315632690516e+17
19407.0	7.18482053337361e+17
19408.0	7.17082071977165e+17
19409.0	7.162866791262892e+17
19410.0	7.15024485545847e+17
19411.0	7.138492629559977e+17
19412.0	7.125903976955905e+17
19413.0	7.111395960509778e+17
19414.0	7.097999287823014e+17
19415.0	7.081637296734208e+17
19416.0	7.0674991242281e+17
19417.0	7.049106241355773e+17
19418.0	7.034043519117998e+17
19419.0	7.014434729885695e+17
19420.0	6.996982689518929e+17
19421.0	6.976733228040191e+17
19422.0	6.958880698051244e+17
19423.0	6.939638943274323e+17
19424.0	6.922308016930815e+17
19425.0	6.904397385345705e+17
19426.0	6.884719141934419e+17
19427.0	6.863689537115476e+17
19428.0	6.842010806430378e+17
19429.0	6.818140476407807e+17
19430.0	6.792572812219735e+17
19431.0	6.764029083822764e+17
19432.0	6.738294771548156e+17
19433.0	6.709339867840512e+17
19434.0	6.676810633489066e+17
19435.0	6.641847717156178e+17
19436.0	6.603889851061588e+17
19437.0	6.564949071495167e+17
19438.0	6.50519195278814e+17
19439.0	6.47569889680862e+17
19440.0	6.425745543572138e+17
19441.0	6.371571193784998e+17
19442.0	6.311925428256768e+17
19443.0	6.24643639677201e+17
19444.0	6.174393767384401e+17
19445.0	6.094472503536302e+17
19446.0	6.005459892131156e+17
19447.0	5.905470063640571e+17
19448.0	5.791853402128388e+17
19449.0	5.6601200652451834e+17
19450.0	5.4962939358085024e+17
19451.0	5.405172092108807e+17
19452.0	5.584096840034985e+17
19453.0	5.7266539314107776e+17
19454.0	5.846106729261733e+17
19455.0	5.950116912780628e+17
19456.0	6.042015548571652e+17
19457.0	6.123802159917734e+17
19458.0	6.185066755522579e+17
19459.0	6.26314000763017e+17
19460.0	6.32328961742165e+17
19461.0	6.377826320121855e+17
19462.0	6.427427809700524e+17
19463.0	6.473624456964776e+17
19464.0	6.515318366491988e+17
19465.0	6.553401542311936e+17
19466.0	6.589664397885437e+17
19467.0	6.622665930440703e+17
19468.0	6.653973412970496e+17
19469.0	6.681201044269736e+17
19470.0	6.707918517480104e+17
19471.0	6.732736591735466e+17
19472.0	6.755375539814397e+17
19473.0	6.777580515142313e+17
19474.0	6.797477014754646e+17
19475.0	6.814438490024614e+17
19476.0	6.833969623116457e+17
19477.0	6.849854207339178e+17
19478.0	6.864792699884883e+17
19479.0	6.879837404091732e+17
19480.0	6.896894149481812e+17
19481.0	6.911989952195237e+17
19482.0	6.929514431687338e+17
19483.0	6.944146991000234e+17
19484.0	6.959501200588799e+17
19485.0	6.972786692762284e+17
19486.0	6.986662289954132e+17
19487.0	6.99860421932919e+17
19488.0	7.011362537821523e+17
19489.0	7.021007550283775e+17
19490.0	7.029663537474213e+17
19491.0	7.041407298568191e+17
19492.0	7.052327703106903e+17
19493.0	7.06002753368883e+17
19494.0	7.067848642570917e+17
19495.0	7.076926889219412e+17
19496.0	7.082471252994729e+17
19497.0	7.090207090278399e+17
19498.0	7.095306769749335e+17
19499.0	7.07119357624318e+17
19500.0	7.109561275471187e+17
19501.0	7.115977647631017e+17
19502.0	7.121603394884947e+17
19503.0	7.126370586285395e+17
19504.0	7.130962820683092e+17
19505.0	7.135497882522966e+17
19506.0	7.140674046525437e+17
19507.0	7.144660873685674e+17
19508.0	7.148560891336019e+17
19509.0	7.152276822381908e+17
19510.0	7.15519498002978e+17
19511.0	7.128237457014765e+17
19512.0	7.15760476286702e+17
19513.0	7.155715796544155e+17
19514.0	7.162147844216138e+17
19515.0	7.171014511995565e+17
19516.0	7.175551303286781e+17
19517.0	7.178178665644032e+17
19518.0	7.181049317206697e+17
19519.0	7.183624903677267e+17
19520.0	7.186100401471488e+17
19521.0	7.188946960951976e+17
19522.0	7.191374161335636e+17
19523.0	7.193706419453951e+17
19524.0	7.195969630939817e+17
19525.0	7.198139972146516e+17
19526.0	7.200331111508649e+17
19527.0	7.202405039647402e+17
19528.0	7.204428602583722e+17
19529.0	7.206373378315603e+17
19530.0	7.208266822757033e+17
19531.0	7.210103937695744e+17
19532.0	7.211855628642985e+17
19533.0	7.213529880155475e+17
19534.0	7.215145516269568e+17
19535.0	7.216703838617599e+17
19536.0	7.21818047549713e+17
19537.0	7.219651315848531e+17
19538.0	7.220718862685526e+17
19539.0	7.220615836598276e+17
19540.0	7.223782077541033e+17
19541.0	7.225050249123156e+17
19542.0	7.226248872154451e+17
19543.0	7.227388238058836e+17
19544.0	7.228476616605696e+17
19545.0	7.227751527699793e+17
19546.0	7.227370979895978e+17
19547.0	7.231512214765565e+17
19548.0	7.233205123940348e+17
19549.0	7.237348857217023e+17
19550.0	7.238123545165823e+17
19551.0	7.238873706222932e+17
19552.0	7.243211704281766e+17
19553.0	7.247029145873064e+17
19554.0	7.247543187188394e+17
19555.0	7.248206189210281e+17
19556.0	7.250951864494762e+17
19557.0	7.254945529768617e+17
19558.0	7.255300346915497e+17
19559.0	7.255621290863274e+17
19560.0	7.255913712145748e+17
19561.0	7.259585232502783e+17
19562.0	7.261194086427305e+17
19563.0	7.261333049311232e+17
19564.0	7.261444883436883e+17
19565.0	7.261526862506666e+17
19566.0	7.262467807073615e+17
19567.0	7.265503059902463e+17
19568.0	7.265471429257897e+17
19569.0	7.265378209453396e+17
19570.0	7.265322620944383e+17
19571.0	7.265212639302996e+17
19572.0	7.265069669460649e+17
19573.0	7.26703460581376e+17
19574.0	7.267732683401897e+17
19575.0	7.267470494662655e+17
19576.0	7.267191633565011e+17
19577.0	7.266853579653119e+17
19578.0	7.266426083606527e+17
19579.0	7.266255744532479e+17
19580.0	7.265904844865535e+17
19581.0	7.265501456280234e+17
19582.0	7.267044698707284e+17
19583.0	7.267118823243775e+17
19584.0	7.266685449579177e+17
19585.0	7.266257767585108e+17
19586.0	7.265745475294548e+17
19587.0	7.265199643951104e+17
19588.0	7.26303174942174e+17
19589.0	7.264334648442879e+17
19590.0	7.263677702995968e+17
19591.0	7.263371518803965e+17
19592.0	7.263085892293974e+17
19593.0	7.263980682739711e+17
19594.0	7.26336558666001e+17
19595.0	7.262833442728617e+17
19596.0	7.262216122269693e+17
19597.0	7.261635330004308e+17
19598.0	7.26011035656738e+17
19599.0	7.26039509807923e+17
19600.0	7.259759990975144e+17
19601.0	7.258937195757568e+17
19602.0	7.258157769643347e+17
19603.0	7.25583949952887e+17
19604.0	7.256965610034514e+17
19605.0	7.255826527944701e+17
19606.0	7.255666283162281e+17
19607.0	7.256071987003391e+17
19608.0	7.255310065117866e+17
19609.0	7.254456845817172e+17
19610.0	7.253828601992531e+17
19611.0	7.253041722600106e+17
19612.0	7.252292419977215e+17
19613.0	7.251505525205674e+17
19614.0	7.250708003465896e+17
19615.0	7.249889120135849e+17
19616.0	7.248841886313129e+17
19617.0	7.248224224717481e+17
19618.0	7.24506661844855e+17
19619.0	7.243629284993702e+17
19620.0	7.243036775241044e+17
19621.0	7.244839821246463e+17
19622.0	7.244017258113705e+17
19623.0	7.243150962371241e+17
19624.0	7.242270213057194e+17
19625.0	7.241375830857042e+17
19626.0	7.24046360748578e+17
19627.0	7.239488377279827e+17
19628.0	7.237929950074198e+17
19629.0	7.237319021734569e+17
19630.0	7.232283052343293e+17
19631.0	7.209276991515308e+17
19632.0	7.234855662256127e+17
19633.0	7.236255877518676e+17
19634.0	7.235681647940948e+17
19635.0	7.234772149469183e+17
19636.0	7.233821165136553e+17
19637.0	7.232848113172479e+17
19638.0	7.231866395776339e+17
19639.0	7.230926499785385e+17
19640.0	7.229782750833324e+17
19641.0	7.226422531719173e+17
19642.0	7.227957669352787e+17
19643.0	7.226941880227155e+17
19644.0	7.225785510614355e+17
19645.0	7.226056391349585e+17
19646.0	7.227219923435517e+17
19647.0	7.226224013912745e+17
19648.0	7.225204364629332e+17
19649.0	7.224167995452074e+17
19650.0	7.223148181192704e+17
19651.0	7.22211300319778e+17
19652.0	7.2210726270621e+17
19653.0	7.220020146165075e+17
19654.0	7.21897923735279e+17
19655.0	7.217905578016765e+17
19656.0	7.216840175867219e+17
19657.0	7.215808667888297e+17
19658.0	7.214743826377385e+17
19659.0	7.214635911129769e+17
19660.0	7.21525115261201e+17
19661.0	7.214179391897599e+17
19662.0	7.213095172702207e+17
19663.0	7.21180914876416e+17
19664.0	7.210824612795731e+17
19665.0	7.209877958382931e+17
19666.0	7.20918976537122e+17
