# Flux units: erg / (cm m2 s)
# Wavelength units: Angstrom
wave	flux
19000.0	7.106135477015892e+17
19001.0	7.104775658493268e+17
19002.0	7.103547482395987e+17
19003.0	7.102251970942292e+17
19004.0	7.100956518208851e+17
19005.0	7.099661114408959e+17
19006.0	7.098376695491242e+17
19007.0	7.097076346606931e+17
19008.0	7.095758884962301e+17
19009.0	7.09438477504785e+17
19010.0	7.093025587068927e+17
19011.0	7.091856258454867e+17
19012.0	7.090506285361832e+17
19013.0	7.089294039231145e+17
19014.0	7.087962599369386e+17
19015.0	7.086678412536489e+17
19016.0	7.085397716762623e+17
19017.0	7.084112730215764e+17
19018.0	7.082807569066666e+17
19019.0	7.081513250193407e+17
19020.0	7.080206407128404e+17
19021.0	7.078921164729e+17
19022.0	7.077623480625833e+17
19023.0	7.076294381185705e+17
19024.0	7.075012144704169e+17
19025.0	7.073716905880233e+17
19026.0	7.072403611975679e+17
19027.0	7.071095099577683e+17
19028.0	7.069821584452266e+17
19029.0	7.068526061813759e+17
19030.0	7.067237132621139e+17
19031.0	7.065934008505684e+17
19032.0	7.064626441224191e+17
19033.0	7.063248459967145e+17
19034.0	7.06194233832243e+17
19035.0	7.060249289337513e+17
19036.0	7.056319518692692e+17
19037.0	7.057756278925994e+17
19038.0	7.056745869694292e+17
19039.0	7.055513153961983e+17
19040.0	7.05423077347601e+17
19041.0	7.052933034846889e+17
19042.0	7.051553322740393e+17
19043.0	7.050344640370004e+17
19044.0	7.04903740863283e+17
19045.0	7.047740809456297e+17
19046.0	7.04642139885841e+17
19047.0	7.045103080177663e+17
19048.0	7.043766566606164e+17
19049.0	7.042412861980671e+17
19050.0	7.041140925311657e+17
19051.0	7.039485226603859e+17
19052.0	7.038374914643283e+17
19053.0	7.037295320367104e+17
19054.0	7.036031952661161e+17
19055.0	7.034566678850218e+17
19056.0	7.033425849832787e+17
19057.0	7.032145472126975e+17
19058.0	7.030815152144383e+17
19059.0	7.029540275967316e+17
19060.0	7.028248710654634e+17
19061.0	7.026953485811711e+17
19062.0	7.025651953434623e+17
19063.0	7.024347652816895e+17
19064.0	7.023006356340733e+17
19065.0	7.021647704533674e+17
19066.0	7.020400459732308e+17
19067.0	7.019157463760895e+17
19068.0	7.017859400073215e+17
19069.0	7.016560354918399e+17
19070.0	7.015249620937385e+17
19071.0	7.013962188412244e+17
19072.0	7.012652926631935e+17
19073.0	7.011363427713024e+17
19074.0	7.010065074618365e+17
19075.0	7.00876521157427e+17
19076.0	7.007460888586922e+17
19077.0	7.00615641670178e+17
19078.0	7.004852903215101e+17
19079.0	7.003567499334995e+17
19080.0	7.002259806923434e+17
19081.0	7.000939057643519e+17
19082.0	6.999658906430121e+17
19083.0	6.998295817748479e+17
19084.0	6.99690966458914e+17
19085.0	6.995765552829779e+17
19086.0	6.99419106283793e+17
19087.0	6.993117125279743e+17
19088.0	6.991790931793235e+17
19089.0	6.990430559622484e+17
19090.0	6.989245249312084e+17
19091.0	6.987959702825642e+17
19092.0	6.986620955088212e+17
19093.0	6.98538511250227e+17
19094.0	6.984090943225855e+17
19095.0	6.982794687283199e+17
19096.0	6.981494228647935e+17
19097.0	6.980199080700585e+17
19098.0	6.97889207755298e+17
19099.0	6.977592632541183e+17
19100.0	6.976296888303615e+17
19101.0	6.975000065430867e+17
19102.0	6.973674914228906e+17
19103.0	6.972414080581632e+17
19104.0	6.971117426180095e+17
19105.0	6.969789635362815e+17
19106.0	6.968512113278975e+17
19107.0	6.967198276212052e+17
19108.0	6.965875652078249e+17
19109.0	6.964516306812927e+17
19110.0	6.963267498934272e+17
19111.0	6.962008756846591e+17
19112.0	6.960725527014057e+17
19113.0	6.959444130791423e+17
19114.0	6.958146383074644e+17
19115.0	6.956824916568746e+17
19116.0	6.955533772084563e+17
19117.0	6.954229392474111e+17
19118.0	6.952783093694461e+17
19119.0	6.949503584873128e+17
19120.0	6.950261112526163e+17
19121.0	6.949037624961706e+17
19122.0	6.947767438016511e+17
19123.0	6.946475759457619e+17
19124.0	6.945143730995199e+17
19125.0	6.943859018476202e+17
19126.0	6.942462586475859e+17
19127.0	6.94067911668531e+17
19128.0	6.939840426453674e+17
19129.0	6.938621654685012e+17
19130.0	6.937397323366399e+17
19131.0	6.936119664967679e+17
19132.0	6.934826491838461e+17
19133.0	6.933504693982548e+17
19134.0	6.932230365861204e+17
19135.0	6.93094341288482e+17
19136.0	6.929643990941695e+17
19137.0	6.928311807989075e+17
19138.0	6.927047209953961e+17
19139.0	6.925769666199551e+17
19140.0	6.924479551417002e+17
19141.0	6.923186188146004e+17
19142.0	6.921874531418111e+17
19143.0	6.920580632674303e+17
19144.0	6.919273836445695e+17
19145.0	6.918007026614272e+17
19146.0	6.916315925883561e+17
19147.0	6.915392890295636e+17
19148.0	6.914114841127594e+17
19149.0	6.912821867926868e+17
19150.0	6.911538749243391e+17
19151.0	6.910244510760959e+17
19152.0	6.908941632711338e+17
19153.0	6.907611781092692e+17
19154.0	6.90631959642112e+17
19155.0	6.905047619207165e+17
19156.0	6.903753993093119e+17
19157.0	6.902426347678377e+17
19158.0	6.901093608281427e+17
19159.0	6.899830209118207e+17
19160.0	6.898531080776361e+17
19161.0	6.897208419592873e+17
19162.0	6.895797952752297e+17
19163.0	6.894584839099732e+17
19164.0	6.893362017730559e+17
19165.0	6.892064334326441e+17
19166.0	6.890756669177855e+17
19167.0	6.889495169335293e+17
19168.0	6.888219324973055e+17
19169.0	6.886933526129321e+17
19170.0	6.885644558488916e+17
19171.0	6.884350704484351e+17
19172.0	6.883060799417001e+17
19173.0	6.881767265577641e+17
19174.0	6.880459869563561e+17
19175.0	6.879180696322047e+17
19176.0	6.877891392438271e+17
19177.0	6.876498826887165e+17
19178.0	6.875297804713983e+17
19179.0	6.874001149613395e+17
19180.0	6.872705559866026e+17
19181.0	6.871376454833492e+17
19182.0	6.870110161600511e+17
19183.0	6.868835192449705e+17
19184.0	6.867541313279316e+17
19185.0	6.866246304443049e+17
19186.0	6.864951331258365e+17
19187.0	6.863607634242217e+17
19188.0	6.862356675384659e+17
19189.0	6.861059753246719e+17
19190.0	6.859758560608255e+17
19191.0	6.858435033300992e+17
19192.0	6.857150072619007e+17
19193.0	6.855837477765119e+17
19194.0	6.854506000154623e+17
19195.0	6.853173943730175e+17
19196.0	6.851791859045716e+17
19197.0	6.850346334115156e+17
19198.0	6.848699541312852e+17
19199.0	6.846500887855103e+17
19200.0	6.845319978068649e+17
19201.0	6.844854650099028e+17
19202.0	6.843889960179028e+17
19203.0	6.842732178483881e+17
19204.0	6.841516808994815e+17
19205.0	6.840259852981587e+17
19206.0	6.838995396154708e+17
19207.0	6.837628315194707e+17
19208.0	6.836360654618623e+17
19209.0	6.835137040525993e+17
19210.0	6.833854127363412e+17
19211.0	6.832567399481343e+17
19212.0	6.831269514051583e+17
19213.0	6.829908317700095e+17
19214.0	6.828633389793279e+17
19215.0	6.827368050065407e+17
19216.0	6.826068956676095e+17
19217.0	6.824726507465385e+17
19218.0	6.82324575527458e+17
19219.0	6.822009069633533e+17
19220.0	6.820845808779264e+17
19221.0	6.819504610869247e+17
19222.0	6.81825542550323e+17
19223.0	6.816977570671274e+17
19224.0	6.815658671778474e+17
19225.0	6.81436177830161e+17
19226.0	6.813082768637951e+17
19227.0	6.811787499055786e+17
19228.0	6.810508213966164e+17
19229.0	6.809206708852052e+17
19230.0	6.807904487211007e+17
19231.0	6.806592192948905e+17
19232.0	6.805294767494484e+17
19233.0	6.803953698209791e+17
19234.0	6.802685226035881e+17
19235.0	6.801364940226559e+17
19236.0	6.800080427636052e+17
19237.0	6.798769782434474e+17
19238.0	6.797417677935955e+17
19239.0	6.796163272059561e+17
19240.0	6.794857060237311e+17
19241.0	6.793535415473491e+17
19242.0	6.792230380852564e+17
19243.0	6.790820136310099e+17
19244.0	6.789623791484928e+17
19245.0	6.788308181625514e+17
19246.0	6.786980804646227e+17
19247.0	6.785659582109012e+17
19248.0	6.784348743270399e+17
19249.0	6.783035136191146e+17
19250.0	6.781704270949033e+17
19251.0	6.780344251099817e+17
19252.0	6.778882540350122e+17
19253.0	6.777761701385556e+17
19254.0	6.776457398670675e+17
19255.0	6.775003059410259e+17
19256.0	6.773808244806996e+17
19257.0	6.772499108156755e+17
19258.0	6.771176415515987e+17
19259.0	6.769793980607146e+17
19260.0	6.768452745647443e+17
19261.0	6.767187331121151e+17
19262.0	6.765827336437759e+17
19263.0	6.764465218737491e+17
19264.0	6.763006139214505e+17
19265.0	6.761777092799145e+17
19266.0	6.760464685290836e+17
19267.0	6.759231004868607e+17
19268.0	6.757903742533631e+17
19269.0	6.756567705015636e+17
19270.0	6.755203339168425e+17
19271.0	6.753785891607892e+17
19272.0	6.752530665046015e+17
19273.0	6.751056527272617e+17
19274.0	6.74960773358114e+17
19275.0	6.748546714479273e+17
19276.0	6.747199488655359e+17
19277.0	6.745860973002751e+17
19278.0	6.744518346233172e+17
19279.0	6.74315338060049e+17
19280.0	6.741800415570601e+17
19281.0	6.740461394504362e+17
19282.0	6.739094607145642e+17
19283.0	6.737710171553792e+17
19284.0	6.73632946959155e+17
19285.0	6.734953970663423e+17
19286.0	6.733580581470207e+17
19287.0	6.73215677464576e+17
19288.0	6.729519855566847e+17
19289.0	6.727538928429736e+17
19290.0	6.728044764987392e+17
19291.0	6.726627095827796e+17
19292.0	6.725459670029652e+17
19293.0	6.724098591118676e+17
19294.0	6.722721596921172e+17
19295.0	6.721354548816554e+17
19296.0	6.719961512804351e+17
19297.0	6.718579883201875e+17
19298.0	6.717184937383252e+17
19299.0	6.715798625539412e+17
19300.0	6.714420538725715e+17
19301.0	6.713022765247145e+17
19302.0	6.711594469818367e+17
19303.0	6.710161808119123e+17
19304.0	6.708779863943849e+17
19305.0	6.707299849251497e+17
19306.0	6.705888516287145e+17
19307.0	6.704444376875007e+17
19308.0	6.703017729108649e+17
19309.0	6.701563661079891e+17
19310.0	6.700104741639508e+17
19311.0	6.698700620081834e+17
19312.0	6.697281950580735e+17
19313.0	6.695784737843881e+17
19314.0	6.690442075351721e+17
19315.0	6.689251463441069e+17
19316.0	6.691421618700285e+17
19317.0	6.690054779611817e+17
19318.0	6.688609282643284e+17
19319.0	6.6871638360064e+17
19320.0	6.685688839099732e+17
19321.0	6.684181625744042e+17
19322.0	6.68261441217058e+17
19323.0	6.681137516642303e+17
19324.0	6.679656443587242e+17
19325.0	6.678158345852244e+17
19326.0	6.676670892561748e+17
19327.0	6.6751703299741e+17
19328.0	6.673642372289876e+17
19329.0	6.672153147604991e+17
19330.0	6.670623424817833e+17
19331.0	6.669074314559487e+17
19332.0	6.667571946323967e+17
19333.0	6.666027551162368e+17
19334.0	6.66446144278801e+17
19335.0	6.662745517370026e+17
19336.0	6.661220447464105e+17
19337.0	6.659609550913533e+17
19338.0	6.657870055604223e+17
19339.0	6.656394499457023e+17
19340.0	6.654735525696852e+17
19341.0	6.653093619258708e+17
19342.0	6.651412317820244e+17
19343.0	6.649854640695978e+17
19344.0	6.648131725470378e+17
19345.0	6.645852435819178e+17
19346.0	6.644235572871167e+17
19347.0	6.642954846339071e+17
19348.0	6.641360257941503e+17
19349.0	6.639645934747647e+17
19350.0	6.637921824844457e+17
19351.0	6.636187218695508e+17
19352.0	6.634394905214975e+17
19353.0	6.632694682572116e+17
19354.0	6.630916435389098e+17
19355.0	6.629057867284479e+17
19356.0	6.627263906141523e+17
19357.0	6.62535099453713e+17
19358.0	6.623455831130111e+17
19359.0	6.621562941734911e+17
19360.0	6.619672122228735e+17
19361.0	6.61781034967586e+17
19362.0	6.615914658485588e+17
19363.0	6.61399727645218e+17
19364.0	6.612061294777686e+17
19365.0	6.610107129397247e+17
19366.0	6.60813493899537e+17
19367.0	6.606144025919487e+17
19368.0	6.604132989272064e+17
19369.0	6.602068399751167e+17
19370.0	6.599980714994346e+17
19371.0	6.597840941176148e+17
19372.0	6.595614875844607e+17
19373.0	6.59341576311057e+17
19374.0	6.591220881730217e+17
19375.0	6.588980718643882e+17
19376.0	6.586709449900031e+17
19377.0	6.584396656847529e+17
19378.0	6.582061816436052e+17
19379.0	6.579683927785471e+17
19380.0	6.577254370902015e+17
19381.0	6.574764642533376e+17
19382.0	6.572181695059284e+17
19383.0	6.569623820435455e+17
19384.0	6.56688496578833e+17
19385.0	6.564159331587412e+17
19386.0	6.561456977171796e+17
19387.0	6.558696152061267e+17
19388.0	6.555879974021801e+17
19389.0	6.55299252986402e+17
19390.0	6.549923617046527e+17
19391.0	6.544659873180328e+17
19392.0	6.543522550601044e+17
19393.0	6.541036549570559e+17
19394.0	6.537980488799571e+17
19395.0	6.534777321204393e+17
19396.0	6.531288651530237e+17
19397.0	6.527875080869204e+17
19398.0	6.524350749125289e+17
19399.0	6.520603716616191e+17
19400.0	6.516984284621482e+17
19401.0	6.51321971642641e+17
19402.0	6.509353734154921e+17
19403.0	6.50535287774686e+17
19404.0	6.501257096549716e+17
19405.0	6.497014349037565e+17
19406.0	6.492644370808831e+17
19407.0	6.488064981467136e+17
19408.0	6.483165526884351e+17
19409.0	6.478499500698282e+17
19410.0	6.473585457627135e+17
19411.0	6.468432874001748e+17
19412.0	6.463120406304084e+17
19413.0	6.457645120618495e+17
19414.0	6.451988420799145e+17
19415.0	6.446074567502506e+17
19416.0	6.439976700302675e+17
19417.0	6.433620614971391e+17
19418.0	6.426969308659711e+17
19419.0	6.419886209936042e+17
19420.0	6.412637366998356e+17
19421.0	6.40508627063057e+17
19422.0	6.397183373519529e+17
19423.0	6.388878683056809e+17
19424.0	6.380070671919785e+17
19425.0	6.370860191449087e+17
19426.0	6.361223647286611e+17
19427.0	6.351171871222441e+17
19428.0	6.340726606528511e+17
19429.0	6.329633063916883e+17
19430.0	6.317436270455466e+17
19431.0	6.304550263368361e+17
19432.0	6.291381170121385e+17
19433.0	6.27705634759202e+17
19434.0	6.261558443245565e+17
19435.0	6.245009947536041e+17
19436.0	6.227326085190998e+17
19437.0	6.208304348921856e+17
19438.0	6.183795896789674e+17
19439.0	6.164193642982057e+17
19440.0	6.140577635281577e+17
19441.0	6.113479260547752e+17
19442.0	6.083559695581184e+17
19443.0	6.049617323316564e+17
19444.0	6.01129480373316e+17
19445.0	5.966982735549783e+17
19446.0	5.915091872514048e+17
19447.0	5.852666746546856e+17
19448.0	5.775167340937219e+17
19449.0	5.6737524822835194e+17
19450.0	5.5229255600045984e+17
19451.0	5.419458735986006e+17
19452.0	5.607894422650879e+17
19453.0	5.725688408222382e+17
19454.0	5.811037378969596e+17
19455.0	5.877856297724586e+17
19456.0	5.932200024692054e+17
19457.0	5.977619804367528e+17
19458.0	6.007619650409823e+17
19459.0	6.049152102301699e+17
19460.0	6.079778139056808e+17
19461.0	6.105894142782121e+17
19462.0	6.129591331236522e+17
19463.0	6.150696102876499e+17
19464.0	6.170007251014996e+17
19465.0	6.187560801228116e+17
19466.0	6.203386790324905e+17
19467.0	6.217989770007892e+17
19468.0	6.231583853903872e+17
19469.0	6.244067146290515e+17
19470.0	6.255648638850388e+17
19471.0	6.266377949500756e+17
19472.0	6.276344148481364e+17
19473.0	6.285541777604605e+17
19474.0	6.293770736413353e+17
19475.0	6.301371751989247e+17
19476.0	6.309054415284905e+17
19477.0	6.316144377288022e+17
19478.0	6.322765383248553e+17
19479.0	6.328932792707753e+17
19480.0	6.334598620031657e+17
19481.0	6.339918747227476e+17
19482.0	6.344913451657897e+17
19483.0	6.349677616168959e+17
19484.0	6.354135243467434e+17
19485.0	6.358243158086996e+17
19486.0	6.362060938018815e+17
19487.0	6.365578111483903e+17
19488.0	6.368965394344617e+17
19489.0	6.371908869510484e+17
19490.0	6.374649529106431e+17
19491.0	6.37783620260113e+17
19492.0	6.380558514214227e+17
19493.0	6.383047265310036e+17
19494.0	6.38538057060625e+17
19495.0	6.387554939043837e+17
19496.0	6.389413076533247e+17
19497.0	6.391275858515284e+17
19498.0	6.391770817145514e+17
19499.0	6.390912044586323e+17
19500.0	6.396052695416831e+17
19501.0	6.397713730677417e+17
19502.0	6.399186712920063e+17
19503.0	6.400410456337066e+17
19504.0	6.401516604052819e+17
19505.0	6.402540088328191e+17
19506.0	6.403541238633812e+17
19507.0	6.404493072313002e+17
19508.0	6.405215952218793e+17
19509.0	6.405818875030185e+17
19510.0	6.406128255281833e+17
19511.0	6.400443129965224e+17
19512.0	6.406073360231081e+17
19513.0	6.406457646557865e+17
19514.0	6.407141182494035e+17
19515.0	6.40850015097105e+17
19516.0	6.409007279374335e+17
19517.0	6.40929549586705e+17
19518.0	6.409650351461716e+17
19519.0	6.409931284545533e+17
19520.0	6.410041381530282e+17
19521.0	6.41015429009681e+17
19522.0	6.410166426315433e+17
19523.0	6.410166539561642e+17
19524.0	6.410086819823615e+17
19525.0	6.410000626177364e+17
19526.0	6.409869122863101e+17
19527.0	6.409699700244479e+17
19528.0	6.40949481897984e+17
19529.0	6.40926848524834e+17
19530.0	6.409028698286761e+17
19531.0	6.408838687227904e+17
19532.0	6.408521733461331e+17
19533.0	6.408169993535487e+17
19534.0	6.407770922986153e+17
19535.0	6.407341164112553e+17
19536.0	6.406883467679059e+17
19537.0	6.406436632395775e+17
19538.0	6.405846374285311e+17
19539.0	6.405301848768511e+17
19540.0	6.404935440662527e+17
19541.0	6.404446304425299e+17
19542.0	6.403905841790976e+17
19543.0	6.40332643504401e+17
19544.0	6.402740319507796e+17
19545.0	6.401959684734973e+17
19546.0	6.401403837393577e+17
19547.0	6.401118770124115e+17
19548.0	6.400524087721983e+17
19549.0	6.399822469442217e+17
19550.0	6.399232988676095e+17
19551.0	6.398561590356649e+17
19552.0	6.39787504640546e+17
19553.0	6.397167144359252e+17
19554.0	6.396452249010176e+17
19555.0	6.395725041281704e+17
19556.0	6.395048339963903e+17
19557.0	6.394393853777236e+17
19558.0	6.393630131137193e+17
19559.0	6.392856484773887e+17
19560.0	6.392045413335039e+17
19561.0	6.391257028886527e+17
19562.0	6.39046434038306e+17
19563.0	6.389658044159316e+17
19564.0	6.388836033975636e+17
19565.0	6.388004725019988e+17
19566.0	6.387163414746452e+17
19567.0	6.386350713820499e+17
19568.0	6.385523031539711e+17
19569.0	6.384726929571839e+17
19570.0	6.383862590472191e+17
19571.0	6.382978440975699e+17
19572.0	6.382068211995988e+17
19573.0	6.381189146694996e+17
19574.0	6.380228366565375e+17
19575.0	6.379387742759593e+17
19576.0	6.378475092268371e+17
19577.0	6.377547323408383e+17
19578.0	6.37662068281617e+17
19579.0	6.375683281737043e+17
19580.0	6.374752757219327e+17
19581.0	6.373831133014698e+17
19582.0	6.372983557150036e+17
19583.0	6.372038565079721e+17
19584.0	6.371086900570793e+17
19585.0	6.370055030483625e+17
19586.0	6.369076569265492e+17
19587.0	6.36817340698897e+17
19588.0	6.367081517809663e+17
19589.0	6.3662202566301e+17
19590.0	6.365241933823999e+17
19591.0	6.364311287671465e+17
19592.0	6.363338002224468e+17
19593.0	6.36233966350063e+17
19594.0	6.361204701615443e+17
19595.0	6.360356130302633e+17
19596.0	6.359316137246719e+17
19597.0	6.358355366204756e+17
19598.0	6.357185857934676e+17
19599.0	6.356351255751337e+17
19600.0	6.355453988569087e+17
19601.0	6.354513864687615e+17
19602.0	6.353464625987583e+17
19603.0	6.352366383136767e+17
19604.0	6.351422600424105e+17
19605.0	6.350319415285076e+17
19606.0	6.349446933643263e+17
19607.0	6.348428874001065e+17
19608.0	6.347387629644457e+17
19609.0	6.346337398991529e+17
19610.0	6.345312452302164e+17
19611.0	6.344266530597546e+17
19612.0	6.343237895716861e+17
19613.0	6.342183772749823e+17
19614.0	6.341113073194324e+17
19615.0	6.340081634421417e+17
19616.0	6.338995869625001e+17
19617.0	6.337923595108351e+17
19618.0	6.336621688739156e+17
19619.0	6.335481783866707e+17
19620.0	6.334539994846548e+17
19621.0	6.333685728367956e+17
19622.0	6.33268413276706e+17
19623.0	6.331660303859711e+17
19624.0	6.330588244650666e+17
19625.0	6.329522276270079e+17
19626.0	6.3284399060637e+17
19627.0	6.32733590163729e+17
19628.0	6.326191481596586e+17
19629.0	6.324885842995882e+17
19630.0	6.323305202756265e+17
19631.0	6.321618576648873e+17
19632.0	6.321617396651348e+17
19633.0	6.320785973051391e+17
19634.0	6.319822228946943e+17
19635.0	6.318752384330409e+17
19636.0	6.317696303322452e+17
19637.0	6.316379737161728e+17
19638.0	6.315571241724585e+17
19639.0	6.314485611844948e+17
19640.0	6.313288212152319e+17
19641.0	6.31197202977041e+17
19642.0	6.311234464208212e+17
19643.0	6.310155143959891e+17
19644.0	6.309023959744511e+17
19645.0	6.307907528993449e+17
19646.0	6.306879928707753e+17
19647.0	6.305825437341012e+17
19648.0	6.304740057022463e+17
19649.0	6.303651231083178e+17
19650.0	6.302561675334995e+17
19651.0	6.301465773604863e+17
19652.0	6.300376846303231e+17
19653.0	6.299284808925183e+17
19654.0	6.298185121136639e+17
19655.0	6.297090029606228e+17
19656.0	6.295999738456746e+17
19657.0	6.294906173652991e+17
19658.0	6.293810121626963e+17
19659.0	6.292713010539178e+17
19660.0	6.291615840731135e+17
19661.0	6.290517113438207e+17
19662.0	6.289415304030889e+17
19663.0	6.28831827403298e+17
19664.0	6.287230135959551e+17
19665.0	6.286140207617364e+17
