# Flux units: erg / (cm m2 s)
# Wavelength units: Angstrom
wave	flux
19000.0	4.096701409962666e+17
19001.0	4.0957718012013216e+17
19002.0	4.095213035323391e+17
19003.0	4.0944586932442445e+17
19004.0	4.09365451444497e+17
19005.0	4.092926040735742e+17
19006.0	4.091992566224212e+17
19007.0	4.09147806912785e+17
19008.0	4.090624628228095e+17
19009.0	4.089807388366165e+17
19010.0	4.088275989954557e+17
19011.0	4.0884363878290765e+17
19012.0	4.087122221509289e+17
19013.0	4.087022519407957e+17
19014.0	4.086202751079765e+17
19015.0	4.0854204756350285e+17
19016.0	4.084647046676479e+17
19017.0	4.084047815551659e+17
19018.0	4.0832722516923725e+17
19019.0	4.082519817322496e+17
19020.0	4.0818053428019194e+17
19021.0	4.0810836016496634e+17
19022.0	4.080336765976576e+17
19023.0	4.079516058124287e+17
19024.0	4.078704284139519e+17
19025.0	4.0780875977195514e+17
19026.0	4.0772817167319034e+17
19027.0	4.076260749737983e+17
19028.0	4.0758943723902285e+17
19029.0	4.0751238046460576e+17
19030.0	4.074425561382911e+17
19031.0	4.0736906864667296e+17
19032.0	4.0729318515889485e+17
19033.0	4.072053990752255e+17
19034.0	4.0714468960064845e+17
19035.0	4.070647957291008e+17
19036.0	4.0393548724087366e+17
19037.0	4.0692121645438285e+17
19038.0	4.0684697650462714e+17
19039.0	4.0677498637953696e+17
19040.0	4.067028337950719e+17
19041.0	4.066276799064747e+17
19042.0	4.062279571428689e+17
19043.0	4.0648350797660166e+17
19044.0	4.064074620294485e+17
19045.0	4.063330325670569e+17
19046.0	4.0624971271809696e+17
19047.0	4.0618579194456736e+17
19048.0	4.0602067163327136e+17
19049.0	4.0539406442605165e+17
19050.0	4.059496135524351e+17
19051.0	4.054754079888718e+17
19052.0	4.0576313696365216e+17
19053.0	4.0574639316227405e+17
19054.0	4.056723948044287e+17
19055.0	4.054653415893675e+17
19056.0	4.0548583125374285e+17
19057.0	4.0545121803960314e+17
19058.0	4.050440335392762e+17
19059.0	4.051725254131711e+17
19060.0	4.052268844318719e+17
19061.0	4.0515774860055885e+17
19062.0	4.050839978464596e+17
19063.0	4.050107021743444e+17
19064.0	4.0491540325335046e+17
19065.0	4.048369436240555e+17
19066.0	4.046573385635157e+17
19067.0	4.047153341136895e+17
19068.0	4.046441849465514e+17
19069.0	4.0457097700529485e+17
19070.0	4.0449254701574803e+17
19071.0	4.044219347195221e+17
19072.0	4.0422085796823014e+17
19073.0	4.0427636245135354e+17
19074.0	4.042047363918506e+17
19075.0	4.041314466616659e+17
19076.0	4.040258291236864e+17
19077.0	4.0398121004782925e+17
19078.0	4.0390205297568416e+17
19079.0	4.0383785411979936e+17
19080.0	4.0376267904996685e+17
19081.0	4.036831819595776e+17
19082.0	4.0361110745907194e+17
19083.0	4.035328884430165e+17
19084.0	4.034410058525354e+17
19085.0	4.033953677705215e+17
19086.0	4.031128642693802e+17
19087.0	4.0291809868731706e+17
19088.0	4.0301278614869306e+17
19089.0	4.030461884672683e+17
19090.0	4.0303071917506554e+17
19091.0	4.0292562235992755e+17
19092.0	4.026271361837743e+17
19093.0	4.02815750050065e+17
19094.0	4.0274240949889696e+17
19095.0	4.026698142056447e+17
19096.0	4.025937032467796e+17
19097.0	4.0252352037737805e+17
19098.0	4.0231529156881056e+17
19099.0	4.022195770621953e+17
19100.0	4.022950452439722e+17
19101.0	4.022289298008746e+17
19102.0	4.021317286931114e+17
19103.0	4.0208562350544205e+17
19104.0	4.0201413627740154e+17
19105.0	4.0165280481716966e+17
19106.0	4.018534187270143e+17
19107.0	4.017205745636693e+17
19108.0	4.016190652066474e+17
19109.0	4.0148961814992186e+17
19110.0	4.0157598131595936e+17
19111.0	4.0142387544063974e+17
19112.0	4.013262892957694e+17
19113.0	4.01357594042914e+17
19114.0	4.012353012804265e+17
19115.0	4.011795449293482e+17
19116.0	4.0113321961062394e+17
19117.0	4.0106609725494605e+17
19118.0	4.0097215162613754e+17
19119.0	3.981371714306006e+17
19120.0	4.008268980551679e+17
19121.0	4.0076277882115405e+17
19122.0	4.0070669727170554e+17
19123.0	4.0063437810346656e+17
19124.0	4.005515085829461e+17
19125.0	4.004881436246014e+17
19126.0	4.0041716222962336e+17
19127.0	3.999930775502846e+17
19128.0	4.002630752447146e+17
19129.0	4.001873886795093e+17
19130.0	4.001247045266089e+17
19131.0	4.0005422973364896e+17
19132.0	3.999813318912682e+17
19133.0	3.9989952716472314e+17
19134.0	3.9983345722982394e+17
19135.0	3.997638810664958e+17
19136.0	3.996930238229162e+17
19137.0	3.995897539766955e+17
19138.0	3.995465717295786e+17
19139.0	3.994768490452308e+17
19140.0	3.9940481557899936e+17
19141.0	3.993323226267648e+17
19142.0	3.992549595982506e+17
19143.0	3.9917598651624096e+17
19144.0	3.9910993147112096e+17
19145.0	3.990433008975872e+17
19146.0	3.988658079487317e+17
19147.0	3.988638839515817e+17
19148.0	3.987134083323221e+17
19149.0	3.986271154907818e+17
19150.0	3.986818473132032e+17
19151.0	3.986104658515285e+17
19152.0	3.985364983917227e+17
19153.0	3.982448727687164e+17
19154.0	3.98342388658995e+17
19155.0	3.9832283670118394e+17
19156.0	3.982513380786174e+17
19157.0	3.9809826625508704e+17
19158.0	3.978503410155521e+17
19159.0	3.980253752634025e+17
19160.0	3.9796030720791885e+17
19161.0	3.978907000067413e+17
19162.0	3.975775312500055e+17
19163.0	3.9774587823936845e+17
19164.0	3.976734239446356e+17
19165.0	3.973520238662993e+17
19166.0	3.974987095124649e+17
19167.0	3.9742783758882125e+17
19168.0	3.973883690483712e+17
19169.0	3.973109049371306e+17
19170.0	3.97245863375667e+17
19171.0	3.9715605486851405e+17
19172.0	3.971012622286847e+17
19173.0	3.970293301947051e+17
19174.0	3.969469648295253e+17
19175.0	3.968864419315712e+17
19176.0	3.9681524411050656e+17
19177.0	3.967173256369493e+17
19178.0	3.966555879986517e+17
19179.0	3.965619033953621e+17
19180.0	3.9652752226604365e+17
19181.0	3.9642180287638163e+17
19182.0	3.9637795681075194e+17
19183.0	3.96314399613474e+17
19184.0	3.96238049509376e+17
19185.0	3.9616899246107296e+17
19186.0	3.9609997735581e+17
19187.0	3.960186556732757e+17
19188.0	3.959536307492181e+17
19189.0	3.9588536027272525e+17
19190.0	3.958135092587178e+17
19191.0	3.9573116947879245e+17
19192.0	3.9566986790830074e+17
19193.0	3.95570138054656e+17
19194.0	3.95482408943616e+17
19195.0	3.9545536532971514e+17
19196.0	3.953813381709824e+17
19197.0	3.953121440388436e+17
19198.0	3.9524271859083936e+17
19199.0	3.93655294064503e+17
19200.0	3.9409990790458086e+17
19201.0	3.95025803448593e+17
19202.0	3.94957677395968e+17
19203.0	3.9488139342206285e+17
19204.0	3.948094495042218e+17
19205.0	3.947423986614272e+17
19206.0	3.946694301450238e+17
19207.0	3.945818585300991e+17
19208.0	3.9447796338305683e+17
19209.0	3.9445693523995296e+17
19210.0	3.943855110662825e+17
19211.0	3.9431624563097594e+17
19212.0	3.9424567150291616e+17
19213.0	3.9414910401467725e+17
19214.0	3.9406747600814074e+17
19215.0	3.940275267305472e+17
19216.0	3.939621945737216e+17
19217.0	3.938902586949632e+17
19218.0	3.9366852632466746e+17
19219.0	3.9372757429562016e+17
19220.0	3.936730640023551e+17
19221.0	3.935471911916886e+17
19222.0	3.9353569977739936e+17
19223.0	3.9346194713586336e+17
19224.0	3.9338783825810765e+17
19225.0	3.932947319095295e+17
19226.0	3.9324930892540576e+17
19227.0	3.9317915066258765e+17
19228.0	3.9311153561599994e+17
19229.0	3.930407491163476e+17
19230.0	3.9296847783307936e+17
19231.0	3.9289722052280294e+17
19232.0	3.9282709252887885e+17
19233.0	3.927461500813311e+17
19234.0	3.926818170776234e+17
19235.0	3.926109589252778e+17
19236.0	3.9254575315681274e+17
19237.0	3.9247137507464525e+17
19238.0	3.923846547636223e+17
19239.0	3.9233373346638496e+17
19240.0	3.922618456823125e+17
19241.0	3.921888131328682e+17
19242.0	3.921192502515027e+17
19243.0	3.920270207221759e+17
19244.0	3.919803697856511e+17
19245.0	3.9190759217998496e+17
19246.0	3.918363645793621e+17
19247.0	3.917676583845887e+17
19248.0	3.9169821273402016e+17
19249.0	3.91621812298274e+17
19250.0	3.915126150616406e+17
19251.0	3.914256642736127e+17
19252.0	3.9137514541984416e+17
19253.0	3.9134090424046925e+17
19254.0	3.912755306998442e+17
19255.0	3.911758395736063e+17
19256.0	3.9112543515443194e+17
19257.0	3.910646060722859e+17
19258.0	3.9099449059136845e+17
19259.0	3.909128369995776e+17
19260.0	3.907742759299753e+17
19261.0	3.907815361303891e+17
19262.0	3.907018730853718e+17
19263.0	3.9062922312635725e+17
19264.0	3.904610181141843e+17
19265.0	3.904596651715241e+17
19266.0	3.903481369504428e+17
19267.0	3.9036195131009696e+17
19268.0	3.90290865127424e+17
19269.0	3.902212833716906e+17
19270.0	3.9015164667057485e+17
19271.0	3.900117577542316e+17
19272.0	3.9000479702712314e+17
19273.0	3.8986719295788365e+17
19274.0	3.8979410392514534e+17
19275.0	3.898011648961193e+17
19276.0	3.8972755283367245e+17
19277.0	3.896583993163776e+17
19278.0	3.895850338091006e+17
19279.0	3.895158338748415e+17
19280.0	3.8943314296176634e+17
19281.0	3.8937756430936736e+17
19282.0	3.8931078413899085e+17
19283.0	3.892194988873044e+17
19284.0	3.8916419216561485e+17
19285.0	3.8907084939810125e+17
19286.0	3.890247112851455e+17
19287.0	3.8895999485214714e+17
19288.0	3.880579567190007e+17
19289.0	3.867744324463239e+17
19290.0	3.8875056863969274e+17
19291.0	3.88641045016303e+17
19292.0	3.886117003373227e+17
19293.0	3.885408535095978e+17
19294.0	3.88469494976785e+17
19295.0	3.884027263407445e+17
19296.0	3.8820360735075e+17
19297.0	3.882293403844608e+17
19298.0	3.8818837489691296e+17
19299.0	3.8797380534927366e+17
19300.0	3.880453712205142e+17
19301.0	3.8798288287170566e+17
19302.0	3.87911747965201e+17
19303.0	3.87830501220898e+17
19304.0	3.877694115326634e+17
19305.0	3.8770200564203526e+17
19306.0	3.876332061939029e+17
19307.0	3.87554178306321e+17
19308.0	3.874906762641408e+17
19309.0	3.8736568278930765e+17
19310.0	3.872830927492435e+17
19311.0	3.8727588462810445e+17
19312.0	3.8721465450059085e+17
19313.0	3.8714543009955834e+17
19314.0	3.780186480487131e+17
19315.0	3.7835332883143e+17
19316.0	3.8675882593047904e+17
19317.0	3.8686650524849485e+17
19318.0	3.8679800765044045e+17
19319.0	3.867310172755285e+17
19320.0	3.8660307646327456e+17
19321.0	3.864770574811135e+17
19322.0	3.8650974942440096e+17
19323.0	3.8642902172521805e+17
19324.0	3.863826424397823e+17
19325.0	3.86258214986274e+17
19326.0	3.862461651703125e+17
19327.0	3.8616986658624845e+17
19328.0	3.858493254314669e+17
19329.0	3.860385705405098e+17
19330.0	3.859618944690857e+17
19331.0	3.8589224001208314e+17
19332.0	3.85829913633314e+17
19333.0	3.8575821948627616e+17
19334.0	3.856797755157163e+17
19335.0	3.8510411274431194e+17
19336.0	3.855437630450346e+17
19337.0	3.8548400246183245e+17
19338.0	3.853790371381247e+17
19339.0	3.853453326199466e+17
19340.0	3.852094275234474e+17
19341.0	3.850107204840109e+17
19342.0	3.85002404647185e+17
19343.0	3.85069884707089e+17
19344.0	3.848153809114456e+17
19345.0	3.844218072072185e+17
19346.0	3.846890823090174e+17
19347.0	3.845455067392682e+17
19348.0	3.847251230545237e+17
19349.0	3.8465027947451725e+17
19350.0	3.844983099839829e+17
19351.0	3.845080355263829e+17
19352.0	3.841803435726162e+17
19353.0	3.84378771481122e+17
19354.0	3.843120185038165e+17
19355.0	3.842269518670506e+17
19356.0	3.8417401611550714e+17
19357.0	3.8410533788276045e+17
19358.0	3.8403571229655034e+17
19359.0	3.838939289529001e+17
19360.0	3.837004642342227e+17
19361.0	3.838227665737045e+17
19362.0	3.837619943243776e+17
19363.0	3.83692923015441e+17
19364.0	3.836238506579285e+17
19365.0	3.83554494206225e+17
19366.0	3.8348670222991354e+17
19367.0	3.834180945313791e+17
19368.0	3.8334972220320416e+17
19369.0	3.8327121035482445e+17
19370.0	3.832040513688917e+17
19371.0	3.831349860018857e+17
19372.0	3.83074557965107e+17
19373.0	3.8300292666272416e+17
19374.0	3.829371662674602e+17
19375.0	3.8286834423999136e+17
19376.0	3.828010834023764e+17
19377.0	3.827306790737237e+17
19378.0	3.826628362065237e+17
19379.0	3.825948914177366e+17
19380.0	3.8252595076136954e+17
19381.0	3.8245688113015456e+17
19382.0	3.8237861297083725e+17
19383.0	3.82301521243887e+17
19384.0	3.8224821205947725e+17
19385.0	3.821837569316181e+17
19386.0	3.821161309099348e+17
19387.0	3.8204760793634125e+17
19388.0	3.8197702129527456e+17
19389.0	3.819037296077482e+17
19390.0	3.818337860233898e+17
19391.0	3.7892139757076045e+17
19392.0	3.816627451723773e+17
19393.0	3.816291353755648e+17
19394.0	3.815589163652437e+17
19395.0	3.8141418631331846e+17
19396.0	3.81398132265233e+17
19397.0	3.813561916020053e+17
19398.0	3.8121541880599885e+17
19399.0	3.8097166578046266e+17
19400.0	3.810866166934187e+17
19401.0	3.810803740311551e+17
19402.0	3.810129494758742e+17
19403.0	3.8094153222280525e+17
19404.0	3.808759554681514e+17
19405.0	3.8080460923863034e+17
19406.0	3.807373570692436e+17
19407.0	3.8057698065558163e+17
19408.0	3.804332851986436e+17
19409.0	3.8053070077515085e+17
19410.0	3.804645689043627e+17
19411.0	3.803958069952512e+17
19412.0	3.803241853397674e+17
19413.0	3.801616726272682e+17
19414.0	3.80180930564369e+17
19415.0	3.8011696623998285e+17
19416.0	3.800128563445759e+17
19417.0	3.799495742237354e+17
19418.0	3.7991209014831776e+17
19419.0	3.798418763109717e+17
19420.0	3.797734934970368e+17
19421.0	3.797040883215018e+17
19422.0	3.796266181285206e+17
19423.0	3.795626269605887e+17
19424.0	3.794934241602218e+17
19425.0	3.794227663557974e+17
19426.0	3.7935213707263994e+17
19427.0	3.79278599459089e+17
19428.0	3.7920925125618336e+17
19429.0	3.791367162210986e+17
19430.0	3.790245215251117e+17
19431.0	3.7847520932877734e+17
19432.0	3.78916897292288e+17
19433.0	3.7883963905146886e+17
19434.0	3.787614967911765e+17
19435.0	3.7861873079200416e+17
19436.0	3.7833727020455206e+17
19437.0	3.785141680515755e+17
19438.0	3.721072929144852e+17
19439.0	3.781617897526616e+17
19440.0	3.782107474165759e+17
19441.0	3.781146379463338e+17
19442.0	3.77988665381137e+17
19443.0	3.7783452435961165e+17
19444.0	3.7764383144673274e+17
19445.0	3.7738366603973965e+17
19446.0	3.769917251081557e+17
19447.0	3.7631563706750285e+17
19448.0	3.7485909209251846e+17
19449.0	3.6837971302809517e+17
19450.0	3.164204847595512e+17
19451.0	2.8104496341756554e+17
19452.0	3.343767032911187e+17
19453.0	3.715064188108809e+17
19454.0	3.7495409874042874e+17
19455.0	3.759787379174057e+17
19456.0	3.7641463627339085e+17
19457.0	3.766270692425727e+17
19458.0	3.471266684425982e+17
19459.0	3.75636558942491e+17
19460.0	3.7679304498216954e+17
19461.0	3.767848924435797e+17
19462.0	3.7675726680009376e+17
19463.0	3.76723786048034e+17
19464.0	3.766786544981333e+17
19465.0	3.766341950854485e+17
19466.0	3.765678100884138e+17
19467.0	3.7653001074114554e+17
19468.0	3.764748174054742e+17
19469.0	3.7616895156114746e+17
19470.0	3.763548119367678e+17
19471.0	3.762975150877353e+17
19472.0	3.7622522038626976e+17
19473.0	3.7615835136655354e+17
19474.0	3.7591911281022266e+17
19475.0	3.758495281184765e+17
19476.0	3.7596712388962976e+17
19477.0	3.7591195732759885e+17
19478.0	3.7585419868569594e+17
19479.0	3.756045235825319e+17
19480.0	3.757193985086804e+17
19481.0	3.756388749322923e+17
19482.0	3.7559009538648736e+17
19483.0	3.7552958458210976e+17
19484.0	3.754615915588266e+17
19485.0	3.7538557098721274e+17
19486.0	3.751285200606552e+17
19487.0	3.75263501221888e+17
19488.0	3.752012150385322e+17
19489.0	3.751172791162197e+17
19490.0	3.747517538413221e+17
19491.0	3.7499681709752314e+17
19492.0	3.749371423577429e+17
19493.0	3.748710364217344e+17
19494.0	3.748036938650966e+17
19495.0	3.74736066515217e+17
19496.0	3.745695582388223e+17
19497.0	3.7459806021222394e+17
19498.0	3.742768635576324e+17
19499.0	3.6989922072766906e+17
19500.0	3.74402125467921e+17
19501.0	3.7434400059337376e+17
19502.0	3.742794780770303e+17
19503.0	3.74215099285504e+17
19504.0	3.7414883179888634e+17
19505.0	3.740790282343765e+17
19506.0	3.740164606831274e+17
19507.0	3.739436755976191e+17
19508.0	3.7388256920207354e+17
19509.0	3.7381565914808314e+17
19510.0	3.7368563509493754e+17
19511.0	3.588354139138634e+17
19512.0	3.729270218861213e+17
19513.0	3.7222655969634765e+17
19514.0	3.725392866530633e+17
19515.0	3.7329953095680006e+17
19516.0	3.7332634185673376e+17
19517.0	3.7326495877693434e+17
19518.0	3.731674531627006e+17
19519.0	3.7309657236111354e+17
19520.0	3.729085888987133e+17
19521.0	3.730180916903935e+17
19522.0	3.7292529460183034e+17
19523.0	3.728380093180587e+17
19524.0	3.72692115906014e+17
19525.0	3.7274928154323616e+17
19526.0	3.7268830356329805e+17
19527.0	3.7261815187155616e+17
19528.0	3.7254253017825274e+17
19529.0	3.724683277675178e+17
19530.0	3.724229416233642e+17
19531.0	3.7235689853201056e+17
19532.0	3.722904691452587e+17
19533.0	3.7222449036656634e+17
19534.0	3.7215792522417485e+17
19535.0	3.7208932850073594e+17
19536.0	3.720189436056917e+17
19537.0	3.719580307073706e+17
19538.0	3.717075570786307e+17
19539.0	3.7171015475090797e+17
19540.0	3.7175608629439136e+17
19541.0	3.7166146831865165e+17
19542.0	3.716128592013995e+17
19543.0	3.7138828036669446e+17
19544.0	3.7148477291670176e+17
19545.0	3.7133720947261414e+17
19546.0	3.711768397698389e+17
19547.0	3.7129901061789e+17
19548.0	3.712325513117696e+17
19549.0	3.7115140585990816e+17
19550.0	3.71100342096145e+17
19551.0	3.7103508550669645e+17
19552.0	3.7096857649807354e+17
19553.0	3.7089842249946445e+17
19554.0	3.7082745571464525e+17
19555.0	3.7075029394281805e+17
19556.0	3.7069235669346976e+17
19557.0	3.706371372133034e+17
19558.0	3.705724841142954e+17
19559.0	3.7050750959179085e+17
19560.0	3.703773554453161e+17
19561.0	3.703713818476544e+17
19562.0	3.7024868307653965e+17
19563.0	3.7024461565023565e+17
19564.0	3.7017842848453965e+17
19565.0	3.7011262579671034e+17
19566.0	3.7004170221322234e+17
19567.0	3.699815716225023e+17
19568.0	3.6991275777392634e+17
19569.0	3.6984609818978976e+17
19570.0	3.6978287541835085e+17
19571.0	3.6971679793370445e+17
19572.0	3.696478558792363e+17
19573.0	3.6956476098478074e+17
19574.0	3.6950096366359885e+17
19575.0	3.6945580359243085e+17
19576.0	3.693804711662933e+17
19577.0	3.692942868873216e+17
19578.0	3.692503910492842e+17
19579.0	3.691881642153301e+17
19580.0	3.6912336676235936e+17
19581.0	3.6905700818943994e+17
19582.0	3.689949624096085e+17
19583.0	3.6892956936546976e+17
19584.0	3.6886229545560736e+17
19585.0	3.687796972366506e+17
19586.0	3.687096609581738e+17
19587.0	3.686574500522666e+17
19588.0	3.6850697268538035e+17
19589.0	3.685332680354474e+17
19590.0	3.684395231040852e+17
19591.0	3.684039863042047e+17
19592.0	3.683389973812565e+17
19593.0	3.682569114266282e+17
19594.0	3.681545246212095e+17
19595.0	3.6813795257658016e+17
19596.0	3.68055349743889e+17
19597.0	3.680112762071723e+17
19598.0	3.678099769480531e+17
19599.0	3.6788197238592845e+17
19600.0	3.678178536412502e+17
19601.0	3.6774072311698765e+17
19602.0	3.676795977771691e+17
19603.0	3.675159202365438e+17
19604.0	3.675488374838612e+17
19605.0	3.674396020091563e+17
19606.0	3.6742519807016954e+17
19607.0	3.673612513618602e+17
19608.0	3.672933898999125e+17
19609.0	3.672213687369727e+17
19610.0	3.670766583283712e+17
19611.0	3.669756371883351e+17
19612.0	3.670360210451114e+17
19613.0	3.6696931951793485e+17
19614.0	3.6689979976799565e+17
19615.0	3.668400445674837e+17
19616.0	3.6666201810315955e+17
19617.0	3.6658100232519686e+17
19618.0	3.665236581504339e+17
19619.0	3.664098938759847e+17
19620.0	3.6632173261182266e+17
19621.0	3.662781043703806e+17
19622.0	3.663856755452586e+17
19623.0	3.663133644161023e+17
19624.0	3.662331845629269e+17
19625.0	3.661909141574997e+17
19626.0	3.6612474565645645e+17
19627.0	3.6606136133440845e+17
19628.0	3.659540699196075e+17
19629.0	3.6548025792156986e+17
19630.0	3.658128893673472e+17
19631.0	3.641699848945662e+17
19632.0	3.657359654824618e+17
19633.0	3.656567332623701e+17
19634.0	3.656069332424021e+17
19635.0	3.655080412708862e+17
19636.0	3.652766877264552e+17
19637.0	3.651717906300926e+17
19638.0	3.653229457266003e+17
19639.0	3.65281189892369e+17
19640.0	3.6519441044165984e+17
19641.0	3.647919900415326e+17
19642.0	3.650758557128021e+17
19643.0	3.650104126166357e+17
19644.0	3.6494909755446605e+17
19645.0	3.648383702357331e+17
19646.0	3.646130421585234e+17
19647.0	3.647589169758206e+17
19648.0	3.647015494527658e+17
19649.0	3.646359232752298e+17
19650.0	3.645727662844586e+17
19651.0	3.6450771095169696e+17
19652.0	3.644428111577087e+17
19653.0	3.6437781258786125e+17
19654.0	3.64313827152145e+17
19655.0	3.642478236969642e+17
19656.0	3.641849317862058e+17
