# Flux units: erg / (cm m2 s)
# Wavelength units: Angstrom
wave	flux
19000.0	5.816297245900799e+17
19001.0	5.814462613990056e+17
19002.0	5.814263674656084e+17
19003.0	5.813160359493631e+17
19004.0	5.812155016981161e+17
19005.0	5.810994006370986e+17
19006.0	5.80992108663057e+17
19007.0	5.808819382080852e+17
19008.0	5.807492796426921e+17
19009.0	5.805816013651967e+17
19010.0	5.804598384831145e+17
19011.0	5.804237550955178e+17
19012.0	5.80290645922065e+17
19013.0	5.80258928665122e+17
19014.0	5.80119901328725e+17
19015.0	5.80025349762799e+17
19016.0	5.799562762169002e+17
19017.0	5.798488849776639e+17
19018.0	5.797423305020756e+17
19019.0	5.796422776870228e+17
19020.0	5.795334754140161e+17
19021.0	5.794418356038312e+17
19022.0	5.79334570892766e+17
19023.0	5.791996406923263e+17
19024.0	5.791043315651923e+17
19025.0	5.79014788837103e+17
19026.0	5.789098042195967e+17
19027.0	5.788107763526313e+17
19028.0	5.78699578642705e+17
19029.0	5.785845762097151e+17
19030.0	5.784981200000339e+17
19031.0	5.783887284972202e+17
19032.0	5.782750016918868e+17
19033.0	5.780748770476031e+17
19034.0	5.77979078095667e+17
19035.0	5.776489095451988e+17
19036.0	5.770725710015145e+17
19037.0	5.774900994943657e+17
19038.0	5.775642158519635e+17
19039.0	5.775260299296767e+17
19040.0	5.774435206299648e+17
19041.0	5.773456756965375e+17
19042.0	5.769931979227132e+17
19043.0	5.77148164383266e+17
19044.0	5.770373248669012e+17
19045.0	5.769309858387284e+17
19046.0	5.76801778836002e+17
19047.0	5.766935608295423e+17
19048.0	5.765421928721065e+17
19049.0	5.760451087084196e+17
19050.0	5.763243826653866e+17
19051.0	5.7616023585204896e+17
19052.0	5.761185516006058e+17
19053.0	5.760732457773737e+17
19054.0	5.759884489042602e+17
19055.0	5.756433914134537e+17
19056.0	5.7576374382100474e+17
19057.0	5.756987002322943e+17
19058.0	5.7539408603818624e+17
19059.0	5.7542085156973216e+17
19060.0	5.7539221118429856e+17
19061.0	5.7528955503465805e+17
19062.0	5.751814421654185e+17
19063.0	5.750765672988671e+17
19064.0	5.7494350293456224e+17
19065.0	5.747711277356373e+17
19066.0	5.746530102629716e+17
19067.0	5.746596809539583e+17
19068.0	5.7456921561879885e+17
19069.0	5.744673063348906e+17
19070.0	5.7434833189601254e+17
19071.0	5.742567786283007e+17
19072.0	5.7408743528202214e+17
19073.0	5.7405449091153914e+17
19074.0	5.7395355862084256e+17
19075.0	5.7384963767883085e+17
19076.0	5.7374233619770016e+17
19077.0	5.736330452183721e+17
19078.0	5.7351566887922323e+17
19079.0	5.734325715380905e+17
19080.0	5.733219144739498e+17
19081.0	5.7318667962722976e+17
19082.0	5.7312004038546765e+17
19083.0	5.7295273707874976e+17
19084.0	5.727440785637375e+17
19085.0	5.728013937978026e+17
19086.0	5.72318918534758e+17
19087.0	5.7243535339246906e+17
19088.0	5.72347135575108e+17
19089.0	5.7226050194636826e+17
19090.0	5.722751859250516e+17
19091.0	5.721731309589845e+17
19092.0	5.71893485316779e+17
19093.0	5.719898854522878e+17
19094.0	5.718879835084117e+17
19095.0	5.7178665527541754e+17
19096.0	5.7168376613218976e+17
19097.0	5.715809732482388e+17
19098.0	5.713933999887699e+17
19099.0	5.712720262681941e+17
19100.0	5.7125571706661536e+17
19101.0	5.7114871925309434e+17
19102.0	5.7103141351806285e+17
19103.0	5.709503889320617e+17
19104.0	5.708589802979328e+17
19105.0	5.7057177840735616e+17
19106.0	5.706468050687317e+17
19107.0	5.704955549013332e+17
19108.0	5.703686642029909e+17
19109.0	5.70329410830336e+17
19110.0	5.7022921191369363e+17
19111.0	5.700759084946772e+17
19112.0	5.699640021570899e+17
19113.0	5.699184290168832e+17
19114.0	5.6977033093884576e+17
19115.0	5.696653489777322e+17
19116.0	5.695475865529002e+17
19117.0	5.69366733197585e+17
19118.0	5.68673593004305e+17
19119.0	5.6568152927327405e+17
19120.0	5.687503732342783e+17
19121.0	5.6898446894475936e+17
19122.0	5.6894504080943776e+17
19123.0	5.688540659362473e+17
19124.0	5.6872737320905363e+17
19125.0	5.6860027510237856e+17
19126.0	5.683940636142249e+17
19127.0	5.680961206703445e+17
19128.0	5.681747915527508e+17
19129.0	5.681332763317587e+17
19130.0	5.681331497336831e+17
19131.0	5.6806412561066643e+17
19132.0	5.6797282889454925e+17
19133.0	5.6784764262154214e+17
19134.0	5.677711868908884e+17
19135.0	5.676704274754217e+17
19136.0	5.675634144925013e+17
19137.0	5.674519098294271e+17
19138.0	5.6735981116238496e+17
19139.0	5.6727088408821754e+17
19140.0	5.671740998243668e+17
19141.0	5.670733408283306e+17
19142.0	5.66946602872559e+17
19143.0	5.6685667587631776e+17
19144.0	5.667366698483711e+17
19145.0	5.6665974568386554e+17
19146.0	5.660710947607896e+17
19147.0	5.6644510727973536e+17
19148.0	5.6629257043968006e+17
19149.0	5.6618068458427725e+17
19150.0	5.661571743918762e+17
19151.0	5.660516926794411e+17
19152.0	5.6594781067455136e+17
19153.0	5.656912631343783e+17
19154.0	5.65720505262626e+17
19155.0	5.6563630426030074e+17
19156.0	5.655384338115241e+17
19157.0	5.653913773888854e+17
19158.0	5.6523266946935475e+17
19159.0	5.652285977788415e+17
19160.0	5.6511854357599565e+17
19161.0	5.650174711955455e+17
19162.0	5.6490916615727776e+17
19163.0	5.648122513806677e+17
19164.0	5.6471749820852896e+17
19165.0	5.644602063192061e+17
19166.0	5.64489879552e+17
19167.0	5.644095069705556e+17
19168.0	5.6431993774844576e+17
19169.0	5.6422155936945485e+17
19170.0	5.6412598047866874e+17
19171.0	5.640189825952426e+17
19172.0	5.6391823911813114e+17
19173.0	5.6381994420578976e+17
19174.0	5.6370951160681786e+17
19175.0	5.6361160305978016e+17
19176.0	5.635134388000085e+17
19177.0	5.632956263563261e+17
19178.0	5.6331255540613114e+17
19179.0	5.632094375335252e+17
19180.0	5.630932304964266e+17
19181.0	5.6296323894913696e+17
19182.0	5.6287659805026976e+17
19183.0	5.6279979552058016e+17
19184.0	5.627015312266581e+17
19185.0	5.625930793178453e+17
19186.0	5.624977295758677e+17
19187.0	5.6234247804245325e+17
19188.0	5.6228967252404896e+17
19189.0	5.621843268468735e+17
19190.0	5.6207975620717216e+17
19191.0	5.6194593910510925e+17
19192.0	5.618601593667583e+17
19193.0	5.617224981850794e+17
19194.0	5.6158009478348794e+17
19195.0	5.614993759622484e+17
19196.0	5.6135922602038605e+17
19197.0	5.612197196944724e+17
19198.0	5.6105699244332365e+17
19199.0	5.608440897120939e+17
19200.0	5.607731031441407e+17
19201.0	5.6075721651869e+17
19202.0	5.6071716727685114e+17
19203.0	5.6065531751082656e+17
19204.0	5.6058543963723085e+17
19205.0	5.604940003147775e+17
19206.0	5.604087105410389e+17
19207.0	5.602254221126313e+17
19208.0	5.6018540607569914e+17
19209.0	5.6012352841755296e+17
19210.0	5.600440558638421e+17
19211.0	5.599610524052138e+17
19212.0	5.5985733551609165e+17
19213.0	5.596832809877502e+17
19214.0	5.596308033940137e+17
19215.0	5.595437230019924e+17
19216.0	5.594298204553215e+17
19217.0	5.5928533681875616e+17
19218.0	5.591272372830207e+17
19219.0	5.5896185098294566e+17
19220.0	5.589862820347902e+17
19221.0	5.5889712511276365e+17
19222.0	5.5882116221282976e+17
19223.0	5.587283723244884e+17
19224.0	5.586180100500137e+17
19225.0	5.585479676198911e+17
19226.0	5.584477631108436e+17
19227.0	5.5835737012742816e+17
19228.0	5.5827991279697914e+17
19229.0	5.581815760115028e+17
19230.0	5.580823304601598e+17
19231.0	5.579756528118441e+17
19232.0	5.578845651817811e+17
19233.0	5.577437446406143e+17
19234.0	5.576824040630953e+17
19235.0	5.575578829367977e+17
19236.0	5.5748733865820154e+17
19237.0	5.5738134957479245e+17
19238.0	5.572371582812158e+17
19239.0	5.571890991770283e+17
19240.0	5.57086559629039e+17
19241.0	5.569775244323498e+17
19242.0	5.568799419225427e+17
19243.0	5.5666548639006694e+17
19244.0	5.56694260364083e+17
19245.0	5.5658596371442336e+17
19246.0	5.564902768203092e+17
19247.0	5.5638385467501216e+17
19248.0	5.562935208312831e+17
19249.0	5.5618773391332685e+17
19250.0	5.560511313040724e+17
19251.0	5.5590097780735936e+17
19252.0	5.55646528327953e+17
19253.0	5.557796550475775e+17
19254.0	5.556931775867561e+17
19255.0	5.5543329795167526e+17
19256.0	5.554850296583509e+17
19257.0	5.553904368484351e+17
19258.0	5.552888246610602e+17
19259.0	5.5511742330961914e+17
19260.0	5.550403730363732e+17
19261.0	5.549571126766249e+17
19262.0	5.548006819146411e+17
19263.0	5.5467425496651066e+17
19264.0	5.545070558183423e+17
19265.0	5.544353231536126e+17
19266.0	5.543346977461589e+17
19267.0	5.543522191714985e+17
19268.0	5.542628983919957e+17
19269.0	5.541612007107241e+17
19270.0	5.5403784762818554e+17
19271.0	5.5390564931775136e+17
19272.0	5.538475993115307e+17
19273.0	5.536429078391467e+17
19274.0	5.53374491537134e+17
19275.0	5.5358819377261216e+17
19276.0	5.5347590274744294e+17
19277.0	5.53380116238609e+17
19278.0	5.532769843150846e+17
19279.0	5.531605698696532e+17
19280.0	5.530618769877674e+17
19281.0	5.5297201500323834e+17
19282.0	5.528822278870356e+17
19283.0	5.52779446677231e+17
19284.0	5.5265760200622074e+17
19285.0	5.525385935235753e+17
19286.0	5.524037929271294e+17
19287.0	5.522514177075883e+17
19288.0	5.517765806216532e+17
19289.0	5.515996497794388e+17
19290.0	5.519382491605674e+17
19291.0	5.51740850254644e+17
19292.0	5.5187406861981005e+17
19293.0	5.5179088270895776e+17
19294.0	5.5168821069086714e+17
19295.0	5.51603613396719e+17
19296.0	5.51409446341837e+17
19297.0	5.513730878778026e+17
19298.0	5.512842871220906e+17
19299.0	5.5110562417213434e+17
19300.0	5.511043463075157e+17
19301.0	5.5100742971337363e+17
19302.0	5.5089790811723085e+17
19303.0	5.507645081387007e+17
19304.0	5.507020082555562e+17
19305.0	5.50588815385122e+17
19306.0	5.504921233260542e+17
19307.0	5.503652384298324e+17
19308.0	5.502659773595647e+17
19309.0	5.5017303228197536e+17
19310.0	5.50047760515072e+17
19311.0	5.4991977328585376e+17
19312.0	5.4978508104226125e+17
19313.0	5.4948075485702816e+17
19314.0	5.458378235052039e+17
19315.0	5.458865952216415e+17
19316.0	5.4907421320369504e+17
19317.0	5.49285204590592e+17
19318.0	5.4925194592692896e+17
19319.0	5.491870613722452e+17
19320.0	5.490623066232147e+17
19321.0	5.489206683325781e+17
19322.0	5.4890359730558285e+17
19323.0	5.488011692561749e+17
19324.0	5.487080408175956e+17
19325.0	5.4861469700150605e+17
19326.0	5.485150249593513e+17
19327.0	5.484160019857407e+17
19328.0	5.481571438034946e+17
19329.0	5.482190348834132e+17
19330.0	5.481170161281705e+17
19331.0	5.479876558935379e+17
19332.0	5.479203796768084e+17
19333.0	5.478093931500883e+17
19334.0	5.4771567827790496e+17
19335.0	5.4728943625830426e+17
19336.0	5.4751148725589325e+17
19337.0	5.47410875060497e+17
19338.0	5.471471507865597e+17
19339.0	5.471828551488852e+17
19340.0	5.469917207156051e+17
19341.0	5.46774949088461e+17
19342.0	5.46739206557969e+17
19343.0	5.466707254575102e+17
19344.0	5.463292643726678e+17
19345.0	5.459686063778475e+17
19346.0	5.4596636011834003e+17
19347.0	5.4603405737328634e+17
19348.0	5.4620237514233165e+17
19349.0	5.461255713543508e+17
19350.0	5.459895370033834e+17
19351.0	5.459526734053374e+17
19352.0	5.4568913703621926e+17
19353.0	5.458013609525247e+17
19354.0	5.4570605049719456e+17
19355.0	5.4552636770222106e+17
19356.0	5.455073778510506e+17
19357.0	5.4540371674617165e+17
19358.0	5.4529780497776634e+17
19359.0	5.451511678457171e+17
19360.0	5.4495001860287136e+17
19361.0	5.449907059381589e+17
19362.0	5.4489561372644685e+17
19363.0	5.447944290784596e+17
19364.0	5.446929030840319e+17
19365.0	5.4458527759291725e+17
19366.0	5.4448526056925856e+17
19367.0	5.4438119758015136e+17
19368.0	5.4427565742708045e+17
19369.0	5.441556540555262e+17
19370.0	5.440561755105962e+17
19371.0	5.439184415577428e+17
19372.0	5.438557025992703e+17
19373.0	5.4373807096681805e+17
19374.0	5.436419756873045e+17
19375.0	5.435406788416852e+17
19376.0	5.4343282140555936e+17
19377.0	5.433204383154175e+17
19378.0	5.432119886435668e+17
19379.0	5.431056724044458e+17
19380.0	5.429943797634389e+17
19381.0	5.428784247341055e+17
19382.0	5.4270270688460794e+17
19383.0	5.426263276300968e+17
19384.0	5.425391595771221e+17
19385.0	5.4242893955945805e+17
19386.0	5.423181790358186e+17
19387.0	5.421948309864447e+17
19388.0	5.4206269160598176e+17
19389.0	5.4191183912850765e+17
19390.0	5.416639166152704e+17
19391.0	5.410384171936425e+17
19392.0	5.412490079546026e+17
19393.0	5.413948493572777e+17
19394.0	5.413387108351998e+17
19395.0	5.411877439231318e+17
19396.0	5.411077416987306e+17
19397.0	5.4098252187129165e+17
19398.0	5.407584638992384e+17
19399.0	5.4053382145092256e+17
19400.0	5.404518527969963e+17
19401.0	5.4044315842423456e+17
19402.0	5.403444331063978e+17
19403.0	5.402072424557225e+17
19404.0	5.400852884531883e+17
19405.0	5.3992361250433696e+17
19406.0	5.397742141920596e+17
19407.0	5.395396528439294e+17
19408.0	5.3934150895970976e+17
19409.0	5.3924868495769594e+17
19410.0	5.3916928112066554e+17
19411.0	5.390317536673792e+17
19412.0	5.3886983165269325e+17
19413.0	5.3865174685887136e+17
19414.0	5.385257907912704e+17
19415.0	5.383362968201899e+17
19416.0	5.380539338981374e+17
19417.0	5.3797509643195725e+17
19418.0	5.377716331915945e+17
19419.0	5.375679998722047e+17
19420.0	5.3735358488466765e+17
19421.0	5.3712763716894714e+17
19422.0	5.368554377445375e+17
19423.0	5.3663742348492794e+17
19424.0	5.3637955124374176e+17
19425.0	5.360966157991936e+17
19426.0	5.357994648098132e+17
19427.0	5.354825944399872e+17
19428.0	5.351455279371604e+17
19429.0	5.347702014126761e+17
19430.0	5.343460069124778e+17
19431.0	5.3390601442645344e+17
19432.0	5.335520892682239e+17
19433.0	5.3309249057805645e+17
19434.0	5.3256988833873914e+17
19435.0	5.3197798193670816e+17
19436.0	5.312810283521365e+17
19437.0	5.3045410859581434e+17
19438.0	5.287448813415083e+17
19439.0	5.2857771721577805e+17
19440.0	5.2827054281850874e+17
19441.0	5.2744642779327123e+17
19442.0	5.264221726747307e+17
19443.0	5.2520978799220045e+17
19444.0	5.2380168953528314e+17
19445.0	5.221765426970624e+17
19446.0	5.2019476879988045e+17
19447.0	5.1782032898566803e+17
19448.0	5.147371554646699e+17
19449.0	5.105517171747498e+17
19450.0	5.034351100865189e+17
19451.0	4.9748594662222515e+17
19452.0	5.075455256297471e+17
19453.0	5.1252319426532704e+17
19454.0	5.15819460309811e+17
19455.0	5.182626407819946e+17
19456.0	5.2007954497754464e+17
19457.0	5.2113552490277536e+17
19458.0	5.128780078470535e+17
19459.0	5.2110212454154394e+17
19460.0	5.249189326531241e+17
19461.0	5.260140944381268e+17
19462.0	5.2683108788469754e+17
19463.0	5.275034346061824e+17
19464.0	5.2807116664777376e+17
19465.0	5.2856741810230605e+17
19466.0	5.2896444945093965e+17
19467.0	5.293646713367209e+17
19468.0	5.296805805817855e+17
19469.0	5.298379947682472e+17
19470.0	5.3020985302275405e+17
19471.0	5.304475078098943e+17
19472.0	5.306171088961535e+17
19473.0	5.30779079774481e+17
19474.0	5.307704311895378e+17
19475.0	5.307905946069673e+17
19476.0	5.3106957810838163e+17
19477.0	5.312424346036907e+17
19478.0	5.3135918109818874e+17
19479.0	5.313171638889129e+17
19480.0	5.3145691481265485e+17
19481.0	5.314952457879552e+17
19482.0	5.3155224365301754e+17
19483.0	5.315731392561151e+17
19484.0	5.3156774740841805e+17
19485.0	5.315621007567529e+17
19486.0	5.314336559988738e+17
19487.0	5.315211273699326e+17
19488.0	5.3146105822576634e+17
19489.0	5.312885922201599e+17
19490.0	5.311636337677651e+17
19491.0	5.313181181629779e+17
19492.0	5.313941111919956e+17
19493.0	5.313770499517098e+17
19494.0	5.313272549649066e+17
19495.0	5.3123900827675296e+17
19496.0	5.310572648202238e+17
19497.0	5.3095516406633805e+17
19498.0	5.3045275138894496e+17
19499.0	5.299785477128192e+17
19500.0	5.307408976969728e+17
19501.0	5.308845521895423e+17
19502.0	5.3088978024966816e+17
19503.0	5.308541290850985e+17
19504.0	5.3079579449535136e+17
19505.0	5.307282266346836e+17
19506.0	5.3066508369483085e+17
19507.0	5.305646036899156e+17
19508.0	5.304632353314132e+17
19509.0	5.3027229824013645e+17
19510.0	5.296716724393299e+17
19511.0	5.252390842968738e+17
19512.0	5.289883053238953e+17
19513.0	5.293916845419177e+17
19514.0	5.294795986217641e+17
19515.0	5.297546457688747e+17
19516.0	5.2980255038286496e+17
19517.0	5.297989525787989e+17
19518.0	5.297320553174355e+17
19519.0	5.296682442249556e+17
19520.0	5.2950560337646906e+17
19521.0	5.295669098403158e+17
19522.0	5.294410859631956e+17
19523.0	5.293795901964288e+17
19524.0	5.2923803746959366e+17
19525.0	5.292436614021118e+17
19526.0	5.2916995594649594e+17
19527.0	5.290734536796842e+17
19528.0	5.2898471108498765e+17
19529.0	5.288915600670719e+17
19530.0	5.2882851660212896e+17
19531.0	5.2874629594043725e+17
19532.0	5.286582651191296e+17
19533.0	5.285722748267178e+17
19534.0	5.284876483122517e+17
19535.0	5.283765890143572e+17
19536.0	5.282655746654207e+17
19537.0	5.281773196585641e+17
19538.0	5.2791127006248966e+17
19539.0	5.2791387675252045e+17
19540.0	5.2788079536810656e+17
19541.0	5.2780791751857485e+17
19542.0	5.277321688776704e+17
19543.0	5.2751541297916576e+17
19544.0	5.27492905505041e+17
19545.0	5.272721745947306e+17
19546.0	5.271724678097578e+17
19547.0	5.27237983187763e+17
19548.0	5.272073937092607e+17
19549.0	5.270622053597182e+17
19550.0	5.2706662622603936e+17
19551.0	5.26984808636962e+17
19552.0	5.268952187928575e+17
19553.0	5.26804416934707e+17
19554.0	5.2671263556676256e+17
19555.0	5.2660507753403725e+17
19556.0	5.2653461357636256e+17
19557.0	5.264577508584106e+17
19558.0	5.263692028095145e+17
19559.0	5.262800602180265e+17
19560.0	5.261277866404521e+17
19561.0	5.260804128156331e+17
19562.0	5.259618812952574e+17
19563.0	5.259218758139902e+17
19564.0	5.2582930333040634e+17
19565.0	5.2573894956373325e+17
19566.0	5.2563865005370016e+17
19567.0	5.2555850627153914e+17
19568.0	5.254487941141845e+17
19569.0	5.2536551215377056e+17
19570.0	5.2528473587056634e+17
19571.0	5.251950952753834e+17
19572.0	5.2507688406002355e+17
19573.0	5.2499591302130336e+17
19574.0	5.248402052175187e+17
19575.0	5.248294769568425e+17
19576.0	5.247285938094079e+17
19577.0	5.2460647476101114e+17
19578.0	5.245492167092906e+17
19579.0	5.244406660945236e+17
19580.0	5.2435467964689056e+17
19581.0	5.242808273906345e+17
19582.0	5.241922415930026e+17
19583.0	5.240999614524073e+17
19584.0	5.24004736700689e+17
19585.0	5.2381472025914003e+17
19586.0	5.2369879207335277e+17
19587.0	5.2368393962345805e+17
19588.0	5.235381709919572e+17
19589.0	5.23475323261201e+17
19590.0	5.233749618152788e+17
19591.0	5.23344704385843e+17
19592.0	5.232686645204308e+17
19593.0	5.231551914005844e+17
19594.0	5.228777480475985e+17
19595.0	5.229799621875028e+17
19596.0	5.2289061959761914e+17
19597.0	5.22772226838801e+17
19598.0	5.224949237852842e+17
19599.0	5.2257408169629005e+17
19600.0	5.225174072819711e+17
19601.0	5.223918695961942e+17
19602.0	5.2228806329849165e+17
19603.0	5.22168378204706e+17
19604.0	5.220907189884245e+17
19605.0	5.2190704244708755e+17
19606.0	5.2196689264858445e+17
19607.0	5.218892969061034e+17
19608.0	5.2179734014634656e+17
19609.0	5.2169074547534496e+17
19610.0	5.215691910501717e+17
19611.0	5.214454093097642e+17
19612.0	5.21443272032256e+17
19613.0	5.2133926944112634e+17
19614.0	5.2121703456003405e+17
19615.0	5.211407017224874e+17
19616.0	5.209652783131307e+17
19617.0	5.207781221771946e+17
19618.0	5.205980040833706e+17
19619.0	5.204414742659072e+17
19620.0	5.2042856720411296e+17
19621.0	5.203793116747091e+17
19622.0	5.2047166241942176e+17
19623.0	5.203981524882773e+17
19624.0	5.2029431417405434e+17
19625.0	5.2023061381119994e+17
19626.0	5.201244668821503e+17
19627.0	5.2002746898841594e+17
19628.0	5.1990064763589965e+17
19629.0	5.194227407388669e+17
19630.0	5.1961127708043936e+17
19631.0	5.1944070522251936e+17
19632.0	5.194740950280873e+17
19633.0	5.194089094621867e+17
19634.0	5.19385360891904e+17
19635.0	5.192742369318227e+17
19636.0	5.190910980303527e+17
19637.0	5.187438881625434e+17
19638.0	5.19036942365491e+17
19639.0	5.1892900621626016e+17
19640.0	5.1861587436939936e+17
19641.0	5.183292988981249e+17
19642.0	5.186186898658645e+17
19643.0	5.1856016052060154e+17
19644.0	5.184560400695294e+17
19645.0	5.183782084673535e+17
19646.0	5.1818283561997626e+17
19647.0	5.1824706362627405e+17
19648.0	5.1816612215739725e+17
19649.0	5.1807708232635725e+17
19650.0	5.1799361316017485e+17
19651.0	5.178997104530771e+17
19652.0	5.1780813425650336e+17
19653.0	5.1772445076138656e+17
19654.0	5.1762693717797536e+17
19655.0	5.1753138212481683e+17
19656.0	5.174517095727103e+17
19657.0	5.173556559566166e+17
