# Flux units: erg / (cm m2 s)
# Wavelength units: Angstrom
wave	flux
19000.0	4.3904022592443725e+17
19001.0	4.389601180734804e+17
19002.0	4.3888379977618765e+17
19003.0	4.3880568610706765e+17
19004.0	4.38727538184465e+17
19005.0	4.3864908792244896e+17
19006.0	4.385688714390187e+17
19007.0	4.384932006024532e+17
19008.0	4.3841404304097274e+17
19009.0	4.3833554671151776e+17
19010.0	4.3824869232257696e+17
19011.0	4.3818034767680845e+17
19012.0	4.3809957572771834e+17
19013.0	4.3802498205832525e+17
19014.0	4.379460953789781e+17
19015.0	4.378682702779731e+17
19016.0	4.377894654574592e+17
19017.0	4.3771317470276256e+17
19018.0	4.376349516322132e+17
19019.0	4.375569637922132e+17
19020.0	4.3747949898192205e+17
19021.0	4.374016436819285e+17
19022.0	4.3732379963665056e+17
19023.0	4.372455941821781e+17
19024.0	4.371671410540542e+17
19025.0	4.3709028532660896e+17
19026.0	4.370120245772287e+17
19027.0	4.3693323597469005e+17
19028.0	4.368571099163306e+17
19029.0	4.3677938603786234e+17
19030.0	4.3670167914632525e+17
19031.0	4.366239896611497e+17
19032.0	4.3654603076184736e+17
19033.0	4.3646712415955616e+17
19034.0	4.3639102480493216e+17
19035.0	4.3631288673894394e+17
19036.0	4.361160697926995e+17
19037.0	4.3615821136308896e+17
19038.0	4.360805736775679e+17
19039.0	4.360029982774612e+17
19040.0	4.359254138596011e+17
19041.0	4.358478425139882e+17
19042.0	4.3573469906643616e+17
19043.0	4.356930354369876e+17
19044.0	4.3561556559353165e+17
19045.0	4.355379562894677e+17
19046.0	4.354596440200532e+17
19047.0	4.3538314592692896e+17
19048.0	4.3529661463920634e+17
19049.0	4.3515672775010976e+17
19050.0	4.351497452825259e+17
19051.0	4.3505582978280096e+17
19052.0	4.3499477546653005e+17
19053.0	4.3491909015961594e+17
19054.0	4.348417879485098e+17
19055.0	4.347499540818602e+17
19056.0	4.3468333343484576e+17
19057.0	4.346099832367786e+17
19058.0	4.3449613780254714e+17
19059.0	4.344410449204564e+17
19060.0	4.3437789415123616e+17
19061.0	4.343011459377834e+17
19062.0	4.3422397472877216e+17
19063.0	4.341468247009962e+17
19064.0	4.3406779136081914e+17
19065.0	4.33989857976866e+17
19066.0	4.3390084617775776e+17
19067.0	4.338383788004693e+17
19068.0	4.337613188104191e+17
19069.0	4.336842688866987e+17
19070.0	4.3360723511104845e+17
19071.0	4.33530214687266e+17
19072.0	4.3343894055048525e+17
19073.0	4.333762327696725e+17
19074.0	4.332992640057343e+17
19075.0	4.3322231600360096e+17
19076.0	4.331439477402282e+17
19077.0	4.330681181492564e+17
19078.0	4.32991016006451e+17
19079.0	4.329146819106134e+17
19080.0	4.3283774760987296e+17
19081.0	4.327600801447936e+17
19082.0	4.3268332605931514e+17
19083.0	4.32606321713698e+17
19084.0	4.325273986837162e+17
19085.0	4.324536407993002e+17
19086.0	4.32354484097297e+17
19087.0	4.322679365216938e+17
19088.0	4.322053282157908e+17
19089.0	4.32142887682048e+17
19090.0	4.320700555504298e+17
19091.0	4.3199041396626765e+17
19092.0	4.3188856759691955e+17
19093.0	4.318400530612223e+17
19094.0	4.3176342054065485e+17
19095.0	4.316868032593919e+17
19096.0	4.3160986259729056e+17
19097.0	4.3153358799066445e+17
19098.0	4.314423578940755e+17
19099.0	4.313630477997398e+17
19100.0	4.313032892437844e+17
19101.0	4.312272465122644e+17
19102.0	4.311481639589206e+17
19103.0	4.310744587130196e+17
19104.0	4.3099799179755514e+17
19105.0	4.308898920704683e+17
19106.0	4.308443896741887e+17
19107.0	4.307609834225664e+17
19108.0	4.306807273029631e+17
19109.0	4.3060998358521165e+17
19110.0	4.3053950347946656e+17
19111.0	4.3045446284738554e+17
19112.0	4.3037526306324474e+17
19113.0	4.303104535166975e+17
19114.0	4.302285299515392e+17
19115.0	4.3015592326376096e+17
19116.0	4.300811149858132e+17
19117.0	4.300052059127807e+17
19118.0	4.2992801694788256e+17
19119.0	4.295476980132517e+17
19120.0	4.29775818658065e+17
19121.0	4.296999313954131e+17
19122.0	4.2962439170075296e+17
19123.0	4.2954823775027194e+17
19124.0	4.294716674452138e+17
19125.0	4.293959516596905e+17
19126.0	4.2931987390573216e+17
19127.0	4.292086666188117e+17
19128.0	4.291677133646506e+17
19129.0	4.2909052614737914e+17
19130.0	4.2901554373591034e+17
19131.0	4.2893959894138874e+17
19132.0	4.2886359186145274e+17
19133.0	4.2878706259066874e+17
19134.0	4.2871162572636154e+17
19135.0	4.2863567107522554e+17
19136.0	4.285597338304512e+17
19137.0	4.2848068112657056e+17
19138.0	4.2840788821169485e+17
19139.0	4.2833200996679674e+17
19140.0	4.282561371045887e+17
19141.0	4.28180276196147e+17
19142.0	4.281040487055359e+17
19143.0	4.280274520462676e+17
19144.0	4.2795265746971296e+17
19145.0	4.2787701012125005e+17
19146.0	4.27790733218065e+17
19147.0	4.277222200311808e+17
19148.0	4.2763764461731834e+17
19149.0	4.275600588013568e+17
19150.0	4.274982941097983e+17
19151.0	4.2742260097351674e+17
19152.0	4.2734688057425914e+17
19153.0	4.27246164849459e+17
19154.0	4.271906523272531e+17
19155.0	4.271199868332714e+17
19156.0	4.2704437478686714e+17
19157.0	4.26960342884898e+17
19158.0	4.268719136047104e+17
19159.0	4.2681659185343136e+17
19160.0	4.2674207032606714e+17
19161.0	4.266665397190655e+17
19162.0	4.2658193809080314e+17
19163.0	4.265155108012032e+17
19164.0	4.26439868485905e+17
19165.0	4.2633750929298765e+17
19166.0	4.262863998812159e+17
19167.0	4.262118508112553e+17
19168.0	4.2613830313137485e+17
19169.0	4.260629016390314e+17
19170.0	4.2598752041915725e+17
19171.0	4.2591149956792314e+17
19172.0	4.2583680090112e+17
19173.0	4.2576146686716576e+17
19174.0	4.2568498380363085e+17
19175.0	4.2561069624852474e+17
19176.0	4.255355590672383e+17
19177.0	4.2545774487142394e+17
19178.0	4.2538383857855136e+17
19179.0	4.253074412885333e+17
19180.0	4.2523458126479354e+17
19181.0	4.2515555561417376e+17
19182.0	4.2508356898433696e+17
19183.0	4.250089655282347e+17
19184.0	4.2493336921047034e+17
19185.0	4.2485871800920736e+17
19186.0	4.2478359410988365e+17
19187.0	4.247078850352468e+17
19188.0	4.246331319823018e+17
19189.0	4.2455832083824634e+17
19190.0	4.244832643973119e+17
19191.0	4.244082203295743e+17
19192.0	4.243331963944959e+17
19193.0	4.2425526944180896e+17
19194.0	4.2417861070684154e+17
19195.0	4.2410821574546765e+17
19196.0	4.240332529074175e+17
19197.0	4.2395831020202656e+17
19198.0	4.2388337861154125e+17
19199.0	4.23746594808354e+17
19200.0	4.236940832407551e+17
19201.0	4.236583862184618e+17
19202.0	4.2358382358691834e+17
19203.0	4.235089756727978e+17
19204.0	4.2343361794102605e+17
19205.0	4.2335932689066656e+17
19206.0	4.2328452161863674e+17
19207.0	4.2320829447755085e+17
19208.0	4.2312943492136954e+17
19209.0	4.230602258295466e+17
19210.0	4.2298549200049485e+17
19211.0	4.229107732709376e+17
19212.0	4.228360693612544e+17
19213.0	4.227596988448768e+17
19214.0	4.226846159798272e+17
19215.0	4.2261184151988896e+17
19216.0	4.2253741911790925e+17
19217.0	4.2246279776610976e+17
19218.0	4.223733517167274e+17
19219.0	4.223115387906729e+17
19220.0	4.222386626887679e+17
19221.0	4.2215850094100474e+17
19222.0	4.2208991106826234e+17
19223.0	4.220154011451391e+17
19224.0	4.219403846199978e+17
19225.0	4.2186383025329485e+17
19226.0	4.2179192030931616e+17
19227.0	4.2171745973917e+17
19228.0	4.216430157365247e+17
19229.0	4.215685847362217e+17
19230.0	4.2149417156171085e+17
19231.0	4.214197736964095e+17
19232.0	4.213452873312938e+17
19233.0	4.212699196030975e+17
19234.0	4.2119619897808205e+17
19235.0	4.211223474907818e+17
19236.0	4.210480300163072e+17
19237.0	4.2097340426048845e+17
19238.0	4.2089757459961165e+17
19239.0	4.208251733628244e+17
19240.0	4.20750922018543e+17
19241.0	4.206766854941355e+17
19242.0	4.2060245400289274e+17
19243.0	4.2052600477341005e+17
19244.0	4.20454069244177e+17
19245.0	4.203798952148991e+17
19246.0	4.203057406891349e+17
19247.0	4.202315976977066e+17
19248.0	4.2015747686618445e+17
19249.0	4.2008290263039994e+17
19250.0	4.2000454289544525e+17
19251.0	4.199289537079978e+17
19252.0	4.1985684348600314e+17
19253.0	4.197867812727466e+17
19254.0	4.197130604380159e+17
19255.0	4.196361448019286e+17
19256.0	4.1956468301933216e+17
19257.0	4.1949106871992314e+17
19258.0	4.1941710146983245e+17
19259.0	4.193420402054485e+17
19260.0	4.192657013560661e+17
19261.0	4.1919530248000845e+17
19262.0	4.1912066805596154e+17
19263.0	4.1904626187195725e+17
19264.0	4.1896246652873376e+17
19265.0	4.1889429594658125e+17
19266.0	4.188159545267541e+17
19267.0	4.187509316998485e+17
19268.0	4.186771127184042e+17
19269.0	4.1860330862673914e+17
19270.0	4.1852952026371405e+17
19271.0	4.184488479992491e+17
19272.0	4.1838135130193914e+17
19273.0	4.1830329879975245e+17
19274.0	4.1822773981129376e+17
19275.0	4.181608186423978e+17
19276.0	4.180867709315754e+17
19277.0	4.1801344631876256e+17
19278.0	4.179393660321791e+17
19279.0	4.1786613446301e+17
19280.0	4.177912241935701e+17
19281.0	4.177188883879253e+17
19282.0	4.176452900967765e+17
19283.0	4.1757093759986336e+17
19284.0	4.1749797551472634e+17
19285.0	4.174219073377621e+17
19286.0	4.17350505603618e+17
19287.0	4.172775222673406e+17
19288.0	4.171750426978987e+17
19289.0	4.170470185588052e+17
19290.0	4.1705704804843514e+17
19291.0	4.169797464664746e+17
19292.0	4.169101418517845e+17
19293.0	4.1683671224156154e+17
19294.0	4.167631410735786e+17
19295.0	4.166898943350101e+17
19296.0	4.1660203163538765e+17
19297.0	4.1654039382152525e+17
19298.0	4.1646947624987296e+17
19299.0	4.1637980741304314e+17
19300.0	4.163224238118228e+17
19301.0	4.162498257922729e+17
19302.0	4.1617630572489376e+17
19303.0	4.161018952067754e+17
19304.0	4.160293940057427e+17
19305.0	4.1595674474577914e+17
19306.0	4.158835122678442e+17
19307.0	4.158092059781802e+17
19308.0	4.157366190735359e+17
19309.0	4.156616049251668e+17
19310.0	4.1558777888331085e+17
19311.0	4.1551673639130445e+17
19312.0	4.154442747565397e+17
19313.0	4.1537075958251514e+17
19314.0	4.148162715451388e+17
19315.0	4.147704250761224e+17
19316.0	4.15132428603665e+17
19317.0	4.1507866077211296e+17
19318.0	4.150058522684074e+17
19319.0	4.149328544617813e+17
19320.0	4.1485370570833914e+17
19321.0	4.14773839728913e+17
19322.0	4.147126528027306e+17
19323.0	4.146400080166911e+17
19324.0	4.145679539983701e+17
19325.0	4.144929309021525e+17
19326.0	4.144220833054719e+17
19327.0	4.143486077676202e+17
19328.0	4.1424767883236685e+17
19329.0	4.1420338201886714e+17
19330.0	4.1412977897417376e+17
19331.0	4.1405696215176525e+17
19332.0	4.1398477804011514e+17
19333.0	4.139119861738154e+17
19334.0	4.1383821395886074e+17
19335.0	4.137085153138006e+17
19336.0	4.136929835264682e+17
19337.0	4.1362082038633805e+17
19338.0	4.135444176437247e+17
19339.0	4.134753205398186e+17
19340.0	4.133950531654996e+17
19341.0	4.133079690685098e+17
19342.0	4.1324411722137594e+17
19343.0	4.131845074933076e+17
19344.0	4.1309103980544e+17
19345.0	4.1298527672511136e+17
19346.0	4.129514254761983e+17
19347.0	4.128665776422912e+17
19348.0	4.128212785299455e+17
19349.0	4.12748297081105e+17
19350.0	4.1266640336541e+17
19351.0	4.1260274627379194e+17
19352.0	4.1250142803722234e+17
19353.0	4.124582775969109e+17
19354.0	4.1238585699642016e+17
19355.0	4.123118427002197e+17
19356.0	4.12240822997265e+17
19357.0	4.1216832396328954e+17
19358.0	4.1209583485583354e+17
19359.0	4.1201630742664525e+17
19360.0	4.119290599615146e+17
19361.0	4.1187769385833805e+17
19362.0	4.1180601704775674e+17
19363.0	4.117335796001451e+17
19364.0	4.1166114620702714e+17
19365.0	4.1158877740619085e+17
19366.0	4.1151638553668256e+17
19367.0	4.1144400701904205e+17
19368.0	4.1137163835801594e+17
19369.0	4.1129868962474656e+17
19370.0	4.112267538158933e+17
19371.0	4.111536996657834e+17
19372.0	4.110822659850238e+17
19373.0	4.1100994961298765e+17
19374.0	4.1093764121012896e+17
19375.0	4.1086534140559354e+17
19376.0	4.107930489410901e+17
19377.0	4.10720766263296e+17
19378.0	4.1064849113524896e+17
19379.0	4.105762220889429e+17
19380.0	4.10503961710865e+17
19381.0	4.1043154698239994e+17
19382.0	4.103582882900649e+17
19383.0	4.1028524951906976e+17
19384.0	4.1021448112482976e+17
19385.0	4.1014273573737805e+17
19386.0	4.1007050954287776e+17
19387.0	4.099982818803711e+17
19388.0	4.099260542178644e+17
19389.0	4.0985382522716154e+17
19390.0	4.097816031570603e+17
19391.0	4.0959708048479546e+17
19392.0	4.0963675216936954e+17
19393.0	4.0956491220036256e+17
19394.0	4.094926693684565e+17
19395.0	4.094122017860266e+17
19396.0	4.0934596212162554e+17
19397.0	4.0927590004817914e+17
19398.0	4.091961582201515e+17
19399.0	4.0910532686206285e+17
19400.0	4.090523389613397e+17
19401.0	4.089866812566186e+17
19402.0	4.089143732731902e+17
19403.0	4.088420049616895e+17
19404.0	4.0876960889787725e+17
19405.0	4.0869717844077216e+17
19406.0	4.0862471380008954e+17
19407.0	4.0854189908514125e+17
19408.0	4.084626801470121e+17
19409.0	4.0840704927552845e+17
19410.0	4.0833439645040634e+17
19411.0	4.0826165680319136e+17
19412.0	4.0818873323574605e+17
19413.0	4.0810529517731834e+17
19414.0	4.080422621981354e+17
19415.0	4.0796989933922976e+17
19416.0	4.078938385022975e+17
19417.0	4.078228083135829e+17
19418.0	4.0774982616569165e+17
19419.0	4.076761410524502e+17
19420.0	4.076022460142933e+17
19421.0	4.0752812413419514e+17
19422.0	4.074529624861355e+17
19423.0	4.073790343828821e+17
19424.0	4.0730397193011194e+17
19425.0	4.0722840301513376e+17
19426.0	4.071524702442836e+17
19427.0	4.070759634130261e+17
19428.0	4.0699872991860045e+17
19429.0	4.069206831486293e+17
19430.0	4.0684074041343994e+17
19431.0	4.067400406969003e+17
19432.0	4.066798294357332e+17
19433.0	4.06596132938274e+17
19434.0	4.065105668997119e+17
19435.0	4.064200054450857e+17
19436.0	4.0631954948751354e+17
19437.0	4.0623396904850765e+17
19438.0	4.058703423253162e+17
19439.0	4.060181198187179e+17
19440.0	4.058984773670229e+17
19441.0	4.0576102023823354e+17
19442.0	4.0559796135744845e+17
19443.0	4.053987519102976e+17
19444.0	4.051418630236842e+17
19445.0	4.047846364588714e+17
19446.0	4.042393889625429e+17
19447.0	4.032968198717438e+17
19448.0	4.0135415240676704e+17
19449.0	3.953599883247615e+17
19450.0	3.603812528597665e+17
19451.0	3.28649377648912e+17
19452.0	3.739060522014051e+17
19453.0	3.975662262026244e+17
19454.0	4.015817999340884e+17
19455.0	4.030165548007424e+17
19456.0	4.036813210167978e+17
19457.0	4.0402211471796896e+17
19458.0	4.022792009110903e+17
19459.0	4.0426818083225626e+17
19460.0	4.0434951712494925e+17
19461.0	4.043638388555776e+17
19462.0	4.043544795458218e+17
19463.0	4.0433116914210125e+17
19464.0	4.042972237310634e+17
19465.0	4.0425615932784634e+17
19466.0	4.0420871447947936e+17
19467.0	4.0415808992925e+17
19468.0	4.041036517081087e+17
19469.0	4.04020362547473e+17
19470.0	4.03987456135441e+17
19471.0	4.0392689667713696e+17
19472.0	4.0386384048947194e+17
19473.0	4.0380045525865805e+17
19474.0	4.037163788970666e+17
19475.0	4.0365267769535136e+17
19476.0	4.0360586527812256e+17
19477.0	4.0354020344900256e+17
19478.0	4.03474408870161e+17
19479.0	4.033870695497726e+17
19480.0	4.033395696162133e+17
19481.0	4.032704034461012e+17
19482.0	4.032045823033342e+17
19483.0	4.0313647107058336e+17
19484.0	4.030679397782868e+17
19485.0	4.029983943032832e+17
19486.0	4.029086626917034e+17
19487.0	4.0286226537076045e+17
19488.0	4.027934134239231e+17
19489.0	4.027235963677354e+17
19490.0	4.0262254181307725e+17
19491.0	4.0258557433610234e+17
19492.0	4.0251697341835936e+17
19493.0	4.024476826774186e+17
19494.0	4.023783362920447e+17
19495.0	4.023087999046996e+17
19496.0	4.0222919005743776e+17
19497.0	4.021694153534122e+17
19498.0	4.020951499582122e+17
19499.0	4.018430901136041e+17
19500.0	4.019612094038015e+17
19501.0	4.0190077528528205e+17
19502.0	4.0183632421191674e+17
19503.0	4.01766148542737e+17
19504.0	4.0169598398846285e+17
19505.0	4.01625518772497e+17
19506.0	4.0155568109431456e+17
19507.0	4.014850618075819e+17
19508.0	4.014154808208042e+17
19509.0	4.0134539246305274e+17
19510.0	4.012694360642901e+17
19511.0	4.004687318264482e+17
19512.0	4.01111850890035e+17
19513.0	4.010071341487444e+17
19514.0	4.009580456924501e+17
19515.0	4.009146605808298e+17
19516.0	4.0085249652162554e+17
19517.0	4.007830254955178e+17
19518.0	4.007095983319722e+17
19519.0	4.0063953751681696e+17
19520.0	4.0055602333177165e+17
19521.0	4.005053750138198e+17
19522.0	4.0043312015824205e+17
19523.0	4.0036082384896e+17
19524.0	4.00281373315345e+17
19525.0	4.002256916927827e+17
19526.0	4.0015617229236896e+17
19527.0	4.00085998440721e+17
19528.0	4.0001526632721056e+17
19529.0	3.999447227476651e+17
19530.0	3.9987698320015354e+17
19531.0	3.9980722032039245e+17
19532.0	3.9973747617518925e+17
19533.0	3.9966774691976525e+17
19534.0	3.995980298278229e+17
19535.0	3.9952832930338125e+17
19536.0	3.994580906497365e+17
19537.0	3.993888066196821e+17
19538.0	3.992997114238293e+17
19539.0	3.992373188449621e+17
19540.0	3.991796431803733e+17
19541.0	3.991067716922027e+17
19542.0	3.9903924940963834e+17
19543.0	3.989520449361238e+17
19544.0	3.989005792881322e+17
19545.0	3.98823669174545e+17
19546.0	3.987429562952362e+17
19547.0	3.9869307930978976e+17
19548.0	3.9862355690345805e+17
19549.0	3.9855258263879674e+17
19550.0	3.9848459912260256e+17
19551.0	3.9841513620548256e+17
19552.0	3.983456850324138e+17
19553.0	3.982761441711444e+17
19554.0	3.9820589552107514e+17
19555.0	3.98135484551441e+17
19556.0	3.9806674857710925e+17
19557.0	3.979984938292564e+17
19558.0	3.9792927040689485e+17
19559.0	3.9785995946338976e+17
19560.0	3.977835830749866e+17
19561.0	3.9772131506694816e+17
19562.0	3.9764537956980045e+17
19563.0	3.9758272932085754e+17
19564.0	3.975134560561834e+17
19565.0	3.9744420040758605e+17
19566.0	3.973745332278613e+17
19567.0	3.973057269290325e+17
19568.0	3.972365234296149e+17
19569.0	3.971671228678143e+17
19570.0	3.9709800164666016e+17
19571.0	3.9702884987699194e+17
19572.0	3.9695937346819405e+17
19573.0	3.9688843073071776e+17
19574.0	3.968193854963712e+17
19575.0	3.967524459424427e+17
19576.0	3.9668231703975245e+17
19577.0	3.9661133145047034e+17
19578.0	3.965443556857174e+17
19579.0	3.964757833591466e+17
19580.0	3.964067897846442e+17
19581.0	3.963377288915627e+17
19582.0	3.9626909497862816e+17
19583.0	3.9620010329156256e+17
19584.0	3.9613108587943245e+17
19585.0	3.960602479296511e+17
19586.0	3.959910216411818e+17
19587.0	3.9592387810426874e+17
19588.0	3.958458069374293e+17
19589.0	3.9578626410850976e+17
19590.0	3.957145444461227e+17
19591.0	3.956486567537322e+17
19592.0	3.9557978467423565e+17
19593.0	3.955093700695381e+17
19594.0	3.9543656743785805e+17
19595.0	3.953728133879125e+17
19596.0	3.953045496223061e+17
19597.0	3.952357632464213e+17
19598.0	3.951527191729493e+17
19599.0	3.9509823586303994e+17
19600.0	3.9502949296810656e+17
19601.0	3.949595446302036e+17
19602.0	3.948913305670997e+17
19603.0	3.948141042029908e+17
19604.0	3.94754053443857e+17
19605.0	3.9468094588627616e+17
19606.0	3.946173470255785e+17
19607.0	3.945487068910933e+17
19608.0	3.94480077312273e+17
19609.0	3.9441065983344634e+17
19610.0	3.943332432576511e+17
19611.0	3.9426038225524045e+17
19612.0	3.9420572830706336e+17
19613.0	3.9413717268780365e+17
19614.0	3.9406802189680634e+17
19615.0	3.9400010108545696e+17
19616.0	3.939211379299668e+17
19617.0	3.938486105145343e+17
19618.0	3.937826268424874e+17
19619.0	3.937084031806122e+17
19620.0	3.9363826295330125e+17
19621.0	3.935698304368638e+17
19622.0	3.935208576734548e+17
19623.0	3.934516164952063e+17
19624.0	3.933816945814186e+17
19625.0	3.933156614165845e+17
19626.0	3.932473164212906e+17
19627.0	3.931789693288448e+17
19628.0	3.931089525538816e+17
19629.0	3.929925744590848e+17
19630.0	3.9297290862591994e+17
19631.0	3.9284307408541e+17
19632.0	3.9283744372162554e+17
19633.0	3.9276873396169376e+17
19634.0	3.9270093646288205e+17
19635.0	3.9262952571098445e+17
19636.0	3.9254193228567885e+17
19637.0	3.924698294037161e+17
19638.0	3.924258703714986e+17
19639.0	3.923598658677418e+17
19640.0	3.922905450676224e+17
19641.0	3.9218442050819424e+17
19642.0	3.921541094615722e+17
19643.0	3.920860653376853e+17
19644.0	3.920182171577001e+17
19645.0	3.9194536265646074e+17
19646.0	3.918587369968981e+17
19647.0	3.9181450729226234e+17
19648.0	3.917469979421354e+17
19649.0	3.916789693371732e+17
19650.0	3.916109519170218e+17
19651.0	3.915429531615232e+17
19652.0	3.914749660102655e+17
19653.0	3.9140699416821754e+17
19654.0	3.9133903427993594e+17
19655.0	3.9127109326602234e+17
