# Flux units: erg / (cm m2 s)
# Wavelength units: Angstrom
wave	flux
19000.0	6.824482126342826e+17
19001.0	6.823161890865151e+17
19002.0	6.821949598597119e+17
19003.0	6.820681494822911e+17
19004.0	6.819413841237332e+17
19005.0	6.818147896131583e+17
19006.0	6.816880415910569e+17
19007.0	6.8155711946752e+17
19008.0	6.81431146832418e+17
19009.0	6.813017650670249e+17
19010.0	6.811570615091197e+17
19011.0	6.810513883966122e+17
19012.0	6.809138670949715e+17
19013.0	6.808001265882452e+17
19014.0	6.806693770603178e+17
19015.0	6.805436736995327e+17
19016.0	6.804160615809023e+17
19017.0	6.802910827162281e+17
19018.0	6.801638575920468e+17
19019.0	6.800380056130899e+17
19020.0	6.799093609966249e+17
19021.0	6.797837870301181e+17
19022.0	6.796573382716074e+17
19023.0	6.795279346958335e+17
19024.0	6.794017636701523e+17
19025.0	6.792750738789716e+17
19026.0	6.791464698773504e+17
19027.0	6.790118241905321e+17
19028.0	6.788949457851734e+17
19029.0	6.787678299226111e+17
19030.0	6.786407612459689e+17
19031.0	6.785136510457172e+17
19032.0	6.783865232992937e+17
19033.0	6.782544980738047e+17
19034.0	6.781322233468244e+17
19035.0	6.780022602508969e+17
19036.0	6.771909372936191e+17
19037.0	6.777504749234857e+17
19038.0	6.776223278213801e+17
19039.0	6.774965718919849e+17
19040.0	6.773694379939156e+17
19041.0	6.772421774278655e+17
19042.0	6.77110787150097e+17
19043.0	6.769880098755923e+17
19044.0	6.768607331614719e+17
19045.0	6.767336841980585e+17
19046.0	6.766037801719123e+17
19047.0	6.764780998098943e+17
19048.0	6.763415874480809e+17
19049.0	6.762214884463956e+17
19050.0	6.760955823609172e+17
19051.0	6.758701267768659e+17
19052.0	6.758212700558676e+17
19053.0	6.757153196299604e+17
19054.0	6.755890996008275e+17
19055.0	6.754482117410815e+17
19056.0	6.753337851860308e+17
19057.0	6.752072716954281e+17
19058.0	6.750793076746921e+17
19059.0	6.749533743961428e+17
19060.0	6.748250883227647e+17
19061.0	6.746992125760852e+17
19062.0	6.745718127591423e+17
19063.0	6.744447740717738e+17
19064.0	6.743114156867584e+17
19065.0	6.741810650371412e+17
19066.0	6.740603392666281e+17
19067.0	6.739362036667732e+17
19068.0	6.738092715846313e+17
19069.0	6.736821763440637e+17
19070.0	6.73553796248371e+17
19071.0	6.734280306021716e+17
19072.0	6.733009307478697e+17
19073.0	6.731735598716244e+17
19074.0	6.730467686481919e+17
19075.0	6.729196905343657e+17
19076.0	6.727915291017215e+17
19077.0	6.726647394861055e+17
19078.0	6.725370306887679e+17
19079.0	6.724114349118803e+17
19080.0	6.722838745229994e+17
19081.0	6.721553431527423e+17
19082.0	6.720279181000703e+17
19083.0	6.71897069167138e+17
19084.0	6.717633534274217e+17
19085.0	6.716491992225108e+17
19086.0	6.7150198879901e+17
19087.0	6.713745488565588e+17
19088.0	6.712628968336042e+17
19089.0	6.71121027506722e+17
19090.0	6.710123659526143e+17
19091.0	6.708855325764266e+17
19092.0	6.707531225235455e+17
19093.0	6.706333104821588e+17
19094.0	6.70505718915618e+17
19095.0	6.703786248634367e+17
19096.0	6.702515899509417e+17
19097.0	6.701254264051027e+17
19098.0	6.699987388508841e+17
19099.0	6.698717943955455e+17
19100.0	6.6974360024733e+17
19101.0	6.696177508548608e+17
19102.0	6.694860881570473e+17
19103.0	6.693642726364502e+17
19104.0	6.69237395010355e+17
19105.0	6.691104802646697e+17
19106.0	6.68979929546752e+17
19107.0	6.688559332676948e+17
19108.0	6.68729816977681e+17
19109.0	6.685442620172968e+17
19110.0	6.684736290990761e+17
19111.0	6.683494632303274e+17
19112.0	6.682227043030355e+17
19113.0	6.680959164350463e+17
19114.0	6.679691203881641e+17
19115.0	6.678397746937855e+17
19116.0	6.677142904853844e+17
19117.0	6.675874185915049e+17
19118.0	6.674542564999167e+17
19119.0	6.671339668635644e+17
19120.0	6.672029170270207e+17
19121.0	6.670774123364351e+17
19122.0	6.669550529544191e+17
19123.0	6.668282448838655e+17
19124.0	6.666982322252457e+17
19125.0	6.665741816299519e+17
19126.0	6.664476798834004e+17
19127.0	6.662278384451583e+17
19128.0	6.661704023452329e+17
19129.0	6.66063783207458e+17
19130.0	6.659406883542355e+17
19131.0	6.658146158247935e+17
19132.0	6.65687785804049e+17
19133.0	6.65547456905216e+17
19134.0	6.654239501014355e+17
19135.0	6.653079152405162e+17
19136.0	6.651814892011519e+17
19137.0	6.650462189125632e+17
19138.0	6.649263293464575e+17
19139.0	6.648014867267583e+17
19140.0	6.646750051827711e+17
19141.0	6.645483682398208e+17
19142.0	6.644204677627904e+17
19143.0	6.642925009458516e+17
19144.0	6.641670364506793e+17
19145.0	6.640417205037737e+17
19146.0	6.638839802800809e+17
19147.0	6.637830227536553e+17
19148.0	6.636618537850198e+17
19149.0	6.63535358050304e+17
19150.0	6.634085326432938e+17
19151.0	6.632824817844223e+17
19152.0	6.631554909121193e+17
19153.0	6.630283010200916e+17
19154.0	6.628958446900564e+17
19155.0	6.627761712005119e+17
19156.0	6.626493833325225e+17
19157.0	6.625216594356905e+17
19158.0	6.62355778347554e+17
19159.0	6.622685362651136e+17
19160.0	6.621469879915859e+17
19161.0	6.620214345072639e+17
19162.0	6.618059792624297e+17
19163.0	6.617668524179455e+17
19164.0	6.616441221196457e+17
19165.0	6.615157796328788e+17
19166.0	6.613829230963369e+17
19167.0	6.612557743084884e+17
19168.0	6.611355035500543e+17
19169.0	6.610083208582484e+17
19170.0	6.608845547066708e+17
19171.0	6.607526438458708e+17
19172.0	6.606312966193151e+17
19173.0	6.605047686583636e+17
19174.0	6.603753531288233e+17
19175.0	6.602518466745684e+17
19176.0	6.601252427268095e+17
19177.0	6.599904366078633e+17
19178.0	6.598693736153087e+17
19179.0	6.597379691468116e+17
19180.0	6.596165701905065e+17
19181.0	6.594864122691583e+17
19182.0	6.593636999364607e+17
19183.0	6.592385641349119e+17
19184.0	6.591102614241279e+17
19185.0	6.58985081512482e+17
19186.0	6.588586932218537e+17
19187.0	6.587287678047572e+17
19188.0	6.586051908861951e+17
19189.0	6.584777692588713e+17
19190.0	6.583504722722815e+17
19191.0	6.582234164581716e+17
19192.0	6.580983244171946e+17
19193.0	6.579706207229268e+17
19194.0	6.578438603276287e+17
19195.0	6.577180222597801e+17
19196.0	6.575904594941268e+17
19197.0	6.574632507277311e+17
19198.0	6.573347169807017e+17
19199.0	6.566701639750994e+17
19200.0	6.566994105772716e+17
19201.0	6.569545630220285e+17
19202.0	6.568296089736531e+17
19203.0	6.567018306207743e+17
19204.0	6.565750708546217e+17
19205.0	6.564494680872276e+17
19206.0	6.563216972840959e+17
19207.0	6.561897867029162e+17
19208.0	6.560581919528275e+17
19209.0	6.559416723701759e+17
19210.0	6.558146026449578e+17
19211.0	6.556874708440404e+17
19212.0	6.555603644186623e+17
19213.0	6.554254477798058e+17
19214.0	6.552947004189354e+17
19215.0	6.551765753965225e+17
19216.0	6.550513326402217e+17
19217.0	6.549243265985193e+17
19218.0	6.54752762508083e+17
19219.0	6.54661311930914e+17
19220.0	6.545410473940308e+17
19221.0	6.543979875838633e+17
19222.0	6.542867484901373e+17
19223.0	6.541598331153066e+17
19224.0	6.540305392205823e+17
19225.0	6.538970218714452e+17
19226.0	6.537764536669526e+17
19227.0	6.536486135179946e+17
19228.0	6.535220471791615e+17
19229.0	6.533943047574867e+17
19230.0	6.532654260289536e+17
19231.0	6.53138111356382e+17
19232.0	6.530099778857641e+17
19233.0	6.528790356295679e+17
19234.0	6.527536562787667e+17
19235.0	6.526256787663529e+17
19236.0	6.52498757100066e+17
19237.0	6.523697418469376e+17
19238.0	6.522368579076095e+17
19239.0	6.521141538237098e+17
19240.0	6.519819783722323e+17
19241.0	6.518548959941971e+17
19242.0	6.517278642274303e+17
19243.0	6.515915129268905e+17
19244.0	6.514719897332393e+17
19245.0	6.513433006571519e+17
19246.0	6.512137232274772e+17
19247.0	6.510856647649961e+17
19248.0	6.50956869083682e+17
19249.0	6.508278162915327e+17
19250.0	6.506984669620905e+17
19251.0	6.505621519422803e+17
19252.0	6.504259258417151e+17
19253.0	6.503105585741823e+17
19254.0	6.501811234712233e+17
19255.0	6.500428430005587e+17
19256.0	6.499199496137385e+17
19257.0	6.497929813906772e+17
19258.0	6.496631419568127e+17
19259.0	6.49529589375522e+17
19260.0	6.493910049576276e+17
19261.0	6.492731026527571e+17
19262.0	6.49140305465617e+17
19263.0	6.490088804450304e+17
19264.0	6.488538479940948e+17
19265.0	6.487411004888404e+17
19266.0	6.486114921611263e+17
19267.0	6.484900010699433e+17
19268.0	6.483590316905812e+17
19269.0	6.482279191456425e+17
19270.0	6.480964861558783e+17
19271.0	6.479475482383702e+17
19272.0	6.478317511245823e+17
19273.0	6.47584708576324e+17
19274.0	6.474962864963581e+17
19275.0	6.474381249915561e+17
19276.0	6.473049275979092e+17
19277.0	6.471524440954196e+17
19278.0	6.470008317498708e+17
19279.0	6.46867255960098e+17
19280.0	6.467311915499519e+17
19281.0	6.466011057007273e+17
19282.0	6.464688100824404e+17
19283.0	6.4632715228829e+17
19284.0	6.461930536785236e+17
19285.0	6.460571634718035e+17
19286.0	6.459318860425897e+17
19287.0	6.457994949339817e+17
19288.0	6.454566871280294e+17
19289.0	6.451045223890938e+17
19290.0	6.453953364841811e+17
19291.0	6.452461552970408e+17
19292.0	6.451246918882643e+17
19293.0	6.449885959509331e+17
19294.0	6.448530494674259e+17
19295.0	6.447167892531881e+17
19296.0	6.445802406805503e+17
19297.0	6.444432435270995e+17
19298.0	6.443053135604394e+17
19299.0	6.441688339141972e+17
19300.0	6.440309489663999e+17
19301.0	6.438926130610175e+17
19302.0	6.43753460175121e+17
19303.0	6.436117131122004e+17
19304.0	6.434743498659156e+17
19305.0	6.433361440538623e+17
19306.0	6.43197331116305e+17
19307.0	6.430538779503274e+17
19308.0	6.429142973153279e+17
19309.0	6.427560826459476e+17
19310.0	6.426081796729513e+17
19311.0	6.424880328562004e+17
19312.0	6.423493566529533e+17
19313.0	6.422067010338813e+17
19314.0	6.415693266288644e+17
19315.0	6.414489815613443e+17
19316.0	6.417749400791721e+17
19317.0	6.416322126675965e+17
19318.0	6.414861262476628e+17
19319.0	6.413413855701674e+17
19320.0	6.411950172230995e+17
19321.0	6.410484093812735e+17
19322.0	6.408948779319295e+17
19323.0	6.407447857419603e+17
19324.0	6.40604081243204e+17
19325.0	6.404375689822207e+17
19326.0	6.403049364914175e+17
19327.0	6.401539600023552e+17
19328.0	6.40003496616482e+17
19329.0	6.398516442169343e+17
19330.0	6.396969298340521e+17
19331.0	6.395430859789652e+17
19332.0	6.393909249485482e+17
19333.0	6.392361791782911e+17
19334.0	6.390800591443284e+17
19335.0	6.38923635302946e+17
19336.0	6.387660357981523e+17
19337.0	6.386074583214762e+17
19338.0	6.384371692994559e+17
19339.0	6.382883410629971e+17
19340.0	6.381235600708948e+17
19341.0	6.379631463978326e+17
19342.0	6.377805555520852e+17
19343.0	6.37636998786799e+17
19344.0	6.374716871453353e+17
19345.0	6.37207513871155e+17
19346.0	6.370871606946473e+17
19347.0	6.369643451121663e+17
19348.0	6.367979297396052e+17
19349.0	6.366248907920726e+17
19350.0	6.364517790733652e+17
19351.0	6.362775596389715e+17
19352.0	6.360992513873235e+17
19353.0	6.359259521832275e+17
19354.0	6.357473174050131e+17
19355.0	6.355625000129876e+17
19356.0	6.35384959738402e+17
19357.0	6.352014119621971e+17
19358.0	6.350148720394239e+17
19359.0	6.348228334540116e+17
19360.0	6.346383372757674e+17
19361.0	6.344445234511871e+17
19362.0	6.341879091516756e+17
19363.0	6.33993320010001e+17
19364.0	6.337966339959465e+17
19365.0	6.335979460405929e+17
19366.0	6.333969847724714e+17
19367.0	6.331937849343999e+17
19368.0	6.329882561391274e+17
19369.0	6.327763457103188e+17
19370.0	6.325568217808895e+17
19371.0	6.323538286521002e+17
19372.0	6.321407419307348e+17
19373.0	6.319212130380457e+17
19374.0	6.317008306044928e+17
19375.0	6.314763058763092e+17
19376.0	6.312490285662207e+17
19377.0	6.310182753665023e+17
19378.0	6.307850081009663e+17
19379.0	6.305486268443306e+17
19380.0	6.302008246708906e+17
19381.0	6.29956004614417e+17
19382.0	6.29704071647505e+17
19383.0	6.294500889941332e+17
19384.0	6.292001450360831e+17
19385.0	6.289400625364991e+17
19386.0	6.286757821677567e+17
19387.0	6.284068549296127e+17
19388.0	6.281328009237846e+17
19389.0	6.277002896080895e+17
19390.0	6.274135790103209e+17
19391.0	6.265443418723661e+17
19392.0	6.268063872363176e+17
19393.0	6.265225321906176e+17
19394.0	6.261505100786346e+17
19395.0	6.256857591054335e+17
19396.0	6.253598064596308e+17
19397.0	6.250287359240874e+17
19398.0	6.246152099856383e+17
19399.0	6.240390002070867e+17
19400.0	6.237098990370815e+17
19401.0	6.232756324750675e+17
19402.0	6.226365295274665e+17
19403.0	6.222417101149524e+17
19404.0	6.215236277239807e+17
19405.0	6.210107480910505e+17
19406.0	6.202018726499671e+17
19407.0	6.195933956014076e+17
19408.0	6.185528553286316e+17
19409.0	6.17666438111778e+17
19410.0	6.166062449382743e+17
19411.0	6.154736857601363e+17
19412.0	6.145394058024276e+17
19413.0	6.138888684830719e+17
19414.0	6.132106493864617e+17
19415.0	6.125093407861418e+17
19416.0	6.117723686480553e+17
19417.0	6.110115397282473e+17
19418.0	6.102269678321663e+17
19419.0	6.094044072858964e+17
19420.0	6.085298738604713e+17
19421.0	6.076020671119359e+17
19422.0	6.06674103706146e+17
19423.0	6.057125246315177e+17
19424.0	6.046709102673921e+17
19425.0	6.035520324894719e+17
19426.0	6.024488776892415e+17
19427.0	6.011418379812864e+17
19428.0	5.998673918601897e+17
19429.0	5.98432403300898e+17
19430.0	5.967940495780521e+17
19431.0	5.94859207006618e+17
19432.0	5.926644461426007e+17
19433.0	5.897436621613742e+17
19434.0	5.858962041733124e+17
19435.0	5.824070068557139e+17
19436.0	5.798438233615018e+17
19437.0	5.770972720267263e+17
19438.0	5.7344253454800224e+17
19439.0	5.7102311620608e+17
19440.0	5.6767987836081466e+17
19441.0	5.6382905045920403e+17
19442.0	5.591476034950486e+17
19443.0	5.5253547163320294e+17
19444.0	5.4414666279594643e+17
19445.0	5.371285272002561e+17
19446.0	5.287534260475223e+17
19447.0	5.174800237111969e+17
19448.0	5.0210830479087046e+17
19449.0	4.814587204818261e+17
19450.0	4.45233461181367e+17
19451.0	4.348169469034495e+17
19452.0	4.643528233713671e+17
19453.0	4.9318698858578016e+17
19454.0	5.0979453163711123e+17
19455.0	5.230855019211434e+17
19456.0	5.3238008881261254e+17
19457.0	5.396936711121575e+17
19458.0	5.462173613206198e+17
19459.0	5.546880556247719e+17
19460.0	5.5992177470559526e+17
19461.0	5.638768927178751e+17
19462.0	5.6726679764773555e+17
19463.0	5.7027626669178854e+17
19464.0	5.7303049933509965e+17
19465.0	5.757057070967467e+17
19466.0	5.781178521660073e+17
19467.0	5.806467147890697e+17
19468.0	5.844818132817245e+17
19469.0	5.875312120998566e+17
19470.0	5.898670532722697e+17
19471.0	5.917179339167062e+17
19472.0	5.931766293113516e+17
19473.0	5.944418332136788e+17
19474.0	5.956229117509631e+17
19475.0	5.966052578732714e+17
19476.0	5.976116172248404e+17
19477.0	5.98476536676352e+17
19478.0	5.993607358054399e+17
19479.0	6.001120946858666e+17
19480.0	6.00823486882338e+17
19481.0	6.015066977599487e+17
19482.0	6.021981274461524e+17
19483.0	6.028019897117353e+17
19484.0	6.033766745112575e+17
19485.0	6.039178118692863e+17
19486.0	6.044297323347968e+17
19487.0	6.049107783887529e+17
19488.0	6.053664556143956e+17
19489.0	6.057877710045181e+17
19490.0	6.062392203717288e+17
19491.0	6.070456179578195e+17
19492.0	6.079914709090304e+17
19493.0	6.088405914659496e+17
19494.0	6.094064029357399e+17
19495.0	6.099709160587263e+17
19496.0	6.105006315580073e+17
19497.0	6.108479783698431e+17
19498.0	6.11190178141525e+17
19499.0	6.1067831059415e+17
19500.0	6.117932073484285e+17
19501.0	6.121911826251776e+17
19502.0	6.123191997737641e+17
19503.0	6.124640896985773e+17
19504.0	6.128045342239402e+17
19505.0	6.129050839941119e+17
19506.0	6.129984722698237e+17
19507.0	6.130849084866559e+17
19508.0	6.133594421111466e+17
19509.0	6.134338747891712e+17
19510.0	6.134875494372692e+17
19511.0	6.125606999687164e+17
19512.0	6.13445351383586e+17
19513.0	6.134120544119464e+17
19514.0	6.136427065988433e+17
19515.0	6.138483407410516e+17
19516.0	6.139076597339476e+17
19517.0	6.139319341285375e+17
19518.0	6.139567566487551e+17
19519.0	6.139742666096639e+17
19520.0	6.139868646910634e+17
19521.0	6.139976188166144e+17
19522.0	6.140025256629588e+17
19523.0	6.140666383258966e+17
19524.0	6.141063955742719e+17
19525.0	6.141009732479657e+17
19526.0	6.140943393270441e+17
19527.0	6.140838140007764e+17
19528.0	6.140697228869632e+17
19529.0	6.140533808999082e+17
19530.0	6.140343335168681e+17
19531.0	6.140122213558954e+17
19532.0	6.139874679018838e+17
19533.0	6.13960169623825e+17
19534.0	6.139303967064063e+17
19535.0	6.138982292608339e+17
19536.0	6.138616022914388e+17
19537.0	6.138270731031892e+17
19538.0	6.13781226843887e+17
19539.0	6.137204558528512e+17
19540.0	6.137025925917353e+17
19541.0	6.136592281720148e+17
19542.0	6.136123492750676e+17
19543.0	6.135917946688852e+17
19544.0	6.135779502500521e+17
19545.0	6.134992184803327e+17
19546.0	6.134273834046804e+17
19547.0	6.134165611915946e+17
19548.0	6.133593451528191e+17
19549.0	6.132960836539731e+17
19550.0	6.132411912596138e+17
19551.0	6.131799360361812e+17
19552.0	6.131171087876096e+17
19553.0	6.130516533881513e+17
19554.0	6.129857556993364e+17
19555.0	6.12920178455347e+17
19556.0	6.128530959455571e+17
19557.0	6.127837958373376e+17
19558.0	6.127136551905962e+17
19559.0	6.126421040693247e+17
19560.0	6.125685375849811e+17
19561.0	6.124957338348202e+17
19562.0	6.124221702864895e+17
19563.0	6.123467086757888e+17
19564.0	6.122703517908992e+17
19565.0	6.121930583878314e+17
19566.0	6.121138135149225e+17
19567.0	6.12035728576785e+17
19568.0	6.119546187765076e+17
19569.0	6.118750495440895e+17
19570.0	6.117941370858153e+17
19571.0	6.117116519033513e+17
19572.0	6.116275428261887e+17
19573.0	6.115441081931092e+17
19574.0	6.114564190677673e+17
19575.0	6.113760891284138e+17
19576.0	6.112905188256425e+17
19577.0	6.112032603854164e+17
19578.0	6.111149797234004e+17
19579.0	6.110284287923539e+17
19580.0	6.109402957698388e+17
19581.0	6.10852122202385e+17
19582.0	6.107637263368191e+17
19583.0	6.10673944044066e+17
19584.0	6.105830770343935e+17
19585.0	6.104871321905834e+17
19586.0	6.10393720496674e+17
19587.0	6.103062770177364e+17
19588.0	6.10192653741807e+17
19589.0	6.101235193785002e+17
19590.0	6.100272752710995e+17
19591.0	6.099381243609088e+17
19592.0	6.098440740842153e+17
19593.0	6.097486563246079e+17
19594.0	6.096432156464468e+17
19595.0	6.09557159223842e+17
19596.0	6.094088203228502e+17
19597.0	6.093648468202836e+17
19598.0	6.092548272903508e+17
19599.0	6.091759262105599e+17
19600.0	6.090791026600616e+17
19601.0	6.089782713821866e+17
19602.0	6.088812527965524e+17
19603.0	6.087580657385471e+17
19604.0	6.086842803814399e+17
19605.0	6.08574708523554e+17
19606.0	6.084914691353258e+17
19607.0	6.083928414748672e+17
19608.0	6.082931018345129e+17
19609.0	6.081914575607124e+17
19610.0	6.080946180718591e+17
19611.0	6.079944297807871e+17
19612.0	6.078946611298303e+17
19613.0	6.077943033888767e+17
19614.0	6.076914938675199e+17
19615.0	6.075926737584127e+17
19616.0	6.074869064138751e+17
19617.0	6.073905122202964e+17
19618.0	6.072589596928681e+17
19619.0	6.071513703426729e+17
19620.0	6.070510849534634e+17
19621.0	6.069840434080428e+17
19622.0	6.06881934615074e+17
19623.0	6.067796339326976e+17
19624.0	6.066771596061354e+17
19625.0	6.065744662669993e+17
19626.0	6.064716891815935e+17
19627.0	6.063685710992726e+17
19628.0	6.062525830048426e+17
19629.0	6.061573126051156e+17
19630.0	6.060095987253247e+17
19631.0	6.05378180931038e+17
19632.0	6.058509106588329e+17
19633.0	6.057461839211178e+17
19634.0	6.056440446495401e+17
19635.0	6.055379288282452e+17
19636.0	6.054359347494911e+17
19637.0	6.053112666827434e+17
19638.0	6.052267754345812e+17
19639.0	6.051217541169151e+17
19640.0	6.050113152963924e+17
19641.0	6.048757697915561e+17
19642.0	6.048086537273343e+17
19643.0	6.047034768009897e+17
19644.0	6.045951438006953e+17
19645.0	6.044791318686378e+17
19646.0	6.043883934143827e+17
19647.0	6.042831068768938e+17
19648.0	6.041777314201599e+17
19649.0	6.040721186357247e+17
19650.0	6.039667189219327e+17
19651.0	6.038610983780351e+17
19652.0	6.037553995404628e+17
19653.0	6.036495429271551e+17
19654.0	6.035437970434729e+17
19655.0	6.034376115268265e+17
19656.0	6.033315151391402e+17
19657.0	6.032258199366314e+17
19658.0	6.031196952373929e+17
19659.0	6.030134306581161e+17
19660.0	6.029072677907114e+17
19661.0	6.02800952320546e+17
19662.0	6.026945812059476e+17
19663.0	6.02585562227234e+17
19664.0	6.024795614696788e+17
19665.0	6.023751470678015e+17
