# Flux units: erg / (cm m2 s)
# Wavelength units: Angstrom
wave	flux
19000.0	6.127422084044116e+17
19001.0	6.126210267130537e+17
19002.0	6.125186503933951e+17
19003.0	6.124066770867539e+17
19004.0	6.122948237372074e+17
19005.0	6.121822481285119e+17
19006.0	6.120711491245396e+17
19007.0	6.119587566671188e+17
19008.0	6.118423629834921e+17
19009.0	6.117188704403455e+17
19010.0	6.115921491918845e+17
19011.0	6.11507492688145e+17
19012.0	6.113885343274324e+17
19013.0	6.112876699145556e+17
19014.0	6.111713197817855e+17
19015.0	6.11060777292049e+17
19016.0	6.109503460212735e+17
19017.0	6.10841224421922e+17
19018.0	6.107290812459689e+17
19019.0	6.106177108006227e+17
19020.0	6.1050540537501e+17
19021.0	6.103954795877715e+17
19022.0	6.102834121190057e+17
19023.0	6.101686512080211e+17
19024.0	6.100589161218047e+17
19025.0	6.099484884860927e+17
19026.0	6.098353321760084e+17
19027.0	6.097216834546346e+17
19028.0	6.0961389005155e+17
19029.0	6.095013841382057e+17
19030.0	6.09392630239505e+17
19031.0	6.092810189712042e+17
19032.0	6.091686746783743e+17
19033.0	6.090481684796755e+17
19034.0	6.089408011479724e+17
19035.0	6.08802272514321e+17
19036.0	6.083576435747497e+17
19037.0	6.085885137256447e+17
19038.0	6.084951545304403e+17
19039.0	6.083886438853289e+17
19040.0	6.082788626617684e+17
19041.0	6.081673223471101e+17
19042.0	6.080363275922089e+17
19043.0	6.079459994806953e+17
19044.0	6.078337957669546e+17
19045.0	6.077232439798442e+17
19046.0	6.076078066674346e+17
19047.0	6.07495535075874e+17
19048.0	6.073742505541631e+17
19049.0	6.072459572805631e+17
19050.0	6.071586739541332e+17
19051.0	6.070019576998569e+17
19052.0	6.069192509882367e+17
19053.0	6.068323359916031e+17
19054.0	6.067235934175231e+17
19055.0	6.065858527537834e+17
19056.0	6.064986294758058e+17
19057.0	6.063911066053289e+17
19058.0	6.062671957502633e+17
19059.0	6.061645105201151e+17
19060.0	6.060580793570644e+17
19061.0	6.059483567139498e+17
19062.0	6.0583720779776e+17
19063.0	6.05725951926818e+17
19064.0	6.056072104116223e+17
19065.0	6.054894463789738e+17
19066.0	6.053841020998996e+17
19067.0	6.052826451716778e+17
19068.0	6.051732782754473e+17
19069.0	6.05062650990865e+17
19070.0	6.049496265916415e+17
19071.0	6.048408460591103e+17
19072.0	6.047261842735103e+17
19073.0	6.046200706891775e+17
19074.0	6.045097260307796e+17
19075.0	6.043990946917034e+17
19076.0	6.042875180963156e+17
19077.0	6.041761898736297e+17
19078.0	6.040646028623872e+17
19079.0	6.039567961773395e+17
19080.0	6.038453705768959e+17
19081.0	6.037315447859882e+17
19082.0	6.036234335944703e+17
19083.0	6.035056027325779e+17
19084.0	6.03383817900305e+17
19085.0	6.032927534088191e+17
19086.0	6.031417019815252e+17
19087.0	6.030582379883177e+17
19088.0	6.029470422357331e+17
19089.0	6.028333359125844e+17
19090.0	6.02738631254562e+17
19091.0	6.026292858890921e+17
19092.0	6.025071650231636e+17
19093.0	6.024121127272445e+17
19094.0	6.023023565996032e+17
19095.0	6.021923143505236e+17
19096.0	6.02081401573649e+17
19097.0	6.019717826696531e+17
19098.0	6.018568304285012e+17
19099.0	6.017452569089363e+17
19100.0	6.016401992406355e+17
19101.0	6.015304031972009e+17
19102.0	6.014136599183359e+17
19103.0	6.013113913922899e+17
19104.0	6.012018844762111e+17
19105.0	6.010800016370346e+17
19106.0	6.009808391329108e+17
19107.0	6.008668006907903e+17
19108.0	6.007543841860265e+17
19109.0	6.006380025260713e+17
19110.0	6.005358588504746e+17
19111.0	6.004279211633321e+17
19112.0	6.003184056489302e+17
19113.0	6.002126257913855e+17
19114.0	6.00100428648721e+17
19115.0	5.999885704058195e+17
19116.0	5.998805001786708e+17
19117.0	5.997694788392276e+17
19118.0	5.9963860320256e+17
19119.0	5.99013751241659e+17
19120.0	5.994302631750313e+17
19121.0	5.99330439368977e+17
19122.0	5.99224888730146e+17
19123.0	5.991157540585472e+17
19124.0	5.990031174926335e+17
19125.0	5.988943814197247e+17
19126.0	5.987733222719487e+17
19127.0	5.985577755912873e+17
19128.0	5.985509743875412e+17
19129.0	5.9844878925824e+17
19130.0	5.983479744779604e+17
19131.0	5.982404423101097e+17
19132.0	5.981310942183424e+17
19133.0	5.980181013463039e+17
19134.0	5.979122604616362e+17
19135.0	5.978032182744406e+17
19136.0	5.97693297730082e+17
19137.0	5.975756327529129e+17
19138.0	5.974733262684159e+17
19139.0	5.973665835384831e+17
19140.0	5.972578545958911e+17
19141.0	5.971487387287551e+17
19142.0	5.970370941157376e+17
19143.0	5.969267825923412e+17
19144.0	5.968168380705449e+17
19145.0	5.967119211910484e+17
19146.0	5.965440370431318e+17
19147.0	5.964884581111124e+17
19148.0	5.96380517208337e+17
19149.0	5.962703865992532e+17
19150.0	5.96166688584499e+17
19151.0	5.960572484976639e+17
19152.0	5.959480389577386e+17
19153.0	5.958281544947027e+17
19154.0	5.957225602351101e+17
19155.0	5.956199757381631e+17
19156.0	5.955114741268479e+17
19157.0	5.953976391084714e+17
19158.0	5.95281222495983e+17
19159.0	5.951819484233727e+17
19160.0	5.950741975225684e+17
19161.0	5.949632077802154e+17
19162.0	5.948365974011904e+17
19163.0	5.947407639161513e+17
19164.0	5.946398927923881e+17
19165.0	5.945219086985897e+17
19166.0	5.944149424821588e+17
19167.0	5.94313122746641e+17
19168.0	5.942066395742208e+17
19169.0	5.940985471172608e+17
19170.0	5.939903342837759e+17
19171.0	5.938813337599999e+17
19172.0	5.937733221132969e+17
19173.0	5.936648153989117e+17
19174.0	5.935530484520276e+17
19175.0	5.934473768774313e+17
19176.0	5.933391846659412e+17
19177.0	5.932168689745919e+17
19178.0	5.931216057750868e+17
19179.0	5.930127399583743e+17
19180.0	5.929043736832682e+17
19181.0	5.92787883041314e+17
19182.0	5.926861968244735e+17
19183.0	5.925807520918185e+17
19184.0	5.924723163310762e+17
19185.0	5.923632886841343e+17
19186.0	5.922556759856467e+17
19187.0	5.921413702265514e+17
19188.0	5.920387118399487e+17
19189.0	5.919306446886227e+17
19190.0	5.918220015894527e+17
19191.0	5.917105911584084e+17
19192.0	5.916047790746281e+17
19193.0	5.914939986979497e+17
19194.0	5.913828980861609e+17
19195.0	5.912754834287274e+17
19196.0	5.911616153452543e+17
19197.0	5.910439988122964e+17
19198.0	5.909032884415146e+17
19199.0	5.906572969858388e+17
19200.0	5.905684328961364e+17
19201.0	5.905836108240212e+17
19202.0	5.905053437831849e+17
19203.0	5.904061160576339e+17
19204.0	5.903019365367807e+17
19205.0	5.901961160643924e+17
19206.0	5.900900200262313e+17
19207.0	5.899699133349887e+17
19208.0	5.898610080918186e+17
19209.0	5.897673811602089e+17
19210.0	5.896601216920233e+17
19211.0	5.895537671449257e+17
19212.0	5.894456432306857e+17
19213.0	5.893283832834729e+17
19214.0	5.892222395001514e+17
19215.0	5.891207504855039e+17
19216.0	5.890131719705939e+17
19217.0	5.888992918634495e+17
19218.0	5.88750131298304e+17
19219.0	5.886680590450687e+17
19220.0	5.885783559547561e+17
19221.0	5.884577105750697e+17
19222.0	5.883622270347946e+17
19223.0	5.882581759994538e+17
19224.0	5.881474643394559e+17
19225.0	5.880374717928788e+17
19226.0	5.879356209496063e+17
19227.0	5.878287817506815e+17
19228.0	5.877238488629248e+17
19229.0	5.876162020507648e+17
19230.0	5.875081130191529e+17
19231.0	5.873998249678166e+17
19232.0	5.872928447004671e+17
19233.0	5.8717994221568e+17
19234.0	5.870772859961343e+17
19235.0	5.869676480080554e+17
19236.0	5.868632761783636e+17
19237.0	5.867548629270527e+17
19238.0	5.866405633895081e+17
19239.0	5.865411000139775e+17
19240.0	5.864337144370516e+17
19241.0	5.863243868973737e+17
19242.0	5.862174090767018e+17
19243.0	5.860965942471337e+17
19244.0	5.860042109266601e+17
19245.0	5.858961223843839e+17
19246.0	5.85788416991778e+17
19247.0	5.856812443456852e+17
19248.0	5.855745592175274e+17
19249.0	5.854667263180799e+17
19250.0	5.853559738335231e+17
19251.0	5.852420882038783e+17
19252.0	5.85116547022848e+17
19253.0	5.850354865755476e+17
19254.0	5.849303310401535e+17
19255.0	5.848043067452074e+17
19256.0	5.847141113834154e+17
19257.0	5.846083028647935e+17
19258.0	5.845008378058068e+17
19259.0	5.843858170576895e+17
19260.0	5.84275376279825e+17
19261.0	5.841767204476244e+17
19262.0	5.840644050255871e+17
19263.0	5.839515600027647e+17
19264.0	5.838162614026239e+17
19265.0	5.837297352878761e+17
19266.0	5.836203356061695e+17
19267.0	5.835339160966483e+17
19268.0	5.834263860259498e+17
19269.0	5.83319067697698e+17
19270.0	5.83208094872371e+17
19271.0	5.830819253146964e+17
19272.0	5.82993480655394e+17
19273.0	5.828675284325716e+17
19274.0	5.82743730963524e+17
19275.0	5.826756559415977e+17
19276.0	5.825668460489385e+17
19277.0	5.824600605371049e+17
19278.0	5.823523392760489e+17
19279.0	5.822424157956778e+17
19280.0	5.821313986505385e+17
19281.0	5.820270608646143e+17
19282.0	5.819213628659028e+17
19283.0	5.818125373145087e+17
19284.0	5.817020678056618e+17
19285.0	5.815900755547476e+17
19286.0	5.814846459215872e+17
19287.0	5.813761480851455e+17
19288.0	5.811341096910845e+17
19289.0	5.809334259460776e+17
19290.0	5.810524681928703e+17
19291.0	5.809286319265108e+17
19292.0	5.808464857836201e+17
19293.0	5.807394393161727e+17
19294.0	5.806313151223124e+17
19295.0	5.805249760941395e+17
19296.0	5.804110111222442e+17
19297.0	5.803071877677055e+17
19298.0	5.801990681176745e+17
19299.0	5.800877267528361e+17
19300.0	5.799857808386729e+17
19301.0	5.798782591565823e+17
19302.0	5.797689674782038e+17
19303.0	5.796560647137961e+17
19304.0	5.795528017881769e+17
19305.0	5.794445057676628e+17
19306.0	5.793369668190208e+17
19307.0	5.792252362227712e+17
19308.0	5.791175785054207e+17
19309.0	5.790055639547903e+17
19310.0	5.788935182964054e+17
19311.0	5.78789506687522e+17
19312.0	5.786838098072916e+17
19313.0	5.785700960742058e+17
19314.0	5.77777895228484e+17
19315.0	5.777248540601011e+17
19316.0	5.782362094130516e+17
19317.0	5.78141722439407e+17
19318.0	5.780348415071574e+17
19319.0	5.779285951031978e+17
19320.0	5.778170695385087e+17
19321.0	5.7770287576733e+17
19322.0	5.775950948073471e+17
19323.0	5.774873989218303e+17
19324.0	5.773791619710976e+17
19325.0	5.772688684832084e+17
19326.0	5.771613939870378e+17
19327.0	5.770521337659391e+17
19328.0	5.769331247240531e+17
19329.0	5.768340819673088e+17
19330.0	5.767222939789993e+17
19331.0	5.766094833494697e+17
19332.0	5.765042006567593e+17
19333.0	5.763928735525545e+17
19334.0	5.7628340116957856e+17
19335.0	5.761520785599147e+17
19336.0	5.7606176282159776e+17
19337.0	5.7595058615309645e+17
19338.0	5.758204161381715e+17
19339.0	5.7572572385334605e+17
19340.0	5.756000101466111e+17
19341.0	5.754835657818111e+17
19342.0	5.753631741575167e+17
19343.0	5.752717581833556e+17
19344.0	5.751461635948543e+17
19345.0	5.7490966133254803e+17
19346.0	5.7483999191586125e+17
19347.0	5.748049785651199e+17
19348.0	5.747111822535337e+17
19349.0	5.745960974024703e+17
19350.0	5.744800120700928e+17
19351.0	5.7436850062622714e+17
19352.0	5.7423846112406176e+17
19353.0	5.7413826087922336e+17
19354.0	5.7402365487786656e+17
19355.0	5.738990171499179e+17
19356.0	5.737912526176255e+17
19357.0	5.736745510720852e+17
19358.0	5.735574995118762e+17
19359.0	5.7343545931639456e+17
19360.0	5.733111565036202e+17
19361.0	5.7319651520020474e+17
19362.0	5.7307897961731405e+17
19363.0	5.729601519790761e+17
19364.0	5.728405628649471e+17
19365.0	5.727204678478506e+17
19366.0	5.7259982463522125e+17
19367.0	5.724784188981247e+17
19368.0	5.723515346310484e+17
19369.0	5.722257591282345e+17
19370.0	5.7210327671330125e+17
19371.0	5.719763355435007e+17
19372.0	5.7185681325861536e+17
19373.0	5.717294386074964e+17
19374.0	5.716040401027071e+17
19375.0	5.7147695926258336e+17
19376.0	5.713456941148841e+17
19377.0	5.712147571015679e+17
19378.0	5.71083382202914e+17
19379.0	5.709516767931049e+17
19380.0	5.7081856090876576e+17
19381.0	5.706833359186602e+17
19382.0	5.705397941130581e+17
19383.0	5.7040261101213005e+17
19384.0	5.7026844298663245e+17
19385.0	5.701289709142015e+17
19386.0	5.6998434516063565e+17
19387.0	5.698359158024873e+17
19388.0	5.6968882072234656e+17
19389.0	5.695383692902399e+17
19390.0	5.693771877799252e+17
19391.0	5.6892015369693824e+17
19392.0	5.6903171973666125e+17
19393.0	5.689200129081343e+17
19394.0	5.6875670502550176e+17
19395.0	5.685924556614315e+17
19396.0	5.684301048490666e+17
19397.0	5.6826103000814925e+17
19398.0	5.6807989794133325e+17
19399.0	5.678476517791062e+17
19400.0	5.6769431047154336e+17
19401.0	5.6752406500037965e+17
19402.0	5.673353266331647e+17
19403.0	5.67127865242419e+17
19404.0	5.669164054915754e+17
19405.0	5.6670633279706445e+17
19406.0	5.664924212658175e+17
19407.0	5.6624771284773536e+17
19408.0	5.659701055673684e+17
19409.0	5.657790139858943e+17
19410.0	5.65527924843042e+17
19411.0	5.652678837971625e+17
19412.0	5.650121554045609e+17
19413.0	5.647153102498473e+17
19414.0	5.644223253228202e+17
19415.0	5.641283246052692e+17
19416.0	5.6377416128047776e+17
19417.0	5.634659234873343e+17
19418.0	5.631291413583188e+17
19419.0	5.627727303060137e+17
19420.0	5.6238633899786234e+17
19421.0	5.619839665526101e+17
19422.0	5.615671791233705e+17
19423.0	5.611369579675647e+17
19424.0	5.606538660719273e+17
19425.0	5.601546259660799e+17
19426.0	5.596247898805588e+17
19427.0	5.5902183463321594e+17
19428.0	5.5841133362326176e+17
19429.0	5.577482893088085e+17
19430.0	5.5695648272766285e+17
19431.0	5.56150393213201e+17
19432.0	5.553704897871871e+17
19433.0	5.5445046815621114e+17
19434.0	5.5345772134836896e+17
19435.0	5.5236250475779386e+17
19436.0	5.5114278948044794e+17
19437.0	5.4977528126068045e+17
19438.0	5.477183183825579e+17
19439.0	5.465294208237568e+17
19440.0	5.448182168638805e+17
19441.0	5.426812300208809e+17
19442.0	5.402277385513643e+17
19443.0	5.3737958817136634e+17
19444.0	5.340723345184083e+17
19445.0	5.3008891676808544e+17
19446.0	5.2514327835443194e+17
19447.0	5.1892928807348864e+17
19448.0	5.1057524638132934e+17
19449.0	4.98279476363264e+17
19450.0	4.7526304455939366e+17
19451.0	4.565870488234689e+17
19452.0	4.891337752401235e+17
19453.0	5.049583491088388e+17
19454.0	5.146574994800635e+17
19455.0	5.2158161359994874e+17
19456.0	5.268738341339137e+17
19457.0	5.310951444884136e+17
19458.0	5.3249647669412115e+17
19459.0	5.37212145404041e+17
19460.0	5.3978505157454483e+17
19461.0	5.4190182515780256e+17
19462.0	5.436483432000171e+17
19463.0	5.451802230478163e+17
19464.0	5.465480149423445e+17
19465.0	5.477831693129045e+17
19466.0	5.488660158524073e+17
19467.0	5.497947245161131e+17
19468.0	5.506265508391593e+17
19469.0	5.513474563462483e+17
19470.0	5.520379225309183e+17
19471.0	5.526319513905834e+17
19472.0	5.5320455735323296e+17
19473.0	5.5370764265717754e+17
19474.0	5.541275750454611e+17
19475.0	5.544743172483753e+17
19476.0	5.5488287503373645e+17
19477.0	5.5520441653002234e+17
19478.0	5.5548936468125005e+17
19479.0	5.55734350902067e+17
19480.0	5.5595576932870816e+17
19481.0	5.56153072324881e+17
19482.0	5.5635204423461536e+17
19483.0	5.5651451919837856e+17
19484.0	5.566563905525076e+17
19485.0	5.5677552647208954e+17
19486.0	5.568915367963305e+17
19487.0	5.570140341010431e+17
19488.0	5.5709324227379194e+17
19489.0	5.571619688808447e+17
19490.0	5.5716567014440954e+17
19491.0	5.5729390288022176e+17
19492.0	5.573710789825878e+17
19493.0	5.5740695559099725e+17
19494.0	5.5742981559637325e+17
19495.0	5.574612089132372e+17
19496.0	5.574479868592126e+17
19497.0	5.574716382598485e+17
19498.0	5.573555534867113e+17
19499.0	5.569951699391828e+17
19500.0	5.574691184618153e+17
19501.0	5.574686922506238e+17
19502.0	5.574528686096383e+17
19503.0	5.574353204805631e+17
19504.0	5.574123270963199e+17
19505.0	5.5737895700398074e+17
19506.0	5.573419470247252e+17
19507.0	5.5729808145558176e+17
19508.0	5.572543857557503e+17
19509.0	5.572106365086377e+17
19510.0	5.5712799704569165e+17
19511.0	5.5601015686867546e+17
19512.0	5.5691069260212896e+17
19513.0	5.5681890571168403e+17
19514.0	5.568031584769363e+17
19515.0	5.5685302106193914e+17
19516.0	5.5682491740760723e+17
19517.0	5.5676596262010874e+17
19518.0	5.567052640507221e+17
19519.0	5.5663922676148896e+17
19520.0	5.565649926837589e+17
19521.0	5.5650591192733005e+17
19522.0	5.5643088820196685e+17
19523.0	5.563614644316842e+17
19524.0	5.5628447972939085e+17
19525.0	5.562157521436671e+17
19526.0	5.561411497361407e+17
19527.0	5.5606609462340256e+17
19528.0	5.5598888951043405e+17
19529.0	5.5590995830155936e+17
19530.0	5.5583322232149325e+17
19531.0	5.557532596633598e+17
19532.0	5.556725150471508e+17
19533.0	5.555910190912852e+17
19534.0	5.5550858465989965e+17
19535.0	5.554272847178411e+17
19536.0	5.5534295767668045e+17
19537.0	5.552611738517502e+17
19538.0	5.55152730750976e+17
19539.0	5.5505743525533005e+17
19540.0	5.550027368475306e+17
19541.0	5.5491876422505805e+17
19542.0	5.548372176579242e+17
19543.0	5.547452327264256e+17
19544.0	5.546622672961535e+17
19545.0	5.5453022396525216e+17
19546.0	5.544278962296147e+17
19547.0	5.543982586484052e+17
19548.0	5.5431306534365856e+17
19549.0	5.542162307481599e+17
19550.0	5.5413675511862605e+17
19551.0	5.540486735462399e+17
19552.0	5.539614312540841e+17
19553.0	5.5386903451183776e+17
19554.0	5.5377774632413856e+17
19555.0	5.5368700968741536e+17
19556.0	5.53597641372467e+17
19557.0	5.5350876120459936e+17
19558.0	5.534191629718868e+17
19559.0	5.533274155778046e+17
19560.0	5.5323001985433594e+17
19561.0	5.531403884167167e+17
19562.0	5.530473023406079e+17
19563.0	5.5295785328530765e+17
19564.0	5.528649177148074e+17
19565.0	5.5277313334094496e+17
19566.0	5.526794568466431e+17
19567.0	5.525878496122196e+17
19568.0	5.5249223555918496e+17
19569.0	5.523990651775658e+17
19570.0	5.52307147215121e+17
19571.0	5.522130544361471e+17
19572.0	5.5211548842393594e+17
19573.0	5.520228693835775e+17
19574.0	5.5192105545018016e+17
19575.0	5.518361497348777e+17
19576.0	5.5174055903013536e+17
19577.0	5.516431380709375e+17
19578.0	5.515494698254335e+17
19579.0	5.5145430798827514e+17
19580.0	5.5135962164538016e+17
19581.0	5.512663329144831e+17
19582.0	5.5117223950636365e+17
19583.0	5.5107707382442643e+17
19584.0	5.509816368409257e+17
19585.0	5.508752304941738e+17
19586.0	5.507771441785515e+17
19587.0	5.5069197939507194e+17
19588.0	5.5056988439401805e+17
19589.0	5.504998033762986e+17
19590.0	5.5040057970524154e+17
19591.0	5.5031372629497165e+17
19592.0	5.502189757792255e+17
19593.0	5.50120646124066e+17
19594.0	5.500028433640106e+17
19595.0	5.499293149779283e+17
19596.0	5.498318809464832e+17
19597.0	5.497373195938474e+17
19598.0	5.496061955145726e+17
19599.0	5.4954504850418336e+17
19600.0	5.4945071511197e+17
19601.0	5.493487796136618e+17
19602.0	5.4924820118241274e+17
19603.0	5.491346636100947e+17
19604.0	5.4905789463483725e+17
19605.0	5.489452981245269e+17
19606.0	5.4887253995246925e+17
19607.0	5.48777720160802e+17
19608.0	5.486800936108031e+17
19609.0	5.4858123896859296e+17
19610.0	5.484848139468799e+17
19611.0	5.483861107190443e+17
19612.0	5.48296088232482e+17
19613.0	5.481985711538175e+17
19614.0	5.4809912840028154e+17
19615.0	5.480055882907647e+17
19616.0	5.479023262739115e+17
19617.0	5.4780259523188045e+17
19618.0	5.476637585965055e+17
19619.0	5.475530597990398e+17
19620.0	5.474725724334761e+17
19621.0	5.474137683613011e+17
19622.0	5.473290629939199e+17
19623.0	5.4723275611176954e+17
19624.0	5.4713450642800634e+17
19625.0	5.470398769878356e+17
19626.0	5.469421014701396e+17
19627.0	5.468436831753557e+17
19628.0	5.4674073328462496e+17
19629.0	5.4661147301423776e+17
19630.0	5.4647669744380576e+17
19631.0	5.462847786756777e+17
19632.0	5.4633622509977594e+17
19633.0	5.462558139307349e+17
19634.0	5.461676764342954e+17
19635.0	5.460686098399232e+17
19636.0	5.459679980639572e+17
19637.0	5.458402390747818e+17
19638.0	5.4578312048366925e+17
19639.0	5.4568641500282874e+17
19640.0	5.455725787261609e+17
19641.0	5.454104151195649e+17
19642.0	5.453952413160788e+17
19643.0	5.452991623244458e+17
19644.0	5.4519621655811405e+17
19645.0	5.450904253759487e+17
19646.0	5.450017438782804e+17
19647.0	5.4491547012082336e+17
19648.0	5.448189083647999e+17
19649.0	5.447222908944383e+17
19650.0	5.446272024576e+17
19651.0	5.445302504914943e+17
19652.0	5.444335824797696e+17
19653.0	5.443376811868158e+17
19654.0	5.442404291182591e+17
19655.0	5.4414364506412365e+17
19656.0	5.4404770175822496e+17
19657.0	5.439513593643007e+17
19658.0	5.438548884848638e+17
19659.0	5.4375849079603194e+17
19660.0	5.436620553584639e+17
19661.0	5.435654867517439e+17
