# Flux units: erg / (cm m2 s)
# Wavelength units: Angstrom
wave	flux
19000.0	4.8062822046760954e+17
19001.0	4.805290467786751e+17
19002.0	4.8045134533973325e+17
19003.0	4.8036105364875936e+17
19004.0	4.8027184345907194e+17
19005.0	4.80184163701009e+17
19006.0	4.800965850256725e+17
19007.0	4.7999347043860474e+17
19008.0	4.799123716134229e+17
19009.0	4.798176431876778e+17
19010.0	4.7968914802824525e+17
19011.0	4.7964320502033056e+17
19012.0	4.79457436709683e+17
19013.0	4.794754490783061e+17
19014.0	4.793820027114836e+17
19015.0	4.792943811843412e+17
19016.0	4.792037173187924e+17
19017.0	4.791214346513066e+17
19018.0	4.790276918870014e+17
19019.0	4.789438478199466e+17
19020.0	4.788543041131861e+17
19021.0	4.7876776226979834e+17
19022.0	4.786789229963946e+17
19023.0	4.78586837611315e+17
19024.0	4.7849859882243405e+17
19025.0	4.7840523990685005e+17
19026.0	4.783132347028821e+17
19027.0	4.7815179908765005e+17
19028.0	4.7814887677624314e+17
19029.0	4.780576605208575e+17
19030.0	4.779727602581503e+17
19031.0	4.7788503065777485e+17
19032.0	4.777955236511743e+17
19033.0	4.776981951064746e+17
19034.0	4.776183836530005e+17
19035.0	4.775225808562858e+17
19036.0	4.711552928186369e+17
19037.0	4.7735152176005114e+17
19038.0	4.772640136888319e+17
19039.0	4.7717804136202234e+17
19040.0	4.7709026205914445e+17
19041.0	4.7700081992444576e+17
19042.0	4.768741969625086e+17
19043.0	4.7682603614644896e+17
19044.0	4.7673559821407565e+17
19045.0	4.7664648673034234e+17
19046.0	4.765548042780671e+17
19047.0	4.764704769572863e+17
19048.0	4.763549213655039e+17
19049.0	4.7623119715696614e+17
19050.0	4.762018553440938e+17
19051.0	4.7529082616108275e+17
19052.0	4.758524834523817e+17
19053.0	4.759409338438996e+17
19054.0	4.758564669227007e+17
19055.0	4.7573366937572685e+17
19056.0	4.7567406195452576e+17
19057.0	4.755914760388608e+17
19058.0	4.754686124315987e+17
19059.0	4.7540381602720416e+17
19060.0	4.753251813556223e+17
19061.0	4.7524084354908154e+17
19062.0	4.751523242311679e+17
19063.0	4.7506461651107834e+17
19064.0	4.74962461790481e+17
19065.0	4.7487128838690125e+17
19066.0	4.7478425056706554e+17
19067.0	4.7471176956859725e+17
19068.0	4.7462535565148154e+17
19069.0	4.7453766708538016e+17
19070.0	4.7444668326434125e+17
19071.0	4.743582828549461e+17
19072.0	4.74261480415778e+17
19073.0	4.741859983228928e+17
19074.0	4.7409882118225914e+17
19075.0	4.740110759231487e+17
19076.0	4.7392114592098976e+17
19077.0	4.7383357801103354e+17
19078.0	4.737430921237844e+17
19079.0	4.736597392097279e+17
19080.0	4.735707339117909e+17
19081.0	4.7348043278363296e+17
19082.0	4.7339257120249165e+17
19083.0	4.732994750600532e+17
19084.0	4.73199787568879e+17
19085.0	4.731322753526443e+17
19086.0	4.729900592966314e+17
19087.0	4.727801243151019e+17
19088.0	4.728433609976489e+17
19089.0	4.72685658452787e+17
19090.0	4.726930600711508e+17
19091.0	4.7260164186002765e+17
19092.0	4.724580983767038e+17
19093.0	4.72434047258897e+17
19094.0	4.7234656617103354e+17
19095.0	4.722590946601642e+17
19096.0	4.721696052696404e+17
19097.0	4.7208399463164576e+17
19098.0	4.719835425188523e+17
19099.0	4.71893651034385e+17
19100.0	4.7181201268189856e+17
19101.0	4.7173092581048314e+17
19102.0	4.716338127131989e+17
19103.0	4.715599341726379e+17
19104.0	4.714729756950527e+17
19105.0	4.713571136394581e+17
19106.0	4.712687341316778e+17
19107.0	4.7120119709914445e+17
19108.0	4.711131570503679e+17
19109.0	4.7062194190636314e+17
19110.0	4.709356497010687e+17
19111.0	4.708519218162346e+17
19112.0	4.707650883289086e+17
19113.0	4.70687273853474e+17
19114.0	4.7059512198867616e+17
19115.0	4.704941783733589e+17
19116.0	4.7042422591105696e+17
19117.0	4.703365112004608e+17
19118.0	4.702171022316885e+17
19119.0	4.692530205556723e+17
19120.0	4.700294582282921e+17
19121.0	4.6995488028753914e+17
19122.0	4.6990402882546336e+17
19123.0	4.6981700820227405e+17
19124.0	4.6970562797021856e+17
19125.0	4.6963874147423565e+17
19126.0	4.6955483805777914e+17
19127.0	4.692669885666645e+17
19128.0	4.6928570942313805e+17
19129.0	4.692875303802196e+17
19130.0	4.6920603442435405e+17
19131.0	4.6911803645842765e+17
19132.0	4.6903404447225165e+17
19133.0	4.6892209731010554e+17
19134.0	4.688186323588437e+17
19135.0	4.687716617464489e+17
19136.0	4.6868721376952314e+17
19137.0	4.685823171624959e+17
19138.0	4.685086771380223e+17
19139.0	4.684266355731115e+17
19140.0	4.68340102607667e+17
19141.0	4.682533054010708e+17
19142.0	4.681625252134911e+17
19143.0	4.6807337465282554e+17
19144.0	4.679889389092863e+17
19145.0	4.679056849808042e+17
19146.0	4.6775379532185594e+17
19147.0	4.677202636789076e+17
19148.0	4.676334279546196e+17
19149.0	4.675454876603732e+17
19150.0	4.674722595165526e+17
19151.0	4.673857087253161e+17
19152.0	4.672938566134442e+17
19153.0	4.6719192475019936e+17
19154.0	4.671090118186324e+17
19155.0	4.670385169629183e+17
19156.0	4.669533202328234e+17
19157.0	4.668545539506176e+17
19158.0	4.6648845412597715e+17
19159.0	4.6669136050257914e+17
19160.0	4.6660069384082765e+17
19161.0	4.6651326014859936e+17
19162.0	4.6579496182087725e+17
19163.0	4.6632814880576845e+17
19164.0	4.66260884263185e+17
19165.0	4.661387051663359e+17
19166.0	4.6605719851499514e+17
19167.0	4.6594131919284896e+17
19168.0	4.659131998098772e+17
19169.0	4.6581593383021216e+17
19170.0	4.6574272868515834e+17
19171.0	4.656153452959062e+17
19172.0	4.6556719000234656e+17
19173.0	4.654815906889727e+17
19174.0	4.6539149172626765e+17
19175.0	4.6531182553552205e+17
19176.0	4.652254832710996e+17
19177.0	4.651232527734102e+17
19178.0	4.650370870192811e+17
19179.0	4.649098691652266e+17
19180.0	4.6487423393901216e+17
19181.0	4.6477921988116474e+17
19182.0	4.6470356917725856e+17
19183.0	4.646214154147157e+17
19184.0	4.645334452710057e+17
19185.0	4.6444873605884576e+17
19186.0	4.643636132883114e+17
19187.0	4.642696328467797e+17
19188.0	4.641893044453375e+17
19189.0	4.641012167912106e+17
19190.0	4.6401208098051405e+17
19191.0	4.6392286107402234e+17
19192.0	4.638467129256617e+17
19193.0	4.6375520027279354e+17
19194.0	4.636679374285482e+17
19195.0	4.635878730585428e+17
19196.0	4.635001798787071e+17
19197.0	4.634141380662613e+17
19198.0	4.633248003697321e+17
19199.0	4.5968964420894624e+17
19200.0	4.6067153196373466e+17
19201.0	4.6306751274461856e+17
19202.0	4.6298546845341005e+17
19203.0	4.6288896408944634e+17
19204.0	4.628099883510442e+17
19205.0	4.6272766723577165e+17
19206.0	4.6264126681033376e+17
19207.0	4.625438498357247e+17
19208.0	4.62445704520226e+17
19209.0	4.623837831015081e+17
19210.0	4.6229820685680634e+17
19211.0	4.622136635992745e+17
19212.0	4.6212742402539514e+17
19213.0	4.620015029802325e+17
19214.0	4.618982658495829e+17
19215.0	4.6185518223851514e+17
19216.0	4.617840116804266e+17
19217.0	4.6169746641169056e+17
19218.0	4.615188705705982e+17
19219.0	4.6151138220004685e+17
19220.0	4.6143585704564045e+17
19221.0	4.6131887874594125e+17
19222.0	4.612674003752277e+17
19223.0	4.6118117981552634e+17
19224.0	4.610927102700202e+17
19225.0	4.609951487317331e+17
19226.0	4.6092378817167354e+17
19227.0	4.6083789952122874e+17
19228.0	4.607544311939072e+17
19229.0	4.6066857574836896e+17
19230.0	4.6057884036191565e+17
19231.0	4.604933292687359e+17
19232.0	4.6040943032620365e+17
19233.0	4.603173228511232e+17
19234.0	4.602370275846825e+17
19235.0	4.6015042065967776e+17
19236.0	4.6006797469395616e+17
19237.0	4.5998045005523616e+17
19238.0	4.598805068513279e+17
19239.0	4.5981067595393696e+17
19240.0	4.5972210448684365e+17
19241.0	4.596357302758058e+17
19242.0	4.5955140078796794e+17
19243.0	4.5945133825611085e+17
19244.0	4.593818639444651e+17
19245.0	4.592955917948244e+17
19246.0	4.5920835600383994e+17
19247.0	4.591235394174974e+17
19248.0	4.590375250777428e+17
19249.0	4.5894925734816416e+17
19250.0	4.588604608566613e+17
19251.0	4.5876253329544525e+17
19252.0	4.5866903387067725e+17
19253.0	4.5860661256082765e+17
19254.0	4.5852288866058234e+17
19255.0	4.5842045019531936e+17
19256.0	4.5834503570063354e+17
19257.0	4.5826591029548365e+17
19258.0	4.5818030049634976e+17
19259.0	4.5808762182696954e+17
19260.0	4.5787740156286266e+17
19261.0	4.5792103861234336e+17
19262.0	4.5783039040552954e+17
19263.0	4.5774260110622714e+17
19264.0	4.576021107965951e+17
19265.0	4.5755502756713805e+17
19266.0	4.5746033178705914e+17
19267.0	4.574069280909994e+17
19268.0	4.5732001575075834e+17
19269.0	4.5723447222162765e+17
19270.0	4.571485476399785e+17
19271.0	4.570234857280853e+17
19272.0	4.5697283216725325e+17
19273.0	4.567813433152851e+17
19274.0	4.5672350274464403e+17
19275.0	4.567182595850238e+17
19276.0	4.566299270534485e+17
19277.0	4.5654434996988576e+17
19278.0	4.564576248354132e+17
19279.0	4.5636659844218874e+17
19280.0	4.5627663166996474e+17
19281.0	4.5619864942237e+17
19282.0	4.5611416076069536e+17
19283.0	4.5596973220932256e+17
19284.0	4.559102130782207e+17
19285.0	4.5583522514425165e+17
19286.0	4.5576453532330656e+17
19287.0	4.556812315525119e+17
19288.0	4.536888263529788e+17
19289.0	4.5155515426842765e+17
19290.0	4.554215364668074e+17
19291.0	4.553092897614507e+17
19292.0	4.5524865690282656e+17
19293.0	4.551611804286976e+17
19294.0	4.55073827267106e+17
19295.0	4.549882376705364e+17
19296.0	4.548880812561749e+17
19297.0	4.548055247705429e+17
19298.0	4.5472403978977254e+17
19299.0	4.5462513194980685e+17
19300.0	4.545508849396393e+17
19301.0	4.544648806662144e+17
19302.0	4.543760878097748e+17
19303.0	4.542811245030057e+17
19304.0	4.541991459924649e+17
19305.0	4.541132496524629e+17
19306.0	4.5402402471280634e+17
19307.0	4.539299438875989e+17
19308.0	4.538446068580352e+17
19309.0	4.535992516782761e+17
19310.0	4.5347518032117734e+17
19311.0	4.535452928660821e+17
19312.0	4.5347757240265376e+17
19313.0	4.5338972452290554e+17
19314.0	4.437654088537523e+17
19315.0	4.442331997186793e+17
19316.0	4.530952188810581e+17
19317.0	4.5303535532769274e+17
19318.0	4.5294641581042336e+17
19319.0	4.5285925530719565e+17
19320.0	4.5276348019288736e+17
19321.0	4.5266950485442554e+17
19322.0	4.525746784916821e+17
19323.0	4.5244317538713606e+17
19324.0	4.524081014287018e+17
19325.0	4.521862716107434e+17
19326.0	4.52231646220561e+17
19327.0	4.5213945290205856e+17
19328.0	4.520275782314666e+17
19329.0	4.519617762426879e+17
19330.0	4.5186656798856525e+17
19331.0	4.517753075531775e+17
19332.0	4.516870279397375e+17
19333.0	4.515937113866239e+17
19334.0	4.5150382381684045e+17
19335.0	4.5136586497938765e+17
19336.0	4.5131799937242445e+17
19337.0	4.512293621945684e+17
19338.0	4.511148648256853e+17
19339.0	4.510429526447444e+17
19340.0	4.509322809005396e+17
19341.0	4.508337772516691e+17
19342.0	4.507079827346771e+17
19343.0	4.5066984980043085e+17
19344.0	4.505583912047957e+17
19345.0	4.502515245995345e+17
19346.0	4.5027613041404563e+17
19347.0	4.5026043211284474e+17
19348.0	4.501956239643989e+17
19349.0	4.500939111137279e+17
19350.0	4.4998943911007565e+17
19351.0	4.4990123639220896e+17
19352.0	4.4977517658548896e+17
19353.0	4.4970973579618976e+17
19354.0	4.4961216433138336e+17
19355.0	4.495028562952192e+17
19356.0	4.494130535202814e+17
19357.0	4.493136801824768e+17
19358.0	4.492102273247913e+17
19359.0	4.4909727087329274e+17
19360.0	4.48987173888546e+17
19361.0	4.4890257274961914e+17
19362.0	4.4880426483493536e+17
19363.0	4.4870031767852365e+17
19364.0	4.485953557801642e+17
19365.0	4.48490253722146e+17
19366.0	4.48383920635904e+17
19367.0	4.4827602531123194e+17
19368.0	4.4816886175279776e+17
19369.0	4.4805083578586445e+17
19370.0	4.479358352403114e+17
19371.0	4.478334369005568e+17
19372.0	4.477266521576787e+17
19373.0	4.476102995083264e+17
19374.0	4.4749840715175245e+17
19375.0	4.473823204911785e+17
19376.0	4.4726644473419085e+17
19377.0	4.4714693244573e+17
19378.0	4.470275285800276e+17
19379.0	4.4690659148649805e+17
19380.0	4.467837271801855e+17
19381.0	4.466588282170026e+17
19382.0	4.4652586423637325e+17
19383.0	4.463927866600106e+17
19384.0	4.462735513354239e+17
19385.0	4.4614258104729594e+17
19386.0	4.460089500325204e+17
19387.0	4.458718463437482e+17
19388.0	4.457338403203755e+17
19389.0	4.455925007340884e+17
19390.0	4.454476249300991e+17
19391.0	4.396838822084534e+17
19392.0	4.449836988366838e+17
19393.0	4.4500105297919974e+17
19394.0	4.448422670456148e+17
19395.0	4.446698637448534e+17
19396.0	4.4451202411615565e+17
19397.0	4.4436030488575994e+17
19398.0	4.4417782469973325e+17
19399.0	4.4392658414250656e+17
19400.0	4.438263064428543e+17
19401.0	4.4365926227421856e+17
19402.0	4.4347404313777485e+17
19403.0	4.4328226257196365e+17
19404.0	4.4308877205831674e+17
19405.0	4.4288673145596576e+17
19406.0	4.426822088742229e+17
19407.0	4.4246335281780045e+17
19408.0	4.421645149492566e+17
19409.0	4.42029492404224e+17
19410.0	4.418033711142229e+17
19411.0	4.415705647327915e+17
19412.0	4.4132955401311565e+17
19413.0	4.410754006515712e+17
19414.0	4.4082627290507936e+17
19415.0	4.405686281349803e+17
19416.0	4.4026112378579616e+17
19417.0	4.3995727015881376e+17
19418.0	4.3974849651015674e+17
19419.0	4.3945924136796154e+17
19420.0	4.3917056252313594e+17
19421.0	4.388703182345557e+17
19422.0	4.3855828823135565e+17
19423.0	4.382466629784916e+17
19424.0	4.3788105018245126e+17
19425.0	4.3753884831361696e+17
19426.0	4.3720248344794445e+17
19427.0	4.3685280089811616e+17
19428.0	4.3650310660423674e+17
19429.0	4.361064912606549e+17
19430.0	4.355245961030318e+17
19431.0	4.342779763927734e+17
19432.0	4.347490806180523e+17
19433.0	4.3424161079842125e+17
19434.0	4.3359972835546477e+17
19435.0	4.3264662415168826e+17
19436.0	4.312759184042665e+17
19437.0	4.300946743317849e+17
19438.0	4.1787783160791405e+17
19439.0	4.242495972048898e+17
19440.0	4.232319548260351e+17
19441.0	4.215352825217023e+17
19442.0	4.195463857875627e+17
19443.0	4.174240604837206e+17
19444.0	4.1500341216215014e+17
19445.0	4.114293152808973e+17
19446.0	4.03080788748972e+17
19447.0	3.957530708759889e+17
19448.0	3.8834420964829914e+17
19449.0	3.725116116566007e+17
19450.0	3.2452175161808224e+17
19451.0	3.042883047959198e+17
19452.0	3.534588816130068e+17
19453.0	3.8289015930443226e+17
19454.0	3.91855693330295e+17
19455.0	3.98585698975744e+17
19456.0	4.072914036282742e+17
19457.0	4.126609307074558e+17
19458.0	3.9100326353744845e+17
19459.0	4.15408548513938e+17
19460.0	4.1925361344184314e+17
19461.0	4.209557975509674e+17
19462.0	4.224358074897749e+17
19463.0	4.2406038355312634e+17
19464.0	4.2698493199209766e+17
19465.0	4.2888678118959776e+17
19466.0	4.299787218889389e+17
19467.0	4.307610533276329e+17
19468.0	4.312931167283882e+17
19469.0	4.3165521714435405e+17
19470.0	4.320712935691606e+17
19471.0	4.3235493882975565e+17
19472.0	4.3260062480029e+17
19473.0	4.3288616686496416e+17
19474.0	4.3307562119987194e+17
19475.0	4.3318102308072096e+17
19476.0	4.3345303005648205e+17
19477.0	4.336329133391872e+17
19478.0	4.3383538336836256e+17
19479.0	4.339955931283455e+17
19480.0	4.3415970044532045e+17
19481.0	4.3430068428472314e+17
19482.0	4.3444040724643834e+17
19483.0	4.3457061375180794e+17
19484.0	4.346901090533375e+17
19485.0	4.3480066475513165e+17
19486.0	4.348918700354218e+17
19487.0	4.350146129865385e+17
19488.0	4.351102496189098e+17
19489.0	4.351798079564459e+17
19490.0	4.351152706901331e+17
19491.0	4.353478620435797e+17
19492.0	4.354196861441365e+17
19493.0	4.3548195666875725e+17
19494.0	4.3553773042619725e+17
19495.0	4.355873922438484e+17
19496.0	4.355816914157566e+17
19497.0	4.356689520929449e+17
19498.0	4.347766794179923e+17
19499.0	4.271855935072927e+17
19500.0	4.3575887265791994e+17
19501.0	4.357790494971222e+17
19502.0	4.3579164792804685e+17
19503.0	4.358075723721386e+17
19504.0	4.358144947912704e+17
19505.0	4.3581859521276576e+17
19506.0	4.358197250184533e+17
19507.0	4.35814299336704e+17
19508.0	4.358105064275968e+17
19509.0	4.358004210838187e+17
19510.0	4.3576072353437005e+17
19511.0	4.191483076804571e+17
19512.0	4.341900702121976e+17
19513.0	4.332647163625435e+17
19514.0	4.337955146214032e+17
19515.0	4.3557257132113926e+17
19516.0	4.356518421288276e+17
19517.0	4.3561883854875296e+17
19518.0	4.355896181609812e+17
19519.0	4.355507871547392e+17
19520.0	4.3550432356379296e+17
19521.0	4.3548751020687354e+17
19522.0	4.354424664577365e+17
19523.0	4.354016998501034e+17
19524.0	4.353522786456917e+17
19525.0	4.3531997418618874e+17
19526.0	4.3527670462764365e+17
19527.0	4.35229523321378e+17
19528.0	4.351800892544341e+17
19529.0	4.351299506842281e+17
19530.0	4.350838437489321e+17
19531.0	4.3503274181700256e+17
19532.0	4.349806120708778e+17
19533.0	4.3492750071780685e+17
19534.0	4.3487308283903994e+17
19535.0	4.3481696542829216e+17
19536.0	4.347582631378943e+17
19537.0	4.347057484944725e+17
19538.0	4.3461613362435424e+17
19539.0	4.345292143635115e+17
19540.0	4.345284217798655e+17
19541.0	4.3446753621442554e+17
19542.0	4.344089468906155e+17
19543.0	4.343323147195733e+17
19544.0	4.3428706628840096e+17
19545.0	4.341676767532372e+17
19546.0	4.3406453511290874e+17
19547.0	4.3410155299143674e+17
19548.0	4.3403730548162554e+17
19549.0	4.339641071173632e+17
19550.0	4.339092198959787e+17
19551.0	4.3384452960747526e+17
19552.0	4.337789880849748e+17
19553.0	4.337102645537449e+17
19554.0	4.336425859634517e+17
19555.0	4.3357656160665594e+17
19556.0	4.3351164496554656e+17
19557.0	4.334454235463679e+17
19558.0	4.333778947626325e+17
19559.0	4.333100172924244e+17
19560.0	4.332329351424682e+17
19561.0	4.331706150551551e+17
19562.0	4.330974308117162e+17
19563.0	4.3303568429547526e+17
19564.0	4.3296634210440525e+17
19565.0	4.32896719524113e+17
19566.0	4.3282353688849056e+17
19567.0	4.327565744057002e+17
19568.0	4.3268395045137056e+17
19569.0	4.326134871228415e+17
19570.0	4.325449112311123e+17
19571.0	4.3247320079619405e+17
19572.0	4.3239967597527034e+17
19573.0	4.323267381471914e+17
19574.0	4.3225059041826125e+17
19575.0	4.3218840895269536e+17
19576.0	4.3211502974402554e+17
19577.0	4.320376057582934e+17
19578.0	4.319680686718975e+17
19579.0	4.3190063670667936e+17
19580.0	4.3182806273447245e+17
19581.0	4.31756640518144e+17
19582.0	4.3168581095697056e+17
19583.0	4.316129651239594e+17
19584.0	4.315369047064575e+17
19585.0	4.314555349292373e+17
19586.0	4.3137764195041274e+17
19587.0	4.3129632397284685e+17
19588.0	4.311929540225706e+17
19589.0	4.311704540282879e+17
19590.0	4.3108401340743674e+17
19591.0	4.310244888936447e+17
19592.0	4.3095190925912736e+17
19593.0	4.3087447723431245e+17
19594.0	4.307765642133502e+17
19595.0	4.307247286976512e+17
19596.0	4.3047040225116166e+17
19597.0	4.3057175634903034e+17
19598.0	4.304510574220628e+17
19599.0	4.304328178619732e+17
19600.0	4.3035933764048205e+17
19601.0	4.302775352907093e+17
19602.0	4.302039062413311e+17
19603.0	4.300289671342761e+17
19604.0	4.3004708505954976e+17
19605.0	4.299548861486421e+17
19606.0	4.2991070258135034e+17
19607.0	4.298367803501225e+17
19608.0	4.2975984031716685e+17
19609.0	4.296813100138495e+17
19610.0	4.2960249330947405e+17
19611.0	4.295233998509396e+17
19612.0	4.2946190695028045e+17
19613.0	4.293857282534057e+17
19614.0	4.293076387714389e+17
19615.0	4.292339793133568e+17
19616.0	4.2910079995521696e+17
19617.0	4.290722447840597e+17
19618.0	4.289414612123647e+17
19619.0	4.2885145039994854e+17
19620.0	4.2877613768703994e+17
19621.0	4.287675817263104e+17
19622.0	4.2870938065524045e+17
19623.0	4.286329731590827e+17
19624.0	4.2855476798423034e+17
19625.0	4.2848265580489376e+17
19626.0	4.284069092611413e+17
19627.0	4.283307319623679e+17
19628.0	4.281587573893804e+17
19629.0	4.2812654583371085e+17
19630.0	4.2779836363571194e+17
19631.0	4.239600711106568e+17
19632.0	4.2795094549463034e+17
19633.0	4.278638006501375e+17
19634.0	4.2780231571865594e+17
19635.0	4.277192365528404e+17
19636.0	4.2763103760984736e+17
19637.0	4.275231434036566e+17
19638.0	4.2749543555181216e+17
19639.0	4.274213600886783e+17
19640.0	4.273298154891946e+17
19641.0	4.27138421218782e+17
19642.0	4.27194408046865e+17
19643.0	4.271171229625002e+17
19644.0	4.270381660984659e+17
19645.0	4.2693768511487994e+17
19646.0	4.2687273729611085e+17
19647.0	4.2681649957874336e+17
19648.0	4.2674170311475194e+17
19649.0	4.266654784203434e+17
19650.0	4.265903116692138e+17
19651.0	4.26514049995025e+17
19652.0	4.2643790268552525e+17
19653.0	4.2636048883602765e+17
19654.0	4.2628625867298125e+17
