# Flux units: erg / (cm m2 s)
# Wavelength units: Angstrom
wave	flux
19000.0	5.198015412655444e+17
19001.0	5.1969890217274016e+17
19002.0	5.196199455184212e+17
19003.0	5.195297135263743e+17
19004.0	5.1942742416861856e+17
19005.0	5.193360125984767e+17
19006.0	5.1924741519660365e+17
19007.0	5.191616632804692e+17
19008.0	5.190688365521577e+17
19009.0	5.189660074573823e+17
19010.0	5.188802993018196e+17
19011.0	5.187841699086334e+17
19012.0	5.186667886062249e+17
19013.0	5.186143268110335e+17
19014.0	5.1851102466867194e+17
19015.0	5.18421109486387e+17
19016.0	5.183395189489662e+17
19017.0	5.1825260500090874e+17
19018.0	5.181559908859903e+17
19019.0	5.180686652669951e+17
19020.0	5.1797421555275085e+17
19021.0	5.1788456328342176e+17
19022.0	5.177955675624789e+17
19023.0	5.1768718311205536e+17
19024.0	5.1758812301885434e+17
19025.0	5.175080766144511e+17
19026.0	5.174142840777386e+17
19027.0	5.17325871784482e+17
19028.0	5.1722808941608954e+17
19029.0	5.171315658981375e+17
19030.0	5.170360458674174e+17
19031.0	5.1694615396352e+17
19032.0	5.168445294728532e+17
19033.0	5.167096164690602e+17
19034.0	5.16570363129583e+17
19035.0	5.163346301725353e+17
19036.0	5.159989874262015e+17
19037.0	5.161709426354857e+17
19038.0	5.1621166079890765e+17
19039.0	5.161772736577536e+17
19040.0	5.161088530950825e+17
19041.0	5.1603176591196154e+17
19042.0	5.1537044405835e+17
19043.0	5.1586498975935136e+17
19044.0	5.1577970243229005e+17
19045.0	5.156800336756735e+17
19046.0	5.155890459399509e+17
19047.0	5.1549383104484685e+17
19048.0	5.153178114151764e+17
19049.0	5.1409253931417446e+17
19050.0	5.15184049468211e+17
19051.0	5.1506244925521894e+17
19052.0	5.1498364988730003e+17
19053.0	5.149263122137087e+17
19054.0	5.148479415735635e+17
19055.0	5.1458453508805984e+17
19056.0	5.1463869375883923e+17
19057.0	5.1460532988805114e+17
19058.0	5.1390366106692154e+17
19059.0	5.141875379230035e+17
19060.0	5.1433894838271994e+17
19061.0	5.1424587139426976e+17
19062.0	5.1415223621386234e+17
19063.0	5.1407108579874125e+17
19064.0	5.1397930324241056e+17
19065.0	5.138810551664639e+17
19066.0	5.135784706659671e+17
19067.0	5.136951535468543e+17
19068.0	5.1362230442830496e+17
19069.0	5.135315703780693e+17
19070.0	5.1343077691883514e+17
19071.0	5.133421288357887e+17
19072.0	5.130324279295996e+17
19073.0	5.1317313962857805e+17
19074.0	5.1306930942334285e+17
19075.0	5.129885432763732e+17
19076.0	5.128957680680959e+17
19077.0	5.128057834001749e+17
19078.0	5.1271389325994656e+17
19079.0	5.126224647028736e+17
19080.0	5.1253521814650874e+17
19081.0	5.1244224510689274e+17
19082.0	5.123596968001536e+17
19083.0	5.122562171688277e+17
19084.0	5.121578306808489e+17
19085.0	5.1208159640944634e+17
19086.0	5.1163924218074426e+17
19087.0	5.113896652941987e+17
19088.0	5.1149018053126765e+17
19089.0	5.117084825900373e+17
19090.0	5.116319030575104e+17
19091.0	5.115042300515671e+17
19092.0	5.1096934332498054e+17
19093.0	5.113618568489642e+17
19094.0	5.1127460281275725e+17
19095.0	5.11178599178786e+17
19096.0	5.1109508366554426e+17
19097.0	5.1100459966573216e+17
19098.0	5.1066800397352934e+17
19099.0	5.10522060159932e+17
19100.0	5.1073153481659725e+17
19101.0	5.1064118524422816e+17
19102.0	5.105523630276607e+17
19103.0	5.104598415048703e+17
19104.0	5.1037824607409485e+17
19105.0	5.097354372491962e+17
19106.0	5.1019038354746003e+17
19107.0	5.099673471680508e+17
19108.0	5.097959598675286e+17
19109.0	5.0991716700433056e+17
19110.0	5.0982816834737485e+17
19111.0	5.095756518129661e+17
19112.0	5.094584365350908e+17
19113.0	5.095643826268841e+17
19114.0	5.093574462231891e+17
19115.0	5.09360429212194e+17
19116.0	5.092788722991103e+17
19117.0	5.0917680712690336e+17
19118.0	5.0900056743608314e+17
19119.0	5.086438553026559e+17
19120.0	5.0885692447784954e+17
19121.0	5.0881838944965965e+17
19122.0	5.0875157125092685e+17
19123.0	5.0866942601680205e+17
19124.0	5.085612833680041e+17
19125.0	5.0848637009264634e+17
19126.0	5.0838984377849165e+17
19127.0	5.082919413131946e+17
19128.0	5.082065691912874e+17
19129.0	5.0812696989969056e+17
19130.0	5.080472877705899e+17
19131.0	5.079600511407445e+17
19132.0	5.078677368864768e+17
19133.0	5.077817143678292e+17
19134.0	5.0769356344961696e+17
19135.0	5.0760811764776954e+17
19136.0	5.075156839257428e+17
19137.0	5.0742095263389e+17
19138.0	5.073392970847572e+17
19139.0	5.072526208139264e+17
19140.0	5.071648774422527e+17
19141.0	5.070730200875007e+17
19142.0	5.069804606761641e+17
19143.0	5.06892578263313e+17
19144.0	5.0679869610830496e+17
19145.0	5.067135461446998e+17
19146.0	5.0657829081579514e+17
19147.0	5.065353644911274e+17
19148.0	5.062534185527981e+17
19149.0	5.0612178276843514e+17
19150.0	5.06271995404834e+17
19151.0	5.061779367395327e+17
19152.0	5.0608990731632634e+17
19153.0	5.0558443538349997e+17
19154.0	5.058780781871104e+17
19155.0	5.058230541615103e+17
19156.0	5.057315151544319e+17
19157.0	5.0550895224203994e+17
19158.0	5.0525555672132314e+17
19159.0	5.054527991098026e+17
19160.0	5.0536591263443616e+17
19161.0	5.0527839666394445e+17
19162.0	5.0518561055047674e+17
19163.0	5.051000340261547e+17
19164.0	5.0501190708538016e+17
19165.0	5.044735438400163e+17
19166.0	5.0483192586567674e+17
19167.0	5.0475312111506765e+17
19168.0	5.0466176700689056e+17
19169.0	5.045750353013417e+17
19170.0	5.044887467240106e+17
19171.0	5.043958198217387e+17
19172.0	5.0430788085568845e+17
19173.0	5.0422495666940576e+17
19174.0	5.0413305059082234e+17
19175.0	5.040419912723114e+17
19176.0	5.039571717499562e+17
19177.0	5.0385423073716896e+17
19178.0	5.037733159720276e+17
19179.0	5.036874156474368e+17
19180.0	5.0359778511858336e+17
19181.0	5.0350798877491194e+17
19182.0	5.034081734972757e+17
19183.0	5.033269459069609e+17
19184.0	5.0324012437340154e+17
19185.0	5.0314513429299194e+17
19186.0	5.0305679805644794e+17
19187.0	5.029609437396991e+17
19188.0	5.0287580565995514e+17
19189.0	5.0278075853701114e+17
19190.0	5.0268784631480314e+17
19191.0	5.025903885156351e+17
19192.0	5.024937536389119e+17
19193.0	5.0233593218553184e+17
19194.0	5.0220341629637984e+17
19195.0	5.0219197654193485e+17
19196.0	5.020826324347561e+17
19197.0	5.019693768594772e+17
19198.0	5.0184875105320954e+17
19199.0	5.0172625962052256e+17
19200.0	5.0164137928075936e+17
19201.0	5.0158928476678816e+17
19202.0	5.015355172148564e+17
19203.0	5.014617749192703e+17
19204.0	5.014029018507945e+17
19205.0	5.013274354166442e+17
19206.0	5.0125256030945274e+17
19207.0	5.0115763307369805e+17
19208.0	5.0109223758288205e+17
19209.0	5.010134015847083e+17
19210.0	5.0092713705472e+17
19211.0	5.0084990167285754e+17
19212.0	5.0076515303423994e+17
19213.0	5.006734567407615e+17
19214.0	5.005921363165184e+17
19215.0	5.00510261125666e+17
19216.0	5.004247201131177e+17
19217.0	5.003399944732672e+17
19218.0	5.002442724169044e+17
19219.0	5.0014891107068576e+17
19220.0	5.000779787490645e+17
19221.0	4.999926269695315e+17
19222.0	4.999007052322132e+17
19223.0	4.9981950357667834e+17
19224.0	4.9972902796547405e+17
19225.0	4.996511197473451e+17
19226.0	4.995660868048213e+17
19227.0	4.9947713729112736e+17
19228.0	4.9939388511027194e+17
19229.0	4.9929389325243725e+17
19230.0	4.992178065506303e+17
19231.0	4.9913581280078496e+17
19232.0	4.990486828460714e+17
19233.0	4.98954934489361e+17
19234.0	4.9886876586912416e+17
19235.0	4.987818131237546e+17
19236.0	4.9869804707075405e+17
19237.0	4.9860407459839994e+17
19238.0	4.9851791492601165e+17
19239.0	4.9843662085597856e+17
19240.0	4.983464707227646e+17
19241.0	4.982624680411135e+17
19242.0	4.9816655444486816e+17
19243.0	4.9807853452875085e+17
19244.0	4.979992645599232e+17
19245.0	4.9791575282155514e+17
19246.0	4.978305946091519e+17
19247.0	4.9774319181496314e+17
19248.0	4.9765357687493965e+17
19249.0	4.975470758767275e+17
19250.0	4.973860182381909e+17
19251.0	4.9729790087441043e+17
19252.0	4.972838551289855e+17
19253.0	4.9721595759602336e+17
19254.0	4.9713221370292896e+17
19255.0	4.9702816455502483e+17
19256.0	4.969506664699221e+17
19257.0	4.968657517368662e+17
19258.0	4.9677429284099405e+17
19259.0	4.966810221456042e+17
19260.0	4.9657240435206816e+17
19261.0	4.9651006378257056e+17
19262.0	4.964148111387306e+17
19263.0	4.963267123696981e+17
19264.0	4.962453142110207e+17
19265.0	4.9615641223277216e+17
19266.0	4.960731323695104e+17
19267.0	4.959960112125268e+17
19268.0	4.9590599970106016e+17
19269.0	4.9582141897441274e+17
19270.0	4.957342348432724e+17
19271.0	4.956426847212885e+17
19272.0	4.955633577099264e+17
19273.0	4.9546825487264416e+17
19274.0	4.953625086394366e+17
19275.0	4.9530552216890016e+17
19276.0	4.952176752678228e+17
19277.0	4.951323251660117e+17
19278.0	4.9503092632890016e+17
19279.0	4.9495293967728634e+17
19280.0	4.9486805423445325e+17
19281.0	4.947768063819775e+17
19282.0	4.9468842365856416e+17
19283.0	4.945932076449791e+17
19284.0	4.9449668475617274e+17
19285.0	4.943932978888702e+17
19286.0	4.942691871752191e+17
19287.0	4.94107086762803e+17
19288.0	4.9381502122721274e+17
19289.0	4.936854324729172e+17
19290.0	4.9383593262885536e+17
19291.0	4.938150986121216e+17
19292.0	4.9378580545317536e+17
19293.0	4.9371732575081805e+17
19294.0	4.936382659166207e+17
19295.0	4.935584945187498e+17
19296.0	4.932012388035249e+17
19297.0	4.933461392140973e+17
19298.0	4.933019098589866e+17
19299.0	4.929148947879255e+17
19300.0	4.931347273482238e+17
19301.0	4.9304843499601914e+17
19302.0	4.9296137082197325e+17
19303.0	4.928651125238442e+17
19304.0	4.927824273429845e+17
19305.0	4.926894924715349e+17
19306.0	4.9260098447824205e+17
19307.0	4.925015134830591e+17
19308.0	4.924084034994175e+17
19309.0	4.922991490105342e+17
19310.0	4.9218504604603725e+17
19311.0	4.920435895085738e+17
19312.0	4.9182438923960314e+17
19313.0	4.9125831527628806e+17
19314.0	4.8680753566842944e+17
19315.0	4.868715294228486e+17
19316.0	4.9066687178560915e+17
19317.0	4.9140375870941856e+17
19318.0	4.914519744708607e+17
19319.0	4.914160305438719e+17
19320.0	4.9126178641237286e+17
19321.0	4.9104947109341856e+17
19322.0	4.912201484380842e+17
19323.0	4.91143191138577e+17
19324.0	4.9105932435237536e+17
19325.0	4.9097989101540685e+17
19326.0	4.908939003035647e+17
19327.0	4.908135523986089e+17
19328.0	4.9023426274263085e+17
19329.0	4.906463975003477e+17
19330.0	4.9056297461131936e+17
19331.0	4.904752492751529e+17
19332.0	4.9039043157032954e+17
19333.0	4.9030774415250765e+17
19334.0	4.902025128400213e+17
19335.0	4.8913125208664877e+17
19336.0	4.900395115610113e+17
19337.0	4.899633845239808e+17
19338.0	4.8986152480276474e+17
19339.0	4.8978438798704634e+17
19340.0	4.896896945837395e+17
19341.0	4.892398358364169e+17
19342.0	4.8941671369059014e+17
19343.0	4.894355733086208e+17
19344.0	4.889762322186246e+17
19345.0	4.8908308441989165e+17
19346.0	4.891492638960298e+17
19347.0	4.8862034608346445e+17
19348.0	4.890121075687423e+17
19349.0	4.889274485484202e+17
19350.0	4.8865905601413114e+17
19351.0	4.8875552577508685e+17
19352.0	4.881726745258658e+17
19353.0	4.8859259747696634e+17
19354.0	4.885108183356756e+17
19355.0	4.884178013257728e+17
19356.0	4.8833759008522234e+17
19357.0	4.8825403619409914e+17
19358.0	4.8816690917539834e+17
19359.0	4.879739198111739e+17
19360.0	4.8760027191705574e+17
19361.0	4.879088368659115e+17
19362.0	4.87823629230626e+17
19363.0	4.8773846584524794e+17
19364.0	4.876540692485461e+17
19365.0	4.875650515075071e+17
19366.0	4.874730465831594e+17
19367.0	4.873911028853417e+17
19368.0	4.8730859540316154e+17
19369.0	4.872220079117653e+17
19370.0	4.871373065988779e+17
19371.0	4.870420265522517e+17
19372.0	4.869610276913151e+17
19373.0	4.868691086802943e+17
19374.0	4.8678373026693114e+17
19375.0	4.867036958162943e+17
19376.0	4.866180756013055e+17
19377.0	4.865313567582889e+17
19378.0	4.864446125397332e+17
19379.0	4.86356629393681e+17
19380.0	4.8625727171461114e+17
19381.0	4.8617237243057485e+17
19382.0	4.8608319160101536e+17
19383.0	4.859960508809215e+17
19384.0	4.858991407879508e+17
19385.0	4.858194734787242e+17
19386.0	4.8572457350594554e+17
19387.0	4.856235771123028e+17
19388.0	4.855137496115882e+17
19389.0	4.853839953220948e+17
19390.0	4.851892882505727e+17
19391.0	4.848387673991849e+17
19392.0	4.849136206959956e+17
19393.0	4.8499047173980154e+17
19394.0	4.849675537831253e+17
19395.0	4.847667048524461e+17
19396.0	4.848003300982784e+17
19397.0	4.8474788529001786e+17
19398.0	4.8453074078924806e+17
19399.0	4.844001944054442e+17
19400.0	4.843685301365419e+17
19401.0	4.843957710924458e+17
19402.0	4.843109471660714e+17
19403.0	4.842198135384746e+17
19404.0	4.8412428057531725e+17
19405.0	4.840275706904576e+17
19406.0	4.8393728647932576e+17
19407.0	4.836696525548199e+17
19408.0	4.837427315911338e+17
19409.0	4.8364516453034656e+17
19410.0	4.8355187824612685e+17
19411.0	4.834553564758014e+17
19412.0	4.8335519090387616e+17
19413.0	4.8308001757812045e+17
19414.0	4.831565676806143e+17
19415.0	4.8304834974405965e+17
19416.0	4.829316408584874e+17
19417.0	4.828371934511104e+17
19418.0	4.8272734567792634e+17
19419.0	4.826127840662868e+17
19420.0	4.824951253805738e+17
19421.0	4.8237732527691085e+17
19422.0	4.8224818762001056e+17
19423.0	4.821277149757439e+17
19424.0	4.819960665385642e+17
19425.0	4.818524545482751e+17
19426.0	4.8171128112633165e+17
19427.0	4.815563582166357e+17
19428.0	4.813815016674644e+17
19429.0	4.8121131987981645e+17
19430.0	4.8100698226688e+17
19431.0	4.808021471395839e+17
19432.0	4.806224803528702e+17
19433.0	4.804033759237461e+17
19434.0	4.8015469997370016e+17
19435.0	4.79858795741184e+17
19436.0	4.794956053654187e+17
19437.0	4.789970895459668e+17
19438.0	4.781154299281407e+17
19439.0	4.7807357468890445e+17
19440.0	4.780410520556885e+17
19441.0	4.777024987419989e+17
19442.0	4.772135463550976e+17
19443.0	4.766259801489407e+17
19444.0	4.758657638072319e+17
19445.0	4.7498713932759034e+17
19446.0	4.7386565367125325e+17
19447.0	4.7248451417320096e+17
19448.0	4.70657318134306e+17
19449.0	4.6812557157771936e+17
19450.0	4.6386377067069395e+17
19451.0	4.603086768526678e+17
19452.0	4.6620488212589216e+17
19453.0	4.69134196342784e+17
19454.0	4.7101378706800634e+17
19455.0	4.723018333596329e+17
19456.0	4.7303873845876045e+17
19457.0	4.725260628787201e+17
19458.0	4.6168917364354086e+17
19459.0	4.697757280720226e+17
19460.0	4.749189620345513e+17
19461.0	4.75983096315904e+17
19462.0	4.764886059275604e+17
19463.0	4.767962840607402e+17
19464.0	4.770330096697343e+17
19465.0	4.7721188030764365e+17
19466.0	4.7735101620660896e+17
19467.0	4.774450445331114e+17
19468.0	4.7752460418853536e+17
19469.0	4.7723716245367405e+17
19470.0	4.7761986445202765e+17
19471.0	4.776446608277502e+17
19472.0	4.776568950532777e+17
19473.0	4.776506958719657e+17
19474.0	4.772779134724772e+17
19475.0	4.776027522509481e+17
19476.0	4.775988198113279e+17
19477.0	4.775713485182293e+17
19478.0	4.7754205221355514e+17
19479.0	4.7715657889873856e+17
19480.0	4.774582558916607e+17
19481.0	4.7740218433863674e+17
19482.0	4.773545355771903e+17
19483.0	4.773050604060671e+17
19484.0	4.7724410996872525e+17
19485.0	4.771883248167594e+17
19486.0	4.7675733211873376e+17
19487.0	4.7705391324200954e+17
19488.0	4.769867643923114e+17
19489.0	4.769111703115091e+17
19490.0	4.768338988586323e+17
19491.0	4.767663961494868e+17
19492.0	4.767008156898646e+17
19493.0	4.7662258548899834e+17
19494.0	4.7653655437202765e+17
19495.0	4.764369873971881e+17
19496.0	4.762979014104404e+17
19497.0	4.761211179980116e+17
19498.0	4.7575251648075085e+17
19499.0	4.754725965310634e+17
19500.0	4.758152978016938e+17
19501.0	4.759034333407914e+17
19502.0	4.7589086140388685e+17
19503.0	4.75844104491281e+17
19504.0	4.757748824670206e+17
19505.0	4.7568533379700045e+17
19506.0	4.75607339106304e+17
19507.0	4.7549544793811616e+17
19508.0	4.753415863970474e+17
19509.0	4.7506858425275725e+17
19510.0	4.741022821122046e+17
19511.0	4.693570304169295e+17
19512.0	4.734757129333417e+17
19513.0	4.7435913919201254e+17
19514.0	4.745265471466153e+17
19515.0	4.7474543298259616e+17
19516.0	4.7471387021585056e+17
19517.0	4.7473775845485216e+17
19518.0	4.7458255166068026e+17
19519.0	4.7451605586411494e+17
19520.0	4.741949336584187e+17
19521.0	4.744966752436223e+17
19522.0	4.743592662794239e+17
19523.0	4.742541614951084e+17
19524.0	4.739877132304391e+17
19525.0	4.7418263190459725e+17
19526.0	4.741085678359892e+17
19527.0	4.7403391607548576e+17
19528.0	4.739230504845311e+17
19529.0	4.738291279942998e+17
19530.0	4.7379571106556576e+17
19531.0	4.737150086021119e+17
19532.0	4.736345482898089e+17
19533.0	4.7355069786139296e+17
19534.0	4.7347560555915936e+17
19535.0	4.733946673758207e+17
19536.0	4.7330902164548256e+17
19537.0	4.732259677853012e+17
19538.0	4.7280604070980314e+17
19539.0	4.730681065559381e+17
19540.0	4.729869252427775e+17
19541.0	4.728222666544468e+17
19542.0	4.7278965076787194e+17
19543.0	4.7237904735054515e+17
19544.0	4.7263515071392416e+17
19545.0	4.725664942216534e+17
19546.0	4.7249290040442874e+17
19547.0	4.724218521103019e+17
19548.0	4.723436829365589e+17
19549.0	4.7225324940820474e+17
19550.0	4.721776588226559e+17
19551.0	4.7210652985808205e+17
19552.0	4.7202099052325536e+17
19553.0	4.719443290619904e+17
19554.0	4.718577945586346e+17
19555.0	4.717325925569877e+17
19556.0	4.7166662034937165e+17
19557.0	4.7161470702933325e+17
19558.0	4.715386240324948e+17
19559.0	4.7145768563944096e+17
19560.0	4.7124362751726906e+17
19561.0	4.712942285094911e+17
19562.0	4.710892414784851e+17
19563.0	4.711370515109204e+17
19564.0	4.7104517570123085e+17
19565.0	4.7097005550687565e+17
19566.0	4.708842883514368e+17
19567.0	4.7081194024250016e+17
19568.0	4.707288988254207e+17
19569.0	4.7064931728971085e+17
19570.0	4.705664417573545e+17
19571.0	4.704843682458282e+17
19572.0	4.704044566183936e+17
19573.0	4.7028122265408845e+17
19574.0	4.702214131373396e+17
19575.0	4.701655835257513e+17
19576.0	4.7006143028920314e+17
19577.0	4.69936422134306e+17
19578.0	4.699212711198719e+17
19579.0	4.6984066442635936e+17
19580.0	4.6975608411914234e+17
19581.0	4.696721248485375e+17
19582.0	4.6959831684218874e+17
19583.0	4.6951994815938554e+17
19584.0	4.694328454676479e+17
19585.0	4.6934732381880314e+17
19586.0	4.692648373780479e+17
19587.0	4.6919241761641805e+17
19588.0	4.6910683570940576e+17
19589.0	4.690289174948523e+17
19590.0	4.6894363988459514e+17
19591.0	4.688679152211285e+17
19592.0	4.6878907635684685e+17
19593.0	4.68672848208418e+17
19594.0	4.685774512805204e+17
19595.0	4.685465330384895e+17
19596.0	4.684578824388607e+17
19597.0	4.6838058980474874e+17
19598.0	4.682783462348116e+17
19599.0	4.682159763051861e+17
19600.0	4.681354148402518e+17
19601.0	4.6805608377439565e+17
19602.0	4.6797518746419194e+17
19603.0	4.6789166132538016e+17
19604.0	4.678133169695402e+17
19605.0	4.6772063850987514e+17
19606.0	4.6765220103017805e+17
19607.0	4.6757815989043194e+17
19608.0	4.674871475481257e+17
19609.0	4.674137668015444e+17
19610.0	4.671665207596376e+17
19611.0	4.6699849106937184e+17
19612.0	4.6717407763715405e+17
19613.0	4.670846192844798e+17
19614.0	4.67004939112721e+17
19615.0	4.669264490747221e+17
19616.0	4.6667553930827117e+17
19617.0	4.665029663479126e+17
19618.0	4.66648145469986e+17
19619.0	4.665412585259007e+17
19620.0	4.664147268599803e+17
19621.0	4.6605667212984294e+17
19622.0	4.6635250876415994e+17
19623.0	4.6625410326200314e+17
19624.0	4.661334794829824e+17
19625.0	4.6610353390004896e+17
19626.0	4.660099809979049e+17
19627.0	4.65923472429329e+17
19628.0	4.6582429566457165e+17
19629.0	4.648581631137104e+17
19630.0	4.6561899077522765e+17
19631.0	4.65507946926353e+17
19632.0	4.6547861266322765e+17
19633.0	4.654150656720896e+17
19634.0	4.6535951665943885e+17
19635.0	4.652513983376039e+17
19636.0	4.64807555130982e+17
19637.0	4.647225364490918e+17
19638.0	4.650397035659261e+17
19639.0	4.649848436774229e+17
19640.0	4.648863481375402e+17
19641.0	4.648007776250538e+17
19642.0	4.647243458718377e+17
19643.0	4.646516170599082e+17
19644.0	4.645996120943274e+17
19645.0	4.645255119547051e+17
19646.0	4.640093179128484e+17
19647.0	4.6435337653015885e+17
19648.0	4.642902422585344e+17
19649.0	4.642081267340629e+17
19650.0	4.6413010848535885e+17
19651.0	4.6405124990784845e+17
19652.0	4.6397346185652915e+17
19653.0	4.6388958046016845e+17
19654.0	4.63814974767104e+17
19655.0	4.6373055733869216e+17
