# Flux units: erg / (cm m2 s)
# Wavelength units: Angstrom
wave	flux
19000.0	5.622989415164586e+17
19001.0	5.621805151333034e+17
19002.0	5.6208977353332045e+17
19003.0	5.6198446238924794e+17
19004.0	5.6187957459025914e+17
19005.0	5.617744899386025e+17
19006.0	5.6167112516130125e+17
19007.0	5.6156493195509754e+17
19008.0	5.6145306203805005e+17
19009.0	5.613455888001706e+17
19010.0	5.61181597315891e+17
19011.0	5.611430142629205e+17
19012.0	5.610040789215913e+17
19013.0	5.6093822247676576e+17
19014.0	5.6082692186658125e+17
19015.0	5.6072373618606086e+17
19016.0	5.6061704889084576e+17
19017.0	5.605209385118379e+17
19018.0	5.604139298630313e+17
19019.0	5.603107859857407e+17
19020.0	5.6020515167054496e+17
19021.0	5.601032127468885e+17
19022.0	5.599982819562837e+17
19023.0	5.598896219400873e+17
19024.0	5.59786228921139e+17
19025.0	5.5968356543146656e+17
19026.0	5.595752661254143e+17
19027.0	5.594512067220819e+17
19028.0	5.593730792117589e+17
19029.0	5.592661069834922e+17
19030.0	5.591655398768639e+17
19031.0	5.5906213546338976e+17
19032.0	5.589569653877417e+17
19033.0	5.5884117386635936e+17
19034.0	5.587465740659371e+17
19035.0	5.5863518712299514e+17
19036.0	5.565746945283406e+17
19037.0	5.58431692844783e+17
19038.0	5.583295005851647e+17
19039.0	5.5822859933231776e+17
19040.0	5.5812538002746016e+17
19041.0	5.580203486434643e+17
19042.0	5.578830756446206e+17
19043.0	5.5781368200342176e+17
19044.0	5.5770807697844896e+17
19045.0	5.576047618337449e+17
19046.0	5.5749349540713805e+17
19047.0	5.573957790291283e+17
19048.0	5.572588249371987e+17
19049.0	5.571366077420884e+17
19050.0	5.5707849223482016e+17
19051.0	5.566926350712827e+17
19052.0	5.568350901327189e+17
19053.0	5.5677479470585165e+17
19054.0	5.566713489085779e+17
19055.0	5.565269050479958e+17
19056.0	5.56457678479906e+17
19057.0	5.5635935162094925e+17
19058.0	5.5623218885208723e+17
19059.0	5.561436321349632e+17
19060.0	5.560460698277204e+17
19061.0	5.559459137628842e+17
19062.0	5.558415986262015e+17
19063.0	5.557383215797588e+17
19064.0	5.556174861981011e+17
19065.0	5.5550848714233165e+17
19066.0	5.5541217501730125e+17
19067.0	5.553227974748842e+17
19068.0	5.552209886445567e+17
19069.0	5.551177428456789e+17
19070.0	5.550101522371926e+17
19071.0	5.549092590933332e+17
19072.0	5.5479867039634765e+17
19073.0	5.547034722085545e+17
19074.0	5.546008488443902e+17
19075.0	5.544975113999699e+17
19076.0	5.5439128722582176e+17
19077.0	5.5428868881776634e+17
19078.0	5.541814982759764e+17
19079.0	5.540839227566762e+17
19080.0	5.5397913541126816e+17
19081.0	5.53871872168209e+17
19082.0	5.5376858701277856e+17
19083.0	5.536588547227647e+17
19084.0	5.535395462075732e+17
19085.0	5.5346303329457485e+17
19086.0	5.5330092624117766e+17
19087.0	5.5319242742606496e+17
19088.0	5.531314574852096e+17
19089.0	5.530044757005652e+17
19090.0	5.529450958203563e+17
19091.0	5.528409347544404e+17
19092.0	5.5270952490325325e+17
19093.0	5.526406523344211e+17
19094.0	5.525379155143337e+17
19095.0	5.524350157455358e+17
19096.0	5.5232971578627405e+17
19097.0	5.52228906668305e+17
19098.0	5.5211658229841894e+17
19099.0	5.5201136538637645e+17
19100.0	5.5191593189812896e+17
19101.0	5.51816425181457e+17
19102.0	5.5169789729614496e+17
19103.0	5.516118278711977e+17
19104.0	5.5150953879306234e+17
19105.0	5.513853151827284e+17
19106.0	5.5129529185730554e+17
19107.0	5.5119300194030925e+17
19108.0	5.510900163979945e+17
19109.0	5.5086846312447974e+17
19110.0	5.5088852378146125e+17
19111.0	5.5078386974501536e+17
19112.0	5.506809424336213e+17
19113.0	5.5058508560029e+17
19114.0	5.504787744642387e+17
19115.0	5.503695454207999e+17
19116.0	5.502751302396585e+17
19117.0	5.501721760847188e+17
19118.0	5.500539819261951e+17
19119.0	5.48900045499049e+17
19120.0	5.498502385063252e+17
19121.0	5.4975428814001485e+17
19122.0	5.496634068697087e+17
19123.0	5.4956107263290016e+17
19124.0	5.4945004486219085e+17
19125.0	5.493555111220564e+17
19126.0	5.492526602868052e+17
19127.0	5.488997254736553e+17
19128.0	5.490343257920853e+17
19129.0	5.4893644569640954e+17
19130.0	5.488427478111572e+17
19131.0	5.4874241782251514e+17
19132.0	5.4864004751469216e+17
19133.0	5.4852730287554554e+17
19134.0	5.4842860558964045e+17
19135.0	5.483330542414505e+17
19136.0	5.482321012588542e+17
19137.0	5.481071842601643e+17
19138.0	5.480256812438868e+17
19139.0	5.4792583835374925e+17
19140.0	5.4782399380193274e+17
19141.0	5.477219869305513e+17
19142.0	5.476165117192875e+17
19143.0	5.4750965637229235e+17
19144.0	5.4741096775461536e+17
19145.0	5.4731410715443194e+17
19146.0	5.47128995671791e+17
19147.0	5.470964534651562e+17
19148.0	5.470000635357866e+17
19149.0	5.4689640844274336e+17
19150.0	5.468035662654121e+17
19151.0	5.4670209381826554e+17
19152.0	5.4659874043549005e+17
19153.0	5.4648124029446816e+17
19154.0	5.463779698890068e+17
19155.0	5.4629499949547514e+17
19156.0	5.461933132786345e+17
19157.0	5.4608326872268794e+17
19158.0	5.4589639793923386e+17
19159.0	5.458846865337002e+17
19160.0	5.4578381429145594e+17
19161.0	5.45682899407121e+17
19162.0	5.453857342969173e+17
19163.0	5.454751867076607e+17
19164.0	5.4538008219265696e+17
19165.0	5.4525681187771725e+17
19166.0	5.451545241277779e+17
19167.0	5.4505728310422176e+17
19168.0	5.449731872391168e+17
19169.0	5.4486844141731834e+17
19170.0	5.447714038874111e+17
19171.0	5.446576833036287e+17
19172.0	5.445673572892671e+17
19173.0	5.444667887845375e+17
19174.0	5.4435756386549754e+17
19175.0	5.4426447716024314e+17
19176.0	5.441629729062911e+17
19177.0	5.440413561257983e+17
19178.0	5.439554750950058e+17
19179.0	5.438417066262528e+17
19180.0	5.437561773577556e+17
19181.0	5.436370578658644e+17
19182.0	5.435530953097215e+17
19183.0	5.434546391263915e+17
19184.0	5.433524694461097e+17
19185.0	5.43250701230626e+17
19186.0	5.4315077158830074e+17
19187.0	5.4304094317882016e+17
19188.0	5.4294809198373536e+17
19189.0	5.428472529463977e+17
19190.0	5.427451817623551e+17
19191.0	5.4263925524398074e+17
19192.0	5.425442274148351e+17
19193.0	5.424398942426452e+17
19194.0	5.423366555740842e+17
19195.0	5.422402750119935e+17
19196.0	5.421361410692436e+17
19197.0	5.420344607244288e+17
19198.0	5.419256779549353e+17
19199.0	5.406456751499944e+17
19200.0	5.409165300902574e+17
19201.0	5.4162446485203616e+17
19202.0	5.415313527712426e+17
19203.0	5.4142872465353376e+17
19204.0	5.413277824363177e+17
19205.0	5.4123016665169914e+17
19206.0	5.411292111525205e+17
19207.0	5.4101532880841376e+17
19208.0	5.408955475951615e+17
19209.0	5.4082735974645754e+17
19210.0	5.4072646261800954e+17
19211.0	5.406275378610175e+17
19212.0	5.405262573731838e+17
19213.0	5.4040578857369594e+17
19214.0	5.402981515482453e+17
19215.0	5.40219845710097e+17
19216.0	5.401238449422336e+17
19217.0	5.400221097219413e+17
19218.0	5.398088978705064e+17
19219.0	5.398021632163839e+17
19220.0	5.397174539343188e+17
19221.0	5.395755605600938e+17
19222.0	5.3951899170242554e+17
19223.0	5.394166279656788e+17
19224.0	5.3931295106225485e+17
19225.0	5.3919783335581005e+17
19226.0	5.3911492846332576e+17
19227.0	5.3901435485552634e+17
19228.0	5.389171075405141e+17
19229.0	5.3881647458331296e+17
19230.0	5.3871481199438496e+17
19231.0	5.3861377079159456e+17
19232.0	5.385138121386666e+17
19233.0	5.384049654759423e+17
19234.0	5.383107263157589e+17
19235.0	5.382090668026539e+17
19236.0	5.381130682018474e+17
19237.0	5.380104702831274e+17
19238.0	5.378979446565547e+17
19239.0	5.378120792145919e+17
19240.0	5.3771008499602765e+17
19241.0	5.376080324766378e+17
19242.0	5.3750874407348896e+17
19243.0	5.373890289904298e+17
19244.0	5.3731028400865274e+17
19245.0	5.3720915178946554e+17
19246.0	5.3710709535539194e+17
19247.0	5.370080099565567e+17
19248.0	5.3690890896889165e+17
19249.0	5.368068939885227e+17
19250.0	5.3670209496896845e+17
19251.0	5.365797554399913e+17
19252.0	5.3644280756961274e+17
19253.0	5.3637567815352314e+17
19254.0	5.362788425793536e+17
19255.0	5.3615426105507834e+17
19256.0	5.360742814100139e+17
19257.0	5.359782802227198e+17
19258.0	5.358779133941077e+17
19259.0	5.357681793564672e+17
19260.0	5.3563432499500365e+17
19261.0	5.3557518754556576e+17
19262.0	5.354687502308692e+17
19263.0	5.3536747792192845e+17
19264.0	5.351974276257108e+17
19265.0	5.3514672701876896e+17
19266.0	5.3503528002737485e+17
19267.0	5.3497558927933434e+17
19268.0	5.348743843588778e+17
19269.0	5.347745253905749e+17
19270.0	5.3467430738984954e+17
19271.0	5.345252536396459e+17
19272.0	5.344691905451349e+17
19273.0	5.3429890753495014e+17
19274.0	5.342032225282729e+17
19275.0	5.341732649915732e+17
19276.0	5.340702626021375e+17
19277.0	5.339707383392938e+17
19278.0	5.338703135593813e+17
19279.0	5.3376789837250554e+17
19280.0	5.3365836104772256e+17
19281.0	5.3356877896308045e+17
19282.0	5.3347053501153274e+17
19283.0	5.3335333280590496e+17
19284.0	5.332630385983487e+17
19285.0	5.331455697048915e+17
19286.0	5.330637735766698e+17
19287.0	5.3296732373865786e+17
19288.0	5.3234327638507456e+17
19289.0	5.3145463534823866e+17
19290.0	5.3266572951333536e+17
19291.0	5.325328589957803e+17
19292.0	5.324663139860478e+17
19293.0	5.323648534926676e+17
19294.0	5.322638984129194e+17
19295.0	5.321647501694292e+17
19296.0	5.320534555011754e+17
19297.0	5.3195790247526394e+17
19298.0	5.3185849453445114e+17
19299.0	5.317505797761706e+17
19300.0	5.31659797701154e+17
19301.0	5.315594411485866e+17
19302.0	5.3145748356027725e+17
19303.0	5.313477379883007e+17
19304.0	5.3125281277979296e+17
19305.0	5.311256285500757e+17
19306.0	5.31023450551091e+17
19307.0	5.309159517978623e+17
19308.0	5.308177873283753e+17
19309.0	5.306763066037587e+17
19310.0	5.305597455674025e+17
19311.0	5.3050932185442976e+17
19312.0	5.3041559635667616e+17
19313.0	5.3031484945421645e+17
19314.0	5.270486240635563e+17
19315.0	5.2720935140065715e+17
19316.0	5.299926282010624e+17
19317.0	5.298727349998932e+17
19318.0	5.297698138401449e+17
19319.0	5.296706733561173e+17
19320.0	5.295644284900691e+17
19321.0	5.294580938659156e+17
19322.0	5.2935268569361056e+17
19323.0	5.292437938023083e+17
19324.0	5.2915767488457376e+17
19325.0	5.29016440365602e+17
19326.0	5.2895458367897594e+17
19327.0	5.288507428481706e+17
19328.0	5.2873222544861856e+17
19329.0	5.2864811874822816e+17
19330.0	5.2853975638780576e+17
19331.0	5.2843593429155834e+17
19332.0	5.283387693946196e+17
19333.0	5.282333031312042e+17
19334.0	5.2813154491214496e+17
19335.0	5.2799184921340576e+17
19336.0	5.279233883155115e+17
19337.0	5.278203641156949e+17
19338.0	5.2768823822690976e+17
19339.0	5.2761179843461114e+17
19340.0	5.274837433275732e+17
19341.0	5.2734192880626336e+17
19342.0	5.271915444830206e+17
19343.0	5.271452333550249e+17
19344.0	5.27026321620992e+17
19345.0	5.2663437076288794e+17
19346.0	5.26709617205794e+17
19347.0	5.266966603016874e+17
19348.0	5.2661735349288954e+17
19349.0	5.2650607888738976e+17
19350.0	5.263939273927338e+17
19351.0	5.2629215847819936e+17
19352.0	5.261614167796393e+17
19353.0	5.2608268521963514e+17
19354.0	5.259505322775894e+17
19355.0	5.2579287894589434e+17
19356.0	5.2569708656503456e+17
19357.0	5.2558837006554445e+17
19358.0	5.254778274359977e+17
19359.0	5.2535792969099936e+17
19360.0	5.252387640617642e+17
19361.0	5.2514253729082016e+17
19362.0	5.2503685942476794e+17
19363.0	5.2488775604196685e+17
19364.0	5.2473727615849805e+17
19365.0	5.2462454326340256e+17
19366.0	5.245111180984319e+17
19367.0	5.2439722778514765e+17
19368.0	5.242828009504767e+17
19369.0	5.241569450568362e+17
19370.0	5.2396735098170016e+17
19371.0	5.238293831264938e+17
19372.0	5.237190880307881e+17
19373.0	5.2359814835077126e+17
19374.0	5.2348088518792525e+17
19375.0	5.233612220443306e+17
19376.0	5.2324077477560314e+17
19377.0	5.2311735807945376e+17
19378.0	5.229949396276564e+17
19379.0	5.228713225136809e+17
19380.0	5.2274629212897274e+17
19381.0	5.22619286856226e+17
19382.0	5.2248242147382605e+17
19383.0	5.223481850811733e+17
19384.0	5.2223188835587405e+17
19385.0	5.2210079063080954e+17
19386.0	5.2192319911581005e+17
19387.0	5.2175049123867296e+17
19388.0	5.2161326186059085e+17
19389.0	5.214738306826239e+17
19390.0	5.213309209586345e+17
19391.0	5.19392819133369e+17
19392.0	5.2101954414837734e+17
19393.0	5.2089675743668896e+17
19394.0	5.206959698127529e+17
19395.0	5.204659360060757e+17
19396.0	5.203141832212479e+17
19397.0	5.2015985723091616e+17
19398.0	5.1998811984581965e+17
19399.0	5.196848811737086e+17
19400.0	5.19484548981282e+17
19401.0	5.193222417896788e+17
19402.0	5.191449259103573e+17
19403.0	5.188443513902421e+17
19404.0	5.185573083239764e+17
19405.0	5.1835910145529165e+17
19406.0	5.179562231070722e+17
19407.0	5.1767147586300576e+17
19408.0	5.171914214823255e+17
19409.0	5.1688036197116576e+17
19410.0	5.1637936913558163e+17
19411.0	5.1594345931516544e+17
19412.0	5.152330736118442e+17
19413.0	5.1452124681557274e+17
19414.0	5.138914098544641e+17
19415.0	5.1343639008597325e+17
19416.0	5.1307443192681805e+17
19417.0	5.1272969306330445e+17
19418.0	5.1238471875952634e+17
19419.0	5.119527085233492e+17
19420.0	5.1155739970546336e+17
19421.0	5.111444193061546e+17
19422.0	5.1070924209083725e+17
19423.0	5.101704611627007e+17
19424.0	5.0969580289392634e+17
19425.0	5.091419203742378e+17
19426.0	5.0856416094016845e+17
19427.0	5.078824219137366e+17
19428.0	5.071595040494931e+17
19429.0	5.062554836882776e+17
19430.0	5.051249287583067e+17
19431.0	5.0327854524661894e+17
19432.0	5.014081497639579e+17
19433.0	4.984542283344559e+17
19434.0	4.9675743467492685e+17
19435.0	4.9517191506165734e+17
19436.0	4.934527171777875e+17
19437.0	4.919326284272981e+17
19438.0	4.8717639674320256e+17
19439.0	4.8818580465472877e+17
19440.0	4.8628714277874336e+17
19441.0	4.843304074084351e+17
19442.0	4.822487020513962e+17
19443.0	4.799206884988248e+17
19444.0	4.7652092248063904e+17
19445.0	4.692345870090242e+17
19446.0	4.6155617422103885e+17
19447.0	4.551235963890341e+17
19448.0	4.4652264643625075e+17
19449.0	4.280420021567481e+17
19450.0	3.873199020310606e+17
19451.0	3.6588536938714906e+17
19452.0	4.125039051931661e+17
19453.0	4.386167777307311e+17
19454.0	4.510615083854504e+17
19455.0	4.5790511591587834e+17
19456.0	4.6408945561327034e+17
19457.0	4.7277922554565946e+17
19458.0	4.687345220234037e+17
19459.0	4.796289705312276e+17
19460.0	4.8178614826434554e+17
19461.0	4.836271130847914e+17
19462.0	4.8541676835525965e+17
19463.0	4.871667974493523e+17
19464.0	4.888287638454271e+17
19465.0	4.903419517774506e+17
19466.0	4.917837982334974e+17
19467.0	4.931932629849428e+17
19468.0	4.94487871754513e+17
19469.0	4.967124383214253e+17
19470.0	4.992179191676922e+17
19471.0	5.008245120128337e+17
19472.0	5.019005066674173e+17
19473.0	5.0271696548003834e+17
19474.0	5.033558328475648e+17
19475.0	5.037397619594577e+17
19476.0	5.042307401252862e+17
19477.0	5.0468168575658656e+17
19478.0	5.0497045708581536e+17
19479.0	5.052820950614015e+17
19480.0	5.0558300799194445e+17
19481.0	5.05812670812433e+17
19482.0	5.0603006424514554e+17
19483.0	5.062527701833044e+17
19484.0	5.0646363140696736e+17
19485.0	5.0662301761535994e+17
19486.0	5.0676390945969485e+17
19487.0	5.069217146950996e+17
19488.0	5.0733174593945555e+17
19489.0	5.07853161749982e+17
19490.0	5.0806337949750586e+17
19491.0	5.086225397099178e+17
19492.0	5.09006117129421e+17
19493.0	5.0912926818631674e+17
19494.0	5.094829370725717e+17
19495.0	5.0951696622987936e+17
19496.0	5.096488063467517e+17
19497.0	5.097963071558996e+17
19498.0	5.096329121016492e+17
19499.0	5.0709572273656966e+17
19500.0	5.0999214207576736e+17
19501.0	5.0998065024204794e+17
19502.0	5.0997035112857594e+17
19503.0	5.1009753661658445e+17
19504.0	5.1007075906136736e+17
19505.0	5.100399261035178e+17
19506.0	5.10008252047906e+17
19507.0	5.099685685493759e+17
19508.0	5.100106821577385e+17
19509.0	5.10003400286754e+17
19510.0	5.099248313958398e+17
19511.0	5.044957012994692e+17
19512.0	5.094368977354741e+17
19513.0	5.089807264208199e+17
19514.0	5.091793934046542e+17
19515.0	5.096217313454764e+17
19516.0	5.096542266458111e+17
19517.0	5.096596072387924e+17
19518.0	5.096070398869504e+17
19519.0	5.0954422501157536e+17
19520.0	5.094701169027754e+17
19521.0	5.094243924180992e+17
19522.0	5.0935289624221005e+17
19523.0	5.0928974183792634e+17
19524.0	5.09216567660817e+17
19525.0	5.0915672990242125e+17
19526.0	5.0908958909180576e+17
19527.0	5.09018575680307e+17
19528.0	5.089461208962388e+17
19529.0	5.088733564327253e+17
19530.0	5.088045252476928e+17
19531.0	5.087312145459881e+17
19532.0	5.0865717997731834e+17
19533.0	5.0859418782269434e+17
19534.0	5.0856011119984634e+17
19535.0	5.0851917828805965e+17
19536.0	5.084394190536703e+17
19537.0	5.0836761221966496e+17
19538.0	5.0826341452349434e+17
19539.0	5.08129236082142e+17
19540.0	5.081483481273685e+17
19541.0	5.081187877213524e+17
19542.0	5.0804000869580794e+17
19543.0	5.0794772694739616e+17
19544.0	5.078795407764138e+17
19545.0	5.077325500645373e+17
19546.0	5.0758657227707725e+17
19547.0	5.0763676047988045e+17
19548.0	5.075546585169919e+17
19549.0	5.0745893743930016e+17
19550.0	5.07402165227793e+17
19551.0	5.073615338864639e+17
19552.0	5.0727789666850125e+17
19553.0	5.0719094455227725e+17
19554.0	5.071042987600554e+17
19555.0	5.070222851571711e+17
19556.0	5.0694045107049805e+17
19557.0	5.0685613353642656e+17
19558.0	5.067710822088703e+17
19559.0	5.066861332922368e+17
19560.0	5.0659264344446285e+17
19561.0	5.0651167065811616e+17
19562.0	5.064238789820414e+17
19563.0	5.063438796936532e+17
19564.0	5.062577621740202e+17
19565.0	5.061714635303593e+17
19566.0	5.060807230488575e+17
19567.0	5.060406105429334e+17
19568.0	5.059538942864043e+17
19569.0	5.0586708869119994e+17
19570.0	5.0578312243008845e+17
19571.0	5.056951996121087e+17
19572.0	5.0560395637336736e+17
19573.0	5.0551672813213005e+17
19574.0	5.05420831592721e+17
19575.0	5.05345939218978e+17
19576.0	5.052567138598911e+17
19577.0	5.051644543412906e+17
19578.0	5.0507639457928525e+17
19579.0	5.0499047034716154e+17
19580.0	5.0490251467380045e+17
19581.0	5.0481540771785363e+17
19582.0	5.047296324534271e+17
19583.0	5.04641239384064e+17
19584.0	5.045516160554324e+17
19585.0	5.0444897402661536e+17
19586.0	5.043562910231211e+17
19587.0	5.042792371148117e+17
19588.0	5.041315416899585e+17
19589.0	5.041061486744917e+17
19590.0	5.0400323765097805e+17
19591.0	5.0393025780995405e+17
19592.0	5.0384202545233894e+17
19593.0	5.0374943213704525e+17
19594.0	5.0362956619885216e+17
19595.0	5.035706774017366e+17
19596.0	5.0345314762096634e+17
19597.0	5.0339447378193056e+17
19598.0	5.0323877373760845e+17
19599.0	5.0321728533954554e+17
19600.0	5.0312920439630496e+17
19601.0	5.0303985977917434e+17
19602.0	5.0297522108061e+17
19603.0	5.0281558601018e+17
19604.0	5.027953170361002e+17
19605.0	5.02672113340689e+17
19606.0	5.026230328535722e+17
19607.0	5.0253468060876794e+17
19608.0	5.024426305257471e+17
19609.0	5.0234805882716154e+17
19610.0	5.0225901976507725e+17
19611.0	5.021651083198462e+17
19612.0	5.0208648322525856e+17
19613.0	5.019953460325034e+17
19614.0	5.019017477619711e+17
19615.0	5.0181691852281165e+17
19616.0	5.0170506314601805e+17
19617.0	5.016263761155413e+17
19618.0	5.014636549461332e+17
19619.0	5.013515898541395e+17
19620.0	5.0126693027457696e+17
19621.0	5.0126449289461766e+17
19622.0	5.0118859283933856e+17
19623.0	5.0109801726388896e+17
19624.0	5.010055062268587e+17
19625.0	5.009189049641642e+17
19626.0	5.008283179941887e+17
19627.0	5.007384400713045e+17
19628.0	5.006182102772394e+17
19629.0	5.0051212088005965e+17
19630.0	5.0039297943797766e+17
19631.0	4.99052993262387e+17
19632.0	5.002836060405759e+17
19633.0	5.0019090667929594e+17
19634.0	5.0010929377225376e+17
19635.0	5.000129627029504e+17
19636.0	4.9991433651049805e+17
19637.0	4.9978122607875405e+17
19638.0	4.9974723131473914e+17
19639.0	4.9965868396489376e+17
19640.0	4.995566947095893e+17
19641.0	4.993095313653764e+17
19642.0	4.993882232892074e+17
19643.0	4.992975626392917e+17
19644.0	4.9920189783517856e+17
19645.0	4.9908090908180474e+17
19646.0	4.9901496441678496e+17
19647.0	4.9894067399557114e+17
19648.0	4.9885074993534285e+17
19649.0	4.987603889684479e+17
19650.0	4.98671324111394e+17
19651.0	4.9858084074072736e+17
19652.0	4.9849068291795616e+17
19653.0	4.9840093956232525e+17
19654.0	4.983109655199743e+17
19655.0	4.982205694607359e+17
