# Flux units: erg / (cm m2 s)
# Wavelength units: Angstrom
wave	flux
19000.0	6.690617648917161e+17
19001.0	6.688945080718676e+17
19002.0	6.688135986894163e+17
19003.0	6.686866725492052e+17
19004.0	6.685611276632063e+17
19005.0	6.684350378672127e+17
19006.0	6.683108933894143e+17
19007.0	6.68161431114001e+17
19008.0	6.680336277351081e+17
19009.0	6.678940333288105e+17
19010.0	6.676117078758738e+17
19011.0	6.676698010834259e+17
19012.0	6.674822030775635e+17
19013.0	6.674335118917631e+17
19014.0	6.672828894718633e+17
19015.0	6.671681331746132e+17
19016.0	6.67037521289762e+17
19017.0	6.66918624375603e+17
19018.0	6.668014972480168e+17
19019.0	6.666786523054079e+17
19020.0	6.665434931658751e+17
19021.0	6.664282433388541e+17
19022.0	6.663073000936788e+17
19023.0	6.661661618339837e+17
19024.0	6.660496923732649e+17
19025.0	6.659278625920339e+17
19026.0	6.657932916337321e+17
19027.0	6.656380574367743e+17
19028.0	6.655578239664127e+17
19029.0	6.654253392549204e+17
19030.0	6.653125023410858e+17
19031.0	6.651901961568255e+17
19032.0	6.650639696265215e+17
19033.0	6.648976640049151e+17
19034.0	6.648069975528787e+17
19035.0	6.646718228944212e+17
19036.0	6.610861056939347e+17
19037.0	6.644337126757716e+17
19038.0	6.643041436347049e+17
19039.0	6.641880104173568e+17
19040.0	6.64064997003537e+17
19041.0	6.639369272863401e+17
19042.0	6.637749891934889e+17
19043.0	6.636900221714432e+17
19044.0	6.635610067085993e+17
19045.0	6.634399679731028e+17
19046.0	6.632884142779049e+17
19047.0	6.631829308877481e+17
19048.0	6.629743284365993e+17
19049.0	6.629096725413887e+17
19050.0	6.627949725876224e+17
19051.0	6.621603907502071e+17
19052.0	6.624653746722131e+17
19053.0	6.624362620780543e+17
19054.0	6.623137056336554e+17
19055.0	6.620790771766615e+17
19056.0	6.620567749438121e+17
19057.0	6.619395010854911e+17
19058.0	6.618069067628543e+17
19059.0	6.616930177777661e+17
19060.0	6.615598454800383e+17
19061.0	6.614457780273151e+17
19062.0	6.613185861779455e+17
19063.0	6.611953057267711e+17
19064.0	6.610121723478015e+17
19065.0	6.60867565888034e+17
19066.0	6.607959436733097e+17
19067.0	6.606909608733353e+17
19068.0	6.605718887071743e+17
19069.0	6.604485578544467e+17
19070.0	6.603111971946495e+17
19071.0	6.601964852871168e+17
19072.0	6.600748106252287e+17
19073.0	6.599477625006761e+17
19074.0	6.598274565799933e+17
19075.0	6.597030461134164e+17
19076.0	6.595693897930067e+17
19077.0	6.594480910805673e+17
19078.0	6.593094415810559e+17
19079.0	6.592032390075731e+17
19080.0	6.590725175115776e+17
19081.0	6.589373624265385e+17
19082.0	6.588110020280319e+17
19083.0	6.586574538713769e+17
19084.0	6.584779324872022e+17
19085.0	6.584526309075626e+17
19086.0	6.58163891175424e+17
19087.0	6.581000571540822e+17
19088.0	6.580473343333716e+17
19089.0	6.578272152322048e+17
19090.0	6.578234593028778e+17
19091.0	6.576989929821524e+17
19092.0	6.575400565429587e+17
19093.0	6.574630369580371e+17
19094.0	6.573387214924457e+17
19095.0	6.572161498087423e+17
19096.0	6.570844385269075e+17
19097.0	6.569671594257065e+17
19098.0	6.568422841603412e+17
19099.0	6.567174078464e+17
19100.0	6.5658870576797e+17
19101.0	6.564689849526953e+17
19102.0	6.563044794564605e+17
19103.0	6.562211940706985e+17
19104.0	6.561004039176192e+17
19105.0	6.5597342234269e+17
19106.0	6.558320343820969e+17
19107.0	6.557192878555135e+17
19108.0	6.556037347104084e+17
19109.0	6.551684138401787e+17
19110.0	6.553473702516052e+17
19111.0	6.552312494074538e+17
19112.0	6.551083854506666e+17
19113.0	6.549839389130751e+17
19114.0	6.548583668340052e+17
19115.0	6.547099156654762e+17
19116.0	6.5460306458269e+17
19117.0	6.544774343426047e+17
19118.0	6.543140123049983e+17
19119.0	6.526353480351722e+17
19120.0	6.540823036428287e+17
19121.0	6.539722325928617e+17
19122.0	6.538707563708413e+17
19123.0	6.537449510884692e+17
19124.0	6.536051517904212e+17
19125.0	6.534944868270079e+17
19126.0	6.533718234278569e+17
19127.0	6.524883727024125e+17
19128.0	6.529552449448616e+17
19129.0	6.529681563407699e+17
19130.0	6.5287109490333e+17
19131.0	6.527506617554259e+17
19132.0	6.526316192290134e+17
19133.0	6.523777583502678e+17
19134.0	6.523083902943232e+17
19135.0	6.522596116572842e+17
19136.0	6.521399180350804e+17
19137.0	6.519450007590227e+17
19138.0	6.518771453089108e+17
19139.0	6.517682626450772e+17
19140.0	6.516460198647123e+17
19141.0	6.515224409888084e+17
19142.0	6.513863707066367e+17
19143.0	6.512498006731433e+17
19144.0	6.511332775253331e+17
19145.0	6.510254610535764e+17
19146.0	6.506430020452355e+17
19147.0	6.507354076654249e+17
19148.0	6.506551812554751e+17
19149.0	6.50530623988258e+17
19150.0	6.50406602333662e+17
19151.0	6.502857378714963e+17
19152.0	6.50157938127667e+17
19153.0	6.500323057904297e+17
19154.0	6.498613216324265e+17
19155.0	6.497942263999146e+17
19156.0	6.496705921591976e+17
19157.0	6.495415132225535e+17
19158.0	6.492065874225832e+17
19159.0	6.492928932664659e+17
19160.0	6.491674700851882e+17
19161.0	6.490386854488746e+17
19162.0	6.484468393749165e+17
19163.0	6.487943919173632e+17
19164.0	6.486858159969619e+17
19165.0	6.485494295341738e+17
19166.0	6.483801295290367e+17
19167.0	6.482700616947027e+17
19168.0	6.481670411299497e+17
19169.0	6.480461424842068e+17
19170.0	6.47946370687522e+17
19171.0	6.47792850562799e+17
19172.0	6.476963203339604e+17
19173.0	6.475763844907007e+17
19174.0	6.474281100421802e+17
19175.0	6.473312867713023e+17
19176.0	6.472065764818943e+17
19177.0	6.470182897713151e+17
19178.0	6.469508122279936e+17
19179.0	6.467984651102889e+17
19180.0	6.466957831656788e+17
19181.0	6.46546251194914e+17
19182.0	6.464529282804393e+17
19183.0	6.463444188397567e+17
19184.0	6.461996174846633e+17
19185.0	6.460939638057642e+17
19186.0	6.459771872520874e+17
19187.0	6.4581968344733e+17
19188.0	6.457282353867433e+17
19189.0	6.456013051920383e+17
19190.0	6.454770494253737e+17
19191.0	6.453448296540841e+17
19192.0	6.452386883873449e+17
19193.0	6.451063185298772e+17
19194.0	6.449820232668502e+17
19195.0	6.448679524586836e+17
19196.0	6.447391391612927e+17
19197.0	6.446186846224383e+17
19198.0	6.444931327459327e+17
19199.0	6.416009351834275e+17
19200.0	6.42327678812161e+17
19201.0	6.441262053152084e+17
19202.0	6.440088506466304e+17
19203.0	6.438801769496575e+17
19204.0	6.437511754678271e+17
19205.0	6.436353719227732e+17
19206.0	6.435087134490623e+17
19207.0	6.433454443637417e+17
19208.0	6.431829478692178e+17
19209.0	6.431413803592362e+17
19210.0	6.430208888406015e+17
19211.0	6.429037497592489e+17
19212.0	6.427799483755178e+17
19213.0	6.426012676696744e+17
19214.0	6.424541190422528e+17
19215.0	6.424009172320255e+17
19216.0	6.422857779249151e+17
19217.0	6.421626247708671e+17
19218.0	6.41679358531993e+17
19219.0	6.418508661391359e+17
19220.0	6.417843439883604e+17
19221.0	6.41528009588736e+17
19222.0	6.41546373370129e+17
19223.0	6.414164764043946e+17
19224.0	6.412786989705897e+17
19225.0	6.411122769570472e+17
19226.0	6.410462852459177e+17
19227.0	6.409229673955328e+17
19228.0	6.408103890605395e+17
19229.0	6.406873502711805e+17
19230.0	6.405542481581396e+17
19231.0	6.404313352678057e+17
19232.0	6.403101916048042e+17
19233.0	6.401628257124351e+17
19234.0	6.400601304159571e+17
19235.0	6.399321157140479e+17
19236.0	6.398253045470548e+17
19237.0	6.396936266099369e+17
19238.0	6.395355980278442e+17
19239.0	6.394558645185193e+17
19240.0	6.392853752883881e+17
19241.0	6.391836016203091e+17
19242.0	6.390755262900905e+17
19243.0	6.388845765459965e+17
19244.0	6.38838268633634e+17
19245.0	6.387126253912063e+17
19246.0	6.385830254521001e+17
19247.0	6.384621277151231e+17
19248.0	6.383435758523732e+17
19249.0	6.38217879621905e+17
19250.0	6.380876064970068e+17
19251.0	6.379115468816381e+17
19252.0	6.377259840219818e+17
19253.0	6.377140031324159e+17
19254.0	6.375937825658195e+17
19255.0	6.373976023149225e+17
19256.0	6.37328902131985e+17
19257.0	6.372271155314687e+17
19258.0	6.371039033775444e+17
19259.0	6.369487815879337e+17
19260.0	6.367875777079976e+17
19261.0	6.367248254675625e+17
19262.0	6.365810856209066e+17
19263.0	6.364551443731795e+17
19264.0	6.36122584999526e+17
19265.0	6.361482404386132e+17
19266.0	6.360319696480938e+17
19267.0	6.359847222116351e+17
19268.0	6.358566506070015e+17
19269.0	6.357316859330559e+17
19270.0	6.356079468347391e+17
19271.0	6.353357434956461e+17
19272.0	6.353423832186879e+17
19273.0	6.339177582253384e+17
19274.0	6.343371108909046e+17
19275.0	6.349835510043988e+17
19276.0	6.348494556801706e+17
19277.0	6.347246298376873e+17
19278.0	6.346007536555348e+17
19279.0	6.344602286030847e+17
19280.0	6.343108290325162e+17
19281.0	6.342206417797119e+17
19282.0	6.341022285387091e+17
19283.0	6.339299904935252e+17
19284.0	6.337839654502397e+17
19285.0	6.336321793206952e+17
19286.0	6.33580643627827e+17
19287.0	6.334730591709865e+17
19288.0	6.323256421602632e+17
19289.0	6.310192675990153e+17
19290.0	6.330929955296598e+17
19291.0	6.328499818201089e+17
19292.0	6.328375039055188e+17
19293.0	6.327073065577129e+17
19294.0	6.325781993095167e+17
19295.0	6.324552288873129e+17
19296.0	6.322829622509567e+17
19297.0	6.321255692457299e+17
19298.0	6.319977367164244e+17
19299.0	6.318817970662057e+17
19300.0	6.317524469678079e+17
19301.0	6.316213718919849e+17
19302.0	6.314859624224084e+17
19303.0	6.313297825497087e+17
19304.0	6.312155600475476e+17
19305.0	6.310964423032831e+17
19306.0	6.309689953004202e+17
19307.0	6.308193799329108e+17
19308.0	6.306969410688339e+17
19309.0	6.304760864265556e+17
19310.0	6.303064480808956e+17
19311.0	6.302941745687209e+17
19312.0	6.301817974904148e+17
19313.0	6.300466445724329e+17
19314.0	6.275196394668049e+17
19315.0	6.275042528023914e+17
19316.0	6.296508729131005e+17
19317.0	6.295221166582442e+17
19318.0	6.293868441326931e+17
19319.0	6.29259332747264e+17
19320.0	6.291239487930365e+17
19321.0	6.289911235739647e+17
19322.0	6.288090175897599e+17
19323.0	6.286730976733866e+17
19324.0	6.285814857553236e+17
19325.0	6.283570009429331e+17
19326.0	6.283106408114857e+17
19327.0	6.281688183209983e+17
19328.0	6.280382448839338e+17
19329.0	6.279016663919273e+17
19330.0	6.277454728178345e+17
19331.0	6.276045377721684e+17
19332.0	6.27481518416418e+17
19333.0	6.27335670722287e+17
19334.0	6.271992339977556e+17
19335.0	6.270601000561322e+17
19336.0	6.269177566330879e+17
19337.0	6.267757758076243e+17
19338.0	6.265419923630761e+17
19339.0	6.264891874738176e+17
19340.0	6.263129504393898e+17
19341.0	6.261891492653738e+17
19342.0	6.258794171116198e+17
19343.0	6.259064515679572e+17
19344.0	6.257543084332372e+17
19345.0	6.247936127489349e+17
19346.0	6.250770303287291e+17
19347.0	6.252831800208041e+17
19348.0	6.251630627738963e+17
19349.0	6.249953314384553e+17
19350.0	6.248455016022015e+17
19351.0	6.246884743402835e+17
19352.0	6.24516741079586e+17
19353.0	6.243956843784873e+17
19354.0	6.242389706407936e+17
19355.0	6.240374925645142e+17
19356.0	6.239210427471188e+17
19357.0	6.237592789275988e+17
19358.0	6.235827735975252e+17
19359.0	6.233640723109206e+17
19360.0	6.232500478498132e+17
19361.0	6.230880358673065e+17
19362.0	6.228702592150185e+17
19363.0	6.226815696415402e+17
19364.0	6.225097018834944e+17
19365.0	6.223360304349183e+17
19366.0	6.221632435650559e+17
19367.0	6.219874911824553e+17
19368.0	6.21810298196241e+17
19369.0	6.215845186022057e+17
19370.0	6.21296312385536e+17
19371.0	6.212415803533993e+17
19372.0	6.21078184600098e+17
19373.0	6.208784975615315e+17
19374.0	6.206957493594793e+17
19375.0	6.205043023806463e+17
19376.0	6.20309438861585e+17
19377.0	6.201057437461161e+17
19378.0	6.199061510793897e+17
19379.0	6.196623361179645e+17
19380.0	6.193722045060435e+17
19381.0	6.191586583685802e+17
19382.0	6.189142312484863e+17
19383.0	6.186786306916351e+17
19384.0	6.185063058243583e+17
19385.0	6.182811002907306e+17
19386.0	6.180528591994879e+17
19387.0	6.178177969116499e+17
19388.0	6.175301440634879e+17
19389.0	6.171741386003796e+17
19390.0	6.169239518620329e+17
19391.0	6.136643471103276e+17
19392.0	6.163375431439697e+17
19393.0	6.16144675414562e+17
19394.0	6.157579097647785e+17
19395.0	6.153786268232362e+17
19396.0	6.150929869613738e+17
19397.0	6.148086402733395e+17
19398.0	6.143962852447571e+17
19399.0	6.136389044622676e+17
19400.0	6.135660844242259e+17
19401.0	6.131811690916525e+17
19402.0	6.126096219111424e+17
19403.0	6.122479762975401e+17
19404.0	6.116118216660305e+17
19405.0	6.111315443580927e+17
19406.0	6.104436358600023e+17
19407.0	6.098976266780672e+17
19408.0	6.08687555573624e+17
19409.0	6.082468669729452e+17
19410.0	6.074235474673667e+17
19411.0	6.066511950468435e+17
19412.0	6.061202997597524e+17
19413.0	6.05572077593122e+17
19414.0	6.049829416686932e+17
19415.0	6.043907403371859e+17
19416.0	6.036400768723626e+17
19417.0	6.030087143030781e+17
19418.0	6.023725647746388e+17
19419.0	6.016584257284778e+17
19420.0	6.009257046573055e+17
19421.0	6.000783429817684e+17
19422.0	5.992223648077139e+17
19423.0	5.983816090211667e+17
19424.0	5.97369418748177e+17
19425.0	5.963948915075754e+17
19426.0	5.95222923068484e+17
19427.0	5.940093249039017e+17
19428.0	5.92669031006208e+17
19429.0	5.910967981790542e+17
19430.0	5.892049101739348e+17
19431.0	5.864978366769833e+17
19432.0	5.84171082743807e+17
19433.0	5.807558420507304e+17
19434.0	5.784181469959508e+17
19435.0	5.761429621702653e+17
19436.0	5.735982541657427e+17
19437.0	5.712434069940905e+17
19438.0	5.646784128876557e+17
19439.0	5.652986065147225e+17
19440.0	5.6208274087389875e+17
19441.0	5.582472509128699e+17
19442.0	5.531964617173681e+17
19443.0	5.4594010824922374e+17
19444.0	5.389816069881852e+17
19445.0	5.321893937326765e+17
19446.0	5.239544604175019e+17
19447.0	5.120303334861473e+17
19448.0	4.978111005327366e+17
19449.0	4.773009366362791e+17
19450.0	4.4032115504141446e+17
19451.0	4.296720467536544e+17
19452.0	4.599732097078621e+17
19453.0	4.890286136229895e+17
19454.0	5.0472611643828896e+17
19455.0	5.1809478089113594e+17
19456.0	5.2753342632645997e+17
19457.0	5.346851709867346e+17
19458.0	5.372662361970054e+17
19459.0	5.483118831424869e+17
19460.0	5.5424195413497114e+17
19461.0	5.583450203488256e+17
19462.0	5.616944387107498e+17
19463.0	5.646549362496851e+17
19464.0	5.6731897660702714e+17
19465.0	5.697476611451562e+17
19466.0	5.7194835680952294e+17
19467.0	5.740857449775103e+17
19468.0	5.7598649009438726e+17
19469.0	5.785976314702506e+17
19470.0	5.817620254512471e+17
19471.0	5.84023846735053e+17
19472.0	5.858332073350481e+17
19473.0	5.872514086120102e+17
19474.0	5.884677118230527e+17
19475.0	5.892408620701009e+17
19476.0	5.904662901293055e+17
19477.0	5.912926807042729e+17
19478.0	5.920942446346237e+17
19479.0	5.927787414159359e+17
19480.0	5.933731992829951e+17
19481.0	5.94016235369267e+17
19482.0	5.945715720541523e+17
19483.0	5.95077027139857e+17
19484.0	5.955356588332372e+17
19485.0	5.959559374613161e+17
19486.0	5.964015396192255e+17
19487.0	5.968251316775593e+17
19488.0	5.971859236803924e+17
19489.0	5.974699708252159e+17
19490.0	5.972833593895588e+17
19491.0	5.982015996996262e+17
19492.0	5.986939503815334e+17
19493.0	5.99466844496418e+17
19494.0	5.999275708252156e+17
19495.0	6.003482759441065e+17
19496.0	6.00677792140492e+17
19497.0	6.010918602626388e+17
19498.0	6.01042481700318e+17
19499.0	5.970758959016604e+17
19500.0	6.01876172880828e+17
19501.0	6.022507064721407e+17
19502.0	6.023432259676841e+17
19503.0	6.024544821182463e+17
19504.0	6.027391175841107e+17
19505.0	6.028426938941437e+17
19506.0	6.029062666802516e+17
19507.0	6.029482228624042e+17
19508.0	6.031204126730925e+17
19509.0	6.032360571142143e+17
19510.0	6.031848791954772e+17
19511.0	5.98291578145995e+17
19512.0	6.025094983144782e+17
19513.0	6.019015844211351e+17
19514.0	6.024310946791411e+17
19515.0	6.03274481412779e+17
19516.0	6.034954736981334e+17
19517.0	6.034746335996586e+17
19518.0	6.034928923836415e+17
19519.0	6.034781675803988e+17
19520.0	6.034521208127487e+17
19521.0	6.034480317857791e+17
19522.0	6.034092151799807e+17
19523.0	6.034021056948905e+17
19524.0	6.034741039289684e+17
19525.0	6.034461638524927e+17
19526.0	6.034225548143274e+17
19527.0	6.03382088798481e+17
19528.0	6.033444732316329e+17
19529.0	6.033010698747904e+17
19530.0	6.032617068210858e+17
19531.0	6.032181930841427e+17
19532.0	6.031691611111423e+17
19533.0	6.0312047859357e+17
19534.0	6.030668518304425e+17
19535.0	6.03005542081058e+17
19536.0	6.029408534003711e+17
19537.0	6.028994582063786e+17
19538.0	6.027901137496748e+17
19539.0	6.025534660848302e+17
19540.0	6.027047179299498e+17
19541.0	6.026527358932308e+17
19542.0	6.025854732380841e+17
19543.0	6.025172314226687e+17
19544.0	6.025062798153044e+17
19545.0	6.022517254083922e+17
19546.0	6.02019807240738e+17
19547.0	6.023212322957993e+17
19548.0	6.022476922355712e+17
19549.0	6.021302787069268e+17
19550.0	6.020989020274688e+17
19551.0	6.020237270275412e+17
19552.0	6.019455782660777e+17
19553.0	6.018566353234602e+17
19554.0	6.017707189906089e+17
19555.0	6.017017176566441e+17
19556.0	6.016262541585065e+17
19557.0	6.015434596461226e+17
19558.0	6.01460300648721e+17
19559.0	6.013730094230186e+17
19560.0	6.012820540533417e+17
19561.0	6.011963864427178e+17
19562.0	6.011203225998675e+17
19563.0	6.010374061031423e+17
19564.0	6.009497093581481e+17
19565.0	6.008611384502953e+17
19566.0	6.007603891710633e+17
19567.0	6.006852056427178e+17
19568.0	6.005827437592575e+17
19569.0	6.004961031400105e+17
19570.0	6.004151843902804e+17
19571.0	6.003223580114943e+17
19572.0	6.002176390332415e+17
19573.0	6.001308878241791e+17
19574.0	6.000086690212521e+17
19575.0	5.99954440655121e+17
19576.0	5.99861541015825e+17
19577.0	5.997499602960383e+17
19578.0	5.99654093955618e+17
19579.0	5.9956762537274e+17
19580.0	5.994727834211668e+17
19581.0	5.993834939591338e+17
19582.0	5.992949712158717e+17
19583.0	5.99198965694464e+17
19584.0	5.990977915322367e+17
19585.0	5.989575556071423e+17
19586.0	5.988449920221184e+17
19587.0	5.987912389405353e+17
19588.0	5.985070566692184e+17
19589.0	5.986026422708906e+17
19590.0	5.98477889479202e+17
19591.0	5.984156305588224e+17
19592.0	5.983198006389417e+17
19593.0	5.982123243951444e+17
19594.0	5.980174675869693e+17
19595.0	5.980013357345449e+17
19596.0	5.975537708520792e+17
19597.0	5.978032737091584e+17
19598.0	5.975784701995688e+17
19599.0	5.976202507102889e+17
19600.0	5.97522695393553e+17
19601.0	5.973926596662614e+17
19602.0	5.972983978568362e+17
19603.0	5.970061254721532e+17
19604.0	5.97089912356864e+17
19605.0	5.968857660041898e+17
19606.0	5.969112909305174e+17
19607.0	5.968113967999657e+17
19608.0	5.967045787822761e+17
19609.0	5.965846793595561e+17
19610.0	5.965075526101674e+17
19611.0	5.964009426998611e+17
19612.0	5.963041690615808e+17
19613.0	5.961964387827711e+17
19614.0	5.960805724629673e+17
19615.0	5.959942745183572e+17
19616.0	5.958664282177535e+17
19617.0	5.957878637308586e+17
19618.0	5.954389029508433e+17
19619.0	5.952859547893755e+17
19620.0	5.951902381157033e+17
19621.0	5.953718995735892e+17
19622.0	5.952719692322131e+17
19623.0	5.951692469523795e+17
19624.0	5.950610550904148e+17
19625.0	5.949611715155284e+17
19626.0	5.948525257599657e+17
19627.0	5.947528639938559e+17
19628.0	5.9457573734755e+17
19629.0	5.945033930833919e+17
19630.0	5.942461882258774e+17
19631.0	5.913417496570542e+17
19632.0	5.94226674086707e+17
19633.0	5.941041579775316e+17
19634.0	5.940217429098496e+17
19635.0	5.938996823719935e+17
19636.0	5.938069255487487e+17
19637.0	5.935378650016428e+17
19638.0	5.93597062849058e+17
19639.0	5.934892913262591e+17
19640.0	5.933443838552748e+17
19641.0	5.929748380603739e+17
19642.0	5.931778577530879e+17
19643.0	5.93068221932066e+17
19644.0	5.929441952443049e+17
19645.0	5.92748045611827e+17
19646.0	5.927610831863805e+17
19647.0	5.926567035273215e+17
19648.0	5.92549277545267e+17
19649.0	5.924423873156438e+17
19650.0	5.923399220068351e+17
19651.0	5.922320856820393e+17
19652.0	5.921250129302868e+17
19653.0	5.920214160681642e+17
19654.0	5.919126486777855e+17
19655.0	5.918044789058218e+17
19656.0	5.91702678114577e+17
19657.0	5.915969304832681e+17
19658.0	5.914933889160534e+17
19659.0	5.913872707878911e+17
19660.0	5.912833068542633e+17
19661.0	5.911754297049087e+17
19662.0	5.910715033802067e+17
19663.0	5.909432412842666e+17
19664.0	5.908445407827284e+17
19665.0	5.90753670767138e+17
