# Flux units: erg / (cm m2 s)
# Wavelength units: Angstrom
wave	flux
19000.0	6.85829078908928e+17
19001.0	6.856958055284736e+17
19002.0	6.855778835103743e+17
19003.0	6.854515781271551e+17
19004.0	6.853255340490751e+17
19005.0	6.851998815092736e+17
19006.0	6.850743862558719e+17
19007.0	6.849467102440105e+17
19008.0	6.848195274123945e+17
19009.0	6.846839131908778e+17
19010.0	6.845470820619603e+17
19011.0	6.844372356868778e+17
19012.0	6.842890036707327e+17
19013.0	6.841923153865385e+17
19014.0	6.840630658815316e+17
19015.0	6.839387484585983e+17
19016.0	6.838141162531498e+17
19017.0	6.836902641882452e+17
19018.0	6.835634433949695e+17
19019.0	6.834382644619946e+17
19020.0	6.833114935809363e+17
19021.0	6.831871375704061e+17
19022.0	6.830607905936726e+17
19023.0	6.82931905573683e+17
19024.0	6.828069904624297e+17
19025.0	6.826782021211475e+17
19026.0	6.825474511252137e+17
19027.0	6.824062397448191e+17
19028.0	6.823013356579497e+17
19029.0	6.821765768544255e+17
19030.0	6.820527529612627e+17
19031.0	6.819257638365865e+17
19032.0	6.817971595553449e+17
19033.0	6.816589014543018e+17
19034.0	6.815213419844948e+17
19035.0	6.812622649993897e+17
19036.0	6.795526146097151e+17
19037.0	6.810466435203071e+17
19038.0	6.810201949383337e+17
19039.0	6.80911911920162e+17
19040.0	6.807914183742803e+17
19041.0	6.806673730218665e+17
19042.0	6.805194740334591e+17
19043.0	6.804184370249727e+17
19044.0	6.802920027368106e+17
19045.0	6.801653341967699e+17
19046.0	6.800382492322474e+17
19047.0	6.799104206875305e+17
19048.0	6.797741500574378e+17
19049.0	6.796167797014527e+17
19050.0	6.795097866414761e+17
19051.0	6.791677382841684e+17
19052.0	6.791547274832553e+17
19053.0	6.791445792948223e+17
19054.0	6.7903127828125e+17
19055.0	6.788847376181932e+17
19056.0	6.787809480278015e+17
19057.0	6.786593183847764e+17
19058.0	6.785160105514323e+17
19059.0	6.784025950333609e+17
19060.0	6.782830728183807e+17
19061.0	6.781583772090367e+17
19062.0	6.780326191824895e+17
19063.0	6.779066982072319e+17
19064.0	6.777751790245204e+17
19065.0	6.776431778463743e+17
19066.0	6.775195927489194e+17
19067.0	6.774048300903081e+17
19068.0	6.772799495820627e+17
19069.0	6.771544822906879e+17
19070.0	6.770275253922473e+17
19071.0	6.769021489774591e+17
19072.0	6.767714304873812e+17
19073.0	6.766524667439786e+17
19074.0	6.765271586963455e+17
19075.0	6.764016191231316e+17
19076.0	6.762753352007679e+17
19077.0	6.761492842719914e+17
19078.0	6.760231872058708e+17
19079.0	6.758995496796159e+17
19080.0	6.757730161961641e+17
19081.0	6.756446995043668e+17
19082.0	6.755209446774099e+17
19083.0	6.753881451834025e+17
19084.0	6.752521380954111e+17
19085.0	6.751420065076563e+17
19086.0	6.749710233982291e+17
19087.0	6.748567724447059e+17
19088.0	6.747370695251284e+17
19089.0	6.746138825370281e+17
19090.0	6.74507904987955e+17
19091.0	6.74385754132753e+17
19092.0	6.742450961907711e+17
19093.0	6.741416157205844e+17
19094.0	6.740184304102057e+17
19095.0	6.738940950216704e+17
19096.0	6.737687278343507e+17
19097.0	6.736441613396649e+17
19098.0	6.735118878812841e+17
19099.0	6.733853834783401e+17
19100.0	6.732647598391296e+17
19101.0	6.731413574735187e+17
19102.0	6.730127711578794e+17
19103.0	6.728928309805055e+17
19104.0	6.727674549851476e+17
19105.0	6.726240850061994e+17
19106.0	6.725112019550207e+17
19107.0	6.723804054508884e+17
19108.0	6.722418681490089e+17
19109.0	6.720660630579881e+17
19110.0	6.719802313801727e+17
19111.0	6.718775952233812e+17
19112.0	6.717587181622612e+17
19113.0	6.716417166540799e+17
19114.0	6.715132363844265e+17
19115.0	6.713854558644906e+17
19116.0	6.712651481262761e+17
19117.0	6.711389180308136e+17
19118.0	6.709984067496617e+17
19119.0	6.705841514916517e+17
19120.0	6.707454623263401e+17
19121.0	6.706289210032127e+17
19122.0	6.70518035489314e+17
19123.0	6.703945716771497e+17
19124.0	6.702553196658687e+17
19125.0	6.701429277676884e+17
19126.0	6.700091728112297e+17
19127.0	6.698045754310655e+17
19128.0	6.697478520132947e+17
19129.0	6.696380748442281e+17
19130.0	6.695206606165332e+17
19131.0	6.693976014148948e+17
19132.0	6.692729141941588e+17
19133.0	6.691438328807423e+17
19134.0	6.690181449689769e+17
19135.0	6.688988439336275e+17
19136.0	6.687738320038569e+17
19137.0	6.686428842950655e+17
19138.0	6.685234977658195e+17
19139.0	6.684009147574953e+17
19140.0	6.682767363757395e+17
19141.0	6.681522134319103e+17
19142.0	6.680249366478847e+17
19143.0	6.679004589326335e+17
19144.0	6.677749179613183e+17
19145.0	6.676535899586559e+17
19146.0	6.674812783034368e+17
19147.0	6.674003582255101e+17
19148.0	6.672735686098943e+17
19149.0	6.671477418666666e+17
19150.0	6.670304964597076e+17
19151.0	6.669058982980265e+17
19152.0	6.667781856559103e+17
19153.0	6.666417322939731e+17
19154.0	6.665234716557311e+17
19155.0	6.664018117438121e+17
19156.0	6.66274586829346e+17
19157.0	6.661340872922452e+17
19158.0	6.659862167551999e+17
19159.0	6.658886589917866e+17
19160.0	6.657671792252242e+17
19161.0	6.656262384473428e+17
19162.0	6.654121534117204e+17
19163.0	6.653517773144061e+17
19164.0	6.652700569632765e+17
19165.0	6.651398225657855e+17
19166.0	6.650236708934995e+17
19167.0	6.648991198478335e+17
19168.0	6.647824469633705e+17
19169.0	6.646617517413716e+17
19170.0	6.645385592307711e+17
19171.0	6.644123839408809e+17
19172.0	6.642890007991636e+17
19173.0	6.641673417960105e+17
19174.0	6.640419372793855e+17
19175.0	6.639201622338217e+17
19176.0	6.637959414895955e+17
19177.0	6.636588178079743e+17
19178.0	6.635420118242644e+17
19179.0	6.634161440467625e+17
19180.0	6.632957804543999e+17
19181.0	6.631661784181417e+17
19182.0	6.630457060534953e+17
19183.0	6.62924438868241e+17
19184.0	6.628000040047955e+17
19185.0	6.626749235680595e+17
19186.0	6.625508644443476e+17
19187.0	6.624199730091348e+17
19188.0	6.62300399833361e+17
19189.0	6.621746645958655e+17
19190.0	6.620476745624234e+17
19191.0	6.619188224677204e+17
19192.0	6.617944488411133e+17
19193.0	6.616631063085055e+17
19194.0	6.615283103956991e+17
19195.0	6.613933930577919e+17
19196.0	6.612404269307219e+17
19197.0	6.610551348832937e+17
19198.0	6.607540710277119e+17
19199.0	6.599639902628521e+17
19200.0	6.599226690284201e+17
19201.0	6.604041285708458e+17
19202.0	6.604418547974141e+17
19203.0	6.603705264635903e+17
19204.0	6.602758354370559e+17
19205.0	6.601664728050345e+17
19206.0	6.600511137862996e+17
19207.0	6.599219483770879e+17
19208.0	6.5980099212957e+17
19209.0	6.596891050158761e+17
19210.0	6.595671941447679e+17
19211.0	6.594444552481449e+17
19212.0	6.593194600955903e+17
19213.0	6.591833001252179e+17
19214.0	6.59058688262144e+17
19215.0	6.589442467474089e+17
19216.0	6.588241559246163e+17
19217.0	6.586968963372372e+17
19218.0	6.585406946541568e+17
19219.0	6.584355751897769e+17
19220.0	6.583264900109652e+17
19221.0	6.581940257816575e+17
19222.0	6.580788146121385e+17
19223.0	6.579575285525161e+17
19224.0	6.578308662340265e+17
19225.0	6.577052103387817e+17
19226.0	6.575852282882729e+17
19227.0	6.574615364457812e+17
19228.0	6.573396492025855e+17
19229.0	6.572152945901568e+17
19230.0	6.570904985272319e+17
19231.0	6.569654929588223e+17
19232.0	6.568413461741565e+17
19233.0	6.567122134805162e+17
19234.0	6.565923416003923e+17
19235.0	6.564662999689897e+17
19236.0	6.563440421590355e+17
19237.0	6.562164582121471e+17
19238.0	6.560855293078186e+17
19239.0	6.559679744311295e+17
19240.0	6.558436077950291e+17
19241.0	6.557174237670057e+17
19242.0	6.555931771579049e+17
19243.0	6.554568746511017e+17
19244.0	6.553450707943423e+17
19245.0	6.552196681651539e+17
19246.0	6.550946054843049e+17
19247.0	6.54970242273553e+17
19248.0	6.548449740718079e+17
19249.0	6.54718794867234e+17
19250.0	6.545910616031231e+17
19251.0	6.544606148340393e+17
19252.0	6.543213617042772e+17
19253.0	6.542184118135466e+17
19254.0	6.540948640453972e+17
19255.0	6.539539464060927e+17
19256.0	6.538428145467391e+17
19257.0	6.537187241754623e+17
19258.0	6.535928866668543e+17
19259.0	6.534584916596052e+17
19260.0	6.533005468936872e+17
19261.0	6.532118016425983e+17
19262.0	6.530832927817728e+17
19263.0	6.529537098295977e+17
19264.0	6.528072731153748e+17
19265.0	6.526972608555689e+17
19266.0	6.525721392447488e+17
19267.0	6.524594602464595e+17
19268.0	6.523336561524735e+17
19269.0	6.522071200126291e+17
19270.0	6.520775258057385e+17
19271.0	6.519373071471956e+17
19272.0	6.518242533179391e+17
19273.0	6.516793351514793e+17
19274.0	6.515404748182867e+17
19275.0	6.514476587854505e+17
19276.0	6.513198123450367e+17
19277.0	6.511932151780691e+17
19278.0	6.510655418226003e+17
19279.0	6.509358484903251e+17
19280.0	6.508073910097236e+17
19281.0	6.50681223339486e+17
19282.0	6.505531736850431e+17
19283.0	6.504207511890601e+17
19284.0	6.502883807024467e+17
19285.0	6.50155821052723e+17
19286.0	6.500228433007956e+17
19287.0	6.49868556247586e+17
19288.0	6.490936059450705e+17
19289.0	6.485352093057015e+17
19290.0	6.494746910392319e+17
19291.0	6.493646905933824e+17
19292.0	6.492649286533119e+17
19293.0	6.491394673038676e+17
19294.0	6.490113612360361e+17
19295.0	6.488839981891583e+17
19296.0	6.487462415870634e+17
19297.0	6.486221340890452e+17
19298.0	6.484939849596927e+17
19299.0	6.483565888580265e+17
19300.0	6.48235344601634e+17
19301.0	6.481050328192339e+17
19302.0	6.479729855736489e+17
19303.0	6.478374306316287e+17
19304.0	6.477100807269033e+17
19305.0	6.4757761062557e+17
19306.0	6.474445606617087e+17
19307.0	6.473079309991933e+17
19308.0	6.471707158817449e+17
19309.0	6.470122348041556e+17
19310.0	6.468626214638932e+17
19311.0	6.467521981622954e+17
19312.0	6.466266751565823e+17
19313.0	6.464710940207785e+17
19314.0	6.441698199251624e+17
19315.0	6.442024235084481e+17
19316.0	6.460540746465279e+17
19317.0	6.459582787005097e+17
19318.0	6.458305678759251e+17
19319.0	6.456993895503188e+17
19320.0	6.455607635389097e+17
19321.0	6.454192407314431e+17
19322.0	6.452828797840042e+17
19323.0	6.451434864945834e+17
19324.0	6.450074098510506e+17
19325.0	6.448635041196713e+17
19326.0	6.447302740104531e+17
19327.0	6.445917366386687e+17
19328.0	6.444409165971455e+17
19329.0	6.443171597429418e+17
19330.0	6.441762282624339e+17
19331.0	6.440337205624832e+17
19332.0	6.43895275884817e+17
19333.0	6.437505697404244e+17
19334.0	6.436097980628991e+17
19335.0	6.434381899322708e+17
19336.0	6.433225199757993e+17
19337.0	6.431795692175359e+17
19338.0	6.430073516545363e+17
19339.0	6.428744470932137e+17
19340.0	6.427215421330772e+17
19341.0	6.425638449709055e+17
19342.0	6.424097200974505e+17
19343.0	6.422805832794111e+17
19344.0	6.421159120382633e+17
19345.0	6.418760073565523e+17
19346.0	6.417572350831274e+17
19347.0	6.416473357899092e+17
19348.0	6.415078807044095e+17
19349.0	6.413511245343401e+17
19350.0	6.411915816686932e+17
19351.0	6.410396101509119e+17
19352.0	6.408651367514111e+17
19353.0	6.407263631005012e+17
19354.0	6.405666705681066e+17
19355.0	6.403825884375722e+17
19356.0	6.402179868218708e+17
19357.0	6.400496791191551e+17
19358.0	6.398838482927615e+17
19359.0	6.397131748627796e+17
19360.0	6.395372174486185e+17
19361.0	6.393806902875476e+17
19362.0	6.391987829036371e+17
19363.0	6.390279266719059e+17
19364.0	6.38855389782562e+17
19365.0	6.386812541643434e+17
19366.0	6.385055574261759e+17
19367.0	6.383281914948265e+17
19368.0	6.381484654985215e+17
19369.0	6.379629507335508e+17
19370.0	6.377703048129193e+17
19371.0	6.37577108529698e+17
19372.0	6.373914024345599e+17
19373.0	6.37197439013137e+17
19374.0	6.370031496942932e+17
19375.0	6.368057161154559e+17
19376.0	6.36605274591505e+17
19377.0	6.364009241859412e+17
19378.0	6.361918302322687e+17
19379.0	6.35980332802594e+17
19380.0	6.357505993779882e+17
19381.0	6.355273503473663e+17
19382.0	6.352990067053908e+17
19383.0	6.350738353553407e+17
19384.0	6.348484381420201e+17
19385.0	6.346155938720425e+17
19386.0	6.343773430043988e+17
19387.0	6.341266308595711e+17
19388.0	6.338566460276735e+17
19389.0	6.335954385458516e+17
19390.0	6.332853944756906e+17
19391.0	6.316448379043827e+17
19392.0	6.325767092131155e+17
19393.0	6.325387546765993e+17
19394.0	6.322528698673833e+17
19395.0	6.319503910633471e+17
19396.0	6.316621290624339e+17
19397.0	6.313655128468137e+17
19398.0	6.310497520102057e+17
19399.0	6.306975420426921e+17
19400.0	6.303563914062505e+17
19401.0	6.300365619549524e+17
19402.0	6.296929944207359e+17
19403.0	6.293327589321385e+17
19404.0	6.2896186341021e+17
19405.0	6.285287474855936e+17
19406.0	6.281144253983402e+17
19407.0	6.277021169265321e+17
19408.0	6.272551259646633e+17
19409.0	6.268551024694612e+17
19410.0	6.264149994635263e+17
19411.0	6.259078622522025e+17
19412.0	6.254232123823446e+17
19413.0	6.249143857752746e+17
19414.0	6.243987862061055e+17
19415.0	6.238592431729321e+17
19416.0	6.23277874819891e+17
19417.0	6.226747946521939e+17
19418.0	6.220362471702528e+17
19419.0	6.213659760700074e+17
19420.0	6.206961432745299e+17
19421.0	6.199809560018944e+17
19422.0	6.192084386753194e+17
19423.0	6.18417847673378e+17
19424.0	6.17572942881314e+17
19425.0	6.166627770258772e+17
19426.0	6.157123901019476e+17
19427.0	6.147433800488276e+17
19428.0	6.137049439185578e+17
19429.0	6.125401808044031e+17
19430.0	6.112517629673472e+17
19431.0	6.098603597976916e+17
19432.0	6.086941041404584e+17
19433.0	6.072295653113855e+17
19434.0	6.055951038327466e+17
19435.0	6.037972524029267e+17
19436.0	6.018671052849151e+17
19437.0	5.998432016313001e+17
19438.0	5.953722101618007e+17
19439.0	5.947517363552255e+17
19440.0	5.924326369569449e+17
19441.0	5.894206932735314e+17
19442.0	5.860300193180332e+17
19443.0	5.821287019227818e+17
19444.0	5.776698820438696e+17
19445.0	5.724899943383041e+17
19446.0	5.6631617954775034e+17
19447.0	5.5879080209285075e+17
19448.0	5.492135270809604e+17
19449.0	5.3614612298683725e+17
19450.0	5.1521322637503014e+17
19451.0	5.003598495394485e+17
19452.0	5.273263520000683e+17
19453.0	5.430761004640943e+17
19454.0	5.5386833664955686e+17
19455.0	5.62063282938402e+17
19456.0	5.686153528563031e+17
19457.0	5.7396756857487334e+17
19458.0	5.735874818648815e+17
19459.0	5.821121695143265e+17
19460.0	5.859257150865405e+17
19461.0	5.889325813552468e+17
19462.0	5.916167307438761e+17
19463.0	5.939993288987988e+17
19464.0	5.961335038104916e+17
19465.0	5.980583835817302e+17
19466.0	5.997681311394473e+17
19467.0	6.013373637110441e+17
19468.0	6.027881078237866e+17
19469.0	6.040906283089917e+17
19470.0	6.053016843059199e+17
19471.0	6.063887224930303e+17
19472.0	6.073848616539476e+17
19473.0	6.083284194820095e+17
19474.0	6.091730284358314e+17
19475.0	6.099086431573331e+17
19476.0	6.106600701252948e+17
19477.0	6.11384172880418e+17
19478.0	6.120199420553897e+17
19479.0	6.125972081694035e+17
19480.0	6.13146714701824e+17
19481.0	6.136639041918292e+17
19482.0	6.141209593162409e+17
19483.0	6.145546263724032e+17
19484.0	6.149802824477353e+17
19485.0	6.153883545326932e+17
19486.0	6.157221895340031e+17
19487.0	6.160500396829353e+17
19488.0	6.163431909840211e+17
19489.0	6.165941456994303e+17
19490.0	6.168202818792105e+17
19491.0	6.171300836584106e+17
19492.0	6.173879316425385e+17
19493.0	6.175885364647252e+17
19494.0	6.177749156757503e+17
19495.0	6.179461746305705e+17
19496.0	6.180796015924563e+17
19497.0	6.182614350168063e+17
19498.0	6.178553029372584e+17
19499.0	6.16348823864388e+17
19500.0	6.186256246155946e+17
19501.0	6.188132924566185e+17
19502.0	6.189399485535571e+17
19503.0	6.19062364348962e+17
19504.0	6.191434920449363e+17
19505.0	6.192143353774079e+17
19506.0	6.192776802729983e+17
19507.0	6.193344122191871e+17
19508.0	6.194046928857769e+17
19509.0	6.194385257496575e+17
19510.0	6.193788210206036e+17
19511.0	6.157863494527638e+17
19512.0	6.188736108822527e+17
19513.0	6.188006613800271e+17
19514.0	6.189601116913659e+17
19515.0	6.195442120043177e+17
19516.0	6.196014725027156e+17
19517.0	6.196141430756694e+17
19518.0	6.19616288182545e+17
19519.0	6.196107052843008e+17
19520.0	6.195943621088596e+17
19521.0	6.195950970208255e+17
19522.0	6.19581790032145e+17
19523.0	6.195727604645888e+17
19524.0	6.195433575546879e+17
19525.0	6.195256938725376e+17
19526.0	6.194953348011348e+17
19527.0	6.194608593698815e+17
19528.0	6.194224983354025e+17
19529.0	6.193829631754239e+17
19530.0	6.193429460200105e+17
19531.0	6.19298483741218e+17
19532.0	6.192562313013929e+17
19533.0	6.192131370647551e+17
19534.0	6.191599953728852e+17
19535.0	6.19104050417937e+17
19536.0	6.190452880790868e+17
19537.0	6.189892526669823e+17
19538.0	6.189066592714751e+17
19539.0	6.188432884411049e+17
19540.0	6.188045056693587e+17
19541.0	6.187528318440788e+17
19542.0	6.186890015976106e+17
19543.0	6.186119729250303e+17
19544.0	6.185524969253546e+17
19545.0	6.184505059923284e+17
19546.0	6.183717376622592e+17
19547.0	6.183569148521132e+17
19548.0	6.183008998522879e+17
19549.0	6.182204557579603e+17
19550.0	6.181538267922431e+17
19551.0	6.180783672087892e+17
19552.0	6.180015702715049e+17
19553.0	6.179224504587604e+17
19554.0	6.178432617196201e+17
19555.0	6.177666044526591e+17
19556.0	6.176997465478484e+17
19557.0	6.176186647795028e+17
19558.0	6.175358983689556e+17
19559.0	6.174524126352723e+17
19560.0	6.173614955036671e+17
19561.0	6.172804597328553e+17
19562.0	6.171924357622442e+17
19563.0	6.171099942704467e+17
19564.0	6.170225103863807e+17
19565.0	6.169417590592852e+17
19566.0	6.168557020774399e+17
19567.0	6.167676381211306e+17
19568.0	6.166756416552959e+17
19569.0	6.165856709683881e+17
19570.0	6.164960385520979e+17
19571.0	6.164042070622207e+17
19572.0	6.163101740520788e+17
19573.0	6.162195241675433e+17
19574.0	6.161206455478953e+17
19575.0	6.16035242737664e+17
19576.0	6.159401982711124e+17
19577.0	6.158458233552896e+17
19578.0	6.157580608296276e+17
19579.0	6.156622429334186e+17
19580.0	6.15566763028207e+17
19581.0	6.154722871694676e+17
19582.0	6.153767048533332e+17
19583.0	6.152799716201812e+17
19584.0	6.151817052291071e+17
19585.0	6.150758934948521e+17
19586.0	6.149747498811392e+17
19587.0	6.148832294688084e+17
19588.0	6.147663924472489e+17
19589.0	6.146873017849172e+17
19590.0	6.145858736575828e+17
19591.0	6.144992772183379e+17
19592.0	6.144070750218921e+17
19593.0	6.143045939145386e+17
19594.0	6.141923778276009e+17
19595.0	6.141106230132733e+17
19596.0	6.139866010091519e+17
19597.0	6.139092125351936e+17
19598.0	6.137853917877588e+17
19599.0	6.137069590719146e+17
19600.0	6.136066010513408e+17
19601.0	6.134998653818195e+17
19602.0	6.133930969268223e+17
19603.0	6.132691785919146e+17
19604.0	6.131856437848746e+17
19605.0	6.13075185111313e+17
19606.0	6.129924784695977e+17
19607.0	6.128911329700521e+17
19608.0	6.127871435210751e+17
19609.0	6.126823877727572e+17
19610.0	6.12576805327121e+17
19611.0	6.124709232683689e+17
19612.0	6.123753174641321e+17
19613.0	6.122705348722687e+17
19614.0	6.121638860947455e+17
19615.0	6.120603383758847e+17
19616.0	6.119397251525289e+17
19617.0	6.118420839224659e+17
19618.0	6.117089163083775e+17
19619.0	6.11592765125427e+17
19620.0	6.11499793064482e+17
19621.0	6.114196111141544e+17
19622.0	6.113295924723712e+17
19623.0	6.11225201418786e+17
19624.0	6.111165707627178e+17
19625.0	6.11011711345186e+17
19626.0	6.109013488609961e+17
19627.0	6.107826317426687e+17
19628.0	6.106449097435818e+17
19629.0	6.104648811981482e+17
19630.0	6.100461501983401e+17
19631.0	6.094720984591018e+17
19632.0	6.101137883835049e+17
19633.0	6.101165411052202e+17
19634.0	6.100442795387561e+17
19635.0	6.099452154609663e+17
19636.0	6.098365569127763e+17
19637.0	6.097058698100736e+17
19638.0	6.096402987876351e+17
19639.0	6.095355363983359e+17
19640.0	6.094178080871763e+17
19641.0	6.09272958427682e+17
19642.0	6.092168524813652e+17
19643.0	6.091105818902527e+17
19644.0	6.090002534498303e+17
19645.0	6.088873297838079e+17
19646.0	6.087806854802089e+17
19647.0	6.086879995407018e+17
19648.0	6.085819220273833e+17
19649.0	6.084752844346708e+17
19650.0	6.083687120633855e+17
19651.0	6.082614495193769e+17
19652.0	6.081550057035092e+17
19653.0	6.080474332004351e+17
19654.0	6.079406729243306e+17
19655.0	6.078335636122282e+17
19656.0	6.077270756862634e+17
19657.0	6.076203686079146e+17
19658.0	6.075132980931241e+17
19659.0	6.074061234896895e+17
19660.0	6.072990011053398e+17
19661.0	6.071916876704425e+17
19662.0	6.070839219497641e+17
19663.0	6.069735903636138e+17
19664.0	6.068663854912852e+17
