# Flux units: erg / (cm m2 s)
# Wavelength units: Angstrom
wave	flux
19000.0	7.665806060726953e+17
19001.0	7.663834553297576e+17
19002.0	7.663055346685268e+17
19003.0	7.661639830601727e+17
19004.0	7.660245955728723e+17
19005.0	7.658839699270313e+17
19006.0	7.657457190961151e+17
19007.0	7.655951012200447e+17
19008.0	7.654327043402409e+17
19009.0	7.652753360115027e+17
19010.0	7.649246516521637e+17
19011.0	7.650295647567871e+17
19012.0	7.648044670866772e+17
19013.0	7.64765857120256e+17
19014.0	7.645897241744723e+17
19015.0	7.644650989595305e+17
19016.0	7.643221303754751e+17
19017.0	7.641974664331261e+17
19018.0	7.640583183007743e+17
19019.0	7.639201412896083e+17
19020.0	7.637728425061034e+17
19021.0	7.63644924343091e+17
19022.0	7.63504386498014e+17
19023.0	7.633400150796969e+17
19024.0	7.632120716110505e+17
19025.0	7.630758122356735e+17
19026.0	7.629219042077353e+17
19027.0	7.6274104022685e+17
19028.0	7.62659152872516e+17
19029.0	7.625083222054227e+17
19030.0	7.623846928580607e+17
19031.0	7.622470181847037e+17
19032.0	7.62103436952644e+17
19033.0	7.619039917856083e+17
19034.0	7.618057280509268e+17
19035.0	7.616177635327999e+17
19036.0	7.5727823329471e+17
19037.0	7.613600552889e+17
19038.0	7.612368113980756e+17
19039.0	7.611107673899007e+17
19040.0	7.609733414387711e+17
19041.0	7.608284518634834e+17
19042.0	7.606327684278953e+17
19043.0	7.60548631248896e+17
19044.0	7.604233943646208e+17
19045.0	7.602922019880957e+17
19046.0	7.601151695039145e+17
19047.0	7.599975378714621e+17
19048.0	7.597473742017875e+17
19049.0	7.596747117996713e+17
19050.0	7.595466596985514e+17
19051.0	7.587122800929443e+17
19052.0	7.591505082449919e+17
19053.0	7.59150017651234e+17
19054.0	7.590089188879016e+17
19055.0	7.587142790982317e+17
19056.0	7.587135894148434e+17
19057.0	7.585829354471421e+17
19058.0	7.584314619330557e+17
19059.0	7.583000265665194e+17
19060.0	7.581477278930259e+17
19061.0	7.580191975014399e+17
19062.0	7.578727823179777e+17
19063.0	7.577321754066943e+17
19064.0	7.575145680644778e+17
19065.0	7.57334935671057e+17
19066.0	7.572652041087654e+17
19067.0	7.571542760925864e+17
19068.0	7.570187865118036e+17
19069.0	7.568774542655487e+17
19070.0	7.567170828151464e+17
19071.0	7.565868457612628e+17
19072.0	7.564475460747263e+17
19073.0	7.563021474507433e+17
19074.0	7.56164718423791e+17
19075.0	7.560216304418815e+17
19076.0	7.558669124938409e+17
19077.0	7.5572753507287e+17
19078.0	7.55566863589922e+17
19079.0	7.554469434053972e+17
19080.0	7.552954409506131e+17
19081.0	7.551334992926036e+17
19082.0	7.549940611940351e+17
19083.0	7.54800565367603e+17
19084.0	7.545800968110079e+17
19085.0	7.545770409809236e+17
19086.0	7.541896715610794e+17
19087.0	7.541912818941952e+17
19088.0	7.540802431483901e+17
19089.0	7.538390459219969e+17
19090.0	7.53839000204083e+17
19091.0	7.537046230925313e+17
19092.0	7.535194570140328e+17
19093.0	7.534352843232595e+17
19094.0	7.532949368995837e+17
19095.0	7.531544616894463e+17
19096.0	7.530021044355071e+17
19097.0	7.528662500900863e+17
19098.0	7.527200098091007e+17
19099.0	7.52575568884531e+17
19100.0	7.52427270878003e+17
19101.0	7.522889474856275e+17
19102.0	7.520938646743718e+17
19103.0	7.520009572057087e+17
19104.0	7.518614775835304e+17
19105.0	7.517097463993683e+17
19106.0	7.51551904953139e+17
19107.0	7.514129113109844e+17
19108.0	7.51272706773265e+17
19109.0	7.507794462769148e+17
19110.0	7.509518286760617e+17
19111.0	7.508472930587987e+17
19112.0	7.507081095544832e+17
19113.0	7.505648763098451e+17
19114.0	7.504186252634793e+17
19115.0	7.502414161990995e+17
19116.0	7.501186592669696e+17
19117.0	7.499718828141226e+17
19118.0	7.497769640001535e+17
19119.0	7.479152145159483e+17
19120.0	7.495033417280168e+17
19121.0	7.493823315836928e+17
19122.0	7.492687288598527e+17
19123.0	7.491228534833151e+17
19124.0	7.489509874029908e+17
19125.0	7.488293383263572e+17
19126.0	7.486768191722835e+17
19127.0	7.475654073253883e+17
19128.0	7.482842286828198e+17
19129.0	7.482007904146772e+17
19130.0	7.481023122112511e+17
19131.0	7.47964512407825e+17
19132.0	7.478209966069075e+17
19133.0	7.476049742921728e+17
19134.0	7.474848175489024e+17
19135.0	7.473867186503679e+17
19136.0	7.472453075511978e+17
19137.0	7.470109846492499e+17
19138.0	7.469458561957887e+17
19139.0	7.468112436439722e+17
19140.0	7.466675653836799e+17
19141.0	7.465236593726804e+17
19142.0	7.463608258658303e+17
19143.0	7.462000036675583e+17
19144.0	7.460620496535551e+17
19145.0	7.459405100482557e+17
19146.0	7.454341485035524e+17
19147.0	7.456027205173247e+17
19148.0	7.45503173325619e+17
19149.0	7.453561551410515e+17
19150.0	7.452124005444266e+17
19151.0	7.450681999534761e+17
19152.0	7.449198293854889e+17
19153.0	7.447646946634409e+17
19154.0	7.44562251547716e+17
19155.0	7.444849698187948e+17
19156.0	7.443359080295081e+17
19157.0	7.441607146078207e+17
19158.0	7.438337793764008e+17
19159.0	7.438752005051731e+17
19160.0	7.437407701259603e+17
19161.0	7.435852630895274e+17
19162.0	7.429035793580035e+17
19163.0	7.432546254061569e+17
19164.0	7.431709275105962e+17
19165.0	7.430140314604884e+17
19166.0	7.428127909915305e+17
19167.0	7.42684606350404e+17
19168.0	7.425768920099497e+17
19169.0	7.424325602770944e+17
19170.0	7.423000665478483e+17
19171.0	7.421290712050345e+17
19172.0	7.420010958596777e+17
19173.0	7.418637785410217e+17
19174.0	7.41686088110353e+17
19175.0	7.415722458917545e+17
19176.0	7.414239491435178e+17
19177.0	7.41187387461905e+17
19178.0	7.411147110787753e+17
19179.0	7.409495593801046e+17
19180.0	7.408283807645696e+17
19181.0	7.406324097395369e+17
19182.0	7.405351854931965e+17
19183.0	7.40400511984162e+17
19184.0	7.402439827958441e+17
19185.0	7.400981426514602e+17
19186.0	7.399591719381674e+17
19187.0	7.397612589503828e+17
19188.0	7.396616501024084e+17
19189.0	7.395130744329555e+17
19190.0	7.393627613429757e+17
19191.0	7.391964050401961e+17
19192.0	7.390716532970835e+17
19193.0	7.389157427686058e+17
19194.0	7.387577774505984e+17
19195.0	7.386134255850836e+17
19196.0	7.384429741036883e+17
19197.0	7.3826841933469e+17
19198.0	7.379846092379475e+17
19199.0	7.345895961351502e+17
19200.0	7.352243475622578e+17
19201.0	7.375628772835327e+17
19202.0	7.37536582352896e+17
19203.0	7.374107649769471e+17
19204.0	7.372672535101439e+17
19205.0	7.371332336134826e+17
19206.0	7.369816300759721e+17
19207.0	7.36676180726033e+17
19208.0	7.364781750441299e+17
19209.0	7.364357629411327e+17
19210.0	7.36289853870353e+17
19211.0	7.361499538391037e+17
19212.0	7.359972822919849e+17
19213.0	7.357746703062356e+17
19214.0	7.356049191337984e+17
19215.0	7.355356166488063e+17
19216.0	7.353999569190911e+17
19217.0	7.352407577766569e+17
19218.0	7.34641612495257e+17
19219.0	7.348429266441555e+17
19220.0	7.347840032440319e+17
19221.0	7.344706716783956e+17
19222.0	7.344889786968745e+17
19223.0	7.343358245251756e+17
19224.0	7.341695062507519e+17
19225.0	7.339657261307218e+17
19226.0	7.338812878006956e+17
19227.0	7.337306397256361e+17
19228.0	7.33595869188369e+17
19229.0	7.334441243028136e+17
19230.0	7.332857248743424e+17
19231.0	7.331313419113811e+17
19232.0	7.329840677344596e+17
19233.0	7.327921730136745e+17
19234.0	7.326703378497533e+17
19235.0	7.325085148905471e+17
19236.0	7.323795426989395e+17
19237.0	7.322157116467881e+17
19238.0	7.320157304477011e+17
19239.0	7.319211151982591e+17
19240.0	7.317491955706536e+17
19241.0	7.31593370046737e+17
19242.0	7.314493629530111e+17
19243.0	7.311956353832274e+17
19244.0	7.311514186110292e+17
19245.0	7.309936425959423e+17
19246.0	7.308323936971433e+17
19247.0	7.306797221500244e+17
19248.0	7.305307181023232e+17
19249.0	7.303739541727914e+17
19250.0	7.302081250940244e+17
19251.0	7.299382333756754e+17
19252.0	7.29569945382639e+17
19253.0	7.295829410141523e+17
19254.0	7.294374034188969e+17
19255.0	7.291627894734844e+17
19256.0	7.291054592098304e+17
19257.0	7.28965791682833e+17
19258.0	7.288090772460884e+17
19259.0	7.286024981271891e+17
19260.0	7.284057353573716e+17
19261.0	7.283235886552403e+17
19262.0	7.281360192405501e+17
19263.0	7.279735465836543e+17
19264.0	7.27554099406438e+17
19265.0	7.275820006156969e+17
19266.0	7.274399700178262e+17
19267.0	7.273714269814781e+17
19268.0	7.272054193651711e+17
19269.0	7.270432092717055e+17
19270.0	7.268785845174271e+17
19271.0	7.265328656547844e+17
19272.0	7.265312291771731e+17
19273.0	7.25787530144426e+17
19274.0	7.257630128996344e+17
19275.0	7.259503874189994e+17
19276.0	7.256817840510292e+17
19277.0	7.25518147334963e+17
19278.0	7.253557261281961e+17
19279.0	7.251707995444564e+17
19280.0	7.249727758270463e+17
19281.0	7.248489647265108e+17
19282.0	7.246875831478953e+17
19283.0	7.244838418950826e+17
19284.0	7.242934432825343e+17
19285.0	7.240863433708883e+17
19286.0	7.239826359888553e+17
19287.0	7.238207150227455e+17
19288.0	7.224888021833034e+17
19289.0	7.207445594811007e+17
19290.0	7.23306614427921e+17
19291.0	7.228162176625327e+17
19292.0	7.226971545141245e+17
19293.0	7.225210022745428e+17
19294.0	7.223426853546664e+17
19295.0	7.221743174636884e+17
19296.0	7.219923840750932e+17
19297.0	7.218006204962131e+17
19298.0	7.216229574683305e+17
19299.0	7.214606811048617e+17
19300.0	7.21281584324062e+17
19301.0	7.210991807539884e+17
19302.0	7.208472947632812e+17
19303.0	7.203463782640298e+17
19304.0	7.201864585401684e+17
19305.0	7.200097525126483e+17
19306.0	7.198264589112659e+17
19307.0	7.196128657975977e+17
19308.0	7.194334879984297e+17
19309.0	7.191474880555689e+17
19310.0	7.188979285054803e+17
19311.0	7.186016054018044e+17
19312.0	7.18256945041681e+17
19313.0	7.180680133170516e+17
19314.0	7.152655589004623e+17
19315.0	7.152572415956347e+17
19316.0	7.174630982112595e+17
19317.0	7.172780525092863e+17
19318.0	7.166510093740709e+17
19319.0	7.163678460390057e+17
19320.0	7.161637338699092e+17
19321.0	7.159563333664768e+17
19322.0	7.156996214095872e+17
19323.0	7.154920292264617e+17
19324.0	7.150186335130963e+17
19325.0	7.147321927488851e+17
19326.0	7.145908950357331e+17
19327.0	7.143804349273428e+17
19328.0	7.141738931377492e+17
19329.0	7.139606561204905e+17
19330.0	7.13722327937843e+17
19331.0	7.134973984593236e+17
19332.0	7.133013151667539e+17
19333.0	7.130408094618964e+17
19334.0	7.128132395291987e+17
19335.0	7.125839074295807e+17
19336.0	7.123593643862696e+17
19337.0	7.121315598521684e+17
19338.0	7.117827914508968e+17
19339.0	7.116631922704383e+17
19340.0	7.113901018360489e+17
19341.0	7.111704387256319e+17
19342.0	7.107381671843154e+17
19343.0	7.106998564115798e+17
19344.0	7.104432126820351e+17
19345.0	7.09191312203228e+17
19346.0	7.095097380306939e+17
19347.0	7.096727639162879e+17
19348.0	7.094593732476927e+17
19349.0	7.091838723467945e+17
19350.0	7.089313439285245e+17
19351.0	7.086204685473108e+17
19352.0	7.083001440982356e+17
19353.0	7.080795987858772e+17
19354.0	7.078102879786323e+17
19355.0	7.07481970863855e+17
19356.0	7.07262193808179e+17
19357.0	7.069834117032617e+17
19358.0	7.066945358659581e+17
19359.0	7.063842808223059e+17
19360.0	7.061043061369513e+17
19361.0	7.058110095032319e+17
19362.0	7.054205111326036e+17
19363.0	7.051216486574761e+17
19364.0	7.048186517170858e+17
19365.0	7.045072057707177e+17
19366.0	7.04197037409348e+17
19367.0	7.038807387930624e+17
19368.0	7.035103932142932e+17
19369.0	7.030121148623529e+17
19370.0	7.026592419151871e+17
19371.0	7.023553035632639e+17
19372.0	7.020490707173373e+17
19373.0	7.016728779991724e+17
19374.0	7.010930154711721e+17
19375.0	7.007416747731625e+17
19376.0	7.003840707908948e+17
19377.0	7.0001574295197e+17
19378.0	6.993835648701783e+17
19379.0	6.989262290769236e+17
19380.0	6.985438357793449e+17
19381.0	6.981519295905791e+17
19382.0	6.972929259252394e+17
19383.0	6.968431407879508e+17
19384.0	6.96463443938509e+17
19385.0	6.954900132986879e+17
19386.0	6.950385912643583e+17
19387.0	6.942328407195649e+17
19388.0	6.934404985957033e+17
19389.0	6.927128775185746e+17
19390.0	6.916549640191999e+17
19391.0	6.879324716837509e+17
19392.0	6.896070044942332e+17
19393.0	6.888478328837462e+17
19394.0	6.880137888224596e+17
19395.0	6.874048666883412e+17
19396.0	6.867896897983828e+17
19397.0	6.86165426368239e+17
19398.0	6.855057953783807e+17
19399.0	6.84544291521604e+17
19400.0	6.841477485297664e+17
19401.0	6.834934986222249e+17
19402.0	6.827990593131859e+17
19403.0	6.820754713389738e+17
19404.0	6.813486526322004e+17
19405.0	6.805702146260991e+17
19406.0	6.798020893649578e+17
19407.0	6.790216471805951e+17
19408.0	6.779057898607963e+17
19409.0	6.77389733671731e+17
19410.0	6.765715697347242e+17
19411.0	6.756993909216595e+17
19412.0	6.747969132254548e+17
19413.0	6.739156242442921e+17
19414.0	6.729919778258941e+17
19415.0	6.720459629046442e+17
19416.0	6.708907664386729e+17
19417.0	6.699183705336489e+17
19418.0	6.688934859898879e+17
19419.0	6.676611512401919e+17
19420.0	6.665304549621759e+17
19421.0	6.651543421976576e+17
19422.0	6.638450630808916e+17
19423.0	6.622413824109224e+17
19424.0	6.606649447940095e+17
19425.0	6.589324885054804e+17
19426.0	6.56921362449476e+17
19427.0	6.548659832007337e+17
19428.0	6.526548564421286e+17
19429.0	6.50186512103287e+17
19430.0	6.474085357846527e+17
19431.0	6.440965191499777e+17
19432.0	6.41705415016448e+17
19433.0	6.391619774666068e+17
19434.0	6.365471239219882e+17
19435.0	6.33676908147507e+17
19436.0	6.305892921595219e+17
19437.0	6.27541818806545e+17
19438.0	6.206130868977668e+17
19439.0	6.196560816417452e+17
19440.0	6.152156549742592e+17
19441.0	6.102261647627601e+17
19442.0	6.045183590268929e+17
19443.0	5.980633381033299e+17
19444.0	5.908152365787814e+17
19445.0	5.825258347735725e+17
19446.0	5.728729575019862e+17
19447.0	5.615193841205241e+17
19448.0	5.477756199152304e+17
19449.0	5.30602698805521e+17
19450.0	5.0785406709049914e+17
19451.0	4.9600705187894656e+17
19452.0	5.201704519729148e+17
19453.0	5.3961145121942246e+17
19454.0	5.5462789308743616e+17
19455.0	5.668361939714047e+17
19456.0	5.770132127219716e+17
19457.0	5.85704118052454e+17
19458.0	5.902584917262386e+17
19459.0	5.997164060737545e+17
19460.0	6.056285606073682e+17
19461.0	6.107186264539133e+17
19462.0	6.152318117128874e+17
19463.0	6.193463478801747e+17
19464.0	6.229550584649044e+17
19465.0	6.26156509471266e+17
19466.0	6.289842011548329e+17
19467.0	6.316107950456831e+17
19468.0	6.340915416618326e+17
19469.0	6.362554113370792e+17
19470.0	6.387959287425705e+17
19471.0	6.415311841176233e+17
19472.0	6.440904307681961e+17
19473.0	6.464147057978021e+17
19474.0	6.485246080625325e+17
19475.0	6.501127356940279e+17
19476.0	6.520919318418775e+17
19477.0	6.536531968436909e+17
19478.0	6.551711639055017e+17
19479.0	6.564518736603817e+17
19480.0	6.576060985158314e+17
19481.0	6.587325810562386e+17
19482.0	6.597065095599444e+17
19483.0	6.606373915022675e+17
19484.0	6.615347414521172e+17
19485.0	6.622911593622185e+17
19486.0	6.630824669609983e+17
19487.0	6.638548512582313e+17
19488.0	6.64531519021602e+17
19489.0	6.65121358610432e+17
19490.0	6.652210430257827e+17
19491.0	6.664194187329536e+17
19492.0	6.670235783746902e+17
19493.0	6.675894464675839e+17
19494.0	6.68137804669474e+17
19495.0	6.68665779392785e+17
19496.0	6.690215870245544e+17
19497.0	6.696679471666516e+17
19498.0	6.698178166390787e+17
19499.0	6.659142860494138e+17
19500.0	6.71073201955362e+17
19501.0	6.715172770370899e+17
19502.0	6.719340102899027e+17
19503.0	6.723403144058196e+17
19504.0	6.727291769279828e+17
19505.0	6.731053139318099e+17
19506.0	6.734715874006355e+17
19507.0	6.738072732783955e+17
19508.0	6.741939861498533e+17
19509.0	6.74951345611298e+17
19510.0	6.753984440172541e+17
19511.0	6.713082639635766e+17
19512.0	6.760662731238045e+17
19513.0	6.760420853415912e+17
19514.0	6.768135897437505e+17
19515.0	6.784153412435973e+17
19516.0	6.788562329184937e+17
19517.0	6.792962531568296e+17
19518.0	6.797355881157972e+17
19519.0	6.798890156163072e+17
19520.0	6.802815427018751e+17
19521.0	6.805838091343187e+17
19522.0	6.806840099383978e+17
19523.0	6.80819258696226e+17
19524.0	6.811739299512323e+17
19525.0	6.813485045033641e+17
19526.0	6.814513735139327e+17
19527.0	6.815359653554857e+17
19528.0	6.817229680498001e+17
19529.0	6.819468895671635e+17
19530.0	6.820250054732457e+17
19531.0	6.820972839567359e+17
19532.0	6.821611288133631e+17
19533.0	6.822519390601213e+17
19534.0	6.824574746361855e+17
19535.0	6.824970401349631e+17
19536.0	6.825350052271444e+17
19537.0	6.825981382404778e+17
19538.0	6.825804031153495e+17
19539.0	6.823967022470492e+17
19540.0	6.827093490226516e+17
19541.0	6.828481826521088e+17
19542.0	6.82867359289617e+17
19543.0	6.828827595855187e+17
19544.0	6.829004148790612e+17
19545.0	6.826684491759611e+17
19546.0	6.82468176682462e+17
19547.0	6.829341928674644e+17
19548.0	6.829409025654783e+17
19549.0	6.828825453963944e+17
19550.0	6.829415466707625e+17
19551.0	6.829673424093183e+17
19552.0	6.830027055650134e+17
19553.0	6.829810725333674e+17
19554.0	6.829593155600383e+17
19555.0	6.829581473764691e+17
19556.0	6.829489649265321e+17
19557.0	6.829289666248703e+17
19558.0	6.829068097246548e+17
19559.0	6.828829539915092e+17
19560.0	6.828432413425664e+17
19561.0	6.828166080015017e+17
19562.0	6.827997187276799e+17
19563.0	6.827743888364884e+17
19564.0	6.827393375972009e+17
19565.0	6.827025611707732e+17
19566.0	6.826470352966995e+17
19567.0	6.826239779493203e+17
19568.0	6.825635552952319e+17
19569.0	6.825251290393258e+17
19570.0	6.825009256682836e+17
19571.0	6.82482158674466e+17
19572.0	6.824128699607721e+17
19573.0	6.823761946869759e+17
19574.0	6.822780924329981e+17
19575.0	6.822814470373373e+17
19576.0	6.822274732654591e+17
19577.0	6.821609602023423e+17
19578.0	6.821719394921129e+17
19579.0	6.823218892854611e+17
19580.0	6.822632290779133e+17
19581.0	6.822099140214783e+17
19582.0	6.821564095922175e+17
19583.0	6.820927410361684e+17
19584.0	6.821671381325142e+17
19585.0	6.823603728635218e+17
19586.0	6.822733474867884e+17
19587.0	6.822674613403647e+17
19588.0	6.819684751332695e+17
19589.0	6.821271518751402e+17
19590.0	6.820222930168489e+17
19591.0	6.821248148089518e+17
19592.0	6.823035083074217e+17
19593.0	6.822139103543293e+17
19594.0	6.82002097722709e+17
19595.0	6.820483938910207e+17
19596.0	6.817659295367169e+17
19597.0	6.818934617538559e+17
19598.0	6.81650074960964e+17
19599.0	6.817344449937407e+17
19600.0	6.817509522363734e+17
19601.0	6.818364489990144e+17
19602.0	6.817545882785108e+17
19603.0	6.814356480895654e+17
19604.0	6.815713058619392e+17
19605.0	6.813447815692289e+17
19606.0	6.814287072854015e+17
19607.0	6.813397664399359e+17
19608.0	6.812432793425235e+17
19609.0	6.811280766315177e+17
19610.0	6.810670065167017e+17
19611.0	6.809682200319316e+17
19612.0	6.809440516833281e+17
19613.0	6.810200983295316e+17
19614.0	6.809057109912233e+17
19615.0	6.808326708920319e+17
19616.0	6.807044880684372e+17
19617.0	6.806347915285844e+17
19618.0	6.802268400997713e+17
19619.0	6.800508116620622e+17
19620.0	6.799781236047868e+17
19621.0	6.802355394357929e+17
19622.0	6.801450576729427e+17
19623.0	6.800468108552873e+17
19624.0	6.799399483080701e+17
19625.0	6.798448540691114e+17
19626.0	6.797482948995753e+17
19627.0	6.796474680257194e+17
19628.0	6.794533145324204e+17
19629.0	6.793581062782973e+17
19630.0	6.790414029116755e+17
19631.0	6.757827943071744e+17
19632.0	6.792473591764307e+17
19633.0	6.791678533479081e+17
19634.0	6.791038167416832e+17
19635.0	6.789778266303145e+17
19636.0	6.788903614109012e+17
19637.0	6.785502167083693e+17
19638.0	6.78681981817105e+17
19639.0	6.785741498264234e+17
19640.0	6.784250839826432e+17
19641.0	6.779896226032308e+17
19642.0	6.782546819241299e+17
19643.0	6.781449265654441e+17
19644.0	6.780066918126931e+17
19645.0	6.777889873723388e+17
19646.0	6.778279936305834e+17
19647.0	6.777232009024851e+17
19648.0	6.776182756343805e+17
19649.0	6.77530322407697e+17
19650.0	6.774248306988371e+17
19651.0	6.773115572977663e+17
19652.0	6.772000323622228e+17
19653.0	6.770927352152061e+17
19654.0	6.769775196416681e+17
19655.0	6.769744345213609e+17
19656.0	6.768864834617343e+17
19657.0	6.767747066582355e+17
19658.0	6.766665918316543e+17
19659.0	6.765540719372969e+17
19660.0	6.764451184596308e+17
19661.0	6.763300138953386e+17
19662.0	6.762200560216746e+17
19663.0	6.760784324111017e+17
19664.0	6.759760516175187e+17
19665.0	6.758821215076351e+17
