# Flux units: erg / (cm m2 s)
# Wavelength units: Angstrom
wave	flux
19000.0	7.66327766716689e+17
19001.0	7.661838671369556e+17
19002.0	7.660485671387135e+17
19003.0	7.659087196760745e+17
19004.0	7.657687967159636e+17
19005.0	7.656289970683901e+17
19006.0	7.654889658952361e+17
19007.0	7.653488420279634e+17
19008.0	7.652060111568893e+17
19009.0	7.650645883136684e+17
19010.0	7.64909145030656e+17
19011.0	7.647861567127551e+17
19012.0	7.646424330141696e+17
19013.0	7.645064977186815e+17
19014.0	7.643625634660351e+17
19015.0	7.642230521069565e+17
19016.0	7.640818662419114e+17
19017.0	7.6394216320314e+17
19018.0	7.638016741517994e+17
19019.0	7.636613211357183e+17
19020.0	7.635187311575039e+17
19021.0	7.633788641214464e+17
19022.0	7.632381741629437e+17
19023.0	7.630958488453119e+17
19024.0	7.62954406848102e+17
19025.0	7.628138327922004e+17
19026.0	7.626713726976e+17
19027.0	7.62529337905425e+17
19028.0	7.623897860014079e+17
19029.0	7.622481776301396e+17
19030.0	7.621065562565288e+17
19031.0	7.619648547717119e+17
19032.0	7.618231032348672e+17
19033.0	7.616773717229565e+17
19034.0	7.615394165904726e+17
19035.0	7.613957071525203e+17
19036.0	7.611267092403539e+17
19037.0	7.611134576164863e+17
19038.0	7.609704477884415e+17
19039.0	7.608295065911296e+17
19040.0	7.606873935052799e+17
19041.0	7.605451894030335e+17
19042.0	7.603994759266301e+17
19043.0	7.6026078035968e+17
19044.0	7.601183917080572e+17
19045.0	7.599761527930879e+17
19046.0	7.59831664472883e+17
19047.0	7.596906279250602e+17
19048.0	7.595404704437587e+17
19049.0	7.594035584346794e+17
19050.0	7.592620813451263e+17
19051.0	7.59099773244757e+17
19052.0	7.589750131130368e+17
19053.0	7.588361615179773e+17
19054.0	7.586934759096317e+17
19055.0	7.585396268815699e+17
19056.0	7.584071541238442e+17
19057.0	7.582653578477568e+17
19058.0	7.581225669623808e+17
19059.0	7.579796815653544e+17
19060.0	7.578358843266387e+17
19061.0	7.576940194037757e+17
19062.0	7.575509093318655e+17
19063.0	7.574080496599037e+17
19064.0	7.572601608776362e+17
19065.0	7.571142697025535e+17
19066.0	7.569764240414036e+17
19067.0	7.568360237694975e+17
19068.0	7.566930344935421e+17
19069.0	7.565499785281533e+17
19070.0	7.564064230211581e+17
19071.0	7.562637109886977e+17
19072.0	7.561205283553276e+17
19073.0	7.559770978385919e+17
19074.0	7.558341022711805e+17
19075.0	7.556908487540735e+17
19076.0	7.555466821369855e+17
19077.0	7.554037248775508e+17
19078.0	7.552597819566761e+17
19079.0	7.551175998046207e+17
19080.0	7.549738839354024e+17
19081.0	7.548290687391059e+17
19082.0	7.546855095970474e+17
19083.0	7.545394214294867e+17
19084.0	7.543896397578237e+17
19085.0	7.542570204790783e+17
19086.0	7.540964626617683e+17
19087.0	7.539659624852138e+17
19088.0	7.538228462616575e+17
19089.0	7.536732078953812e+17
19090.0	7.535382684674728e+17
19091.0	7.533943558853972e+17
19092.0	7.532491752254121e+17
19093.0	7.531083813879805e+17
19094.0	7.529635569642153e+17
19095.0	7.528196330575187e+17
19096.0	7.526766474166271e+17
19097.0	7.525335229442728e+17
19098.0	7.523899182241108e+17
19099.0	7.522461268574208e+17
19100.0	7.521023645712383e+17
19101.0	7.5195843884701e+17
19102.0	7.518109655804585e+17
19103.0	7.516708898078719e+17
19104.0	7.515270246214316e+17
19105.0	7.513831107810644e+17
19106.0	7.512384955132585e+17
19107.0	7.510946173244755e+17
19108.0	7.509512596488191e+17
19109.0	7.507952877436928e+17
19110.0	7.506627435429887e+17
19111.0	7.505193868460032e+17
19112.0	7.503753976479743e+17
19113.0	7.50231353504563e+17
19114.0	7.500872904867837e+17
19115.0	7.499420980827475e+17
19116.0	7.497980501644628e+17
19117.0	7.496539615614292e+17
19118.0	7.495068801826815e+17
19119.0	7.492458950688764e+17
19120.0	7.492213328052224e+17
19121.0	7.490773849909929e+17
19122.0	7.489340583531863e+17
19123.0	7.487897171132415e+17
19124.0	7.486455119085569e+17
19125.0	7.485011899624105e+17
19126.0	7.483565765121364e+17
19127.0	7.481403236504915e+17
19128.0	7.480653861180755e+17
19129.0	7.479201122047318e+17
19130.0	7.477790138608298e+17
19131.0	7.476349509828608e+17
19132.0	7.474903470396755e+17
19133.0	7.473374326423551e+17
19134.0	7.472010140232362e+17
19135.0	7.47057124090402e+17
19136.0	7.469126139598164e+17
19137.0	7.467612879454205e+17
19138.0	7.466227096791722e+17
19139.0	7.464788010117802e+17
19140.0	7.463342478196733e+17
19141.0	7.461895763481939e+17
19142.0	7.460438203695101e+17
19143.0	7.458980287392425e+17
19144.0	7.45754961728853e+17
19145.0	7.456106585172648e+17
19146.0	7.454410646312275e+17
19147.0	7.453169902682111e+17
19148.0	7.451760754950143e+17
19149.0	7.450312033959935e+17
19150.0	7.448859450015743e+17
19151.0	7.447413715369983e+17
19152.0	7.445960969246036e+17
19153.0	7.444504997702314e+17
19154.0	7.443008760840191e+17
19155.0	7.441612161067689e+17
19156.0	7.440159584114003e+17
19157.0	7.438704055768404e+17
19158.0	7.437175854115497e+17
19159.0	7.435795770114047e+17
19160.0	7.43434971530308e+17
19161.0	7.432898353299455e+17
19162.0	7.431257127736659e+17
19163.0	7.429983969127081e+17
19164.0	7.428539179597823e+17
19165.0	7.427080938935636e+17
19166.0	7.425701137350653e+17
19167.0	7.424329011341994e+17
19168.0	7.422872168781138e+17
19169.0	7.421419802940756e+17
19170.0	7.419975996276735e+17
19171.0	7.418509238381225e+17
19172.0	7.417060752272041e+17
19173.0	7.415602838765568e+17
19174.0	7.414120615073108e+17
19175.0	7.412685086567081e+17
19176.0	7.411225277235199e+17
19177.0	7.409699634107732e+17
19178.0	7.408298113018536e+17
19179.0	7.40682887069696e+17
19180.0	7.405375533176147e+17
19181.0	7.403876308571476e+17
19182.0	7.402442942928211e+17
19183.0	7.400990950380884e+17
19184.0	7.399511602582868e+17
19185.0	7.398059631007059e+17
19186.0	7.39659667035477e+17
19187.0	7.395102265005395e+17
19188.0	7.39366360195618e+17
19189.0	7.392198862918996e+17
19190.0	7.39073035739682e+17
19191.0	7.389260539057492e+17
19192.0	7.387793459598675e+17
19193.0	7.386321751026345e+17
19194.0	7.384852898775039e+17
19195.0	7.38338195776034e+17
19196.0	7.381904740668755e+17
19197.0	7.380430728025427e+17
19198.0	7.378947827651923e+17
19199.0	7.376350714615123e+17
19200.0	7.375200546979839e+17
19201.0	7.374527334623914e+17
19202.0	7.373063333784233e+17
19203.0	7.371589530856105e+17
19204.0	7.370102431984297e+17
19205.0	7.368634721981782e+17
19206.0	7.36715025154048e+17
19207.0	7.365646189505193e+17
19208.0	7.364114168239444e+17
19209.0	7.362713650987007e+17
19210.0	7.361230564666025e+17
19211.0	7.359746429769046e+17
19212.0	7.358261791555583e+17
19213.0	7.356739580766889e+17
19214.0	7.3552370860032e+17
19215.0	7.353796423669075e+17
19216.0	7.352309691099817e+17
19217.0	7.350821054316543e+17
19218.0	7.348984277718355e+17
19219.0	7.347766236457641e+17
19220.0	7.346334168252415e+17
19221.0	7.34471587294959e+17
19222.0	7.343350603229864e+17
19223.0	7.341856733353299e+17
19224.0	7.340343750033407e+17
19225.0	7.338798743202474e+17
19226.0	7.337359741812733e+17
19227.0	7.335847819651753e+17
19228.0	7.334354750887251e+17
19229.0	7.332849738143062e+17
19230.0	7.331342080191145e+17
19231.0	7.329836578111487e+17
19232.0	7.328320288281939e+17
19233.0	7.32678451311411e+17
19234.0	7.325294099344041e+17
19235.0	7.32378058474564e+17
19236.0	7.322275172144468e+17
19237.0	7.320751510126591e+17
19238.0	7.319200576744106e+17
19239.0	7.317720123047935e+17
19240.0	7.316164826191187e+17
19241.0	7.314652920807424e+17
19242.0	7.313140800116054e+17
19243.0	7.311545539930793e+17
19244.0	7.310073628633769e+17
19245.0	7.308501613281279e+17
19246.0	7.306962930062676e+17
19247.0	7.305434820684457e+17
19248.0	7.303899593572351e+17
19249.0	7.302360868410708e+17
19250.0	7.300752949815977e+17
19251.0	7.298652333320872e+17
19252.0	7.297039824759464e+17
19253.0	7.295613411874132e+17
19254.0	7.294063343916372e+17
19255.0	7.292436314674514e+17
19256.0	7.290944962778451e+17
19257.0	7.289407027544063e+17
19258.0	7.287847789439657e+17
19259.0	7.286255107353257e+17
19260.0	7.284697854552745e+17
19261.0	7.283155982265002e+17
19262.0	7.281565239345151e+17
19263.0	7.279989316299434e+17
19264.0	7.278230517405011e+17
19265.0	7.2767838893725e+17
19266.0	7.275219251800744e+17
19267.0	7.273698029469693e+17
19268.0	7.272111294906368e+17
19269.0	7.270521297174527e+17
19270.0	7.268926832508927e+17
19271.0	7.267195826470911e+17
19272.0	7.265715139291817e+17
19273.0	7.263156302075219e+17
19274.0	7.261926107119615e+17
19275.0	7.260910836689578e+17
19276.0	7.259289690658131e+17
19277.0	7.257681210026664e+17
19278.0	7.25605997032243e+17
19279.0	7.254432992810323e+17
19280.0	7.252773410177024e+17
19281.0	7.251170505173674e+17
19282.0	7.249533882160467e+17
19283.0	7.247876876227926e+17
19284.0	7.246223327799977e+17
19285.0	7.244518910853117e+17
19286.0	7.242926140686335e+17
19287.0	7.2412820406272e+17
19288.0	7.239258062454783e+17
19289.0	7.237141668386131e+17
19290.0	7.236282595235156e+17
19291.0	7.23449140093474e+17
19292.0	7.232924565547688e+17
19293.0	7.231234350514175e+17
19294.0	7.229545393771859e+17
19295.0	7.227847582853804e+17
19296.0	7.226143983796223e+17
19297.0	7.224434118448468e+17
19298.0	7.22271992038468e+17
19299.0	7.220999169419944e+17
19300.0	7.219271111977641e+17
19301.0	7.217535528555858e+17
19302.0	7.215790924584275e+17
19303.0	7.214018558514516e+17
19304.0	7.21228011737361e+17
19305.0	7.210537466549587e+17
19306.0	7.208771507978239e+17
19307.0	7.206972474523647e+17
19308.0	7.205198836181674e+17
19309.0	7.202521585374548e+17
19310.0	7.200678146823508e+17
19311.0	7.198913513652224e+17
19312.0	7.197118681492138e+17
19313.0	7.195287915331584e+17
19314.0	7.19276556156928e+17
19315.0	7.19096001855488e+17
19316.0	7.189769826074623e+17
19317.0	7.18791558579268e+17
19318.0	7.186047256843604e+17
19319.0	7.184169841633962e+17
19320.0	7.18228001408068e+17
19321.0	7.180379860150953e+17
19322.0	7.178426119793322e+17
19323.0	7.17652505010722e+17
19324.0	7.174605655506943e+17
19325.0	7.172630960406528e+17
19326.0	7.170705224018602e+17
19327.0	7.168733639693651e+17
19328.0	7.166761851245908e+17
19329.0	7.164772873142271e+17
19330.0	7.162756187466408e+17
19331.0	7.160515756643668e+17
19332.0	7.157444272018772e+17
19333.0	7.155404418405716e+17
19334.0	7.153347317814612e+17
19335.0	7.151281213450921e+17
19336.0	7.149197623033855e+17
19337.0	7.147098892577449e+17
19338.0	7.144901292589053e+17
19339.0	7.142863797572948e+17
19340.0	7.140700522370387e+17
19341.0	7.138554094288896e+17
19342.0	7.136239382342313e+17
19343.0	7.134196194257578e+17
19344.0	7.131975149507923e+17
19345.0	7.127245646725116e+17
19346.0	7.125390241824768e+17
19347.0	7.123432178537812e+17
19348.0	7.121154970659497e+17
19349.0	7.118814181326847e+17
19350.0	7.116461775170216e+17
19351.0	7.114085629252947e+17
19352.0	7.111665423570262e+17
19353.0	7.108844846404948e+17
19354.0	7.104503091647827e+17
19355.0	7.101980094758911e+17
19356.0	7.099498780863145e+17
19357.0	7.096955361908051e+17
19358.0	7.094372301187753e+17
19359.0	7.091726763513172e+17
19360.0	7.087320306024447e+17
19361.0	7.083507879422634e+17
19362.0	7.080799787898195e+17
19363.0	7.078042681737215e+17
19364.0	7.075245856915455e+17
19365.0	7.070441283081555e+17
19366.0	7.065898026969769e+17
19367.0	7.062949824124246e+17
19368.0	7.059957462248105e+17
19369.0	7.054994557632513e+17
19370.0	7.049344497396394e+17
19371.0	7.046244751551145e+17
19372.0	7.042803119598249e+17
19373.0	7.034576215998464e+17
19374.0	7.031179712659455e+17
19375.0	7.026925419626493e+17
19376.0	7.01820137705745e+17
19377.0	7.014519425466365e+17
19378.0	7.008692351620435e+17
19379.0	7.003350791531178e+17
19380.0	6.999463938402985e+17
19381.0	6.995504303614633e+17
19382.0	6.991439356843347e+17
19383.0	6.987311505997823e+17
19384.0	6.983157444946602e+17
19385.0	6.978873029121363e+17
19386.0	6.974500543397887e+17
19387.0	6.970033641794217e+17
19388.0	6.965471523897343e+17
19389.0	6.960810960792233e+17
19390.0	6.956037564618067e+17
19391.0	6.95013875069747e+17
19392.0	6.94584209309696e+17
19393.0	6.940415892652031e+17
19394.0	6.935196860765524e+17
19395.0	6.929882848864938e+17
19396.0	6.924474645479423e+17
19397.0	6.91896452120576e+17
19398.0	6.913334618794666e+17
19399.0	6.907052284007763e+17
19400.0	6.900720144657066e+17
19401.0	6.894753936659795e+17
19402.0	6.88862388237107e+17
19403.0	6.88226192850944e+17
19404.0	6.874379672966484e+17
19405.0	6.867432235510441e+17
19406.0	6.860489385224873e+17
19407.0	6.851835093931347e+17
19408.0	6.843638149545983e+17
19409.0	6.83555072892382e+17
19410.0	6.825657152219817e+17
19411.0	6.816410353969832e+17
19412.0	6.805529841456468e+17
19413.0	6.793714705891328e+17
19414.0	6.781503661583014e+17
19415.0	6.76739055703381e+17
19416.0	6.750820211097606e+17
19417.0	6.731752320707242e+17
19418.0	6.710255459237883e+17
19419.0	6.689434533625855e+17
19420.0	6.674712407048191e+17
19421.0	6.66105164210722e+17
19422.0	6.647010056732671e+17
19423.0	6.632400453544617e+17
19424.0	6.616875784645292e+17
19425.0	6.600511059569321e+17
19426.0	6.583548656659112e+17
19427.0	6.566159956574208e+17
19428.0	6.54744951665459e+17
19429.0	6.528131435331581e+17
19430.0	6.506872497154732e+17
19431.0	6.484163118323027e+17
19432.0	6.459517741039615e+17
19433.0	6.43219268304896e+17
19434.0	6.401169354828461e+17
19435.0	6.365763226391894e+17
19436.0	6.322543995999576e+17
19437.0	6.273706950481233e+17
19438.0	6.231862206092627e+17
19439.0	6.191514802367148e+17
19440.0	6.147134521518762e+17
19441.0	6.09725879646071e+17
19442.0	6.039310225287853e+17
19443.0	5.971944059611818e+17
19444.0	5.894004942744228e+17
19445.0	5.803157576395442e+17
19446.0	5.705348700001621e+17
19447.0	5.589530388201466e+17
19448.0	5.449237801555291e+17
19449.0	5.276852583137278e+17
19450.0	5.065288096328338e+17
19451.0	4.995922122156714e+17
19452.0	5.170598530864465e+17
19453.0	5.367130560135174e+17
19454.0	5.519079065867599e+17
19455.0	5.644013801570303e+17
19456.0	5.74725140687531e+17
19457.0	5.838797741402793e+17
19458.0	5.920699097022465e+17
19459.0	5.990877368767832e+17
19460.0	6.051271719692969e+17
19461.0	6.102301631927638e+17
19462.0	6.146724020092928e+17
19463.0	6.18696087384883e+17
19464.0	6.224204915539968e+17
19465.0	6.267983666085885e+17
19466.0	6.312237844485462e+17
19467.0	6.3489715568203e+17
19468.0	6.378840204334418e+17
19469.0	6.405177466683391e+17
19470.0	6.428953836606803e+17
19471.0	6.450272080145066e+17
19472.0	6.469451456533843e+17
19473.0	6.486876250002772e+17
19474.0	6.503686999463254e+17
19475.0	6.518802213415593e+17
19476.0	6.533499181858815e+17
19477.0	6.547854499075412e+17
19478.0	6.561122887576233e+17
19479.0	6.573665821567657e+17
19480.0	6.585333542726314e+17
19481.0	6.596612755991209e+17
19482.0	6.607508869917353e+17
19483.0	6.622283897154218e+17
19484.0	6.642809814996312e+17
19485.0	6.659914006353235e+17
19486.0	6.674489179198804e+17
19487.0	6.686600963904852e+17
19488.0	6.697457048791721e+17
19489.0	6.707433969811452e+17
19490.0	6.714499476925098e+17
19491.0	6.723203696514387e+17
19492.0	6.729305696501761e+17
19493.0	6.736408641273855e+17
19494.0	6.741269614515539e+17
19495.0	6.747446108138152e+17
19496.0	6.752208453020329e+17
19497.0	6.756537085198335e+17
19498.0	6.761342213379412e+17
19499.0	6.764310976004095e+17
19500.0	6.76946104164898e+17
19501.0	6.772881462307497e+17
19502.0	6.776277853099347e+17
19503.0	6.780274355120809e+17
19504.0	6.783310451703805e+17
19505.0	6.786226704438611e+17
19506.0	6.789031724930387e+17
19507.0	6.791734486193491e+17
19508.0	6.794345885029715e+17
19509.0	6.7968517027485e+17
19510.0	6.799690403501398e+17
19511.0	6.800659031173801e+17
19512.0	6.804027285875369e+17
19513.0	6.805771808058025e+17
19514.0	6.807926405944659e+17
19515.0	6.809950645562026e+17
19516.0	6.811864675647487e+17
19517.0	6.813509381084499e+17
19518.0	6.81510068953634e+17
19519.0	6.816584586057044e+17
19520.0	6.81797963813137e+17
19521.0	6.81931069002001e+17
19522.0	6.820561366461097e+17
19523.0	6.821739082984105e+17
19524.0	6.825792273820325e+17
19525.0	6.827237937162921e+17
19526.0	6.829937382129664e+17
19527.0	6.834760410202111e+17
19528.0	6.83550802182144e+17
19529.0	6.837780276925784e+17
19530.0	6.841659729903615e+17
19531.0	6.842190404430506e+17
19532.0	6.842669768638461e+17
19533.0	6.846667001167871e+17
19534.0	6.847520179224575e+17
19535.0	6.847815997194239e+17
19536.0	6.848051782090751e+17
19537.0	6.850554730905596e+17
19538.0	6.851753239991635e+17
19539.0	6.851694331691007e+17
19540.0	6.851951726340777e+17
19541.0	6.851997179314175e+17
19542.0	6.853153212683603e+17
19543.0	6.854670270769834e+17
19544.0	6.854583956187817e+17
19545.0	6.854279646849706e+17
19546.0	6.85398170865937e+17
19547.0	6.854147643015167e+17
19548.0	6.853948345767252e+17
19549.0	6.854995979446953e+17
19550.0	6.855598363290281e+17
19551.0	6.855311896521385e+17
19552.0	6.855000293288617e+17
19553.0	6.854656871366655e+17
19554.0	6.854296318509055e+17
19555.0	6.853929493069823e+17
19556.0	6.853520581285203e+17
19557.0	6.853089650802687e+17
19558.0	6.853053584681642e+17
19559.0	6.853781905997823e+17
19560.0	6.853281009631231e+17
19561.0	6.852785813323775e+17
19562.0	6.852261900713983e+17
19563.0	6.851721657581567e+17
19564.0	6.851166667276287e+17
19565.0	6.850596569088e+17
19566.0	6.850003785307476e+17
19567.0	6.849412217875113e+17
19568.0	6.848787561578496e+17
19569.0	6.848170855585108e+17
19570.0	6.84753500049681e+17
19571.0	6.846880931643391e+17
19572.0	6.846205829753513e+17
19573.0	6.846591760946516e+17
19574.0	6.845969087157588e+17
19575.0	6.845306076048042e+17
19576.0	6.844592888479743e+17
19577.0	6.843862824430249e+17
19578.0	6.843116246007807e+17
19579.0	6.84237656302114e+17
19580.0	6.841621365303977e+17
19581.0	6.840859112767487e+17
19582.0	6.840085730645331e+17
19583.0	6.839294943559679e+17
19584.0	6.838491618301267e+17
19585.0	6.837638536014505e+17
19586.0	6.836805422809087e+17
19587.0	6.836029125645652e+17
19588.0	6.835012371131049e+17
19589.0	6.834346812680874e+17
19590.0	6.833470714849961e+17
19591.0	6.832640146188969e+17
19592.0	6.831769928772265e+17
19593.0	6.830883824031059e+17
19594.0	6.829911452942335e+17
19595.0	6.829098313012563e+17
19596.0	6.828088709786281e+17
19597.0	6.827300148477951e+17
19598.0	6.826285266021033e+17
19599.0	6.825690917066068e+17
19600.0	6.825325799407615e+17
19601.0	6.824362230065834e+17
19602.0	6.82342810334003e+17
19603.0	6.822329901733204e+17
19604.0	6.821525520908287e+17
19605.0	6.820466853412864e+17
19606.0	6.819627631902719e+17
19607.0	6.818660281395882e+17
19608.0	6.817683486714538e+17
19609.0	6.816686569859754e+17
19610.0	6.815720617454249e+17
19611.0	6.814728464629757e+17
19612.0	6.813735997232467e+17
19613.0	6.812736305845587e+17
19614.0	6.811713419258537e+17
19615.0	6.810723057401855e+17
19616.0	6.809702320395603e+17
19617.0	6.808695442767871e+17
19618.0	6.807448111983273e+17
19619.0	6.806372846228819e+17
19620.0	6.805354773304659e+17
19621.0	6.804589851792723e+17
19622.0	6.803553869889535e+17
19623.0	6.802513689488041e+17
19624.0	6.801469738407252e+17
19625.0	6.800421971907924e+17
19626.0	6.799370668911274e+17
19627.0	6.798315393908733e+17
19628.0	6.797230844761427e+17
19629.0	6.796156483578538e+17
19630.0	6.795039313231872e+17
19631.0	6.792857688648362e+17
19632.0	6.792987516338175e+17
19633.0	6.791907452998995e+17
19634.0	6.790840660437674e+17
19635.0	6.789742688119465e+17
19636.0	6.78867833524497e+17
19637.0	6.787418695576233e+17
19638.0	6.78650076865058e+17
19639.0	6.785405009526783e+17
19640.0	6.784277491133097e+17
19641.0	6.782969505819306e+17
19642.0	6.782124154333866e+17
19643.0	6.781020760877737e+17
19644.0	6.779891671717204e+17
19645.0	6.778701865811968e+17
19646.0	6.777704832914772e+17
19647.0	6.776594439165267e+17
19648.0	6.775481738548564e+17
19649.0	6.774365688081066e+17
19650.0	6.773249889271805e+17
19651.0	6.772130888111443e+17
19652.0	6.77100984013073e+17
19653.0	6.769886028103679e+17
19654.0	6.76876194554402e+17
19655.0	6.767633134605652e+17
19656.0	6.766503603645097e+17
19657.0	6.765376077561855e+17
19658.0	6.76424422785024e+17
19659.0	6.763110406815741e+17
19660.0	6.761976126504959e+17
19661.0	6.760839528841215e+17
19662.0	6.759701219901437e+17
19663.0	6.758543269036031e+17
19664.0	6.757415613628415e+17
19665.0	6.756277205423444e+17
