# Flux units: erg / (cm m2 s)
# Wavelength units: Angstrom
wave	flux
19000.0	4.7821434531785376e+17
19001.0	4.7811784682591565e+17
19002.0	4.78050089242897e+17
19003.0	4.7796853743288314e+17
19004.0	4.7786552924132685e+17
19005.0	4.7778564368848205e+17
19006.0	4.777078244595029e+17
19007.0	4.7763126352172365e+17
19008.0	4.775445386668713e+17
19009.0	4.774409248178176e+17
19010.0	4.773600601746089e+17
19011.0	4.7727883209495885e+17
19012.0	4.771561819078655e+17
19013.0	4.7713560912636576e+17
19014.0	4.7703228566295885e+17
19015.0	4.76948396716851e+17
19016.0	4.768781259767808e+17
19017.0	4.7680360312122016e+17
19018.0	4.767136018158932e+17
19019.0	4.7663528640075085e+17
19020.0	4.7654882368989856e+17
19021.0	4.76468084736e+17
19022.0	4.763891171764906e+17
19023.0	4.762825814354602e+17
19024.0	4.7619400633330336e+17
19025.0	4.761257692015274e+17
19026.0	4.7604047795978234e+17
19027.0	4.759554503300436e+17
19028.0	4.7586826116573856e+17
19029.0	4.7578208157040634e+17
19030.0	4.7569591329969485e+17
19031.0	4.756236227226283e+17
19032.0	4.75540720067106e+17
19033.0	4.7541978702807034e+17
19034.0	4.753113499391317e+17
19035.0	4.750383003293012e+17
19036.0	4.74288534725154e+17
19037.0	4.749064079933438e+17
19038.0	4.74983923974144e+17
19039.0	4.7493768386969594e+17
19040.0	4.748640239222783e+17
19041.0	4.7478965912207354e+17
19042.0	4.738032810852338e+17
19043.0	4.746336721873577e+17
19044.0	4.7455904775973536e+17
19045.0	4.7446354492566176e+17
19046.0	4.7437917300544845e+17
19047.0	4.7429063523259725e+17
19048.0	4.740869061432659e+17
19049.0	4.722256090147474e+17
19050.0	4.740028076916734e+17
19051.0	4.7383017216628045e+17
19052.0	4.737804429601449e+17
19053.0	4.737741806545577e+17
19054.0	4.7370504006970016e+17
19055.0	4.7334198174460576e+17
19056.0	4.734813807662417e+17
19057.0	4.7348423715717114e+17
19058.0	4.724371404881904e+17
19059.0	4.729307103144615e+17
19060.0	4.732370386507094e+17
19061.0	4.7314843293013325e+17
19062.0	4.73058528722944e+17
19063.0	4.729912265714346e+17
19064.0	4.7290407837149856e+17
19065.0	4.7281188050916685e+17
19066.0	4.723882955112451e+17
19067.0	4.7263550065868794e+17
19068.0	4.725827278558549e+17
19069.0	4.724977423788714e+17
19070.0	4.723998907345578e+17
19071.0	4.723216713689771e+17
19072.0	4.718855560276645e+17
19073.0	4.721741653868542e+17
19074.0	4.7207063996770976e+17
19075.0	4.720035223655764e+17
19076.0	4.719171543760895e+17
19077.0	4.718343862878207e+17
19078.0	4.717497880150015e+17
19079.0	4.7166603894893216e+17
19080.0	4.7158910604629325e+17
19081.0	4.715042039660543e+17
19082.0	4.714311945551871e+17
19083.0	4.713311660670976e+17
19084.0	4.712400884334591e+17
19085.0	4.7117275014103034e+17
19086.0	4.705624522052946e+17
19087.0	4.702146377984672e+17
19088.0	4.704362014878369e+17
19089.0	4.708270578423124e+17
19090.0	4.7076330700799994e+17
19091.0	4.70625661065626e+17
19092.0	4.6985136395605555e+17
19093.0	4.7051757958376096e+17
19094.0	4.7044061997738656e+17
19095.0	4.703496552404308e+17
19096.0	4.7027734802595834e+17
19097.0	4.701939663809194e+17
19098.0	4.6973142783317286e+17
19099.0	4.6956131322429485e+17
19100.0	4.699471659139071e+17
19101.0	4.6986097352594765e+17
19102.0	4.697788934433449e+17
19103.0	4.6969463896364365e+17
19104.0	4.696261878524587e+17
19105.0	4.686870946512923e+17
19106.0	4.6945001275391994e+17
19107.0	4.691639759710886e+17
19108.0	4.6895407000016224e+17
19109.0	4.691914763446955e+17
19110.0	4.691135496716287e+17
19111.0	4.687863479620945e+17
19112.0	4.686647303427408e+17
19113.0	4.6888379157053434e+17
19114.0	4.686272891890343e+17
19115.0	4.6868590584572576e+17
19116.0	4.6862004758336845e+17
19117.0	4.685310583635968e+17
19118.0	4.6834636554239994e+17
19119.0	4.6740643683587334e+17
19120.0	4.68231526617361e+17
19121.0	4.6819811947533645e+17
19122.0	4.6814593785965216e+17
19123.0	4.680725626355711e+17
19124.0	4.679746776465407e+17
19125.0	4.679001013835093e+17
19126.0	4.67798308491537e+17
19127.0	4.6767002493474125e+17
19128.0	4.676256127079764e+17
19129.0	4.6757007802586445e+17
19130.0	4.675024289355092e+17
19131.0	4.6742220385375565e+17
19132.0	4.673351017911636e+17
19133.0	4.672588552164693e+17
19134.0	4.67178419720465e+17
19135.0	4.6710203382497274e+17
19136.0	4.6701381698628256e+17
19137.0	4.669212063345321e+17
19138.0	4.6685370656139955e+17
19139.0	4.6677839853213e+17
19140.0	4.66699014897664e+17
19141.0	4.66614948532497e+17
19142.0	4.665277748172116e+17
19143.0	4.6644568809362765e+17
19144.0	4.663579644351828e+17
19145.0	4.662834659764906e+17
19146.0	4.661426066380117e+17
19147.0	4.6612096808386554e+17
19148.0	4.6573502654491354e+17
19149.0	4.6558665821388794e+17
19150.0	4.658848240850261e+17
19151.0	4.6579688875403936e+17
19152.0	4.657208463720447e+17
19153.0	4.649740114679114e+17
19154.0	4.65502966190353e+17
19155.0	4.6547567035897165e+17
19156.0	4.653902328758271e+17
19157.0	4.650993368520026e+17
19158.0	4.647535423520775e+17
19159.0	4.651284838394538e+17
19160.0	4.650507305309525e+17
19161.0	4.649699129338538e+17
19162.0	4.6487709039984634e+17
19163.0	4.648038115748523e+17
19164.0	4.6473008969154554e+17
19165.0	4.63938646057505e+17
19166.0	4.6456210103555405e+17
19167.0	4.6450008230898336e+17
19168.0	4.6441627417313274e+17
19169.0	4.643382883603797e+17
19170.0	4.642603453295274e+17
19171.0	4.641738803118079e+17
19172.0	4.6409555923435514e+17
19173.0	4.6402243315193165e+17
19174.0	4.639361279371946e+17
19175.0	4.6385264388123296e+17
19176.0	4.6377868886452896e+17
19177.0	4.636792758905514e+17
19178.0	4.6360890441727994e+17
19179.0	4.635328019169279e+17
19180.0	4.6345285848268794e+17
19181.0	4.6336704917449376e+17
19182.0	4.632740110532607e+17
19183.0	4.6320761347331405e+17
19184.0	4.6313176528759443e+17
19185.0	4.630439914373119e+17
19186.0	4.6296558682330445e+17
19187.0	4.6288113479188474e+17
19188.0	4.6280631938362016e+17
19189.0	4.627224629433685e+17
19190.0	4.62638180012305e+17
19191.0	4.625517927989247e+17
19192.0	4.624665720214868e+17
19193.0	4.6228944551499104e+17
19194.0	4.6214853689344006e+17
19195.0	4.621863414835882e+17
19196.0	4.6207184726043296e+17
19197.0	4.619369507542357e+17
19198.0	4.6176933888655354e+17
19199.0	4.6156852029467296e+17
19200.0	4.6149883242304845e+17
19201.0	4.615414560587775e+17
19202.0	4.6154977993468576e+17
19203.0	4.615087207743487e+17
19204.0	4.6146980951709005e+17
19205.0	4.6140390700482554e+17
19206.0	4.6133616850589e+17
19207.0	4.612324512672425e+17
19208.0	4.61178409058304e+17
19209.0	4.6111196261471565e+17
19210.0	4.6102713966701216e+17
19211.0	4.6095933727484576e+17
19212.0	4.6087910310543354e+17
19213.0	4.6079150604506445e+17
19214.0	4.6071623101098656e+17
19215.0	4.606414194475008e+17
19216.0	4.605629777139028e+17
19217.0	4.604817211129855e+17
19218.0	4.6037830418650445e+17
19219.0	4.6029606891465376e+17
19220.0	4.602413865151146e+17
19221.0	4.601593295011839e+17
19222.0	4.6007413934216525e+17
19223.0	4.600050041399978e+17
19224.0	4.5992003089640096e+17
19225.0	4.598513315523242e+17
19226.0	4.5977676633429325e+17
19227.0	4.596947797147647e+17
19228.0	4.5961863030811296e+17
19229.0	4.5951768592383994e+17
19230.0	4.594548531527679e+17
19231.0	4.593850400112639e+17
19232.0	4.59304726569506e+17
19233.0	4.5921544388826445e+17
19234.0	4.591369877542229e+17
19235.0	4.5905811456655354e+17
19236.0	4.5898314984106656e+17
19237.0	4.5889173652329805e+17
19238.0	4.5881349632600736e+17
19239.0	4.587435125462357e+17
19240.0	4.586580991803391e+17
19241.0	4.5858605865369594e+17
19242.0	4.584903931505321e+17
19243.0	4.584142743622996e+17
19244.0	4.583437553194325e+17
19245.0	4.5826959527116794e+17
19246.0	4.5819226369993376e+17
19247.0	4.5811309579250336e+17
19248.0	4.5803014224609274e+17
19249.0	4.5792487856756045e+17
19250.0	4.577312829166934e+17
19251.0	4.576526456586237e+17
19252.0	4.576872300718762e+17
19253.0	4.576294395532629e+17
19254.0	4.5755530872531616e+17
19255.0	4.5745382684098554e+17
19256.0	4.5738506486196896e+17
19257.0	4.573121805112661e+17
19258.0	4.572286505975807e+17
19259.0	4.5714575668019194e+17
19260.0	4.5702446195234125e+17
19261.0	4.5699000651393696e+17
19262.0	4.568995174809598e+17
19263.0	4.568091333055828e+17
19264.0	4.5672711445981856e+17
19265.0	4.566499791820116e+17
19266.0	4.565726422979925e+17
19267.0	4.5652037707584845e+17
19268.0	4.564345201623039e+17
19269.0	4.563596154153643e+17
19270.0	4.5627709528036685e+17
19271.0	4.5618397571973114e+17
19272.0	4.5612282067025914e+17
19273.0	4.5603477467955194e+17
19274.0	4.559332115655337e+17
19275.0	4.5589340929829536e+17
19276.0	4.5581317918337696e+17
19277.0	4.557362640366251e+17
19278.0	4.5563963153667405e+17
19279.0	4.5557265465343994e+17
19280.0	4.5549674152591354e+17
19281.0	4.5541359490170874e+17
19282.0	4.553366963224574e+17
19283.0	4.5524968031300256e+17
19284.0	4.55168254681634e+17
19285.0	4.550794330243072e+17
19286.0	4.549761747124223e+17
19287.0	4.548355421459797e+17
19288.0	4.543440560499368e+17
19289.0	4.541299252264958e+17
19290.0	4.545891265063594e+17
19291.0	4.545619898488149e+17
19292.0	4.545303877255168e+17
19293.0	4.5445947239082656e+17
19294.0	4.543846139909462e+17
19295.0	4.5430664166987085e+17
19296.0	4.5381180830952237e+17
19297.0	4.540882814500867e+17
19298.0	4.540688100229119e+17
19299.0	4.5353219286630445e+17
19300.0	4.5391923820625914e+17
19301.0	4.538405035005268e+17
19302.0	4.5376154719573325e+17
19303.0	4.536700968981845e+17
19304.0	4.535987234056874e+17
19305.0	4.535149483349332e+17
19306.0	4.53439140344627e+17
19307.0	4.5334828305175885e+17
19308.0	4.532681166902612e+17
19309.0	4.531697090909525e+17
19310.0	4.530777205243904e+17
19311.0	4.529777609626965e+17
19312.0	4.5284251472145056e+17
19313.0	4.5252326366467405e+17
19314.0	4.460591922719414e+17
19315.0	4.463272981954589e+17
19316.0	4.5176629413369254e+17
19317.0	4.5246381982132896e+17
19318.0	4.524467208323072e+17
19319.0	4.5238298314014714e+17
19320.0	4.521728083143334e+17
19321.0	4.5188327662769485e+17
19322.0	4.5218220082899616e+17
19323.0	4.521103657533439e+17
19324.0	4.5202997115180365e+17
19325.0	4.519574113004202e+17
19326.0	4.518760840953855e+17
19327.0	4.5180575750116685e+17
19328.0	4.509575861152435e+17
19329.0	4.5165278766912845e+17
19330.0	4.515777025671168e+17
19331.0	4.5149671104621216e+17
19332.0	4.5141882428893856e+17
19333.0	4.513466430433962e+17
19334.0	4.512377275940865e+17
19335.0	4.496210227713385e+17
19336.0	4.5109588238445235e+17
19337.0	4.5102947809361914e+17
19338.0	4.5093169810199885e+17
19339.0	4.508635781311145e+17
19340.0	4.50762859680017e+17
19341.0	4.5012792181609946e+17
19342.0	4.504653393821702e+17
19343.0	4.505478025445376e+17
19344.0	4.4988231204208723e+17
19345.0	4.5006241713356864e+17
19346.0	4.5022782852956154e+17
19347.0	4.495068232679423e+17
19348.0	4.5016602818641914e+17
19349.0	4.500889856027306e+17
19350.0	4.497379957582507e+17
19351.0	4.499303698180779e+17
19352.0	4.490853220701512e+17
19353.0	4.4978422062339405e+17
19354.0	4.497124801992019e+17
19355.0	4.4962452844052486e+17
19356.0	4.4955224988712954e+17
19357.0	4.494782694948863e+17
19358.0	4.4939847761483085e+17
19359.0	4.491592233298595e+17
19360.0	4.4863185412423654e+17
19361.0	4.4916466508977485e+17
19362.0	4.49087501500416e+17
19363.0	4.490108984797866e+17
19364.0	4.489355563368447e+17
19365.0	4.488532136908117e+17
19366.0	4.487637260479146e+17
19367.0	4.4869517825802234e+17
19368.0	4.4862193830024525e+17
19369.0	4.485453986835114e+17
19370.0	4.484698899567957e+17
19371.0	4.483789960336725e+17
19372.0	4.483097373791572e+17
19373.0	4.482232668389375e+17
19374.0	4.481456169899349e+17
19375.0	4.48077877022993e+17
19376.0	4.4800205204575565e+17
19377.0	4.479247754199039e+17
19378.0	4.478473987599019e+17
19379.0	4.477693839365461e+17
19380.0	4.4767112691275085e+17
19381.0	4.475984687748436e+17
19382.0	4.4752139718055245e+17
19383.0	4.474431653019647e+17
19384.0	4.473512627186346e+17
19385.0	4.472930362021204e+17
19386.0	4.4721099093224096e+17
19387.0	4.4712456848670714e+17
19388.0	4.4703417012060154e+17
19389.0	4.469336302769491e+17
19390.0	4.467425263921834e+17
19391.0	4.46002232575044e+17
19392.0	4.463950187287893e+17
19393.0	4.465859802169344e+17
19394.0	4.465585854698838e+17
19395.0	4.46271363376743e+17
19396.0	4.4637376423307955e+17
19397.0	4.4634346618879994e+17
19398.0	4.46067783814349e+17
19399.0	4.458950390972415e+17
19400.0	4.459274993751383e+17
19401.0	4.460297214143146e+17
19402.0	4.4596061494312954e+17
19403.0	4.458818027825834e+17
19404.0	4.4579484500404896e+17
19405.0	4.457116537105066e+17
19406.0	4.45638439477794e+17
19407.0	4.4527925403320275e+17
19408.0	4.4545139148499616e+17
19409.0	4.4538085720282445e+17
19410.0	4.453140434780159e+17
19411.0	4.452343624673962e+17
19412.0	4.451505236432213e+17
19413.0	4.447896694947839e+17
19414.0	4.4499036743051936e+17
19415.0	4.448995295712598e+17
19416.0	4.4479743468939936e+17
19417.0	4.4473212385361914e+17
19418.0	4.446474855951017e+17
19419.0	4.4455971831589536e+17
19420.0	4.444709435648681e+17
19421.0	4.443812705337343e+17
19422.0	4.4427942108856314e+17
19423.0	4.441978093699072e+17
19424.0	4.441022133523798e+17
19425.0	4.4399399646440096e+17
19426.0	4.4389840946462714e+17
19427.0	4.4379047443387725e+17
19428.0	4.436580828359338e+17
19429.0	4.435349067530239e+17
19430.0	4.433487828353023e+17
19431.0	4.431820791742464e+17
19432.0	4.4312078130872314e+17
19433.0	4.429921780061525e+17
19434.0	4.428308536098815e+17
19435.0	4.4259688365861536e+17
19436.0	4.423357281861632e+17
19437.0	4.419397390521685e+17
19438.0	4.4031885963864755e+17
19439.0	4.409677408370686e+17
19440.0	4.4129699405059405e+17
19441.0	4.41029238001937e+17
19442.0	4.406055708655615e+17
19443.0	4.400419329540095e+17
19444.0	4.393213496393727e+17
19445.0	4.383756416013653e+17
19446.0	4.3711347360617805e+17
19447.0	4.353509054305621e+17
19448.0	4.3278493174551904e+17
19449.0	4.2865407036839245e+17
19450.0	4.201105304409425e+17
19451.0	4.1252716414675686e+17
19452.0	4.252674488096084e+17
19453.0	4.3072237045022726e+17
19454.0	4.3372032780752205e+17
19455.0	4.3560428662074016e+17
19456.0	4.367443661160447e+17
19457.0	4.3693846592225286e+17
19458.0	4.188411933316569e+17
19459.0	4.3418970055420954e+17
19460.0	4.389271842586623e+17
19461.0	4.3956500913192954e+17
19462.0	4.3986821725552634e+17
19463.0	4.400562242060287e+17
19464.0	4.401790302814206e+17
19465.0	4.402651244527615e+17
19466.0	4.4031972611194874e+17
19467.0	4.403503573237759e+17
19468.0	4.4036429415710714e+17
19469.0	4.398114201578145e+17
19470.0	4.4034629444130125e+17
19471.0	4.40327700742144e+17
19472.0	4.402965286748159e+17
19473.0	4.402575349994836e+17
19474.0	4.396356796590753e+17
19475.0	4.401134942814207e+17
19476.0	4.4010629224202234e+17
19477.0	4.400617051127807e+17
19478.0	4.40017174536738e+17
19479.0	4.3941538278932384e+17
19480.0	4.3989957058669216e+17
19481.0	4.398223927366997e+17
19482.0	4.397648362602496e+17
19483.0	4.3970810962684576e+17
19484.0	4.396341379028308e+17
19485.0	4.3957383101153274e+17
19486.0	4.389259707067068e+17
19487.0	4.3942696263352314e+17
19488.0	4.3935661625617056e+17
19489.0	4.3925807954220365e+17
19490.0	4.391596068612779e+17
19491.0	4.391291655116117e+17
19492.0	4.390741946138623e+17
19493.0	4.389965746842282e+17
19494.0	4.389194826077525e+17
19495.0	4.388360734900223e+17
19496.0	4.387034708486826e+17
19497.0	4.3856774030513485e+17
19498.0	4.379632014983166e+17
19499.0	4.372921641686357e+17
19500.0	4.382589016779434e+17
19501.0	4.3835663287582714e+17
19502.0	4.383209784956244e+17
19503.0	4.382640448034132e+17
19504.0	4.381917173863765e+17
19505.0	4.381034223938218e+17
19506.0	4.380412219140778e+17
19507.0	4.37952892178705e+17
19508.0	4.3784242896131405e+17
19509.0	4.3767055253503994e+17
19510.0	4.369894840380072e+17
19511.0	4.286653583589352e+17
19512.0	4.362828893563561e+17
19513.0	4.3680268511696186e+17
19514.0	4.368875769211561e+17
19515.0	4.3726070821683194e+17
19516.0	4.3718623702111546e+17
19517.0	4.372138961491285e+17
19518.0	4.370007202288979e+17
19519.0	4.369296829797714e+17
19520.0	4.3647999885530374e+17
19521.0	4.369669383957162e+17
19522.0	4.3680520093040614e+17
19523.0	4.366912822356655e+17
19524.0	4.363232929469792e+17
19525.0	4.366656061046783e+17
19526.0	4.365950647620948e+17
19527.0	4.365271387078656e+17
19528.0	4.3640689353468563e+17
19529.0	4.363139326585515e+17
19530.0	4.363048607285246e+17
19531.0	4.3622952089245e+17
19532.0	4.3615335114342394e+17
19533.0	4.360730395191978e+17
19534.0	4.360096611390806e+17
19535.0	4.359354357994836e+17
19536.0	4.358535505423018e+17
19537.0	4.3577639625031674e+17
19538.0	4.351799272843954e+17
19539.0	4.3561937527985485e+17
19540.0	4.355571421544447e+17
19541.0	4.3536484806601376e+17
19542.0	4.353593087885311e+17
19543.0	4.347864997516632e+17
19544.0	4.352168209416191e+17
19545.0	4.3514408094487885e+17
19546.0	4.350739181382315e+17
19547.0	4.3503625049210874e+17
19548.0	4.3496913421817165e+17
19549.0	4.3488173009578656e+17
19550.0	4.3481058232674976e+17
19551.0	4.347513388313257e+17
19552.0	4.346686305118889e+17
19553.0	4.3460104615362554e+17
19554.0	4.3451767793035936e+17
19555.0	4.343806150661462e+17
19556.0	4.3432715670432403e+17
19557.0	4.3429735400734714e+17
19558.0	4.342287625966932e+17
19559.0	4.341547956262228e+17
19560.0	4.338830579247782e+17
19561.0	4.3400404905492474e+17
19562.0	4.3374645762239123e+17
19563.0	4.338620255873706e+17
19564.0	4.337685748165289e+17
19565.0	4.3370561279098874e+17
19566.0	4.3362372788333216e+17
19567.0	4.335642271372629e+17
19568.0	4.3348744390137165e+17
19569.0	4.3341577995332256e+17
19570.0	4.333391386247168e+17
19571.0	4.3326279397321376e+17
19572.0	4.331907765152426e+17
19573.0	4.3305605253474976e+17
19574.0	4.3301380247169696e+17
19575.0	4.329738524950528e+17
19576.0	4.328680290866517e+17
19577.0	4.3273377354001056e+17
19578.0	4.3274893000703994e+17
19579.0	4.326774109721941e+17
19580.0	4.3259559568998406e+17
19581.0	4.3251660981534714e+17
19582.0	4.324544963674111e+17
19583.0	4.3238565350823245e+17
19584.0	4.3230222642490016e+17
19585.0	4.3222274702049274e+17
19586.0	4.321470533249707e+17
19587.0	4.320821934467753e+17
19588.0	4.319922424031913e+17
19589.0	4.319321706725375e+17
19590.0	4.3185199333594445e+17
19591.0	4.3178817839868576e+17
19592.0	4.317156170093908e+17
19593.0	4.315929228520105e+17
19594.0	4.315002613792767e+17
19595.0	4.314946614941013e+17
19596.0	4.3141056695719245e+17
19597.0	4.313438502606164e+17
19598.0	4.3121404598900045e+17
19599.0	4.311907339075583e+17
19600.0	4.3111651765562016e+17
19601.0	4.3104327609002656e+17
19602.0	4.309646990901246e+17
19603.0	4.3088208926692685e+17
19604.0	4.308206023081982e+17
19605.0	4.3072949042107744e+17
19606.0	4.306750661110442e+17
19607.0	4.306120348794879e+17
19608.0	4.3052047566984525e+17
19609.0	4.304593918536362e+17
19610.0	4.301326236254214e+17
19611.0	4.299238620004354e+17
19612.0	4.3024418414264314e+17
19613.0	4.301566381129727e+17
19614.0	4.3008863369516365e+17
19615.0	4.3001936930843296e+17
19616.0	4.296864807518214e+17
19617.0	4.2947172218088134e+17
19618.0	4.297261908841811e+17
19619.0	4.296100279571797e+17
19620.0	4.294780670443512e+17
19621.0	4.28988361360452e+17
19622.0	4.294994314308265e+17
19623.0	4.294036574349993e+17
19624.0	4.2927841404955315e+17
19625.0	4.29277915975953e+17
19626.0	4.2918887243994445e+17
19627.0	4.291121471553536e+17
19628.0	4.290123855648086e+17
19629.0	4.2756891626263814e+17
19630.0	4.287370431386964e+17
19631.0	4.2858289813258234e+17
19632.0	4.2865538591184205e+17
19633.0	4.286341054114475e+17
19634.0	4.2859646621668685e+17
19635.0	4.2847756594708435e+17
19636.0	4.278305281452708e+17
19637.0	4.2775346969313197e+17
19638.0	4.282861506352466e+17
19639.0	4.282490435578537e+17
19640.0	4.281376912179199e+17
19641.0	4.280109438249642e+17
19642.0	4.279970360022357e+17
19643.0	4.2793049036335776e+17
19644.0	4.278903923976874e+17
19645.0	4.2782107858807456e+17
19646.0	4.2707794103282234e+17
19647.0	4.276593105043455e+17
19648.0	4.276123510068564e+17
19649.0	4.275345301700608e+17
19650.0	4.2746385041544525e+17
19651.0	4.273919232748202e+17
19652.0	4.2732325007523834e+17
19653.0	4.2724343533622605e+17
19654.0	4.2717809493060256e+17
19655.0	4.2709642302368416e+17
