# Flux units: erg / (cm m2 s)
# Wavelength units: Angstrom
wave	flux
19000.0	6.425127146575188e+17
19001.0	6.423873844499795e+17
19002.0	6.422735070691327e+17
19003.0	6.421537459186346e+17
19004.0	6.420340132194985e+17
19005.0	6.419145206442665e+17
19006.0	6.417948510694057e+17
19007.0	6.416723918629546e+17
19008.0	6.415519116689407e+17
19009.0	6.41431111868962e+17
19010.0	6.412889124503551e+17
19011.0	6.41194295243571e+17
19012.0	6.41066067820544e+17
19013.0	6.409562582854314e+17
19014.0	6.408333284780714e+17
19015.0	6.407148307917482e+17
19016.0	6.405943215172266e+17
19017.0	6.404770138947583e+17
19018.0	6.403570714105171e+17
19019.0	6.402378100812457e+17
19020.0	6.401166718708394e+17
19021.0	6.399982576511658e+17
19022.0	6.398796234402474e+17
19023.0	6.397575328432127e+17
19024.0	6.396386106234196e+17
19025.0	6.3951973398173e+17
19026.0	6.393983648748883e+17
19027.0	6.392742862476627e+17
19028.0	6.391607973991766e+17
19029.0	6.390408793817087e+17
19030.0	6.389221397539497e+17
19031.0	6.388024705985193e+17
19032.0	6.38682606407953e+17
19033.0	6.385579158317738e+17
19034.0	6.384426551694675e+17
19035.0	6.383215613487785e+17
19036.0	6.377275064844285e+17
19037.0	6.380837629766314e+17
19038.0	6.379634532810751e+17
19039.0	6.378452549981523e+17
19040.0	6.377256348461737e+17
19041.0	6.376059821883391e+17
19042.0	6.374811032180052e+17
19043.0	6.373668335998291e+17
19044.0	6.372471066329087e+17
19045.0	6.37127648940305e+17
19046.0	6.370051131878057e+17
19047.0	6.368877125915988e+17
19048.0	6.367567453093887e+17
19049.0	6.366454146400255e+17
19050.0	6.365273977607508e+17
19051.0	6.363373520988841e+17
19052.0	6.362795109690025e+17
19053.0	6.361705618953556e+17
19054.0	6.360517260083199e+17
19055.0	6.359175399473151e+17
19056.0	6.358115227620691e+17
19057.0	6.356927932705449e+17
19058.0	6.355732110071124e+17
19059.0	6.354543471580499e+17
19060.0	6.353335614788948e+17
19061.0	6.352155301991763e+17
19062.0	6.35095825392162e+17
19063.0	6.349765335143763e+17
19064.0	6.348505629065215e+17
19065.0	6.347277495610026e+17
19066.0	6.346150696539476e+17
19067.0	6.34499035631889e+17
19068.0	6.343797496960339e+17
19069.0	6.342604595658751e+17
19070.0	6.341397189055828e+17
19071.0	6.340218418364415e+17
19072.0	6.339025366067881e+17
19073.0	6.337829335116457e+17
19074.0	6.336639700478634e+17
19075.0	6.335447037553322e+17
19076.0	6.334242204854953e+17
19077.0	6.333054335320063e+17
19078.0	6.331853379556692e+17
19079.0	6.330676529856511e+17
19080.0	6.329475832042836e+17
19081.0	6.328269417392809e+17
19082.0	6.327075401105407e+17
19083.0	6.325847921961642e+17
19084.0	6.324585000949075e+17
19085.0	6.323527215655593e+17
19086.0	6.322122762048852e+17
19087.0	6.321005515505663e+17
19088.0	6.319910602932223e+17
19089.0	6.318588157755391e+17
19090.0	6.317555044057087e+17
19091.0	6.316365712807252e+17
19092.0	6.315133490604714e+17
19093.0	6.314001017339903e+17
19094.0	6.312805832239786e+17
19095.0	6.311614532463273e+17
19096.0	6.31042046234897e+17
19097.0	6.309239802123603e+17
19098.0	6.308051971735551e+17
19099.0	6.306862222453418e+17
19100.0	6.305662358607188e+17
19101.0	6.304482605749588e+17
19102.0	6.303237084108115e+17
19103.0	6.30210610471458e+17
19104.0	6.300917320122367e+17
19105.0	6.299728516655785e+17
19106.0	6.298514853549396e+17
19107.0	6.297342995070975e+17
19108.0	6.296162945116842e+17
19109.0	6.294578507634003e+17
19110.0	6.293778904121343e+17
19111.0	6.29259969302801e+17
19112.0	6.291412217058644e+17
19113.0	6.290224755769344e+17
19114.0	6.289036262681257e+17
19115.0	6.287816035489108e+17
19116.0	6.286649986121727e+17
19117.0	6.285463885884074e+17
19118.0	6.284223167419731e+17
19119.0	6.280668273180668e+17
19120.0	6.281869996501674e+17
19121.0	6.280700575612927e+17
19122.0	6.279543399994708e+17
19123.0	6.278356379806377e+17
19124.0	6.27714790785024e+17
19125.0	6.275981834715135e+17
19126.0	6.274795219976191e+17
19127.0	6.272606100171434e+17
19128.0	6.272272190930943e+17
19129.0	6.271195826967891e+17
19130.0	6.270046124201299e+17
19131.0	6.268870805422079e+17
19132.0	6.26768514978065e+17
19133.0	6.266372703824553e+17
19134.0	6.265238081677993e+17
19135.0	6.264129145449129e+17
19136.0	6.262949575742804e+17
19137.0	6.26167138886178e+17
19138.0	6.260565709509971e+17
19139.0	6.259396291417427e+17
19140.0	6.258213220166314e+17
19141.0	6.257029372968959e+17
19142.0	6.255831415433898e+17
19143.0	6.25463090286865e+17
19144.0	6.253457328220842e+17
19145.0	6.252294038006442e+17
19146.0	6.250772756955136e+17
19147.0	6.249871058490708e+17
19148.0	6.248743667324244e+17
19149.0	6.247561487362729e+17
19150.0	6.246374844661759e+17
19151.0	6.245197890803028e+17
19152.0	6.244011435447635e+17
19153.0	6.242821087778131e+17
19154.0	6.241576514748415e+17
19155.0	6.240468232131924e+17
19156.0	6.239284240231081e+17
19157.0	6.23809789043234e+17
19158.0	6.236648701777235e+17
19159.0	6.235728060437843e+17
19160.0	6.23455109189905e+17
19161.0	6.233360394704212e+17
19162.0	6.231577491144704e+17
19163.0	6.231001272767828e+17
19164.0	6.229832429993983e+17
19165.0	6.228638408813226e+17
19166.0	6.227390462164991e+17
19167.0	6.226230818198868e+17
19168.0	6.225084709251753e+17
19169.0	6.223901784801279e+17
19170.0	6.222745190094163e+17
19171.0	6.221527161416362e+17
19172.0	6.220384096834902e+17
19173.0	6.219202778802857e+17
19174.0	6.217990605373439e+17
19175.0	6.216843603738624e+17
19176.0	6.215663170704724e+17
19177.0	6.214395823303337e+17
19178.0	6.213288125792255e+17
19179.0	6.212069357518847e+17
19180.0	6.210925816184831e+17
19181.0	6.209695194808319e+17
19182.0	6.208565250009769e+17
19183.0	6.207399366317395e+17
19184.0	6.20620057411584e+17
19185.0	6.205036870063444e+17
19186.0	6.203859540814506e+17
19187.0	6.202638825684991e+17
19188.0	6.201498717388799e+17
19189.0	6.200315154006013e+17
19190.0	6.199131604604244e+17
19191.0	6.197937605793108e+17
19192.0	6.196780848207187e+17
19193.0	6.195594445280595e+17
19194.0	6.194411866161151e+17
19195.0	6.193241096104618e+17
19196.0	6.19205439398434e+17
19197.0	6.190873696010239e+17
19198.0	6.18969115463953e+17
19199.0	6.184890141070676e+17
19200.0	6.184888932412074e+17
19201.0	6.186153273196541e+17
19202.0	6.18498062758707e+17
19203.0	6.183793338963283e+17
19204.0	6.182607958747818e+17
19205.0	6.181436084191232e+17
19206.0	6.180254735400959e+17
19207.0	6.179025426841599e+17
19208.0	6.177781146015059e+17
19209.0	6.176715479624362e+17
19210.0	6.175542812344319e+17
19211.0	6.174362025590783e+17
19212.0	6.173181914120191e+17
19213.0	6.171933880090623e+17
19214.0	6.170725998133247e+17
19215.0	6.169625662324735e+17
19216.0	6.168455868841983e+17
19217.0	6.167277719606612e+17
19218.0	6.165624431924563e+17
19219.0	6.164827614827862e+17
19220.0	6.16372024517154e+17
19221.0	6.162366367181482e+17
19222.0	6.161367734157311e+17
19223.0	6.160181598268073e+17
19224.0	6.15897645519121e+17
19225.0	6.157740173601448e+17
19226.0	6.156628856406015e+17
19227.0	6.155444685548201e+17
19228.0	6.154277839263059e+17
19229.0	6.153094564588201e+17
19230.0	6.151903094243327e+17
19231.0	6.150720318690644e+17
19232.0	6.149536254088534e+17
19233.0	6.148320014281386e+17
19234.0	6.147162616365055e+17
19235.0	6.145979530433876e+17
19236.0	6.144807831339007e+17
19237.0	6.143613715786409e+17
19238.0	6.142381427873107e+17
19239.0	6.141253263556607e+17
19240.0	6.140024291240618e+17
19241.0	6.138855096145236e+17
19242.0	6.137684614097577e+17
19243.0	6.136411912667135e+17
19244.0	6.135320969303379e+17
19245.0	6.134134114091007e+17
19246.0	6.13293694718225e+17
19247.0	6.131757291492692e+17
19248.0	6.130569375121408e+17
19249.0	6.129378608720553e+17
19250.0	6.128178841343316e+17
19251.0	6.126929564401663e+17
19252.0	6.125649490782889e+17
19253.0	6.124605048968531e+17
19254.0	6.123420950112938e+17
19255.0	6.122130844418047e+17
19256.0	6.121020764542292e+17
19257.0	6.119850233561087e+17
19258.0	6.118656046705321e+17
19259.0	6.117421400894121e+17
19260.0	6.116176350412799e+17
19261.0	6.115069315601748e+17
19262.0	6.113841931528874e+17
19263.0	6.112644592653652e+17
19264.0	6.111172388454399e+17
19265.0	6.11017099907345e+17
19266.0	6.108972874465279e+17
19267.0	6.107884913251667e+17
19268.0	6.106684464999082e+17
19269.0	6.105483228217344e+17
19270.0	6.104280242410836e+17
19271.0	6.102885629340329e+17
19272.0	6.101853550936064e+17
19273.0	6.099378961208659e+17
19274.0	6.098691265921023e+17
19275.0	6.098256834592767e+17
19276.0	6.097037997113344e+17
19277.0	6.095832028457642e+17
19278.0	6.09462824084002e+17
19279.0	6.093440536281085e+17
19280.0	6.092187373316778e+17
19281.0	6.091014336238932e+17
19282.0	6.08981045424947e+17
19283.0	6.088537974418089e+17
19284.0	6.087314458192553e+17
19285.0	6.086044974492329e+17
19286.0	6.084919932835156e+17
19287.0	6.083719519535104e+17
19288.0	6.081172703193768e+17
19289.0	6.078181104680954e+17
19290.0	6.080049023986345e+17
19291.0	6.078674029073748e+17
19292.0	6.077594455070038e+17
19293.0	6.076359830230356e+17
19294.0	6.075126465779027e+17
19295.0	6.073899761882452e+17
19296.0	6.072664300279124e+17
19297.0	6.071420341015892e+17
19298.0	6.070178102815401e+17
19299.0	6.068947726106624e+17
19300.0	6.067700979029331e+17
19301.0	6.066453791550121e+17
19302.0	6.06520100397602e+17
19303.0	6.063915219812351e+17
19304.0	6.062684183199743e+17
19305.0	6.061442410566996e+17
19306.0	6.060190120716969e+17
19307.0	6.058904961504598e+17
19308.0	6.057655880297129e+17
19309.0	6.056274972114943e+17
19310.0	6.054964366759252e+17
19311.0	6.053842194006013e+17
19312.0	6.052593481198249e+17
19313.0	6.051318286953129e+17
19314.0	6.046110640504832e+17
19315.0	6.045073367455066e+17
19316.0	6.047470514951508e+17
19317.0	6.046188083434836e+17
19318.0	6.044891089294676e+17
19319.0	6.043605737144319e+17
19320.0	6.042303955206141e+17
19321.0	6.041002708041728e+17
19322.0	6.039638053486591e+17
19323.0	6.038325973133993e+17
19324.0	6.037066078311763e+17
19325.0	6.035626632325802e+17
19326.0	6.03442067275776e+17
19327.0	6.033083234342227e+17
19328.0	6.031757816102911e+17
19329.0	6.030419048093012e+17
19330.0	6.029051605723818e+17
19331.0	6.027698706404692e+17
19332.0	6.02636656189986e+17
19333.0	6.025007599015252e+17
19334.0	6.023637603713024e+17
19335.0	6.022267368636415e+17
19336.0	6.020886110928895e+17
19337.0	6.019497582395391e+17
19338.0	6.017987010800297e+17
19339.0	6.016705722930516e+17
19340.0	6.015253070479359e+17
19341.0	6.013871735876265e+17
19342.0	6.012239181337939e+17
19343.0	6.011030379429887e+17
19344.0	6.009592342730067e+17
19345.0	6.007030024940198e+17
19346.0	6.00620566315008e+17
19347.0	6.005187051257855e+17
19348.0	6.003754297982975e+17
19349.0	6.002255232761855e+17
19350.0	6.000759145496575e+17
19351.0	5.999254457810941e+17
19352.0	5.997711561413972e+17
19353.0	5.996228046574931e+17
19354.0	5.99469040214562e+17
19355.0	5.99308415148578e+17
19356.0	5.991574831890431e+17
19357.0	5.989998873193129e+17
19358.0	5.988397534762324e+17
19359.0	5.986733705396223e+17
19360.0	5.985161687247529e+17
19361.0	5.983530116273492e+17
19362.0	5.981904085275988e+17
19363.0	5.980237551981907e+17
19364.0	5.978553573179391e+17
19365.0	5.976854600439124e+17
19366.0	5.975136082242218e+17
19367.0	5.973399278977023e+17
19368.0	5.971643135776084e+17
19369.0	5.969820582062761e+17
19370.0	5.967923752118954e+17
19371.0	5.965849024266239e+17
19372.0	5.963823212483924e+17
19373.0	5.961947067449343e+17
19374.0	5.960069343958356e+17
19375.0	5.958153628461737e+17
19376.0	5.956215070785535e+17
19377.0	5.954245556349609e+17
19378.0	5.95225158492706e+17
19379.0	5.950226707775487e+17
19380.0	5.948171163970218e+17
19381.0	5.946084041250131e+17
19382.0	5.943919604924415e+17
19383.0	5.941743507035476e+17
19384.0	5.939618177002154e+17
19385.0	5.937392536693418e+17
19386.0	5.935131153924095e+17
19387.0	5.932827744228692e+17
19388.0	5.930483360377514e+17
19389.0	5.928099562651647e+17
19390.0	5.925674297939283e+17
19391.0	5.919019131469816e+17
19392.0	5.920421466953044e+17
19393.0	5.917168378751657e+17
19394.0	5.914537707787604e+17
19395.0	5.911855590189737e+17
19396.0	5.909118715953151e+17
19397.0	5.906334870405119e+17
19398.0	5.903468888500906e+17
19399.0	5.900157733655891e+17
19400.0	5.897542464875177e+17
19401.0	5.893730335369897e+17
19402.0	5.890014960069289e+17
19403.0	5.886800978859348e+17
19404.0	5.883527365132287e+17
19405.0	5.880149489396393e+17
19406.0	5.875745849780902e+17
19407.0	5.871239530807295e+17
19408.0	5.867130221581652e+17
19409.0	5.863620272805203e+17
19410.0	5.857412193976319e+17
19411.0	5.85332582060305e+17
19412.0	5.84756021777749e+17
19413.0	5.84161947689506e+17
19414.0	5.835172137489751e+17
19415.0	5.828475777362601e+17
19416.0	5.819485860659199e+17
19417.0	5.810910211167574e+17
19418.0	5.800553837756413e+17
19419.0	5.788335789659479e+17
19420.0	5.773894431189673e+17
19421.0	5.759592481598124e+17
19422.0	5.7501644355884365e+17
19423.0	5.741625493946367e+17
19424.0	5.732352159034026e+17
19425.0	5.722765078298622e+17
19426.0	5.7127844355331405e+17
19427.0	5.702258868092928e+17
19428.0	5.691315979288575e+17
19429.0	5.6796096852131834e+17
19430.0	5.666564538542762e+17
19431.0	5.6531489733126835e+17
19432.0	5.6394789102987936e+17
19433.0	5.6244903489481395e+17
19434.0	5.607327031186774e+17
19435.0	5.587796580368382e+17
19436.0	5.564581375464791e+17
19437.0	5.5350143801972006e+17
19438.0	5.485746541909321e+17
19439.0	5.442444854296578e+17
19440.0	5.409475628367871e+17
19441.0	5.3736104137850854e+17
19442.0	5.3338657664969414e+17
19443.0	5.290460130749098e+17
19444.0	5.238535741942437e+17
19445.0	5.162506739777537e+17
19446.0	5.0573548520297805e+17
19447.0	4.962249333189286e+17
19448.0	4.8249346143027155e+17
19449.0	4.611950902247424e+17
19450.0	4.1906714705919866e+17
19451.0	4.062480534514323e+17
19452.0	4.423672288073055e+17
19453.0	4.7302858390896736e+17
19454.0	4.89942759872921e+17
19455.0	5.0065597558074e+17
19456.0	5.101249109513554e+17
19457.0	5.195477355418966e+17
19458.0	5.246343777878026e+17
19459.0	5.29813279202782e+17
19460.0	5.337736404445865e+17
19461.0	5.373627927101439e+17
19462.0	5.4055154602038624e+17
19463.0	5.442283739895129e+17
19464.0	5.490802188178774e+17
19465.0	5.523797244728667e+17
19466.0	5.5474490067735904e+17
19467.0	5.566435600367612e+17
19468.0	5.582197212490411e+17
19469.0	5.595828652954964e+17
19470.0	5.6088508581806074e+17
19471.0	5.620049459718826e+17
19472.0	5.630703701415253e+17
19473.0	5.640932591752532e+17
19474.0	5.6500605108442445e+17
19475.0	5.6582066454309536e+17
19476.0	5.666652219768831e+17
19477.0	5.6742089560773965e+17
19478.0	5.681554086952958e+17
19479.0	5.688227435031209e+17
19480.0	5.694346359035221e+17
19481.0	5.7035606689054656e+17
19482.0	5.7172701842418266e+17
19483.0	5.727817850770773e+17
19484.0	5.736531639664639e+17
19485.0	5.74467082289152e+17
19486.0	5.750524848635902e+17
19487.0	5.754949222094163e+17
19488.0	5.760936379940864e+17
19489.0	5.763343013554858e+17
19490.0	5.767571422139731e+17
19491.0	5.770413187530751e+17
19492.0	5.773134817569449e+17
19493.0	5.77625943843362e+17
19494.0	5.777786034367146e+17
19495.0	5.779213153992704e+17
19496.0	5.781832424139433e+17
19497.0	5.783537134687572e+17
19498.0	5.784194980511744e+17
19499.0	5.778952251506684e+17
19500.0	5.786659350118399e+17
19501.0	5.788404979597312e+17
19502.0	5.789677518848e+17
19503.0	5.790416653778944e+17
19504.0	5.791085947256831e+17
19505.0	5.791697155216724e+17
19506.0	5.792246855106559e+17
19507.0	5.792726222809769e+17
19508.0	5.793175095126698e+17
19509.0	5.793558200756906e+17
19510.0	5.794275575638697e+17
19511.0	5.787296875937787e+17
19512.0	5.794254620895912e+17
19513.0	5.79347486692693e+17
19514.0	5.794242164512082e+17
19515.0	5.795421720936448e+17
19516.0	5.795781481769642e+17
19517.0	5.795780855420244e+17
19518.0	5.795804399446697e+17
19519.0	5.79575404822528e+17
19520.0	5.795655470197418e+17
19521.0	5.795556302869844e+17
19522.0	5.795389378658303e+17
19523.0	5.795228675997695e+17
19524.0	5.795019357858473e+17
19525.0	5.794769539519828e+17
19526.0	5.794513937235967e+17
19527.0	5.794220579225599e+17
19528.0	5.793899670929405e+17
19529.0	5.793560746699433e+17
19530.0	5.793200485345961e+17
19531.0	5.79281459679505e+17
19532.0	5.792406640612694e+17
19533.0	5.79197745635874e+17
19534.0	5.791663168771412e+17
19535.0	5.79158901068049e+17
19536.0	5.791082335262036e+17
19537.0	5.790597593956351e+17
19538.0	5.790014116637354e+17
19539.0	5.789217712679594e+17
19540.0	5.788953041611433e+17
19541.0	5.788392567952724e+17
19542.0	5.787800414016852e+17
19543.0	5.787197057094998e+17
19544.0	5.786578842550272e+17
19545.0	5.785682047227219e+17
19546.0	5.784796874320554e+17
19547.0	5.784646264553472e+17
19548.0	5.78397564707362e+17
19549.0	5.783239927704233e+17
19550.0	5.78260163432721e+17
19551.0	5.78189994893858e+17
19552.0	5.7811857833984e+17
19553.0	5.780449204895741e+17
19554.0	5.77970800496913e+17
19555.0	5.778978580550996e+17
19556.0	5.778235465225556e+17
19557.0	5.777472283650729e+17
19558.0	5.776704268140543e+17
19559.0	5.775924628815871e+17
19560.0	5.775127125950464e+17
19561.0	5.774333838360576e+17
19562.0	5.773550790464851e+17
19563.0	5.772743328923648e+17
19564.0	5.771929726921386e+17
19565.0	5.771109228784297e+17
19566.0	5.770264386207743e+17
19567.0	5.769448188630358e+17
19568.0	5.768594901521748e+17
19569.0	5.767759810002943e+17
19570.0	5.766914350164649e+17
19571.0	5.766055804097876e+17
19572.0	5.765180177427114e+17
19573.0	5.7643180878725114e+17
19574.0	5.76340729266176e+17
19575.0	5.762583560716287e+17
19576.0	5.7617036020285434e+17
19577.0	5.760805707098794e+17
19578.0	5.759904659450538e+17
19579.0	5.7590193005963936e+17
19580.0	5.758122666754047e+17
19581.0	5.7572281775991456e+17
19582.0	5.756332962829652e+17
19583.0	5.7554243961924256e+17
19584.0	5.754508890778282e+17
19585.0	5.7535340611283616e+17
19586.0	5.752596395808084e+17
19587.0	5.7517309564026874e+17
19588.0	5.750561318808234e+17
19589.0	5.749890471340713e+17
19590.0	5.748921346643284e+17
19591.0	5.748037353734143e+17
19592.0	5.7470995423122765e+17
19593.0	5.746149348605952e+17
19594.0	5.745086412008105e+17
19595.0	5.7442524927972685e+17
19596.0	5.742947818886484e+17
19597.0	5.742361467770196e+17
19598.0	5.7412259270710605e+17
19599.0	5.7404709670311245e+17
19600.0	5.739520124605781e+17
19601.0	5.7385231714003616e+17
19602.0	5.737574586209621e+17
19603.0	5.736356860919807e+17
19604.0	5.735643733469866e+17
19605.0	5.7345419044891296e+17
19606.0	5.733742767942313e+17
19607.0	5.7327766477646496e+17
19608.0	5.731800328437758e+17
19609.0	5.7308029138589e+17
19610.0	5.7298604201956685e+17
19611.0	5.728881554227198e+17
19612.0	5.727908658850474e+17
19613.0	5.7269239914605216e+17
19614.0	5.72592770584849e+17
19615.0	5.724969594694313e+17
19616.0	5.723952213830315e+17
19617.0	5.7230019956572154e+17
19618.0	5.721697203606867e+17
19619.0	5.720635668605609e+17
19620.0	5.7196664355553274e+17
19621.0	5.7190599112349e+17
19622.0	5.718070983830185e+17
19623.0	5.717080865243135e+17
19624.0	5.716084046255445e+17
19625.0	5.7150971558843725e+17
19626.0	5.714104305407316e+17
19627.0	5.713109821248852e+17
19628.0	5.7120280969652896e+17
19629.0	5.711068041751209e+17
19630.0	5.70992891072785e+17
19631.0	5.70514229900083e+17
19632.0	5.7081233124884474e+17
19633.0	5.707103456985087e+17
19634.0	5.7061275626810016e+17
19635.0	5.705105324812969e+17
19636.0	5.704126602848938e+17
19637.0	5.702912925761535e+17
19638.0	5.702116997857279e+17
19639.0	5.7011096518656e+17
19640.0	5.700058072743935e+17
19641.0	5.698650315423744e+17
19642.0	5.6981048776458234e+17
19643.0	5.697091640055124e+17
19644.0	5.696057545588736e+17
19645.0	5.6949290352421536e+17
19646.0	5.6940801766195194e+17
19647.0	5.6930725684838394e+17
19648.0	5.6920644318658554e+17
19649.0	5.69105421906739e+17
19650.0	5.690046784296276e+17
19651.0	5.6890373006076576e+17
19652.0	5.688027414265855e+17
19653.0	5.6870159683420154e+17
19654.0	5.6860064098549754e+17
19655.0	5.684992665452543e+17
19656.0	5.6839798270197754e+17
19657.0	5.682972072083455e+17
19658.0	5.681959983732052e+17
19659.0	5.6809465783691936e+17
19660.0	5.6799347626475514e+17
19661.0	5.6789216865375565e+17
19662.0	5.6779082811746976e+17
19663.0	5.676868902584319e+17
