# Flux units: erg / (cm m2 s)
# Wavelength units: Angstrom
wave	flux
19000.0	6.554301302308863e+17
19001.0	6.552407605510143e+17
19002.0	6.551888610721791e+17
19003.0	6.550637976223743e+17
19004.0	6.549428219412479e+17
19005.0	6.548171401811284e+17
19006.0	6.546967220628138e+17
19007.0	6.545698524058964e+17
19008.0	6.544100508915028e+17
19009.0	6.542496034542931e+17
19010.0	6.538961514834597e+17
19011.0	6.540619054841855e+17
19012.0	6.538909885748563e+17
19013.0	6.53838817305122e+17
19014.0	6.536770337723731e+17
19015.0	6.5356991313565e+17
19016.0	6.534380461053267e+17
19017.0	6.533391511977983e+17
19018.0	6.532206338681513e+17
19019.0	6.530981578844841e+17
19020.0	6.529673506149716e+17
19021.0	6.528591110078464e+17
19022.0	6.527375126822911e+17
19023.0	6.525909733474301e+17
19024.0	6.524818939707391e+17
19025.0	6.523695101815465e+17
19026.0	6.522316791305556e+17
19027.0	6.521047878729727e+17
19028.0	6.520058296314537e+17
19029.0	6.51872750866705e+17
19030.0	6.517687698762409e+17
19031.0	6.516507325846868e+17
19032.0	6.515255447038634e+17
19033.0	6.513378944090111e+17
19034.0	6.512715084333055e+17
19035.0	6.51132093543219e+17
19036.0	6.487331714367488e+17
19037.0	6.509066940230313e+17
19038.0	6.507775813222399e+17
19039.0	6.506694437066067e+17
19040.0	6.505501533667327e+17
19041.0	6.504222849062227e+17
19042.0	6.502421415766697e+17
19043.0	6.501831625321129e+17
19044.0	6.500547887977812e+17
19045.0	6.499400243216381e+17
19046.0	6.49773497590306e+17
19047.0	6.496825495606611e+17
19048.0	6.494369533482322e+17
19049.0	6.49406692143923e+17
19050.0	6.493025213612032e+17
19051.0	6.488501109391356e+17
19052.0	6.49011794018304e+17
19053.0	6.489692017000447e+17
19054.0	6.488414859821055e+17
19055.0	6.485454770317997e+17
19056.0	6.48586485441058e+17
19057.0	6.484770156445695e+17
19058.0	6.483493603246079e+17
19059.0	6.482356003143679e+17
19060.0	6.481008274702335e+17
19061.0	6.479956929762644e+17
19062.0	6.4786905183901e+17
19063.0	6.477497454908756e+17
19064.0	6.475351009350996e+17
19065.0	6.473823150232916e+17
19066.0	6.473446497539412e+17
19067.0	6.472520548308308e+17
19068.0	6.471393423480148e+17
19069.0	6.470191879116116e+17
19070.0	6.468773985561257e+17
19071.0	6.467725247381503e+17
19072.0	6.466533347120467e+17
19073.0	6.465276272268628e+17
19074.0	6.46412172857617e+17
19075.0	6.462904110940159e+17
19076.0	6.46154460209698e+17
19077.0	6.460353914688851e+17
19078.0	6.458945777784148e+17
19079.0	6.457992390814378e+17
19080.0	6.456672969031679e+17
19081.0	6.455303328847188e+17
19082.0	6.454067900099241e+17
19083.0	6.452379515879421e+17
19084.0	6.450302370010454e+17
19085.0	6.450620196192255e+17
19086.0	6.446896583278592e+17
19087.0	6.447495464878079e+17
19088.0	6.446454924465492e+17
19089.0	6.444290740497066e+17
19090.0	6.444422633881599e+17
19091.0	6.443186921319082e+17
19092.0	6.441678705524735e+17
19093.0	6.440954883298644e+17
19094.0	6.43974143549986e+17
19095.0	6.438552366394026e+17
19096.0	6.437225977872383e+17
19097.0	6.436097552110932e+17
19098.0	6.434864272943785e+17
19099.0	6.433638025527295e+17
19100.0	6.432394148052991e+17
19101.0	6.431206298091519e+17
19102.0	6.429326432010237e+17
19103.0	6.428780985843711e+17
19104.0	6.427615728500735e+17
19105.0	6.426349455540223e+17
19106.0	6.425058679455744e+17
19107.0	6.423825663830697e+17
19108.0	6.4227434837661e+17
19109.0	6.419674320688465e+17
19110.0	6.420233238959443e+17
19111.0	6.419098851693908e+17
19112.0	6.417891106750463e+17
19113.0	6.416665928881491e+17
19114.0	6.41542433870097e+17
19115.0	6.41389330169856e+17
19116.0	6.41287749509666e+17
19117.0	6.411627258358441e+17
19118.0	6.409933047551316e+17
19119.0	6.379227567183154e+17
19120.0	6.407883624633684e+17
19121.0	6.406812093906943e+17
19122.0	6.405760062499497e+17
19123.0	6.404524752590163e+17
19124.0	6.403207372035412e+17
19125.0	6.402070834490025e+17
19126.0	6.400862905696255e+17
19127.0	6.38736370884062e+17
19128.0	6.397770704005801e+17
19129.0	6.396712676141737e+17
19130.0	6.395882413664938e+17
19131.0	6.3947953157789e+17
19132.0	6.39359531352064e+17
19133.0	6.391333349141164e+17
19134.0	6.39088912830737e+17
19135.0	6.389950038321834e+17
19136.0	6.388044348609879e+17
19137.0	6.385244328427519e+17
19138.0	6.383425152527017e+17
19139.0	6.382339607232511e+17
19140.0	6.381147695087615e+17
19141.0	6.379932548595711e+17
19142.0	6.378543367847936e+17
19143.0	6.377113222731094e+17
19144.0	6.375997979667114e+17
19145.0	6.37505545244945e+17
19146.0	6.369819937647278e+17
19147.0	6.371860206496426e+17
19148.0	6.371426882464425e+17
19149.0	6.370191994082644e+17
19150.0	6.36896450655027e+17
19151.0	6.367788964074836e+17
19152.0	6.366551550022995e+17
19153.0	6.36526142824994e+17
19154.0	6.363294877788842e+17
19155.0	6.362984341307391e+17
19156.0	6.361753345938772e+17
19157.0	6.360491648264874e+17
19158.0	6.358018204281513e+17
19159.0	6.358015073233578e+17
19160.0	6.356828129241769e+17
19161.0	6.355641222998697e+17
19162.0	6.351590733294252e+17
19163.0	6.353160703224489e+17
19164.0	6.352102104236031e+17
19165.0	6.35076736066082e+17
19166.0	6.348819507008852e+17
19167.0	6.348193744814077e+17
19168.0	6.347060645898921e+17
19169.0	6.34586721751313e+17
19170.0	6.344843338274132e+17
19171.0	6.343434801512447e+17
19172.0	6.342385781615274e+17
19173.0	6.341218704643412e+17
19174.0	6.339588754767872e+17
19175.0	6.338789491692884e+17
19176.0	6.337567359587667e+17
19177.0	6.335319766291798e+17
19178.0	6.335097821899433e+17
19179.0	6.333717391867904e+17
19180.0	6.332655221429588e+17
19181.0	6.330782942844244e+17
19182.0	6.330128403529727e+17
19183.0	6.329123147000489e+17
19184.0	6.327742953248084e+17
19185.0	6.326616937114282e+17
19186.0	6.325491919224832e+17
19187.0	6.323777830212947e+17
19188.0	6.323053781494441e+17
19189.0	6.321853712826367e+17
19190.0	6.320642318838442e+17
19191.0	6.319237576523776e+17
19192.0	6.318243433502036e+17
19193.0	6.316980589385044e+17
19194.0	6.315708872916991e+17
19195.0	6.314594776296106e+17
19196.0	6.313280130427561e+17
19197.0	6.3121173001885e+17
19198.0	6.310888782954495e+17
19199.0	6.292694517153787e+17
19200.0	6.296422196445189e+17
19201.0	6.307286871965696e+17
19202.0	6.306143549434537e+17
19203.0	6.304904095552852e+17
19204.0	6.303543476617215e+17
19205.0	6.302429958111231e+17
19206.0	6.301153244129961e+17
19207.0	6.299257197122899e+17
19208.0	6.297482238274217e+17
19209.0	6.297580587712511e+17
19210.0	6.296389402580308e+17
19211.0	6.295271034060799e+17
19212.0	6.294042695084713e+17
19213.0	6.292210443441492e+17
19214.0	6.290719510276778e+17
19215.0	6.290361079037951e+17
19216.0	6.289195227501907e+17
19217.0	6.28794433016081e+17
19218.0	6.281018916296012e+17
19219.0	6.284509267886077e+17
19220.0	6.284188270810454e+17
19221.0	6.280903336656896e+17
19222.0	6.281811714550442e+17
19223.0	6.280550371295232e+17
19224.0	6.279153957470207e+17
19225.0	6.277216384057341e+17
19226.0	6.276901921707348e+17
19227.0	6.275688401207296e+17
19228.0	6.274627492555433e+17
19229.0	6.273417073743188e+17
19230.0	6.272137231510185e+17
19231.0	6.270901515452415e+17
19232.0	6.269698538733565e+17
19233.0	6.26806957941282e+17
19234.0	6.267165832030889e+17
19235.0	6.265879485131433e+17
19236.0	6.264912735109119e+17
19237.0	6.263565452662099e+17
19238.0	6.261845539859113e+17
19239.0	6.261264472167763e+17
19240.0	6.259698133106687e+17
19241.0	6.258557513105405e+17
19242.0	6.257459361830228e+17
19243.0	6.255215771298472e+17
19244.0	6.255172529422335e+17
19245.0	6.253915309167955e+17
19246.0	6.252597976148649e+17
19247.0	6.251420331627862e+17
19248.0	6.250277508917929e+17
19249.0	6.249028371087359e+17
19250.0	6.247695163326463e+17
19251.0	6.245598786573652e+17
19252.0	6.24353557418257e+17
19253.0	6.243980470998356e+17
19254.0	6.242876327460863e+17
19255.0	6.237545244043942e+17
19256.0	6.236854800788137e+17
19257.0	6.23597473374754e+17
19258.0	6.234753118240767e+17
19259.0	6.23305588543761e+17
19260.0	6.231717833255592e+17
19261.0	6.230946941151914e+17
19262.0	6.229413809793706e+17
19263.0	6.228085612827988e+17
19264.0	6.223598163329019e+17
19265.0	6.224705010095443e+17
19266.0	6.223523068510208e+17
19267.0	6.223627685636777e+17
19268.0	6.222335013726889e+17
19269.0	6.221088447703721e+17
19270.0	6.219848259119785e+17
19271.0	6.21626691979401e+17
19272.0	6.21712154698274e+17
19273.0	6.205469900494154e+17
19274.0	6.207769596832417e+17
19275.0	6.21364084089378e+17
19276.0	6.212254345199615e+17
19277.0	6.21102019711249e+17
19278.0	6.209787953938431e+17
19279.0	6.208375655585108e+17
19280.0	6.20667822355251e+17
19281.0	6.205963620406611e+17
19282.0	6.204825258338985e+17
19283.0	6.203294982602751e+17
19284.0	6.201937164064084e+17
19285.0	6.199682060167848e+17
19286.0	6.199506204884991e+17
19287.0	6.198495353853267e+17
19288.0	6.190114378787488e+17
19289.0	6.181839790844568e+17
19290.0	6.194686786011135e+17
19291.0	6.191618844874071e+17
19292.0	6.192108887080959e+17
19293.0	6.187681270027602e+17
19294.0	6.185662263503529e+17
19295.0	6.184440759844864e+17
19296.0	6.183092478454442e+17
19297.0	6.181636573320531e+17
19298.0	6.180330069994154e+17
19299.0	6.179215401549823e+17
19300.0	6.177893064725844e+17
19301.0	6.176562589554004e+17
19302.0	6.175133028144467e+17
19303.0	6.173463720318291e+17
19304.0	6.172360755380224e+17
19305.0	6.171171727518378e+17
19306.0	6.169914334598483e+17
19307.0	6.16829259227682e+17
19308.0	6.167066197360639e+17
19309.0	6.16526487032081e+17
19310.0	6.163611525316605e+17
19311.0	6.162978153955327e+17
19312.0	6.161827096428543e+17
19313.0	6.15972363759343e+17
19314.0	6.137862554648594e+17
19315.0	6.137234173110967e+17
19316.0	6.154151100678143e+17
19317.0	6.152777132670975e+17
19318.0	6.151365095063551e+17
19319.0	6.150063641679188e+17
19320.0	6.14866786259217e+17
19321.0	6.147272465186815e+17
19322.0	6.145282783838208e+17
19323.0	6.14414766187042e+17
19324.0	6.142993025903273e+17
19325.0	6.141054620620116e+17
19326.0	6.140148795659604e+17
19327.0	6.13862666805794e+17
19328.0	6.13727444472081e+17
19329.0	6.135840470903466e+17
19330.0	6.134116565822121e+17
19331.0	6.132605401432063e+17
19332.0	6.131393706153299e+17
19333.0	6.129826633788073e+17
19334.0	6.128409132400639e+17
19335.0	6.126896896365907e+17
19336.0	6.125394042989225e+17
19337.0	6.123865845530623e+17
19338.0	6.120920547240614e+17
19339.0	6.120792768468308e+17
19340.0	6.11865861431842e+17
19341.0	6.117425814000979e+17
19342.0	6.113477264758097e+17
19343.0	6.114499566938793e+17
19344.0	6.112830651979092e+17
19345.0	6.098756000808941e+17
19346.0	6.103172330990241e+17
19347.0	6.107589902685523e+17
19348.0	6.10642566525747e+17
19349.0	6.104536658389674e+17
19350.0	6.102894917626538e+17
19351.0	6.101145571994281e+17
19352.0	6.099165123706879e+17
19353.0	6.09797777007138e+17
19354.0	6.09625237950737e+17
19355.0	6.093819723732308e+17
19356.0	6.092712442855423e+17
19357.0	6.090911749155497e+17
19358.0	6.088978788078932e+17
19359.0	6.086673549666986e+17
19360.0	6.085093229592576e+17
19361.0	6.083308772742484e+17
19362.0	6.081677461815295e+17
19363.0	6.079756284635818e+17
19364.0	6.077809044750335e+17
19365.0	6.075822788749993e+17
19366.0	6.073856625562963e+17
19367.0	6.071849955885056e+17
19368.0	6.069823889648298e+17
19369.0	6.067264746247507e+17
19370.0	6.064509830212266e+17
19371.0	6.063195092768084e+17
19372.0	6.061383930085375e+17
19373.0	6.059050378024276e+17
19374.0	6.056938499123881e+17
19375.0	6.054713850068991e+17
19376.0	6.052437258054314e+17
19377.0	6.050045201743871e+17
19378.0	6.047708340376916e+17
19379.0	6.045326055396692e+17
19380.0	6.04287646442018e+17
19381.0	6.040365514970452e+17
19382.0	6.037408913730218e+17
19383.0	6.03456388796689e+17
19384.0	6.032694790761129e+17
19385.0	6.029795683642025e+17
19386.0	6.027083919305386e+17
19387.0	6.024314284059306e+17
19388.0	6.021485421745492e+17
19389.0	6.018670085363028e+17
19390.0	6.0157508728477e+17
19391.0	5.993634662274365e+17
19392.0	6.009001487630331e+17
19393.0	6.006651352689321e+17
19394.0	6.003447804111529e+17
19395.0	6.000230973571071e+17
19396.0	5.997012941362516e+17
19397.0	5.993744312565759e+17
19398.0	5.990225127232851e+17
19399.0	5.98227200263236e+17
19400.0	5.982756161628841e+17
19401.0	5.979700595086676e+17
19402.0	5.976065820327933e+17
19403.0	5.971601872213332e+17
19404.0	5.967878748635135e+17
19405.0	5.963852735490729e+17
19406.0	5.959887873900544e+17
19407.0	5.955841931520681e+17
19408.0	5.946630424843611e+17
19409.0	5.946920364496212e+17
19410.0	5.941855932557994e+17
19411.0	5.937374747951101e+17
19412.0	5.932784259082921e+17
19413.0	5.927882148107606e+17
19414.0	5.921568425246719e+17
19415.0	5.916786516033535e+17
19416.0	5.909837401554944e+17
19417.0	5.903990097182719e+17
19418.0	5.897524828525906e+17
19419.0	5.890050452269738e+17
19420.0	5.881089207828476e+17
19421.0	5.871727473065984e+17
19422.0	5.860372504379395e+17
19423.0	5.847149426245636e+17
19424.0	5.831210056024067e+17
19425.0	5.809405155082245e+17
19426.0	5.788890292027395e+17
19427.0	5.776049215023785e+17
19428.0	5.7640547792541e+17
19429.0	5.7509255871201254e+17
19430.0	5.73654429457886e+17
19431.0	5.7192950390237894e+17
19432.0	5.707341432007337e+17
19433.0	5.690868463828992e+17
19434.0	5.673845515441492e+17
19435.0	5.6555831145704096e+17
19436.0	5.635400527074642e+17
19437.0	5.615080195140263e+17
19438.0	5.5614827145461824e+17
19439.0	5.551830085926917e+17
19440.0	5.49987167781957e+17
19441.0	5.441894583981392e+17
19442.0	5.401049084985346e+17
19443.0	5.3560692808089574e+17
19444.0	5.305133342654462e+17
19445.0	5.2418367207069024e+17
19446.0	5.1462425109244576e+17
19447.0	5.0280029266902976e+17
19448.0	4.897950751435444e+17
19449.0	4.6816498146781875e+17
19450.0	4.2677732310166086e+17
19451.0	4.134048433001785e+17
19452.0	4.495519593616732e+17
19453.0	4.805692684064095e+17
19454.0	4.966151222897315e+17
19455.0	5.080119900460368e+17
19456.0	5.192506348142593e+17
19457.0	5.265735441973246e+17
19458.0	5.282889219790203e+17
19459.0	5.361990273510073e+17
19460.0	5.405321041630547e+17
19461.0	5.448934022097587e+17
19462.0	5.509251822780414e+17
19463.0	5.549618065921374e+17
19464.0	5.576836552938834e+17
19465.0	5.598714917115219e+17
19466.0	5.61657612022579e+17
19467.0	5.633299287725396e+17
19468.0	5.6480967244294835e+17
19469.0	5.6609109767618534e+17
19470.0	5.676541521078953e+17
19471.0	5.68934921282082e+17
19472.0	5.7011527084933114e+17
19473.0	5.712318105823913e+17
19474.0	5.7229588628329805e+17
19475.0	5.7277346015259264e+17
19476.0	5.746432661957285e+17
19477.0	5.766873334065836e+17
19478.0	5.782575796016461e+17
19479.0	5.795510738747397e+17
19480.0	5.804888536296106e+17
19481.0	5.813561755085484e+17
19482.0	5.820121624870911e+17
19483.0	5.825264243529046e+17
19484.0	5.831181053810006e+17
19485.0	5.834256401388887e+17
19486.0	5.839319737914708e+17
19487.0	5.842312124956671e+17
19488.0	5.845476686779732e+17
19489.0	5.847961842657961e+17
19490.0	5.842733911856465e+17
19491.0	5.853434399249748e+17
19492.0	5.856184325461334e+17
19493.0	5.859056585539583e+17
19494.0	5.86105275687458e+17
19495.0	5.862962561198762e+17
19496.0	5.862227001911974e+17
19497.0	5.866333716960596e+17
19498.0	5.864601730154495e+17
19499.0	5.840023328216402e+17
19500.0	5.871748185238186e+17
19501.0	5.873128372699136e+17
19502.0	5.874407922728959e+17
19503.0	5.875649096275283e+17
19504.0	5.876808854186665e+17
19505.0	5.877882375809705e+17
19506.0	5.878972958463316e+17
19507.0	5.879794596052991e+17
19508.0	5.880858977588564e+17
19509.0	5.88168677101841e+17
19510.0	5.881181314744319e+17
19511.0	5.846189686303393e+17
19512.0	5.878362947977213e+17
19513.0	5.873828892071241e+17
19514.0	5.878054715566755e+17
19515.0	5.882613064182447e+17
19516.0	5.885940531374761e+17
19517.0	5.88610735841826e+17
19518.0	5.886942085731668e+17
19519.0	5.887428708881748e+17
19520.0	5.887510567015764e+17
19521.0	5.88795889057792e+17
19522.0	5.887899619469993e+17
19523.0	5.888305543512064e+17
19524.0	5.88840531272226e+17
19525.0	5.888359870933674e+17
19526.0	5.888513379663871e+17
19527.0	5.88844311388706e+17
19528.0	5.888421646740137e+17
19529.0	5.888322629009407e+17
19530.0	5.88829122695441e+17
19531.0	5.888195341669716e+17
19532.0	5.888021686299306e+17
19533.0	5.887853675063978e+17
19534.0	5.887610334128809e+17
19535.0	5.887264551512745e+17
19536.0	5.886848121438207e+17
19537.0	5.886804145558868e+17
19538.0	5.885548658950145e+17
19539.0	5.882695894695942e+17
19540.0	5.885598648762367e+17
19541.0	5.885399020863487e+17
19542.0	5.884970322449748e+17
19543.0	5.884523122961065e+17
19544.0	5.884107666664105e+17
19545.0	5.880158790964563e+17
19546.0	5.877441142718464e+17
19547.0	5.882707055039827e+17
19548.0	5.88215611363601e+17
19549.0	5.880996396269567e+17
19550.0	5.881106663822675e+17
19551.0	5.880563052664148e+17
19552.0	5.879972956034388e+17
19553.0	5.87920398492194e+17
19554.0	5.878508698643114e+17
19555.0	5.878054027001853e+17
19556.0	5.8775136384669e+17
19557.0	5.876855336162644e+17
19558.0	5.876190171977044e+17
19559.0	5.875497769981268e+17
19560.0	5.874683848512852e+17
19561.0	5.87397694680815e+17
19562.0	5.873422844297215e+17
19563.0	5.872764755203411e+17
19564.0	5.87202665976081e+17
19565.0	5.871299812742484e+17
19566.0	5.870353533020842e+17
19567.0	5.86981505708851e+17
19568.0	5.868863489048573e+17
19569.0	5.868140594462719e+17
19570.0	5.867514324058111e+17
19571.0	5.866695403678377e+17
19572.0	5.865717814875476e+17
19573.0	5.864981184643071e+17
19574.0	5.863752541579945e+17
19575.0	5.863513589983913e+17
19576.0	5.862705184025257e+17
19577.0	5.861686099574783e+17
19578.0	5.860754010581673e+17
19579.0	5.860039723406676e+17
19580.0	5.859190793480874e+17
19581.0	5.858441887918761e+17
19582.0	5.857698063755946e+17
19583.0	5.856839514892969e+17
19584.0	5.855891599392767e+17
19585.0	5.854368361698643e+17
19586.0	5.853270531986775e+17
19587.0	5.853231633312425e+17
19588.0	5.849259578490884e+17
19589.0	5.851405744428372e+17
19590.0	5.850039861641215e+17
19591.0	5.849735687219882e+17
19592.0	5.848876347730602e+17
19593.0	5.847843364754772e+17
19594.0	5.845520383737855e+17
19595.0	5.845780965359615e+17
19596.0	5.84385779798289e+17
19597.0	5.845317601023316e+17
19598.0	5.842892591464445e+17
19599.0	5.844414369540778e+17
19600.0	5.843526719198547e+17
19601.0	5.842129485387092e+17
19602.0	5.84123229020706e+17
19603.0	5.837799111873873e+17
19604.0	5.839332543124822e+17
19605.0	5.836784274855254e+17
19606.0	5.837800797984084e+17
19607.0	5.836868409098239e+17
19608.0	5.835830725006675e+17
19609.0	5.834615240174249e+17
19610.0	5.834023372849151e+17
19611.0	5.832996293356202e+17
19612.0	5.832122666669396e+17
19613.0	5.831084428929705e+17
19614.0	5.829908447450451e+17
19615.0	5.829199174565887e+17
19616.0	5.828074928428372e+17
19617.0	5.827227066651988e+17
19618.0	5.822259951654222e+17
19619.0	5.820542662388388e+17
19620.0	5.819737637737811e+17
19621.0	5.82328345899827e+17
19622.0	5.822362923914579e+17
19623.0	5.821393941124435e+17
19624.0	5.820341693011284e+17
19625.0	5.819421312417791e+17
19626.0	5.818349396514132e+17
19627.0	5.817436033690282e+17
19628.0	5.818830227330388e+17
19629.0	5.818117415152297e+17
19630.0	5.816109164920831e+17
19631.0	5.798477756541613e+17
19632.0	5.815688103635625e+17
19633.0	5.814442909149865e+17
19634.0	5.813747236995072e+17
19635.0	5.812486485835775e+17
19636.0	5.811664312074239e+17
19637.0	5.808153434958506e+17
19638.0	5.809634811401556e+17
19639.0	5.808600626757631e+17
19640.0	5.806746090078209e+17
19641.0	5.80129205483384e+17
19642.0	5.805617066628435e+17
19643.0	5.804565487506772e+17
19644.0	5.803198066808147e+17
19645.0	5.800755425793362e+17
19646.0	5.801625616646144e+17
19647.0	5.80062970782242e+17
19648.0	5.799583129709225e+17
19649.0	5.798543012921343e+17
19650.0	5.79757301441058e+17
19651.0	5.796525438053033e+17
19652.0	5.795571582719316e+17
19653.0	5.794595409494013e+17
19654.0	5.793516521958058e+17
19655.0	5.792455457417898e+17
19656.0	5.791494741600937e+17
19657.0	5.790470750513834e+17
19658.0	5.789487370076159e+17
19659.0	5.788458142400511e+17
19660.0	5.78746363097907e+17
19661.0	5.786409144505686e+17
19662.0	5.78541430243328e+17
19663.0	5.784047886969514e+17
19664.0	5.783254841251156e+17
19665.0	5.782338873065471e+17
