# Flux units: erg / (cm m2 s)
# Wavelength units: Angstrom
wave	flux
19000.0	5.4919964631149216e+17
19001.0	5.4909962033998496e+17
19002.0	5.490018116872873e+17
19003.0	5.4890289867434643e+17
19004.0	5.4880401607010976e+17
19005.0	5.4870516513286803e+17
19006.0	5.48606305177873e+17
19007.0	5.48507412926737e+17
19008.0	5.484081081658026e+17
19009.0	5.483079079209641e+17
19010.0	5.48207036797201e+17
19011.0	5.4811179694598816e+17
19012.0	5.4801225415830176e+17
19013.0	5.4791490079730336e+17
19014.0	5.478162355978239e+17
19015.0	5.4771738039637325e+17
19016.0	5.4761839272482125e+17
19017.0	5.475201754071039e+17
19018.0	5.474216523246249e+17
19019.0	5.4732307010245965e+17
19020.0	5.4722449913501005e+17
19021.0	5.4712593403958605e+17
19022.0	5.470273928516949e+17
19023.0	5.469288529919999e+17
19024.0	5.468302275685034e+17
19025.0	5.467317585226409e+17
19026.0	5.466330861928447e+17
19027.0	5.465342590932308e+17
19028.0	5.464364424713557e+17
19029.0	5.4633808401530874e+17
19030.0	5.4623970165172896e+17
19031.0	5.4614131006068045e+17
19032.0	5.460429092421631e+17
19033.0	5.4594345460476576e+17
19034.0	5.45845779960081e+17
19035.0	5.4574430632454816e+17
19036.0	5.456032195848873e+17
19037.0	5.455488900661247e+17
19038.0	5.454527901029715e+17
19039.0	5.453549117549225e+17
19040.0	5.4525683131132576e+17
19041.0	5.451587055692458e+17
19042.0	5.4505501104974496e+17
19043.0	5.449624539452756e+17
19044.0	5.448643213524992e+17
19045.0	5.4476619630946976e+17
19046.0	5.446676760231935e+17
19047.0	5.4456944584294394e+17
19048.0	5.444697182961662e+17
19049.0	5.443635153731583e+17
19050.0	5.442750293999615e+17
19051.0	5.4417141939568634e+17
19052.0	5.4407699344916474e+17
19053.0	5.439818986509652e+17
19054.0	5.438842233072298e+17
19055.0	5.4378223663841274e+17
19056.0	5.4368813295424845e+17
19057.0	5.435907182865066e+17
19058.0	5.4348794217977165e+17
19059.0	5.4339315699111245e+17
19060.0	5.432971351119189e+17
19061.0	5.4319949255365965e+17
19062.0	5.4310169319833594e+17
19063.0	5.430039133465258e+17
19064.0	5.4290540725097805e+17
19065.0	5.428067705028607e+17
19066.0	5.4270848985115296e+17
19067.0	5.426132775425364e+17
19068.0	5.4251565581598714e+17
19069.0	5.424180454140585e+17
19070.0	5.423204008285523e+17
19071.0	5.4222288458874874e+17
19072.0	5.4212349978651296e+17
19073.0	5.4202777849910605e+17
19074.0	5.419302927379113e+17
19075.0	5.4183279481323514e+17
19076.0	5.417351921008639e+17
19077.0	5.4163762119529805e+17
19078.0	5.4154018073258656e+17
19079.0	5.414430147171668e+17
19080.0	5.413456075292671e+17
19081.0	5.4124780083391136e+17
19082.0	5.41150620627763e+17
19083.0	5.410527010357246e+17
19084.0	5.409539188850687e+17
19085.0	5.4085888818981536e+17
19086.0	5.4075519520822605e+17
19087.0	5.406596932829183e+17
19088.0	5.405636289014442e+17
19089.0	5.404678262445396e+17
19090.0	5.403725919158271e+17
19091.0	5.4027503093678074e+17
19092.0	5.4017404467937274e+17
19093.0	5.4008132287856634e+17
19094.0	5.3998426081198074e+17
19095.0	5.3988718343618554e+17
19096.0	5.397900154634239e+17
19097.0	5.396930299428864e+17
19098.0	5.3959402486497274e+17
19099.0	5.394966046048255e+17
19100.0	5.3940187743737165e+17
19101.0	5.3930489813838496e+17
19102.0	5.3920706299166714e+17
19103.0	5.39111186375202e+17
19104.0	5.390142930594474e+17
19105.0	5.389129401499647e+17
19106.0	5.3882040310824954e+17
19107.0	5.3872238935408634e+17
19108.0	5.386248191475711e+17
19109.0	5.3852838517800954e+17
19110.0	5.384325488967679e+17
19111.0	5.383351177314302e+17
19112.0	5.382381873659903e+17
19113.0	5.381430178392745e+17
19114.0	5.3804539569329485e+17
19115.0	5.379491629804203e+17
19116.0	5.378527953507668e+17
19117.0	5.3775571447971834e+17
19118.0	5.376561149291178e+17
19119.0	5.374730302040745e+17
19120.0	5.374645797300906e+17
19121.0	5.3736928339558394e+17
19122.0	5.372732791324671e+17
19123.0	5.3717682377195514e+17
19124.0	5.370802901876734e+17
19125.0	5.3698361350772045e+17
19126.0	5.3688585301961376e+17
19127.0	5.367757419140437e+17
19128.0	5.366926886131028e+17
19129.0	5.3659702115259725e+17
19130.0	5.365017337659392e+17
19131.0	5.3640545498562554e+17
19132.0	5.363091151781887e+17
19133.0	5.362123893549738e+17
19134.0	5.361165752336383e+17
19135.0	5.360202961737044e+17
19136.0	5.359239178485759e+17
19137.0	5.358266011877375e+17
19138.0	5.357312820641791e+17
19139.0	5.3563537993236474e+17
19140.0	5.355392573898751e+17
19141.0	5.3544310905241594e+17
19142.0	5.3534693911429114e+17
19143.0	5.352504273403903e+17
19144.0	5.351545554075647e+17
19145.0	5.350586587283455e+17
19146.0	5.3495567682109434e+17
19147.0	5.3486597869404154e+17
19148.0	5.347689515799892e+17
19149.0	5.3467270586477216e+17
19150.0	5.3457857890222074e+17
19151.0	5.344826397207209e+17
19152.0	5.343866943176703e+17
19153.0	5.342873364288853e+17
19154.0	5.341936691620522e+17
19155.0	5.340987986892117e+17
19156.0	5.3400299666145274e+17
19157.0	5.3390583323252045e+17
19158.0	5.3380817760201376e+17
19159.0	5.3371520700907514e+17
19160.0	5.336196762828799e+17
19161.0	5.3352360379241805e+17
19162.0	5.334257006979753e+17
19163.0	5.333315782093481e+17
19164.0	5.3323675408356685e+17
19165.0	5.331375418769407e+17
19166.0	5.33044371005986e+17
19167.0	5.3294967201027405e+17
19168.0	5.32854317654562e+17
19169.0	5.3275877504450554e+17
19170.0	5.326632432697343e+17
19171.0	5.325676253020159e+17
19172.0	5.3247216343231136e+17
19173.0	5.323766564738388e+17
19174.0	5.3228074455531514e+17
19175.0	5.3218567813857274e+17
19176.0	5.3209028372725754e+17
19177.0	5.3199314595348474e+17
19178.0	5.318992737249962e+17
19179.0	5.318038433824767e+17
19180.0	5.3170855333942605e+17
19181.0	5.3161197103131296e+17
19182.0	5.315175844413439e+17
19183.0	5.314226366534998e+17
19184.0	5.3132733290905594e+17
19185.0	5.3123203377834656e+17
19186.0	5.311367923193172e+17
19187.0	5.310410375473834e+17
19188.0	5.3094627871293434e+17
19189.0	5.308511172253013e+17
19190.0	5.307558930328234e+17
19191.0	5.306606858272767e+17
19192.0	5.305655207744854e+17
19193.0	5.304698777108479e+17
19194.0	5.3037436026661536e+17
19195.0	5.30279738516002e+17
19196.0	5.301841690623999e+17
19197.0	5.300881005565268e+17
19198.0	5.299895458769578e+17
19199.0	5.2987766400614394e+17
19200.0	5.2978480379330554e+17
19201.0	5.2970509020692474e+17
19202.0	5.296133395273044e+17
19203.0	5.2951939718403405e+17
19204.0	5.2942471077123405e+17
19205.0	5.293301656365738e+17
19206.0	5.292353605249706e+17
19207.0	5.291394724440745e+17
19208.0	5.290438733507242e+17
19209.0	5.289511011483647e+17
19210.0	5.288563892901204e+17
19211.0	5.28761630106146e+17
19212.0	5.286668415620436e+17
19213.0	5.2857107427710285e+17
19214.0	5.284764228867413e+17
19215.0	5.2838251577562445e+17
19216.0	5.2828787088643405e+17
19217.0	5.281925983895551e+17
19218.0	5.280926237283668e+17
19219.0	5.280015032429226e+17
19220.0	5.279091631237802e+17
19221.0	5.2781268846946976e+17
19222.0	5.2771963804494515e+17
19223.0	5.27625720238353e+17
19224.0	5.275307704931669e+17
19225.0	5.2743583165317114e+17
19226.0	5.273422637214377e+17
19227.0	5.2724790376529914e+17
19228.0	5.271534695699796e+17
19229.0	5.270590243296596e+17
19230.0	5.2696459509759994e+17
19231.0	5.2687021808462496e+17
19232.0	5.2677573845101216e+17
19233.0	5.2668076193218554e+17
19234.0	5.2658696254477645e+17
19235.0	5.26492779029026e+17
19236.0	5.263984477339647e+17
19237.0	5.2630403842484896e+17
19238.0	5.2620894684228256e+17
19239.0	5.261156514704042e+17
19240.0	5.2602142538246816e+17
19241.0	5.259272132056404e+17
19242.0	5.2583301857498445e+17
19243.0	5.25737190892066e+17
19244.0	5.2564466160981325e+17
19245.0	5.2555050053358925e+17
19246.0	5.254562767525204e+17
19247.0	5.2536221920570003e+17
19248.0	5.252681478176767e+17
19249.0	5.251740481181013e+17
19250.0	5.2507921280750925e+17
19251.0	5.2498436980735994e+17
19252.0	5.2488864537422496e+17
19253.0	5.247977712342357e+17
19254.0	5.247038918754304e+17
19255.0	5.246077626919593e+17
19256.0	5.245157776905556e+17
19257.0	5.2442199144529914e+17
19258.0	5.243280391056042e+17
19259.0	5.2423324489919136e+17
19260.0	5.24138956525841e+17
19261.0	5.2404623011130016e+17
19262.0	5.2395230797059405e+17
19263.0	5.2385741275135994e+17
19264.0	5.237598424050346e+17
19265.0	5.236684515966975e+17
19266.0	5.235739108660564e+17
19267.0	5.234832188287657e+17
19268.0	5.233895022089555e+17
19269.0	5.2329570498860365e+17
19270.0	5.2320149903332685e+17
19271.0	5.2310537691026765e+17
19272.0	5.230140632072191e+17
19273.0	5.2291842727389856e+17
19274.0	5.228226334250324e+17
19275.0	5.227334827245567e+17
19276.0	5.226398562822825e+17
19277.0	5.225462034857983e+17
19278.0	5.224525722899798e+17
19279.0	5.223588267993771e+17
19280.0	5.222647501684735e+17
19281.0	5.22171577410082e+17
19282.0	5.2207802863233696e+17
19283.0	5.219843067696468e+17
19284.0	5.2189049570809165e+17
19285.0	5.2179645018494285e+17
19286.0	5.2170305750521165e+17
19287.0	5.216094168023039e+17
19288.0	5.2149946046655136e+17
19289.0	5.213931741467988e+17
19290.0	5.2132877487308794e+17
19291.0	5.212334159735466e+17
19292.0	5.211428429845845e+17
19293.0	5.2104944450273274e+17
19294.0	5.2095605923293856e+17
19295.0	5.20862650475042e+17
19296.0	5.2076705243026765e+17
19297.0	5.2067545973609805e+17
19298.0	5.2058241958761805e+17
19299.0	5.204865368195071e+17
19300.0	5.203955557247658e+17
19301.0	5.2030217485899085e+17
19302.0	5.202086369165311e+17
19303.0	5.201146472475306e+17
19304.0	5.200218376459604e+17
19305.0	5.199286527240873e+17
19306.0	5.198353033854975e+17
19307.0	5.197417617380693e+17
19308.0	5.196477024436223e+17
19309.0	5.195534443391657e+17
19310.0	5.1945963013188256e+17
19311.0	5.193666902272681e+17
19312.0	5.1927377716619936e+17
19313.0	5.1917934129315834e+17
19314.0	5.189618332161363e+17
19315.0	5.188795444669099e+17
19316.0	5.188964503781375e+17
19317.0	5.1880717014357325e+17
19318.0	5.187141448149674e+17
19319.0	5.186209392710995e+17
19320.0	5.18526780641553e+17
19321.0	5.184323003088894e+17
19322.0	5.183404164601173e+17
19323.0	5.182473312927743e+17
19324.0	5.1815408254757536e+17
19325.0	5.180605117497343e+17
19326.0	5.1796740463220045e+17
19327.0	5.1787404984101536e+17
19328.0	5.1777682154018125e+17
19329.0	5.176874388946943e+17
19330.0	5.175937755425449e+17
19331.0	5.1750003487539194e+17
19332.0	5.174071729149268e+17
19333.0	5.1731373360851616e+17
19334.0	5.172201620417194e+17
19335.0	5.171186763126101e+17
19336.0	5.170331308261375e+17
19337.0	5.1693959232443725e+17
19338.0	5.168437871509503e+17
19339.0	5.167524155665066e+17
19340.0	5.166567560052735e+17
19341.0	5.165608588367188e+17
19342.0	5.164679704521385e+17
19343.0	5.163771701318995e+17
19344.0	5.1627988506815136e+17
19345.0	5.161706309287934e+17
19346.0	5.1608288182490445e+17
19347.0	5.1599594180225696e+17
19348.0	5.1590686121656314e+17
19349.0	5.158131071276373e+17
19350.0	5.157172550478506e+17
19351.0	5.1562415589949434e+17
19352.0	5.1552567762616314e+17
19353.0	5.15436184740386e+17
19354.0	5.15341975359761e+17
19355.0	5.152466772776277e+17
19356.0	5.1515320875089914e+17
19357.0	5.1505872667060896e+17
19358.0	5.149641121202175e+17
19359.0	5.148683683932841e+17
19360.0	5.1477124536948045e+17
19361.0	5.146795708164778e+17
19362.0	5.1458409517547514e+17
19363.0	5.144887931786581e+17
19364.0	5.143935951306751e+17
19365.0	5.1429826726898336e+17
19366.0	5.142028121101653e+17
19367.0	5.141072129469098e+17
19368.0	5.14011460411938e+17
19369.0	5.139152997711872e+17
19370.0	5.1381922043002874e+17
19371.0	5.1372260400824314e+17
19372.0	5.1362677590589434e+17
19373.0	5.135301349474303e+17
19374.0	5.134332768638292e+17
19375.0	5.1333614531160736e+17
19376.0	5.132388405346304e+17
19377.0	5.131412149633023e+17
19378.0	5.130433616412671e+17
19379.0	5.129452141587113e+17
19380.0	5.1284674546237434e+17
19381.0	5.127479332525396e+17
19382.0	5.126478459043839e+17
19383.0	5.125477443654998e+17
19384.0	5.124478997277353e+17
19385.0	5.123476564213759e+17
19386.0	5.1224685296571725e+17
19387.0	5.1214549607164576e+17
19388.0	5.120435556799828e+17
19389.0	5.119408599640746e+17
19390.0	5.1183654021365754e+17
19391.0	5.116930600643241e+17
19392.0	5.1162383384575994e+17
19393.0	5.115242198947156e+17
19394.0	5.1141867463857485e+17
19395.0	5.11308948570112e+17
19396.0	5.1120191776139936e+17
19397.0	5.110934594213204e+17
19398.0	5.1098204046185805e+17
19399.0	5.108645227746644e+17
19400.0	5.1075702311266976e+17
19401.0	5.106459715742378e+17
19402.0	5.1052852833594016e+17
19403.0	5.104104885278037e+17
19404.0	5.1029183334536525e+17
19405.0	5.101711103710547e+17
19406.0	5.1004804264099834e+17
19407.0	5.0991588047148365e+17
19408.0	5.097826495933097e+17
19409.0	5.096578921179817e+17
19410.0	5.0952349711073274e+17
19411.0	5.0938187825370445e+17
19412.0	5.092421348098047e+17
19413.0	5.09090265702946e+17
19414.0	5.08937474478353e+17
19415.0	5.087837829464062e+17
19416.0	5.086093369496917e+17
19417.0	5.084459515423402e+17
19418.0	5.082651717271551e+17
19419.0	5.080830484064938e+17
19420.0	5.0789329837315405e+17
19421.0	5.076966470320127e+17
19422.0	5.074905281680724e+17
19423.0	5.072711345416874e+17
19424.0	5.070403148622506e+17
19425.0	5.067955538056532e+17
19426.0	5.0652466705858554e+17
19427.0	5.0623814786088954e+17
19428.0	5.0592219918936736e+17
19429.0	5.055760110540117e+17
19430.0	5.052016922809683e+17
19431.0	5.047953985809066e+17
19432.0	5.0435808213073914e+17
19433.0	5.0386551963647994e+17
19434.0	5.03316237848849e+17
19435.0	5.0268209983870285e+17
19436.0	5.019765778502996e+17
19437.0	5.011999696792234e+17
19438.0	5.0025929711288314e+17
19439.0	4.993480226329941e+17
19440.0	4.982270426699092e+17
19441.0	4.96853428871714e+17
19442.0	4.9524930136855885e+17
19443.0	4.933782101207721e+17
19444.0	4.9104371203440614e+17
19445.0	4.881650884280321e+17
19446.0	4.845765067975338e+17
19447.0	4.797743597180242e+17
19448.0	4.731709615155886e+17
19449.0	4.6278384588335776e+17
19450.0	4.408952325057185e+17
19451.0	4.2257728702600806e+17
19452.0	4.5445671526509235e+17
19453.0	4.684677646385155e+17
19454.0	4.7636657992280704e+17
19455.0	4.817372697329664e+17
19456.0	4.8566821457319264e+17
19457.0	4.8868675855319014e+17
19458.0	4.9066281799079296e+17
19459.0	4.929449280318122e+17
19460.0	4.945251134690644e+17
19461.0	4.9582623179844256e+17
19462.0	4.9688274817515514e+17
19463.0	4.9776215398372685e+17
19464.0	4.9848164985514656e+17
19465.0	4.9911995742289914e+17
19466.0	4.996844099381929e+17
19467.0	5.001678907157162e+17
19468.0	5.005638093154987e+17
19469.0	5.009034696458239e+17
19470.0	5.0119420950173e+17
19471.0	5.014257249462954e+17
19472.0	5.0163997167233696e+17
19473.0	5.018079894787413e+17
19474.0	5.019604160086015e+17
19475.0	5.020688484139007e+17
19476.0	5.021763733815294e+17
19477.0	5.022522630209536e+17
19478.0	5.023067062752598e+17
19479.0	5.023509097654953e+17
19480.0	5.0238317123338234e+17
19481.0	5.024031563928917e+17
19482.0	5.0241459768524794e+17
19483.0	5.024211429665451e+17
19484.0	5.0242081175633914e+17
19485.0	5.024122613880148e+17
19486.0	5.023955172371113e+17
19487.0	5.023830394623317e+17
19488.0	5.0235247871481165e+17
19489.0	5.023244158850388e+17
19490.0	5.022787860518228e+17
19491.0	5.0224801936397645e+17
19492.0	5.0221018506417485e+17
19493.0	5.0216149422789965e+17
19494.0	5.0211006220424525e+17
19495.0	5.020577716065621e+17
19496.0	5.020003478798335e+17
19497.0	5.0194440879691085e+17
19498.0	5.0186976731245216e+17
19499.0	5.0175734759205536e+17
19500.0	5.017581531081387e+17
19501.0	5.016958978927274e+17
19502.0	5.0162889961854285e+17
19503.0	5.015603856627028e+17
19504.0	5.01490682831394e+17
19505.0	5.014203063948627e+17
19506.0	5.013483707258196e+17
19507.0	5.012752688305492e+17
19508.0	5.0120333658685434e+17
19509.0	5.01128129220881e+17
19510.0	5.010480910652757e+17
19511.0	5.0078629701003923e+17
19512.0	5.0088137705826976e+17
19513.0	5.0079930899933856e+17
19514.0	5.007270196106581e+17
19515.0	5.0066256811786234e+17
19516.0	5.0058708455697056e+17
19517.0	5.005080772214783e+17
19518.0	5.0042820397192525e+17
19519.0	5.003479723190953e+17
19520.0	5.0026555501445114e+17
19521.0	5.001883924736681e+17
19522.0	5.001066533180756e+17
19523.0	5.0002468878854816e+17
19524.0	4.9994306819194874e+17
19525.0	4.9986309784425805e+17
19526.0	4.997806810988543e+17
19527.0	4.996979598469802e+17
19528.0	4.9961478414226765e+17
19529.0	4.995314786238462e+17
19530.0	4.994484497197738e+17
19531.0	4.993648820573524e+17
19532.0	4.9928113068441594e+17
19533.0	4.9919720937226234e+17
19534.0	4.9911311944908794e+17
19535.0	4.990288669267285e+17
19536.0	4.9894402636294816e+17
19537.0	4.988597952315392e+17
19538.0	4.9877040412753914e+17
19539.0	4.986859896351402e+17
19540.0	4.98605444178466e+17
19541.0	4.985200219346261e+17
19542.0	4.9843544050892794e+17
19543.0	4.983486381992619e+17
19544.0	4.9826571464212474e+17
19545.0	4.981747937356457e+17
19546.0	4.9808739080164685e+17
19547.0	4.980094514058581e+17
19548.0	4.979243149339306e+17
19549.0	4.9783773436313594e+17
19550.0	4.9775313993509536e+17
19551.0	4.976674224122538e+17
19552.0	4.9758161219529376e+17
19553.0	4.974955229872127e+17
19554.0	4.9740954366989645e+17
19555.0	4.9732361741052576e+17
19556.0	4.97237747494639e+17
19557.0	4.971519230869503e+17
19558.0	4.9706586149137043e+17
19559.0	4.9697978605458765e+17
19560.0	4.968926087042388e+17
19561.0	4.968074769159508e+17
19562.0	4.9672023490341536e+17
19563.0	4.9663567941249696e+17
19564.0	4.965500164156074e+17
19565.0	4.9646372678970016e+17
19566.0	4.96377725662003e+17
19567.0	4.962915596981588e+17
19568.0	4.962052507085483e+17
19569.0	4.961188110663679e+17
19570.0	4.9603252241913165e+17
19571.0	4.959461175896746e+17
19572.0	4.9585936547184634e+17
19573.0	4.9577282160121165e+17
19574.0	4.9568568968915616e+17
19575.0	4.956004248715264e+17
19576.0	4.955139634189653e+17
19577.0	4.954274310826666e+17
19578.0	4.95340689101073e+17
19579.0	4.9525425959512736e+17
19580.0	4.9516780674088954e+17
19581.0	4.950814509148842e+17
19582.0	4.9499509110429005e+17
19583.0	4.949085969361577e+17
19584.0	4.948220783012521e+17
19585.0	4.9473427474131616e+17
19586.0	4.946474664897194e+17
19587.0	4.9456207290695674e+17
19588.0	4.944720035140949e+17
19589.0	4.943888972251134e+17
19590.0	4.9430173448492365e+17
19591.0	4.942165116103338e+17
19592.0	4.9413004938881696e+17
19593.0	4.9404331719393274e+17
19594.0	4.939540482839892e+17
19595.0	4.9387056982043296e+17
19596.0	4.937840704094207e+17
19597.0	4.9369753262052685e+17
19598.0	4.9360590860888736e+17
19599.0	4.9352448850001914e+17
19600.0	4.9343816231376205e+17
19601.0	4.933510224325289e+17
19602.0	4.932640561255764e+17
19603.0	4.9317532904980474e+17
19604.0	4.9309149400050336e+17
19605.0	4.930030908648106e+17
19606.0	4.9291949985409696e+17
19607.0	4.928332043561642e+17
19608.0	4.9274678722341536e+17
19609.0	4.9266027739654816e+17
19610.0	4.92572639232e+17
19611.0	4.9248558966811296e+17
19612.0	4.9240132575122765e+17
19613.0	4.9231497607686816e+17
19614.0	4.922281794994175e+17
19615.0	4.921421806785877e+17
19616.0	4.9205411322702496e+17
19617.0	4.919669428671828e+17
19618.0	4.9187661881016314e+17
19619.0	4.9178844929720314e+17
19620.0	4.917038859769172e+17
19621.0	4.9162103225494176e+17
19622.0	4.9153808653789856e+17
19623.0	4.9145193022095354e+17
19624.0	4.9136571413517645e+17
19625.0	4.9127947414186656e+17
19626.0	4.9119319772801696e+17
19627.0	4.9110677514267296e+17
19628.0	4.9101993424541e+17
19629.0	4.909252801287508e+17
19630.0	4.908397677073749e+17
19631.0	4.907422840433322e+17
19632.0	4.9067354485336736e+17
19633.0	4.905894618507946e+17
19634.0	4.9050384569029965e+17
19635.0	4.9041725701051725e+17
19636.0	4.9032870371874125e+17
19637.0	4.902392469738837e+17
19638.0	4.9015958162199885e+17
19639.0	4.900737942639956e+17
19640.0	4.899859331022847e+17
19641.0	4.8988955023332685e+17
19642.0	4.8981621506484896e+17
19643.0	4.897303622757034e+17
19644.0	4.8964366083904845e+17
19645.0	4.895564613287936e+17
19646.0	4.8946925860290554e+17
19647.0	4.8938692539405645e+17
19648.0	4.8930111070317216e+17
19649.0	4.8921522967237965e+17
19650.0	4.891293850621268e+17
19651.0	4.890435387741524e+17
19652.0	4.8895770506909005e+17
19653.0	4.8887187541852154e+17
19654.0	4.8878607974181536e+17
