# Flux units: erg / (cm m2 s)
# Wavelength units: Angstrom
wave	flux
19000.0	7.00266016023074e+17
19001.0	7.001284996147881e+17
19002.0	7.000077520338943e+17
19003.0	6.9987836376733e+17
19004.0	6.997490362482687e+17
19005.0	6.996199570320041e+17
19006.0	6.994906007819604e+17
19007.0	6.993652473659391e+17
19008.0	6.992391581291859e+17
19009.0	6.99105675383057e+17
19010.0	6.989485664021161e+17
19011.0	6.988522228897108e+17
19012.0	6.987107427942399e+17
19013.0	6.985953316263252e+17
19014.0	6.9846110320285e+17
19015.0	6.983332715124051e+17
19016.0	6.98203328549137e+17
19017.0	6.980775728993619e+17
19018.0	6.979467301879807e+17
19019.0	6.978176663508308e+17
19020.0	6.976867534547625e+17
19021.0	6.975587847503871e+17
19022.0	6.974293423773012e+17
19023.0	6.97295934918929e+17
19024.0	6.971681216135167e+17
19025.0	6.970395394222761e+17
19026.0	6.969074684788733e+17
19027.0	6.967717006759252e+17
19028.0	6.966503276543997e+17
19029.0	6.965203880465748e+17
19030.0	6.963919982340777e+17
19031.0	6.962621355917311e+17
19032.0	6.961321845194751e+17
19033.0	6.959943955513341e+17
19034.0	6.958699308384255e+17
19035.0	6.957292032709972e+17
19036.0	6.94994785813572e+17
19037.0	6.954741785427968e+17
19038.0	6.953498409172991e+17
19039.0	6.952348316336127e+17
19040.0	6.951147405311999e+17
19041.0	6.949842941815466e+17
19042.0	6.948456831997268e+17
19043.0	6.947253763702783e+17
19044.0	6.945944702550015e+17
19045.0	6.944655088287744e+17
19046.0	6.943316384590506e+17
19047.0	6.942034313783977e+17
19048.0	6.940597873715881e+17
19049.0	6.939362914729983e+17
19050.0	6.938108754919423e+17
19051.0	6.935868761702397e+17
19052.0	6.935321008668671e+17
19053.0	6.934253982624426e+17
19054.0	6.932962198508884e+17
19055.0	6.931444733575168e+17
19056.0	6.930339545655978e+17
19057.0	6.929060711454036e+17
19058.0	6.927741490997929e+17
19059.0	6.926461193682943e+17
19060.0	6.925154208011604e+17
19061.0	6.923871802359807e+17
19062.0	6.922568929902591e+17
19063.0	6.921270077685759e+17
19064.0	6.9198790262784e+17
19065.0	6.91852292460817e+17
19066.0	6.917317142598996e+17
19067.0	6.916077053280255e+17
19068.0	6.914778279357098e+17
19069.0	6.913479943738707e+17
19070.0	6.912161412546559e+17
19071.0	6.910882235809791e+17
19072.0	6.909577106817023e+17
19073.0	6.908281085755391e+17
19074.0	6.906986075521023e+17
19075.0	6.905687133126655e+17
19076.0	6.904373459637587e+17
19077.0	6.903076766089215e+17
19078.0	6.901764431981225e+17
19079.0	6.900491172708351e+17
19080.0	6.899180966510591e+17
19081.0	6.897855981682687e+17
19082.0	6.896564266074111e+17
19083.0	6.895201057155754e+17
19084.0	6.893799172560212e+17
19085.0	6.892696188747773e+17
19086.0	6.891060329796948e+17
19087.0	6.889955270503081e+17
19088.0	6.888695219792553e+17
19089.0	6.887274873268906e+17
19090.0	6.886164743760553e+17
19091.0	6.884880971464703e+17
19092.0	6.883526016237568e+17
19093.0	6.882311152861183e+17
19094.0	6.881016915077802e+17
19095.0	6.879719970570237e+17
19096.0	6.878411298788691e+17
19097.0	6.877123153231872e+17
19098.0	6.875821189540521e+17
19099.0	6.874522356897108e+17
19100.0	6.873217918566397e+17
19101.0	6.871932094556842e+17
19102.0	6.870559924507987e+17
19103.0	6.869340911566847e+17
19104.0	6.868043309252607e+17
19105.0	6.866726209716223e+17
19106.0	6.865422283090601e+17
19107.0	6.864128477320531e+17
19108.0	6.862827230855165e+17
19109.0	6.861131696046077e+17
19110.0	6.860186594923859e+17
19111.0	6.858951793224361e+17
19112.0	6.857660095791103e+17
19113.0	6.856370917736447e+17
19114.0	6.855072843563007e+17
19115.0	6.853729821130751e+17
19116.0	6.852460087869439e+17
19117.0	6.851162275839999e+17
19118.0	6.849728439036585e+17
19119.0	6.845001807953915e+17
19120.0	6.847012697101652e+17
19121.0	6.845750510791337e+17
19122.0	6.844499051413501e+17
19123.0	6.843203853833556e+17
19124.0	6.841869390577663e+17
19125.0	6.840605207778643e+17
19126.0	6.839282724154025e+17
19127.0	6.836664333413034e+17
19128.0	6.836628936982527e+17
19129.0	6.835351267398996e+17
19130.0	6.83411967643921e+17
19131.0	6.832837011439615e+17
19132.0	6.831539643307348e+17
19133.0	6.830183497596927e+17
19134.0	6.828920541631827e+17
19135.0	6.827652881754793e+17
19136.0	6.826360302818644e+17
19137.0	6.824946814681087e+17
19138.0	6.823757761653417e+17
19139.0	6.822477070772906e+17
19140.0	6.821184175166804e+17
19141.0	6.819889325015039e+17
19142.0	6.818572837147987e+17
19143.0	6.817258484181673e+17
19144.0	6.815969942962175e+17
19145.0	6.814708754197162e+17
19146.0	6.812912020619264e+17
19147.0	6.812051631854931e+17
19148.0	6.810815302729727e+17
19149.0	6.809520305078271e+17
19150.0	6.808228994220031e+17
19151.0	6.806938370528596e+17
19152.0	6.805634480952659e+17
19153.0	6.804316079084884e+17
19154.0	6.802955469236906e+17
19155.0	6.801751270577491e+17
19156.0	6.800451745873919e+17
19157.0	6.799114040421034e+17
19158.0	6.79761114649941e+17
19159.0	6.796531367673855e+17
19160.0	6.795255716948649e+17
19161.0	6.793947379313321e+17
19162.0	6.79202387988753e+17
19163.0	6.791287426514943e+17
19164.0	6.790089399773865e+17
19165.0	6.7887779296925e+17
19166.0	6.787407538727593e+17
19167.0	6.786151456527699e+17
19168.0	6.784907034492928e+17
19169.0	6.78361262264593e+17
19170.0	6.782329234128895e+17
19171.0	6.781007423690068e+17
19172.0	6.779737804374015e+17
19173.0	6.778447728738303e+17
19174.0	6.777112379785215e+17
19175.0	6.775860051487402e+17
19176.0	6.774565704652116e+17
19177.0	6.773141057568767e+17
19178.0	6.771947039883263e+17
19179.0	6.770630667359571e+17
19180.0	6.76936746602769e+17
19181.0	6.767995114225664e+17
19182.0	6.766777312040276e+17
19183.0	6.76549595566353e+17
19184.0	6.764194975536468e+17
19185.0	6.762899777956521e+17
19186.0	6.761605786238975e+17
19187.0	6.760248684926292e+17
19188.0	6.759010343933267e+17
19189.0	6.75771443192354e+17
19190.0	6.756411857261907e+17
19191.0	6.75508719259921e+17
19192.0	6.753820268822527e+17
19193.0	6.752517778746025e+17
19194.0	6.751203694914217e+17
19195.0	6.749905400539817e+17
19196.0	6.74848174121506e+17
19197.0	6.747097196571306e+17
19198.0	6.745575521255423e+17
19199.0	6.740240732869971e+17
19200.0	6.73982684524271e+17
19201.0	6.741717255804244e+17
19202.0	6.740599690493951e+17
19203.0	6.739192355400361e+17
19204.0	6.737908651611476e+17
19205.0	6.736627636371456e+17
19206.0	6.735336033310036e+17
19207.0	6.733953338354346e+17
19208.0	6.732586269977257e+17
19209.0	6.731431291475284e+17
19210.0	6.730133190737919e+17
19211.0	6.728840658638166e+17
19212.0	6.727537166123007e+17
19213.0	6.726137911356073e+17
19214.0	6.72481887265314e+17
19215.0	6.723611932317012e+17
19216.0	6.722328087319892e+17
19217.0	6.721012697661439e+17
19218.0	6.719110466153129e+17
19219.0	6.718267556451668e+17
19220.0	6.717093532314281e+17
19221.0	6.715582151218516e+17
19222.0	6.714487354687487e+17
19223.0	6.713187140020906e+17
19224.0	6.711858617297577e+17
19225.0	6.710491223861929e+17
19226.0	6.70926895194658e+17
19227.0	6.707962024995498e+17
19228.0	6.706679638917119e+17
19229.0	6.705370856685565e+17
19230.0	6.704060382052352e+17
19231.0	6.702742263300095e+17
19232.0	6.701437559330131e+17
19233.0	6.700075281547263e+17
19234.0	6.698807457393321e+17
19235.0	6.697486819961514e+17
19236.0	6.696200628950356e+17
19237.0	6.694876729049087e+17
19238.0	6.693496836587519e+17
19239.0	6.692263570003284e+17
19240.0	6.690940369152681e+17
19241.0	6.689612730029396e+17
19242.0	6.688239784733354e+17
19243.0	6.686758183895037e+17
19244.0	6.685584115717459e+17
19245.0	6.684260729618432e+17
19246.0	6.682934430575274e+17
19247.0	6.681626756339028e+17
19248.0	6.680308105609215e+17
19249.0	6.678985440930474e+17
19250.0	6.677647299269971e+17
19251.0	6.676257306225321e+17
19252.0	6.674764514983936e+17
19253.0	6.673673219298643e+17
19254.0	6.672366507655165e+17
19255.0	6.670874562964137e+17
19256.0	6.669693279185578e+17
19257.0	6.668384882130943e+17
19258.0	6.66705432027682e+17
19259.0	6.665657752660649e+17
19260.0	6.664262723654996e+17
19261.0	6.663044675403773e+17
19262.0	6.66167021945924e+17
19263.0	6.660320944717823e+17
19264.0	6.658630912136532e+17
19265.0	6.657550576167593e+17
19266.0	6.656213959835647e+17
19267.0	6.655029470909782e+17
19268.0	6.6536875767453e+17
19269.0	6.652342694838272e+17
19270.0	6.650772201319082e+17
19271.0	6.649124890520233e+17
19272.0	6.647997966319615e+17
19273.0	6.646224418854228e+17
19274.0	6.644865988646227e+17
19275.0	6.64397401886993e+17
19276.0	6.642605557284863e+17
19277.0	6.6412532479645e+17
19278.0	6.639897639824042e+17
19279.0	6.638524954574847e+17
19280.0	6.637118032620202e+17
19281.0	6.635799634247679e+17
19282.0	6.634444424566099e+17
19283.0	6.633032544944127e+17
19284.0	6.631651998870185e+17
19285.0	6.630207755998548e+17
19286.0	6.6289165940381e+17
19287.0	6.627557692669952e+17
19288.0	6.624426953714342e+17
19289.0	6.620761317266766e+17
19290.0	6.623407150639785e+17
19291.0	6.621825834418175e+17
19292.0	6.620658955277652e+17
19293.0	6.619263807433385e+17
19294.0	6.617863976648703e+17
19295.0	6.616476134582953e+17
19296.0	6.615066485631657e+17
19297.0	6.613658357115562e+17
19298.0	6.61191103942929e+17
19299.0	6.610435157524479e+17
19300.0	6.609027934278996e+17
19301.0	6.607606762875561e+17
19302.0	6.606176935127721e+17
19303.0	6.604700957452969e+17
19304.0	6.603308684804096e+17
19305.0	6.60188349665553e+17
19306.0	6.60045178216994e+17
19307.0	6.598972772013396e+17
19308.0	6.597538846430548e+17
19309.0	6.595965202290004e+17
19310.0	6.594440567892649e+17
19311.0	6.593149157769215e+17
19312.0	6.591731484415315e+17
19313.0	6.590266097358163e+17
19314.0	6.583060839530492e+17
19315.0	6.581524108061363e+17
19316.0	6.585222158789289e+17
19317.0	6.583773863520937e+17
19318.0	6.582280588536489e+17
19319.0	6.580800428441599e+17
19320.0	6.57929213714978e+17
19321.0	6.577774844881577e+17
19322.0	6.576195825041407e+17
19323.0	6.57468441109026e+17
19324.0	6.573192609704617e+17
19325.0	6.571566106847913e+17
19326.0	6.569440235749375e+17
19327.0	6.567769450829139e+17
19328.0	6.566208538498387e+17
19329.0	6.5646579168925e+17
19330.0	6.563054983927124e+17
19331.0	6.561458453566804e+17
19332.0	6.559832706383871e+17
19333.0	6.558032937527977e+17
19334.0	6.555709255363242e+17
19335.0	6.553730803564543e+17
19336.0	6.552127209297235e+17
19337.0	6.550484834495146e+17
19338.0	6.548665923534847e+17
19339.0	6.547174759683411e+17
19340.0	6.545429741174783e+17
19341.0	6.542609208049663e+17
19342.0	6.540510845992959e+17
19343.0	6.539086339418793e+17
19344.0	6.537354517588649e+17
19345.0	6.534168278903464e+17
19346.0	6.533200613823828e+17
19347.0	6.530557256488276e+17
19348.0	6.528765009417556e+17
19349.0	6.526968472971946e+17
19350.0	6.525185361095338e+17
19351.0	6.523368311007914e+17
19352.0	6.520661245689855e+17
19353.0	6.518728962692436e+17
19354.0	6.516873091525289e+17
19355.0	6.514663163778387e+17
19356.0	6.512565438556841e+17
19357.0	6.510654850596863e+17
19358.0	6.508719469406889e+17
19359.0	6.506735279800319e+17
19360.0	6.504756179981652e+17
19361.0	6.502784146866176e+17
19362.0	6.500799866383018e+17
19363.0	6.498764937581908e+17
19364.0	6.496704597590015e+17
19365.0	6.494626885490004e+17
19366.0	6.492526878567082e+17
19367.0	6.489547302327636e+17
19368.0	6.487322759528447e+17
19369.0	6.485100374698666e+17
19370.0	6.482883198495401e+17
19371.0	6.480643377943891e+17
19372.0	6.478415400009728e+17
19373.0	6.476094256097961e+17
19374.0	6.473336217403391e+17
19375.0	6.469964686251348e+17
19376.0	6.467544150616746e+17
19377.0	6.465078587031552e+17
19378.0	6.462575822067028e+17
19379.0	6.460026308788223e+17
19380.0	6.456995013285203e+17
19381.0	6.452753658981034e+17
19382.0	6.4499848591005e+17
19383.0	6.447229965434879e+17
19384.0	6.444512222816937e+17
19385.0	6.439561961930752e+17
19386.0	6.435964041123156e+17
19387.0	6.432899977620138e+17
19388.0	6.429215490572289e+17
19389.0	6.423169514602495e+17
19390.0	6.419885072580605e+17
19391.0	6.410949349081082e+17
19392.0	6.408597753823231e+17
19393.0	6.405260589400063e+17
19394.0	6.399131968165203e+17
19395.0	6.392608381206527e+17
19396.0	6.387705737554596e+17
19397.0	6.378447580430335e+17
19398.0	6.373776986647206e+17
19399.0	6.362176301651283e+17
19400.0	6.35716028386509e+17
19401.0	6.349307527561215e+17
19402.0	6.344733456596991e+17
19403.0	6.340054448340991e+17
19404.0	6.335323286011904e+17
19405.0	6.330488515985407e+17
19406.0	6.325182750086483e+17
19407.0	6.319804268937215e+17
19408.0	6.314046947764906e+17
19409.0	6.309125300420608e+17
19410.0	6.303286352500054e+17
19411.0	6.296562626636457e+17
19412.0	6.29068227674112e+17
19413.0	6.284195004765524e+17
19414.0	6.276311648217769e+17
19415.0	6.269867497881599e+17
19416.0	6.260761391267837e+17
19417.0	6.253276089548799e+17
19418.0	6.242780058397354e+17
19419.0	6.233657161285633e+17
19420.0	6.221633997329747e+17
19421.0	6.208828206306643e+17
19422.0	6.19508888065365e+17
19423.0	6.179300587165015e+17
19424.0	6.161381775988061e+17
19425.0	6.140624758287005e+17
19426.0	6.11829208108236e+17
19427.0	6.100764439784106e+17
19428.0	6.087311994038953e+17
19429.0	6.073043487730344e+17
19430.0	6.057951343848106e+17
19431.0	6.041437228149418e+17
19432.0	6.025683634137769e+17
19433.0	6.008321184104447e+17
19434.0	5.988942722280105e+17
19435.0	5.968312201991507e+17
19436.0	5.9455706745187e+17
19437.0	5.922012660760576e+17
19438.0	5.887671053669716e+17
19439.0	5.862617981648896e+17
19440.0	5.826995692066131e+17
19441.0	5.78580025669495e+17
19442.0	5.740107871726248e+17
19443.0	5.6872720641556474e+17
19444.0	5.626580971115857e+17
19445.0	5.555353259343876e+17
19446.0	5.471828241809407e+17
19447.0	5.3679272304312256e+17
19448.0	5.233663259530588e+17
19449.0	5.047098012248746e+17
19450.0	4.748410378780653e+17
19451.0	4.56862654302346e+17
19452.0	4.9187585712455744e+17
19453.0	5.148657672956593e+17
19454.0	5.302062348064079e+17
19455.0	5.416874235920384e+17
19456.0	5.507281257671342e+17
19457.0	5.581767829706068e+17
19458.0	5.6341638435307686e+17
19459.0	5.699261828868781e+17
19460.0	5.7461845500013184e+17
19461.0	5.787317031665664e+17
19462.0	5.823649736381782e+17
19463.0	5.854829073137663e+17
19464.0	5.881798034019667e+17
19465.0	5.90523704348945e+17
19466.0	5.926127989511507e+17
19467.0	5.945070080841044e+17
19468.0	5.963012046673238e+17
19469.0	5.978737310957565e+17
19470.0	5.993437404856319e+17
19471.0	6.007511322722304e+17
19472.0	6.020498283211434e+17
19473.0	6.032773968734889e+17
19474.0	6.044349620726442e+17
19475.0	6.056753334583295e+17
19476.0	6.075363868977833e+17
19477.0	6.094285532648785e+17
19478.0	6.110867191321935e+17
19479.0	6.124997270219427e+17
19480.0	6.138048047742973e+17
19481.0	6.149247762169856e+17
19482.0	6.157980919660539e+17
19483.0	6.166638051196928e+17
19484.0	6.174319008109907e+17
19485.0	6.180239048703999e+17
19486.0	6.186760244210348e+17
19487.0	6.191700440864084e+17
19488.0	6.196374092993875e+17
19489.0	6.20135379509794e+17
19490.0	6.204119092734632e+17
19491.0	6.208803078930431e+17
19492.0	6.213027631551828e+17
19493.0	6.216122587501908e+17
19494.0	6.219081614447956e+17
19495.0	6.221810703357267e+17
19496.0	6.22481172926737e+17
19497.0	6.227539074045267e+17
19498.0	6.229224813756416e+17
19499.0	6.224279994280612e+17
19500.0	6.234475760801108e+17
19501.0	6.238173543792637e+17
19502.0	6.242826551558143e+17
19503.0	6.248441368455854e+17
19504.0	6.253865709426004e+17
19505.0	6.25790524850176e+17
19506.0	6.263155044210004e+17
19507.0	6.264769808607914e+17
19508.0	6.270900631852372e+17
19509.0	6.272059795570687e+17
19510.0	6.274515798239913e+17
19511.0	6.267760293533005e+17
19512.0	6.277750521681233e+17
19513.0	6.278425697670483e+17
19514.0	6.282182682563922e+17
19515.0	6.28422043902498e+17
19516.0	6.28521313640994e+17
19517.0	6.28747938247475e+17
19518.0	6.288750982900393e+17
19519.0	6.289102562743638e+17
19520.0	6.289383330851498e+17
19521.0	6.290039930967378e+17
19522.0	6.291779217260543e+17
19523.0	6.291963131199487e+17
19524.0	6.292069363133097e+17
19525.0	6.292140518102356e+17
19526.0	6.292177583166803e+17
19527.0	6.292174528315392e+17
19528.0	6.293439220722346e+17
19529.0	6.293356942458879e+17
19530.0	6.29323776200977e+17
19531.0	6.293082000938324e+17
19532.0	6.292895038439424e+17
19533.0	6.292679198157482e+17
19534.0	6.292433729312084e+17
19535.0	6.292355762094079e+17
19536.0	6.292689047082324e+17
19537.0	6.292394516064938e+17
19538.0	6.291943497662463e+17
19539.0	6.291283629484714e+17
19540.0	6.291271647057236e+17
19541.0	6.290885041979391e+17
19542.0	6.290449392205823e+17
19543.0	6.289987588849664e+17
19544.0	6.289520555895465e+17
19545.0	6.288654238482431e+17
19546.0	6.287857819145556e+17
19547.0	6.288098530951167e+17
19548.0	6.287951227693737e+17
19549.0	6.287308363224404e+17
19550.0	6.287224173057364e+17
19551.0	6.287145292879188e+17
19552.0	6.286532471510356e+17
19553.0	6.285884188000255e+17
19554.0	6.285229803874985e+17
19555.0	6.284931570685268e+17
19556.0	6.285451983148372e+17
19557.0	6.284766332583933e+17
19558.0	6.284072773659306e+17
19559.0	6.283368057886035e+17
19560.0	6.282623284412415e+17
19561.0	6.282064838699689e+17
19562.0	6.282402043265023e+17
19563.0	6.281659609513983e+17
19564.0	6.280902579585023e+17
19565.0	6.280135242853033e+17
19566.0	6.279334526451711e+17
19567.0	6.278570709439827e+17
19568.0	6.277863346361684e+17
19569.0	6.277904755326975e+17
19570.0	6.277103813831337e+17
19571.0	6.276279211567785e+17
19572.0	6.275530266858836e+17
19573.0	6.274833794990079e+17
19574.0	6.273919160593066e+17
19575.0	6.273146260815872e+17
19576.0	6.272285016413524e+17
19577.0	6.271847893740202e+17
19578.0	6.271218276980052e+17
19579.0	6.270340061724671e+17
19580.0	6.269452235920724e+17
19581.0	6.268567669790036e+17
19582.0	6.267678349415764e+17
19583.0	6.266770541947561e+17
19584.0	6.265855228073299e+17
19585.0	6.264842304356351e+17
19586.0	6.26389163249937e+17
19587.0	6.263053568617129e+17
19588.0	6.261795698944682e+17
19589.0	6.261468947983018e+17
19590.0	6.26069994611234e+17
19591.0	6.259820090884096e+17
19592.0	6.258873308545023e+17
19593.0	6.257900353748991e+17
19594.0	6.256753358405631e+17
19595.0	6.255969078782633e+17
19596.0	6.254863727285588e+17
19597.0	6.254034717507583e+17
19598.0	6.252790324832938e+17
19599.0	6.252084287154857e+17
19600.0	6.251108884982441e+17
19601.0	6.250065709148842e+17
19602.0	6.249073088659455e+17
19603.0	6.24777701237282e+17
19604.0	6.247079947709098e+17
19605.0	6.245893854461951e+17
19606.0	6.245129880163668e+17
19607.0	6.244162178733396e+17
19608.0	6.243457663587668e+17
19609.0	6.242417910306131e+17
19610.0	6.241443238641663e+17
19611.0	6.240561893736447e+17
19612.0	6.239555273359359e+17
19613.0	6.238523803129172e+17
19614.0	6.237473406801236e+17
19615.0	6.236478459172179e+17
19616.0	6.235398082658303e+17
19617.0	6.234400284300628e+17
19618.0	6.232926382107305e+17
19619.0	6.231772291399677e+17
19620.0	6.230797096146259e+17
19621.0	6.230253578660521e+17
19622.0	6.229230570438655e+17
19623.0	6.228188340420608e+17
19624.0	6.227134540414976e+17
19625.0	6.226094455084371e+17
19626.0	6.225042611022505e+17
19627.0	6.223979622694911e+17
19628.0	6.2228214068893e+17
19629.0	6.221720977407999e+17
19630.0	6.220029465635497e+17
19631.0	6.215235376862548e+17
19632.0	6.218585889658196e+17
19633.0	6.217595778061652e+17
19634.0	6.216591256933716e+17
19635.0	6.215503036372307e+17
19636.0	6.214460349175124e+17
19637.0	6.213090455235242e+17
19638.0	6.212343537773226e+17
19639.0	6.211316818291369e+17
19640.0	6.210355445366783e+17
19641.0	6.20872032321536e+17
19642.0	6.208288127451136e+17
19643.0	6.207216040979113e+17
19644.0	6.206094200274943e+17
19645.0	6.204872092636499e+17
19646.0	6.20399192842786e+17
19647.0	6.202931765663059e+17
19648.0	6.201856090264916e+17
19649.0	6.200777091579904e+17
19650.0	6.199700758375081e+17
19651.0	6.198616011396438e+17
19652.0	6.197539823594154e+17
19653.0	6.196459537956863e+17
19654.0	6.195371696280916e+17
19655.0	6.194293153376937e+17
19656.0	6.19320839381538e+17
19657.0	6.192129783103487e+17
19658.0	6.191045133991935e+17
19659.0	6.189958630998015e+17
19660.0	6.188873801531391e+17
19661.0	6.187786921050111e+17
19662.0	6.18669840409122e+17
19663.0	6.185574222965418e+17
19664.0	6.184500570619904e+17
19665.0	6.183433208332287e+17
