# Flux units: erg / (cm m2 s)
# Wavelength units: Angstrom
wave	flux
19000.0	5.284863192771241e+17
19001.0	5.2837469773277856e+17
19002.0	5.2829410529989965e+17
19003.0	5.281972603584511e+17
19004.0	5.2810087231651834e+17
19005.0	5.280029808263167e+17
19006.0	5.279076757536768e+17
19007.0	5.2781236704597325e+17
19008.0	5.2770665296909645e+17
19009.0	5.2760453026501965e+17
19010.0	5.2744482046607334e+17
19011.0	5.2742175500970656e+17
19012.0	5.27299133973026e+17
19013.0	5.272344596927828e+17
19014.0	5.2713129777998496e+17
19015.0	5.270351122530303e+17
19016.0	5.2693740880745805e+17
19017.0	5.2685036266891936e+17
19018.0	5.267519747129342e+17
19019.0	5.266574414621354e+17
19020.0	5.2656031571203405e+17
19021.0	5.2646671024127994e+17
19022.0	5.2637006047477766e+17
19023.0	5.2626862570646176e+17
19024.0	5.261726145926485e+17
19025.0	5.260811003319637e+17
19026.0	5.259810882016596e+17
19027.0	5.258736051770708e+17
19028.0	5.257951073796096e+17
19029.0	5.256965133434879e+17
19030.0	5.256045976879103e+17
19031.0	5.255095482580991e+17
19032.0	5.2541218552982176e+17
19033.0	5.253031286625621e+17
19034.0	5.2521788537569274e+17
19035.0	5.251080266973183e+17
19036.0	5.2366863803350957e+17
19037.0	5.24923451805969e+17
19038.0	5.2483429719080954e+17
19039.0	5.24742654304802e+17
19040.0	5.246481169995092e+17
19041.0	5.2455145793563296e+17
19042.0	5.243621078990846e+17
19043.0	5.2436230503137274e+17
19044.0	5.242651167162366e+17
19045.0	5.241699435544575e+17
19046.0	5.240656157649578e+17
19047.0	5.2397693538577056e+17
19048.0	5.238383893457577e+17
19049.0	5.2361046576332774e+17
19050.0	5.236834013544447e+17
19051.0	5.2339708285419475e+17
19052.0	5.2346633256086176e+17
19053.0	5.234072196481023e+17
19054.0	5.2331229136377165e+17
19055.0	5.231558307523241e+17
19056.0	5.2310999973232634e+17
19057.0	5.230262457029972e+17
19058.0	5.228438003995987e+17
19059.0	5.228027192890708e+17
19060.0	5.227382926824789e+17
19061.0	5.226466061757098e+17
19062.0	5.2255066098237434e+17
19063.0	5.22455767720482e+17
19064.0	5.2234285265278285e+17
19065.0	5.2224090534051834e+17
19066.0	5.2213125980269216e+17
19067.0	5.220741643501566e+17
19068.0	5.219809093834069e+17
19069.0	5.218861018950313e+17
19070.0	5.2178662817355085e+17
19071.0	5.2169468588414285e+17
19072.0	5.215683427521876e+17
19073.0	5.2150516751619405e+17
19074.0	5.214114850100564e+17
19075.0	5.213165897209172e+17
19076.0	5.2121875765002234e+17
19077.0	5.211240421567145e+17
19078.0	5.210249513751892e+17
19079.0	5.2093688091770874e+17
19080.0	5.208405188804607e+17
19081.0	5.207404046188543e+17
19082.0	5.2064680592889165e+17
19083.0	5.205450693104981e+17
19084.0	5.204333024335188e+17
19085.0	5.2036627165347834e+17
19086.0	5.201782947621545e+17
19087.0	5.2007938580370746e+17
19088.0	5.200271229583359e+17
19089.0	5.199500288546133e+17
19090.0	5.1988998040234656e+17
19091.0	5.1979076630828365e+17
19092.0	5.196270664679424e+17
19093.0	5.19611750617361e+17
19094.0	5.195172962194773e+17
19095.0	5.194232286762324e+17
19096.0	5.193262974719317e+17
19097.0	5.192339305092437e+17
19098.0	5.1910372484273485e+17
19099.0	5.190022512072021e+17
19100.0	5.1894603383220896e+17
19101.0	5.1885510565560314e+17
19102.0	5.187422939075924e+17
19103.0	5.1866711415412045e+17
19104.0	5.1857379571357e+17
19105.0	5.184016008697174e+17
19106.0	5.183792607483221e+17
19107.0	5.1826836104369485e+17
19108.0	5.181660575651157e+17
19109.0	5.1802984327850656e+17
19110.0	5.180014278475775e+17
19111.0	5.1789141160318285e+17
19112.0	5.1779358218868045e+17
19113.0	5.177250993405951e+17
19114.0	5.176161347480234e+17
19115.0	5.175248279655764e+17
19116.0	5.1744022822475085e+17
19117.0	5.1734527924852045e+17
19118.0	5.17233433448721e+17
19119.0	5.1560702356575334e+17
19120.0	5.1705117409279994e+17
19121.0	5.1696472438429005e+17
19122.0	5.1687944649441274e+17
19123.0	5.167857355369129e+17
19124.0	5.166856904813225e+17
19125.0	5.1659716452242765e+17
19126.0	5.165001138503678e+17
19127.0	5.1613311630486163e+17
19128.0	5.1630831965306874e+17
19129.0	5.162103611938132e+17
19130.0	5.161268356841472e+17
19131.0	5.160347221972308e+17
19132.0	5.159408850610857e+17
19133.0	5.158399589220351e+17
19134.0	5.1575185036629325e+17
19135.0	5.1565962614975136e+17
19136.0	5.1556663745140045e+17
19137.0	5.154488518180864e+17
19138.0	5.1537709951003296e+17
19139.0	5.1528597182436685e+17
19140.0	5.1519267337666554e+17
19141.0	5.150991339661994e+17
19142.0	5.150017109797545e+17
19143.0	5.149029368681813e+17
19144.0	5.1481289739468794e+17
19145.0	5.147245042554196e+17
19146.0	5.1453802249366195e+17
19147.0	5.145237250899966e+17
19148.0	5.144156553521834e+17
19149.0	5.143171630279338e+17
19150.0	5.1425688416856736e+17
19151.0	5.141636816306174e+17
19152.0	5.1406948105803085e+17
19153.0	5.139159088540328e+17
19154.0	5.138600482045951e+17
19155.0	5.137902115050837e+17
19156.0	5.136969481497258e+17
19157.0	5.135804828134058e+17
19158.0	5.1342407344237235e+17
19159.0	5.1341272910834336e+17
19160.0	5.133218532906324e+17
19161.0	5.132290724899499e+17
19162.0	5.13024246939648e+17
19163.0	5.130351533184341e+17
19164.0	5.129509279891455e+17
19165.0	5.1279111144516243e+17
19166.0	5.1274219509514234e+17
19167.0	5.126619688250025e+17
19168.0	5.125783613166932e+17
19169.0	5.124842395271167e+17
19170.0	5.123936605263188e+17
19171.0	5.1229360680250016e+17
19172.0	5.1220668020162554e+17
19173.0	5.1211488233608525e+17
19174.0	5.120130875566762e+17
19175.0	5.1192889326523725e+17
19176.0	5.1183616013981005e+17
19177.0	5.1172050744989005e+17
19178.0	5.116461018251262e+17
19179.0	5.115481075744768e+17
19180.0	5.114635650859007e+17
19181.0	5.1134830400416403e+17
19182.0	5.1127667997190816e+17
19183.0	5.111871640873643e+17
19184.0	5.110940884970153e+17
19185.0	5.1099964521403725e+17
19186.0	5.109087882706942e+17
19187.0	5.108074406739967e+17
19188.0	5.1072306952273914e+17
19189.0	5.106310599147519e+17
19190.0	5.105380350055764e+17
19191.0	5.1044037867601914e+17
19192.0	5.1035284467002016e+17
19193.0	5.102515938918398e+17
19194.0	5.101526977959251e+17
19195.0	5.100735633730217e+17
19196.0	5.0997705628276045e+17
19197.0	5.0988252652721485e+17
19198.0	5.097741035590995e+17
19199.0	5.089657435280723e+17
19200.0	5.090667940981421e+17
19201.0	5.094991311405056e+17
19202.0	5.0942215489672525e+17
19203.0	5.09330798551586e+17
19204.0	5.0923790100944205e+17
19205.0	5.0914909990420474e+17
19206.0	5.0905606982205434e+17
19207.0	5.0894954016276474e+17
19208.0	5.088351898741417e+17
19209.0	5.0878042932073805e+17
19210.0	5.086886796197886e+17
19211.0	5.085984951631871e+17
19212.0	5.0850559964829e+17
19213.0	5.083960124811945e+17
19214.0	5.0829962367030605e+17
19215.0	5.082264026568021e+17
19216.0	5.081373689075028e+17
19217.0	5.080429475747157e+17
19218.0	5.078325487730686e+17
19219.0	5.07838624502033e+17
19220.0	5.077647837102079e+17
19221.0	5.0763003505322656e+17
19222.0	5.075824744420693e+17
19223.0	5.0748976214835194e+17
19224.0	5.073946530895188e+17
19225.0	5.07287936504081e+17
19226.0	5.072139278701909e+17
19227.0	5.0712277550803616e+17
19228.0	5.070342917718015e+17
19229.0	5.069422413392553e+17
19230.0	5.068492168495104e+17
19231.0	5.0675674726618445e+17
19232.0	5.066655537998506e+17
19233.0	5.065647771178325e+17
19234.0	5.064797475307518e+17
19235.0	5.0638650514691405e+17
19236.0	5.062994012667903e+17
19237.0	5.0620495085349536e+17
19238.0	5.0610095944717645e+17
19239.0	5.060246065468756e+17
19240.0	5.059324610434389e+17
19241.0	5.058381835053738e+17
19242.0	5.0574735193757e+17
19243.0	5.056353498300414e+17
19244.0	5.055664878168746e+17
19245.0	5.054740159965866e+17
19246.0	5.0538079339588256e+17
19247.0	5.0529026724331514e+17
19248.0	5.052001653445972e+17
19249.0	5.051061201709738e+17
19250.0	5.050019683325268e+17
19251.0	5.048990610838868e+17
19252.0	5.047927635793236e+17
19253.0	5.0473815534906016e+17
19254.0	5.046511169000788e+17
19255.0	5.0453213945528294e+17
19256.0	5.0446502325125114e+17
19257.0	5.0437649267862176e+17
19258.0	5.0428532388877645e+17
19259.0	5.041833517602132e+17
19260.0	5.0406767474333e+17
19261.0	5.040091551847764e+17
19262.0	5.0391036744171514e+17
19263.0	5.038162248903338e+17
19264.0	5.0364957435712826e+17
19265.0	5.036121194321236e+17
19266.0	5.03500582752529e+17
19267.0	5.034632976269311e+17
19268.0	5.033712157371051e+17
19269.0	5.032803810235732e+17
19270.0	5.0318833478533114e+17
19271.0	5.0304441793904646e+17
19272.0	5.0300172691483296e+17
19273.0	5.0287008393024845e+17
19274.0	5.0276123873553043e+17
19275.0	5.0273384923135994e+17
19276.0	5.026397621146964e+17
19277.0	5.025495912196777e+17
19278.0	5.024574380965887e+17
19279.0	5.0236488735348045e+17
19280.0	5.0226417211801574e+17
19281.0	5.0218422707595936e+17
19282.0	5.020954341496149e+17
19283.0	5.0199562795963725e+17
19284.0	5.019073036768596e+17
19285.0	5.0179900171441485e+17
19286.0	5.017248185974783e+17
19287.0	5.016371426142889e+17
19288.0	5.011857202304338e+17
19289.0	5.0053054645753005e+17
19290.0	5.0136359010740896e+17
19291.0	5.012380226420736e+17
19292.0	5.0118391381360634e+17
19293.0	5.010923188824746e+17
19294.0	5.0100033492964685e+17
19295.0	5.009116418277375e+17
19296.0	5.007829542196566e+17
19297.0	5.007193569667754e+17
19298.0	5.0063423440595616e+17
19299.0	5.005057948210517e+17
19300.0	5.00454562935603e+17
19301.0	5.003651692451157e+17
19302.0	5.0027312950804474e+17
19303.0	5.001721452079785e+17
19304.0	5.000884424190634e+17
19305.0	4.999993364578303e+17
19306.0	4.999094723761493e+17
19307.0	4.998114209431551e+17
19308.0	4.9972394460883616e+17
19309.0	4.996091927156053e+17
19310.0	4.995082456050347e+17
19311.0	4.99446289793024e+17
19312.0	4.993617319253332e+17
19313.0	4.992686113860266e+17
19314.0	4.960054054049084e+17
19315.0	4.962235094925367e+17
19316.0	4.989440332136448e+17
19317.0	4.9890701337777485e+17
19318.0	4.988174928095915e+17
19319.0	4.987293667076777e+17
19320.0	4.986235131701929e+17
19321.0	4.9851480624769696e+17
19322.0	4.984453309573802e+17
19323.0	4.983554658970281e+17
19324.0	4.9827212738341536e+17
19325.0	4.9816015994879994e+17
19326.0	4.9809185102452045e+17
19327.0	4.979998543489707e+17
19328.0	4.978426925197995e+17
19329.0	4.97821128065024e+17
19330.0	4.97724425380386e+17
19331.0	4.9763177124768416e+17
19332.0	4.9754793186426874e+17
19333.0	4.974546622174548e+17
19334.0	4.973639524941823e+17
19335.0	4.971349007138817e+17
19336.0	4.971813725536255e+17
19337.0	4.970915386010281e+17
19338.0	4.969694987550719e+17
19339.0	4.969087471277396e+17
19340.0	4.967800969887743e+17
19341.0	4.966665107625302e+17
19342.0	4.9656303071177376e+17
19343.0	4.965426131195221e+17
19344.0	4.9639852395724794e+17
19345.0	4.960075983268515e+17
19346.0	4.961307487546025e+17
19347.0	4.9610204216907085e+17
19348.0	4.960859287715838e+17
19349.0	4.959898922822314e+17
19350.0	4.9587447181694285e+17
19351.0	4.9580452998021114e+17
19352.0	4.9563952284521786e+17
19353.0	4.9562790832810656e+17
19354.0	4.9553642985881594e+17
19355.0	4.954296829345792e+17
19356.0	4.9535173389189114e+17
19357.0	4.9525985179074554e+17
19358.0	4.9516678270156794e+17
19359.0	4.950533443245396e+17
19360.0	4.949219188845225e+17
19361.0	4.948832626409471e+17
19362.0	4.947942385385472e+17
19363.0	4.947013344952319e+17
19364.0	4.94608130908706e+17
19365.0	4.945141831827456e+17
19366.0	4.944215270927017e+17
19367.0	4.9432810008958285e+17
19368.0	4.9423459381411834e+17
19369.0	4.941336768326314e+17
19370.0	4.940413108486143e+17
19371.0	4.939443593019391e+17
19372.0	4.9385776160440314e+17
19373.0	4.9376083676146336e+17
19374.0	4.936676755374079e+17
19375.0	4.935728156202325e+17
19376.0	4.9347800596479994e+17
19377.0	4.9338070314516474e+17
19378.0	4.932852449804287e+17
19379.0	4.9318940695156045e+17
19380.0	4.930887667242325e+17
19381.0	4.929906911040851e+17
19382.0	4.9288195090677754e+17
19383.0	4.9277883121663994e+17
19384.0	4.9269383846952954e+17
19385.0	4.9259709335251616e+17
19386.0	4.924984810012672e+17
19387.0	4.923985984050517e+17
19388.0	4.922979590165845e+17
19389.0	4.921928144562857e+17
19390.0	4.9208300520079354e+17
19391.0	4.9072175026885786e+17
19392.0	4.918499769406803e+17
19393.0	4.917774807029076e+17
19394.0	4.9167286867940685e+17
19395.0	4.9154297423025485e+17
19396.0	4.914472092521813e+17
19397.0	4.9134666989786445e+17
19398.0	4.9121492911609165e+17
19399.0	4.90980225720866e+17
19400.0	4.9097539031749965e+17
19401.0	4.9088953480205645e+17
19402.0	4.9077683762845005e+17
19403.0	4.9064248197775354e+17
19404.0	4.9052414884795725e+17
19405.0	4.903956483058346e+17
19406.0	4.902680800176809e+17
19407.0	4.9012045813295763e+17
19408.0	4.898889652677293e+17
19409.0	4.898837295879509e+17
19410.0	4.897558599390549e+17
19411.0	4.8961992359499085e+17
19412.0	4.894730596210005e+17
19413.0	4.8930267378046285e+17
19414.0	4.891727938016598e+17
19415.0	4.89022623457826e+17
19416.0	4.888325955518462e+17
19417.0	4.8866980461718176e+17
19418.0	4.885123169604949e+17
19419.0	4.8832494188189005e+17
19420.0	4.881261543118164e+17
19421.0	4.87922824520226e+17
19422.0	4.876861470059177e+17
19423.0	4.8744819840778234e+17
19424.0	4.871853793345536e+17
19425.0	4.8688278560658765e+17
19426.0	4.8653560328137363e+17
19427.0	4.861372847008425e+17
19428.0	4.857313452097534e+17
19429.0	4.8538495434970445e+17
19430.0	4.849847607754752e+17
19431.0	4.844009841229827e+17
19432.0	4.841865341829119e+17
19433.0	4.837007259161941e+17
19434.0	4.8313072566490445e+17
19435.0	4.824330644313429e+17
19436.0	4.815675821741396e+17
19437.0	4.8060435026411494e+17
19438.0	4.7657928566155923e+17
19439.0	4.7746885937179334e+17
19440.0	4.764230125355007e+17
19441.0	4.7516193876432205e+17
19442.0	4.735041880631979e+17
19443.0	4.7101197806469126e+17
19444.0	4.667331436696913e+17
19445.0	4.6095590332825664e+17
19446.0	4.570568678440963e+17
19447.0	4.511393130741758e+17
19448.0	4.3906388438548486e+17
19449.0	4.2589853064014483e+17
19450.0	3.9366263605384736e+17
19451.0	3.7133456713099955e+17
19452.0	4.144373587509245e+17
19453.0	4.3259403596813734e+17
19454.0	4.4555731443821235e+17
19455.0	4.5405265894659475e+17
19456.0	4.582406187122689e+17
19457.0	4.627684323754e+17
19458.0	4.578962674723675e+17
19459.0	4.7092020683298304e+17
19460.0	4.728861793888938e+17
19461.0	4.741484653139285e+17
19462.0	4.751478226944e+17
19463.0	4.762501135379115e+17
19464.0	4.7774061503883904e+17
19465.0	4.787973367966377e+17
19466.0	4.7951048927259296e+17
19467.0	4.800644499461461e+17
19468.0	4.804901116837887e+17
19469.0	4.807564088137044e+17
19470.0	4.811270874901162e+17
19471.0	4.8136141248921594e+17
19472.0	4.815605486059518e+17
19473.0	4.817245745534292e+17
19474.0	4.818800090983082e+17
19475.0	4.820217446268927e+17
19476.0	4.823531790882132e+17
19477.0	4.82503797313809e+17
19478.0	4.8261102854034765e+17
19479.0	4.826482648722089e+17
19480.0	4.827400869249024e+17
19481.0	4.827830342909952e+17
19482.0	4.828056884958549e+17
19483.0	4.82835673714961e+17
19484.0	4.828331650318334e+17
19485.0	4.828184904204287e+17
19486.0	4.8277125060362246e+17
19487.0	4.828078284996607e+17
19488.0	4.8278468167379616e+17
19489.0	4.827352936043861e+17
19490.0	4.824818686536359e+17
19491.0	4.826856115142655e+17
19492.0	4.826516430345555e+17
19493.0	4.826075437028693e+17
19494.0	4.825593193431039e+17
19495.0	4.825081008794281e+17
19496.0	4.823800609417897e+17
19497.0	4.824023124235604e+17
19498.0	4.822179986276354e+17
19499.0	4.802422110508357e+17
19500.0	4.8224714638404256e+17
19501.0	4.8219291186626554e+17
19502.0	4.8213027063507616e+17
19503.0	4.820791667458047e+17
19504.0	4.820134849238356e+17
19505.0	4.819454319919103e+17
19506.0	4.818794660757503e+17
19507.0	4.8181031668285434e+17
19508.0	4.8174787139556685e+17
19509.0	4.8167426303808845e+17
19510.0	4.815530027734356e+17
19511.0	4.7640387686235654e+17
19512.0	4.811451379569997e+17
19513.0	4.807624078568096e+17
19514.0	4.8089463140297344e+17
19515.0	4.811573142312278e+17
19516.0	4.81156719968256e+17
19517.0	4.810779226275839e+17
19518.0	4.810008226518356e+17
19519.0	4.8092214435949216e+17
19520.0	4.808075598189908e+17
19521.0	4.807838444552191e+17
19522.0	4.806936151894698e+17
19523.0	4.8061448524049056e+17
19524.0	4.805161185356458e+17
19525.0	4.804723142732458e+17
19526.0	4.803960201631061e+17
19527.0	4.803138318674602e+17
19528.0	4.8023116143656954e+17
19529.0	4.8014846024744954e+17
19530.0	4.8007663677603834e+17
19531.0	4.799966262329343e+17
19532.0	4.7991583296279885e+17
19533.0	4.7983483682815994e+17
19534.0	4.797533096946345e+17
19535.0	4.796694210281472e+17
19536.0	4.7958457480205645e+17
19537.0	4.795078957247145e+17
19538.0	4.793635729397077e+17
19539.0	4.792534914039809e+17
19540.0	4.792585806326442e+17
19541.0	4.791698880200703e+17
19542.0	4.790929455404372e+17
19543.0	4.7896559989992115e+17
19544.0	4.789292661123753e+17
19545.0	4.787728861014695e+17
19546.0	4.7862194547370656e+17
19547.0	4.786875425008298e+17
19548.0	4.7860564473064096e+17
19549.0	4.785084132141738e+17
19550.0	4.784398237608619e+17
19551.0	4.783571857659221e+17
19552.0	4.782739125436415e+17
19553.0	4.781872467585706e+17
19554.0	4.781004453576704e+17
19555.0	4.780166802134357e+17
19556.0	4.7793727399963296e+17
19557.0	4.7785659257760416e+17
19558.0	4.7777361833929376e+17
19559.0	4.776907082738346e+17
19560.0	4.775861932785663e+17
19561.0	4.7751979758605645e+17
19562.0	4.7742188253784736e+17
19563.0	4.773569623315796e+17
19564.0	4.7727334349864954e+17
19565.0	4.7718925336576e+17
19566.0	4.7710137032376314e+17
19567.0	4.770221179011071e+17
19568.0	4.7693537878562125e+17
19569.0	4.7685138882669216e+17
19570.0	4.7677053998202874e+17
19571.0	4.766862739679913e+17
19572.0	4.765982378338987e+17
19573.0	4.7651126977931936e+17
19574.0	4.764201101470379e+17
19575.0	4.7635150985844045e+17
19576.0	4.762643430637568e+17
19577.0	4.7617228920586234e+17
19578.0	4.760932591512234e+17
19579.0	4.760121501898068e+17
19580.0	4.7592854058434554e+17
19581.0	4.758457440447145e+17
19582.0	4.7576462522668365e+17
19583.0	4.7568069049275725e+17
19584.0	4.7559601909923834e+17
19585.0	4.754955423099561e+17
19586.0	4.75407349378799e+17
19587.0	4.7533953293571405e+17
19588.0	4.751871173809494e+17
19589.0	4.751727287511721e+17
19590.0	4.7507127385019725e+17
19591.0	4.750074936557568e+17
19592.0	4.749242618871808e+17
19593.0	4.7483350770428576e+17
19594.0	4.747144046400851e+17
19595.0	4.7466900269738656e+17
19596.0	4.745791126110208e+17
19597.0	4.745027340555604e+17
19598.0	4.743311443798697e+17
19599.0	4.7433557006964045e+17
19600.0	4.7425330599690234e+17
19601.0	4.7415915988036256e+17
19602.0	4.740762632366761e+17
19603.0	4.739270248671913e+17
19604.0	4.7390941228564474e+17
19605.0	4.737881235696299e+17
19606.0	4.7374852668347725e+17
19607.0	4.736656865929897e+17
19608.0	4.7357964715731616e+17
19609.0	4.7348995846744736e+17
19610.0	4.733902643352917e+17
19611.0	4.7329406370884256e+17
19612.0	4.73246736790323e+17
19613.0	4.7316133782487034e+17
19614.0	4.730732796706815e+17
19615.0	4.7299469582008314e+17
19616.0	4.7287635856588794e+17
19617.0	4.7278874081361914e+17
19618.0	4.7264590232289254e+17
19619.0	4.72532776141892e+17
19620.0	4.7245452280244883e+17
19621.0	4.724412977425065e+17
19622.0	4.7240815973498874e+17
19623.0	4.723220450115583e+17
19624.0	4.7223233094615034e+17
19625.0	4.721569003732992e+17
19626.0	4.720714603036672e+17
19627.0	4.719880674738176e+17
19628.0	4.7188504236523514e+17
19629.0	4.716830669843113e+17
19630.0	4.716522919777619e+17
19631.0	4.708620173661524e+17
19632.0	4.715589747955029e+17
19633.0	4.7147656888538445e+17
19634.0	4.7140283399973536e+17
19635.0	4.7130887508896416e+17
19636.0	4.7117994931432096e+17
19637.0	4.710527300621653e+17
19638.0	4.7106325790501536e+17
19639.0	4.709846412689406e+17
19640.0	4.70886711890193e+17
19641.0	4.705879967749468e+17
19642.0	4.707301713772542e+17
19643.0	4.706464845266942e+17
19644.0	4.705580433626453e+17
19645.0	4.7044125562415763e+17
19646.0	4.7034167117305165e+17
19647.0	4.7031739803675296e+17
19648.0	4.702346191831039e+17
19649.0	4.701507400936106e+17
19650.0	4.7006816718028794e+17
19651.0	4.69984177431074e+17
19652.0	4.69900631159603e+17
19653.0	4.6981762238818976e+17
19654.0	4.6973388800218445e+17
19655.0	4.6964959479507616e+17
19656.0	4.69567340229427e+17
