# Flux units: erg / (cm m2 s)
# Wavelength units: Angstrom
wave	flux
19000.0	7.54325246845474e+17
19001.0	7.541825957702314e+17
19002.0	7.540525527728127e+17
19003.0	7.539159251375444e+17
19004.0	7.537792926089215e+17
19005.0	7.536427179616938e+17
19006.0	7.535058983671123e+17
19007.0	7.5336573269661e+17
19008.0	7.53228985663488e+17
19009.0	7.530860591622824e+17
19010.0	7.529386983030783e+17
19011.0	7.528232921683283e+17
19012.0	7.526644468853417e+17
19013.0	7.525529102756521e+17
19014.0	7.524122603028479e+17
19015.0	7.522765617059156e+17
19016.0	7.521396071945555e+17
19017.0	7.52003930268194e+17
19018.0	7.518655048144211e+17
19019.0	7.517442824383148e+17
19020.0	7.516120143626239e+17
19021.0	7.514756278998356e+17
19022.0	7.513384801708712e+17
19023.0	7.511977291153408e+17
19024.0	7.510606510118228e+17
19025.0	7.509209202906451e+17
19026.0	7.50779228312917e+17
19027.0	7.506241200149846e+17
19028.0	7.505075868707498e+17
19029.0	7.503705179947007e+17
19030.0	7.50233330839279e+17
19031.0	7.500945849406803e+17
19032.0	7.499551871074303e+17
19033.0	7.498085188676266e+17
19034.0	7.496668192003412e+17
19035.0	7.494617208105642e+17
19036.0	7.478368928792572e+17
19037.0	7.492044069710506e+17
19038.0	7.491138104240809e+17
19039.0	7.489841896532649e+17
19040.0	7.48848088682769e+17
19041.0	7.48710608904738e+17
19042.0	7.485634084077565e+17
19043.0	7.484343231097514e+17
19044.0	7.482949375797929e+17
19045.0	7.481557122722474e+17
19046.0	7.480155885447849e+17
19047.0	7.478762878795773e+17
19048.0	7.477301848921427e+17
19049.0	7.47588040069393e+17
19050.0	7.474482855804927e+17
19051.0	7.470937621747027e+17
19052.0	7.470883285936809e+17
19053.0	7.470378026095956e+17
19054.0	7.469054533042173e+17
19055.0	7.46750929272832e+17
19056.0	7.466391576423084e+17
19057.0	7.46503241081378e+17
19058.0	7.463602305542824e+17
19059.0	7.462245407653887e+17
19060.0	7.460860915438932e+17
19061.0	7.459479408170326e+17
19062.0	7.458086142869503e+17
19063.0	7.456693141809834e+17
19064.0	7.455242573927763e+17
19065.0	7.453799158732118e+17
19066.0	7.452467916002644e+17
19067.0	7.451130251793748e+17
19068.0	7.449738391584765e+17
19069.0	7.448345965144745e+17
19070.0	7.446939961742676e+17
19071.0	7.445549531791357e+17
19072.0	7.444152722303658e+17
19073.0	7.442771939251539e+17
19074.0	7.441380238426111e+17
19075.0	7.439985870023336e+17
19076.0	7.438583283580925e+17
19077.0	7.43718684598818e+17
19078.0	7.435790001547945e+17
19079.0	7.434406241938088e+17
19080.0	7.433001759670271e+17
19081.0	7.431586040862036e+17
19082.0	7.430199078202025e+17
19083.0	7.428740190218922e+17
19084.0	7.427258430696105e+17
19085.0	7.426003041954472e+17
19086.0	7.424277684245844e+17
19087.0	7.422954623205373e+17
19088.0	7.421620596856147e+17
19089.0	7.420156391893674e+17
19090.0	7.418951071956991e+17
19091.0	7.417590544596992e+17
19092.0	7.416130205384703e+17
19093.0	7.414839911645183e+17
19094.0	7.413459802477906e+17
19095.0	7.412069066342399e+17
19096.0	7.41066908176657e+17
19097.0	7.409278194636118e+17
19098.0	7.407870175171923e+17
19099.0	7.406470758225235e+17
19100.0	7.405056459887956e+17
19101.0	7.4036745877149e+17
19102.0	7.402245009528147e+17
19103.0	7.40089290433058e+17
19104.0	7.399463751166634e+17
19105.0	7.397921884471293e+17
19106.0	7.396515502183764e+17
19107.0	7.395108220917075e+17
19108.0	7.393623726708054e+17
19109.0	7.391459432289619e+17
19110.0	7.390646440558591e+17
19111.0	7.389502165920425e+17
19112.0	7.388150914962774e+17
19113.0	7.38677718393378e+17
19114.0	7.385378798785876e+17
19115.0	7.383925356407464e+17
19116.0	7.382565483358889e+17
19117.0	7.381156981549736e+17
19118.0	7.379666113396735e+17
19119.0	7.376444446124712e+17
19120.0	7.376815405749587e+17
19121.0	7.375466162465448e+17
19122.0	7.374185482070697e+17
19123.0	7.372791383501481e+17
19124.0	7.371271823512918e+17
19125.0	7.369976992934569e+17
19126.0	7.368531913998335e+17
19127.0	7.3663299743034e+17
19128.0	7.365537260634111e+17
19129.0	7.364323950548308e+17
19130.0	7.362977669840896e+17
19131.0	7.36158447444514e+17
19132.0	7.360184945650345e+17
19133.0	7.35872720970274e+17
19134.0	7.357291998565716e+17
19135.0	7.355978069923156e+17
19136.0	7.35457584279279e+17
19137.0	7.353106246751572e+17
19138.0	7.351761242510675e+17
19139.0	7.350373397648723e+17
19140.0	7.348973337575424e+17
19141.0	7.347570609924777e+17
19142.0	7.346150933091668e+17
19143.0	7.344739186289322e+17
19144.0	7.343330715238399e+17
19145.0	7.341953247084543e+17
19146.0	7.340164358253226e+17
19147.0	7.339107924923731e+17
19148.0	7.337721806716927e+17
19149.0	7.336316028409172e+17
19150.0	7.334925521562284e+17
19151.0	7.333520310883668e+17
19152.0	7.332089882651305e+17
19153.0	7.330661861949437e+17
19154.0	7.329227854577663e+17
19155.0	7.327852943551145e+17
19156.0	7.326421728187731e+17
19157.0	7.32487953293858e+17
19158.0	7.323177852076032e+17
19159.0	7.322021313292969e+17
19160.0	7.320663042468522e+17
19161.0	7.319120957669373e+17
19162.0	7.316513213470036e+17
19163.0	7.316040547565565e+17
19164.0	7.315037476967764e+17
19165.0	7.313647024646825e+17
19166.0	7.312210620929364e+17
19167.0	7.310761912522067e+17
19168.0	7.30944967418402e+17
19169.0	7.308069043524948e+17
19170.0	7.306670247335251e+17
19171.0	7.305227922658644e+17
19172.0	7.303838005810516e+17
19173.0	7.302384139807402e+17
19174.0	7.300944584769535e+17
19175.0	7.299558237274111e+17
19176.0	7.298145310474237e+17
19177.0	7.296626712379391e+17
19178.0	7.29526140351283e+17
19179.0	7.293824942473215e+17
19180.0	7.292464419307517e+17
19181.0	7.291019427053565e+17
19182.0	7.289651036771667e+17
19183.0	7.288250933357224e+17
19184.0	7.2868329188666e+17
19185.0	7.285415548900692e+17
19186.0	7.283997658841087e+17
19187.0	7.282528075382784e+17
19188.0	7.281151529975807e+17
19189.0	7.279719493926911e+17
19190.0	7.278278374413651e+17
19191.0	7.276828301459455e+17
19192.0	7.275420066687658e+17
19193.0	7.27396650127633e+17
19194.0	7.27248711013717e+17
19195.0	7.270984738406399e+17
19196.0	7.269383586622122e+17
19197.0	7.267557007775059e+17
19198.0	7.264807304560639e+17
19199.0	7.255261084035753e+17
19200.0	7.255068242520748e+17
19201.0	7.260720570477225e+17
19202.0	7.260492004676948e+17
19203.0	7.259405927404884e+17
19204.0	7.258168347678036e+17
19205.0	7.256837377578323e+17
19206.0	7.255464739864573e+17
19207.0	7.253998799858345e+17
19208.0	7.25256794939938e+17
19209.0	7.251242722699945e+17
19210.0	7.249832188051455e+17
19211.0	7.248404852419241e+17
19212.0	7.246964679420585e+17
19213.0	7.245431082494634e+17
19214.0	7.243960038020436e+17
19215.0	7.242629653725181e+17
19216.0	7.241241299954345e+17
19217.0	7.239791144512169e+17
19218.0	7.238008555525459e+17
19219.0	7.236807229964288e+17
19220.0	7.235487380362582e+17
19221.0	7.233944823005181e+17
19222.0	7.232609757866666e+17
19223.0	7.231186511680854e+17
19224.0	7.229723741170345e+17
19225.0	7.228257313226751e+17
19226.0	7.226856909220522e+17
19227.0	7.225412811751424e+17
19228.0	7.223986481354067e+17
19229.0	7.222537869415764e+17
19230.0	7.221080611618816e+17
19231.0	7.21962413396241e+17
19232.0	7.218181058505385e+17
19233.0	7.216688979596627e+17
19234.0	7.215269424398335e+17
19235.0	7.213731954731689e+17
19236.0	7.212242976811689e+17
19237.0	7.210776312588969e+17
19238.0	7.20925918110242e+17
19239.0	7.207862150714708e+17
19240.0	7.20639809954338e+17
19241.0	7.204922347661993e+17
19242.0	7.203462355178836e+17
19243.0	7.201895328251904e+17
19244.0	7.200538071050922e+17
19245.0	7.199067002809002e+17
19246.0	7.197589282400938e+17
19247.0	7.196120616097108e+17
19248.0	7.194647508025343e+17
19249.0	7.19316245877009e+17
19250.0	7.191673227793748e+17
19251.0	7.190143162471764e+17
19252.0	7.188530901374291e+17
19253.0	7.18723080135202e+17
19254.0	7.185758149061289e+17
19255.0	7.18414084780851e+17
19256.0	7.18276042826274e+17
19257.0	7.181286597372585e+17
19258.0	7.179790423425023e+17
19259.0	7.178232467379539e+17
19260.0	7.176485837559123e+17
19261.0	7.175273901806931e+17
19262.0	7.17374421537041e+17
19263.0	7.172215964783955e+17
19264.0	7.170501168332799e+17
19265.0	7.16914674508322e+17
19266.0	7.167649371564714e+17
19267.0	7.166227122225151e+17
19268.0	7.164598713057279e+17
19269.0	7.162990012923901e+17
19270.0	7.161445712134143e+17
19271.0	7.159774988031316e+17
19272.0	7.158372755308543e+17
19273.0	7.156576375450281e+17
19274.0	7.154986660134911e+17
19275.0	7.153785170995881e+17
19276.0	7.152234950645076e+17
19277.0	7.150690930873684e+17
19278.0	7.149141691990016e+17
19279.0	7.147567048207017e+17
19280.0	7.145990217793535e+17
19281.0	7.144445099114493e+17
19282.0	7.142872574853117e+17
19283.0	7.141242405475668e+17
19284.0	7.139565601030144e+17
19285.0	7.138006459394729e+17
19286.0	7.136429416469842e+17
19287.0	7.134736733787475e+17
19288.0	7.128008642352465e+17
19289.0	7.121564024351391e+17
19290.0	7.129617046088361e+17
19291.0	7.12802107986193e+17
19292.0	7.126616814299817e+17
19293.0	7.125014335717375e+17
19294.0	7.123394429801812e+17
19295.0	7.121779657714345e+17
19296.0	7.120133520621568e+17
19297.0	7.118493549155667e+17
19298.0	7.1168529807005e+17
19299.0	7.115203728637951e+17
19300.0	7.113565662784169e+17
19301.0	7.111903504848211e+17
19302.0	7.110227297391956e+17
19303.0	7.108501169329491e+17
19304.0	7.106468570464255e+17
19305.0	7.104780874809344e+17
19306.0	7.103085415497727e+17
19307.0	7.10134656471313e+17
19308.0	7.099612253563561e+17
19309.0	7.097608760371881e+17
19310.0	7.095746928399699e+17
19311.0	7.09436939453508e+17
19312.0	7.092747857035264e+17
19313.0	7.090957398136148e+17
19314.0	7.077033203640998e+17
19315.0	7.075906476572686e+17
19316.0	7.085106605501097e+17
19317.0	7.083481384004266e+17
19318.0	7.081734225701544e+17
19319.0	7.079974752922281e+17
19320.0	7.078176667380394e+17
19321.0	7.076351042038441e+17
19322.0	7.074394287374335e+17
19323.0	7.072430633080148e+17
19324.0	7.070330286418602e+17
19325.0	7.067994463141888e+17
19326.0	7.066255275414868e+17
19327.0	7.064424467311274e+17
19328.0	7.062531362608467e+17
19329.0	7.06066802348305e+17
19330.0	7.058743372021759e+17
19331.0	7.056803988766719e+17
19332.0	7.054562429676202e+17
19333.0	7.052094596273492e+17
19334.0	7.050138890185386e+17
19335.0	7.048106401770153e+17
19336.0	7.046157103180458e+17
19337.0	7.044156831214249e+17
19338.0	7.042009533513727e+17
19339.0	7.039946327414099e+17
19340.0	7.037477951548074e+17
19341.0	7.035283103023104e+17
19342.0	7.032769202181459e+17
19343.0	7.030824007019177e+17
19344.0	7.028646887118164e+17
19345.0	7.025630583455741e+17
19346.0	7.023797388094121e+17
19347.0	7.022101411485012e+17
19348.0	7.019965701947391e+17
19349.0	7.017722022636201e+17
19350.0	7.015457822692691e+17
19351.0	7.013193775841279e+17
19352.0	7.010843506682538e+17
19353.0	7.008595591124308e+17
19354.0	7.005948516237311e+17
19355.0	7.003333053120511e+17
19356.0	7.001003758277971e+17
19357.0	6.998592821308073e+17
19358.0	6.996146685039956e+17
19359.0	6.993666038038527e+17
19360.0	6.991165749111465e+17
19361.0	6.988697020923904e+17
19362.0	6.98616056451345e+17
19363.0	6.983357096613203e+17
19364.0	6.980153741672447e+17
19365.0	6.977463445880831e+17
19366.0	6.974734979825663e+17
19367.0	6.971967238307837e+17
19368.0	6.969156632401236e+17
19369.0	6.96627619972164e+17
19370.0	6.963366796984319e+17
19371.0	6.959841667623592e+17
19372.0	6.956455281644884e+17
19373.0	6.953387255922687e+17
19374.0	6.950098891527508e+17
19375.0	6.946942517684906e+17
19376.0	6.943730300878848e+17
19377.0	6.940138632380416e+17
19378.0	6.935835677032447e+17
19379.0	6.932410961406634e+17
19380.0	6.928897729888255e+17
19381.0	6.925311379068243e+17
19382.0	6.921604541273428e+17
19383.0	6.917171266803027e+17
19384.0	6.91259347968546e+17
19385.0	6.908767312543743e+17
19386.0	6.904865870228137e+17
19387.0	6.900738990363988e+17
19388.0	6.895883599041876e+17
19389.0	6.890344192234836e+17
19390.0	6.885956589540691e+17
19391.0	6.86982272664643e+17
19392.0	6.876469230480041e+17
19393.0	6.87234803110161e+17
19394.0	6.866652322157908e+17
19395.0	6.861913635946495e+17
19396.0	6.85669552820497e+17
19397.0	6.851195045937152e+17
19398.0	6.844960929568082e+17
19399.0	6.838326993267369e+17
19400.0	6.833172453698217e+17
19401.0	6.827728443539456e+17
19402.0	6.822036468225363e+17
19403.0	6.814568239420758e+17
19404.0	6.80768620724224e+17
19405.0	6.801450332760745e+17
19406.0	6.794977783491242e+17
19407.0	6.788239535549097e+17
19408.0	6.780894336166569e+17
19409.0	6.772147916286633e+17
19410.0	6.764535966160212e+17
19411.0	6.756725031960575e+17
19412.0	6.748644505376084e+17
19413.0	6.740282383706793e+17
19414.0	6.729944233148415e+17
19415.0	6.720741702980948e+17
19416.0	6.71138649874978e+17
19417.0	6.70181509702178e+17
19418.0	6.691366207051092e+17
19419.0	6.679177600172032e+17
19420.0	6.667188331784873e+17
19421.0	6.655574370418688e+17
19422.0	6.643356863386964e+17
19423.0	6.630443410172585e+17
19424.0	6.616172593501523e+17
19425.0	6.601467920820905e+17
19426.0	6.58534300647424e+17
19427.0	6.568577669442218e+17
19428.0	6.552077354401791e+17
19429.0	6.534193051161942e+17
19430.0	6.51424249535966e+17
19431.0	6.492868377400662e+17
19432.0	6.473212388966397e+17
19433.0	6.450347741893972e+17
19434.0	6.42579711463697e+17
19435.0	6.399657999597565e+17
19436.0	6.371236638621696e+17
19437.0	6.341292418837161e+17
19438.0	6.293033139393876e+17
19439.0	6.270281127559169e+17
19440.0	6.232792941024596e+17
19441.0	6.189557222124198e+17
19442.0	6.142076523642881e+17
19443.0	6.088689899798527e+17
19444.0	6.028833469759483e+17
19445.0	5.960634329290071e+17
19446.0	5.881834980245503e+17
19447.0	5.788899169970853e+17
19448.0	5.6760965816210816e+17
19449.0	5.533028992417792e+17
19450.0	5.333704656988832e+17
19451.0	5.2115066592078554e+17
19452.0	5.444382127117652e+17
19453.0	5.607572033765382e+17
19454.0	5.7311066171200794e+17
19455.0	5.830597334619476e+17
19456.0	5.913470198699352e+17
19457.0	5.984156732009128e+17
19458.0	6.026456391308658e+17
19459.0	6.09878448642458e+17
19460.0	6.147569177941331e+17
19461.0	6.190461448355837e+17
19462.0	6.229336819149484e+17
19463.0	6.264351535835816e+17
19464.0	6.296863021290836e+17
19465.0	6.326150697582592e+17
19466.0	6.352923040677884e+17
19467.0	6.377115567347027e+17
19468.0	6.399814359755434e+17
19469.0	6.420913801134079e+17
19470.0	6.44065645437474e+17
19471.0	6.458896263326378e+17
19472.0	6.476018080546815e+17
19473.0	6.492376015743657e+17
19474.0	6.506747515983188e+17
19475.0	6.520189727626578e+17
19476.0	6.535145964874409e+17
19477.0	6.547466885267456e+17
19478.0	6.55967710819123e+17
19479.0	6.570526317215743e+17
19480.0	6.580524946554879e+17
19481.0	6.589867488881321e+17
19482.0	6.598658264924159e+17
19483.0	6.60910095082018e+17
19484.0	6.617503380449961e+17
19485.0	6.624916761739261e+17
19486.0	6.63169483809314e+17
19487.0	6.638181687143082e+17
19488.0	6.645787565315412e+17
19489.0	6.652128485441536e+17
19490.0	6.657353825561257e+17
19491.0	6.663220012690089e+17
19492.0	6.668363026311849e+17
19493.0	6.674152669489833e+17
19494.0	6.67956641145378e+17
19495.0	6.683799400218623e+17
19496.0	6.687602913924436e+17
19497.0	6.691334012272639e+17
19498.0	6.691739138697897e+17
19499.0	6.681870985767588e+17
19500.0	6.703608253557417e+17
19501.0	6.706966163008169e+17
19502.0	6.709884971472212e+17
19503.0	6.712816179696982e+17
19504.0	6.717355228222803e+17
19505.0	6.719906510798847e+17
19506.0	6.723018926937427e+17
19507.0	6.725209980316329e+17
19508.0	6.727508959428607e+17
19509.0	6.731102488100864e+17
19510.0	6.732468338032639e+17
19511.0	6.711807659999217e+17
19512.0	6.731830583623676e+17
19513.0	6.732324613914619e+17
19514.0	6.736267757398693e+17
19515.0	6.742321903872682e+17
19516.0	6.744044129135273e+17
19517.0	6.745335803499859e+17
19518.0	6.746705424110934e+17
19519.0	6.74918935175714e+17
19520.0	6.750257513059667e+17
19521.0	6.751303452939603e+17
19522.0	6.752225547605332e+17
19523.0	6.753107378350762e+17
19524.0	6.754191397617663e+17
19525.0	6.755782495655252e+17
19526.0	6.756421770499412e+17
19527.0	6.756997837182291e+17
19528.0	6.757536402593108e+17
19529.0	6.758175073457492e+17
19530.0	6.758589316202495e+17
19531.0	6.759786090244778e+17
19532.0	6.760211480750762e+17
19533.0	6.760479783387136e+17
19534.0	6.760701680244052e+17
19535.0	6.760874505841322e+17
19536.0	6.760997925333674e+17
19537.0	6.761117857262249e+17
19538.0	6.761169816999252e+17
19539.0	6.761663116083199e+17
19540.0	6.761856891529897e+17
19541.0	6.761793614861652e+17
19542.0	6.761675889836032e+17
19543.0	6.761523146566314e+17
19544.0	6.761375554600959e+17
19545.0	6.760921258349907e+17
19546.0	6.760588955527849e+17
19547.0	6.760760179600041e+17
19548.0	6.760813206787412e+17
19549.0	6.760646072860672e+17
19550.0	6.760412115282601e+17
19551.0	6.760094245759658e+17
19552.0	6.759752925883049e+17
19553.0	6.759379408431785e+17
19554.0	6.758993663885311e+17
19555.0	6.758599602034004e+17
19556.0	6.758187659864746e+17
19557.0	6.757745364915539e+17
19558.0	6.757286959644671e+17
19559.0	6.756811925356543e+17
19560.0	6.75629179740706e+17
19561.0	6.755977144216233e+17
19562.0	6.75564694413858e+17
19563.0	6.755519015769427e+17
19564.0	6.754946057065811e+17
19565.0	6.7543565350557e+17
19566.0	6.753738192584703e+17
19567.0	6.753135194974889e+17
19568.0	6.752487242115753e+17
19569.0	6.751855111569407e+17
19570.0	6.751923176035668e+17
19571.0	6.751293920684714e+17
19572.0	6.750590565963091e+17
19573.0	6.749907320832e+17
19574.0	6.749144428664148e+17
19575.0	6.748485594382335e+17
19576.0	6.747752445422249e+17
19577.0	6.747003815985151e+17
19578.0	6.746733107216383e+17
19579.0	6.746080758726655e+17
19580.0	6.745307431829501e+17
19581.0	6.744630776649044e+17
19582.0	6.743879028746921e+17
19583.0	6.743065461697194e+17
19584.0	6.742233953512105e+17
19585.0	6.741336653474473e+17
19586.0	6.740467061708116e+17
19587.0	6.739857770545151e+17
19588.0	6.739114270042793e+17
19589.0	6.738452119464617e+17
19590.0	6.737557826043901e+17
19591.0	6.736736406558036e+17
19592.0	6.73585763066402e+17
19593.0	6.734958804598783e+17
19594.0	6.733923957254825e+17
19595.0	6.733162682690217e+17
19596.0	6.731843633501524e+17
19597.0	6.731346332352511e+17
19598.0	6.730264731800915e+17
19599.0	6.729750550675455e+17
19600.0	6.72893309620497e+17
19601.0	6.727955492022954e+17
19602.0	6.726986930760362e+17
19603.0	6.725784671267497e+17
19604.0	6.725050031931391e+17
19605.0	6.724019938831017e+17
19606.0	6.723231580247379e+17
19607.0	6.722269696316756e+17
19608.0	6.721292903732563e+17
19609.0	6.72029126828578e+17
19610.0	6.719324697220436e+17
19611.0	6.718331907560788e+17
19612.0	6.71735782449698e+17
19613.0	6.716353461354496e+17
19614.0	6.715419842139475e+17
19615.0	6.714579256781482e+17
19616.0	6.713452533907455e+17
19617.0	6.712530617499647e+17
19618.0	6.711215384428543e+17
19619.0	6.710107898729812e+17
19620.0	6.709150999030442e+17
19621.0	6.708411624325119e+17
19622.0	6.707408476831743e+17
19623.0	6.706669010550783e+17
19624.0	6.70562272883507e+17
19625.0	6.704568151485098e+17
19626.0	6.703489757478911e+17
19627.0	6.702350135022931e+17
19628.0	6.701005373352618e+17
19629.0	6.699698731614205e+17
19630.0	6.695640534177107e+17
19631.0	6.687964249718784e+17
19632.0	6.696159424107862e+17
19633.0	6.695791494867625e+17
19634.0	6.694919968129023e+17
19635.0	6.693961527721983e+17
19636.0	6.692998890913791e+17
19637.0	6.691686255514964e+17
19638.0	6.690879984457044e+17
19639.0	6.689798231512403e+17
19640.0	6.688645606014975e+17
19641.0	6.68726039028258e+17
19642.0	6.686538887506601e+17
19643.0	6.685447353445033e+17
19644.0	6.684309644290729e+17
19645.0	6.683135989951145e+17
19646.0	6.682136634807636e+17
19647.0	6.681065016000511e+17
19648.0	6.679963154164394e+17
19649.0	6.678857089635668e+17
19650.0	6.67775088669491e+17
19651.0	6.67664179597585e+17
19652.0	6.67553063117346e+17
19653.0	6.674410299719679e+17
19654.0	6.673303073368746e+17
19655.0	6.672184267243519e+17
19656.0	6.671065762409129e+17
19657.0	6.669950313125203e+17
19658.0	6.668829987962877e+17
19659.0	6.667707506928297e+17
19660.0	6.66658471551522e+17
19661.0	6.665459221572265e+17
19662.0	6.664329630493353e+17
19663.0	6.663170039655081e+17
19664.0	6.662042218572457e+17
19665.0	6.660942556648788e+17
19666.0	6.659808035864575e+17
