# Flux units: erg / (cm m2 s)
# Wavelength units: Angstrom
wave	flux
19000.0	5.143639105732607e+17
19001.0	5.1425281967827616e+17
19002.0	5.141742890254335e+17
19003.0	5.1407808756012365e+17
19004.0	5.1398283358808736e+17
19005.0	5.1388653558388045e+17
19006.0	5.137928411938814e+17
19007.0	5.1369581023505056e+17
19008.0	5.135936084683434e+17
19009.0	5.1349398284315296e+17
19010.0	5.1332927504165523e+17
19011.0	5.133117717217278e+17
19012.0	5.131514114561364e+17
19013.0	5.1312856641044474e+17
19014.0	5.1302618358961485e+17
19015.0	5.129315979799209e+17
19016.0	5.12834031058944e+17
19017.0	5.12749795873041e+17
19018.0	5.126504156845395e+17
19019.0	5.1255879873331194e+17
19020.0	5.1246277042285216e+17
19021.0	5.123706721752405e+17
19022.0	5.1227522855075834e+17
19023.0	5.121746290780842e+17
19024.0	5.120798036940117e+17
19025.0	5.119867355136e+17
19026.0	5.118871254073343e+17
19027.0	5.117526971252735e+17
19028.0	5.117079617273855e+17
19029.0	5.116100236105045e+17
19030.0	5.115196486625962e+17
19031.0	5.11426092405009e+17
19032.0	5.113301019830953e+17
19033.0	5.1122175241530016e+17
19034.0	5.1113888932604576e+17
19035.0	5.110342384353278e+17
19036.0	5.0718000685602003e+17
19037.0	5.108512162753193e+17
19038.0	5.1075998617873056e+17
19039.0	5.106693038582443e+17
19040.0	5.1057563777979725e+17
19041.0	5.104801299125589e+17
19042.0	5.102787351631187e+17
19043.0	5.1029372707362125e+17
19044.0	5.1019739977919136e+17
19045.0	5.101026407350271e+17
19046.0	5.10000473711138e+17
19047.0	5.0991407573237754e+17
19048.0	5.097690973776553e+17
19049.0	5.0952534966490426e+17
19050.0	5.0962243361177594e+17
19051.0	5.090082986568353e+17
19052.0	5.093650279170047e+17
19053.0	5.093504688586751e+17
19054.0	5.092572294807551e+17
19055.0	5.0909716470388045e+17
19056.0	5.090550065659902e+17
19057.0	5.089746674690729e+17
19058.0	5.087798751133693e+17
19059.0	5.087485287727103e+17
19060.0	5.086894698266623e+17
19061.0	5.0860002433652045e+17
19062.0	5.0850523921776634e+17
19063.0	5.084116947741354e+17
19064.0	5.082978264809471e+17
19065.0	5.0819826537813325e+17
19066.0	5.0808552765958816e+17
19067.0	5.0803467885390496e+17
19068.0	5.0794273558582605e+17
19069.0	5.078492064514047e+17
19070.0	5.0775063960835405e+17
19071.0	5.076588137807871e+17
19072.0	5.075295896513194e+17
19073.0	5.074734781125973e+17
19074.0	5.0738067668991994e+17
19075.0	5.072870039005865e+17
19076.0	5.0718996315504634e+17
19077.0	5.0709687428273485e+17
19078.0	5.069984976513706e+17
19079.0	5.069119799951359e+17
19080.0	5.068166159226196e+17
19081.0	5.06718077391121e+17
19082.0	5.066247528688298e+17
19083.0	5.0652464259181216e+17
19084.0	5.064129526803115e+17
19085.0	5.063484277871958e+17
19086.0	5.0615120497213434e+17
19087.0	5.0599501629139616e+17
19088.0	5.060061999835817e+17
19089.0	5.059056869834751e+17
19090.0	5.058788563703124e+17
19091.0	5.0577685655934285e+17
19092.0	5.0559643486781446e+17
19093.0	5.05604018868497e+17
19094.0	5.055106399600639e+17
19095.0	5.0541777778988365e+17
19096.0	5.053216977496746e+17
19097.0	5.0523091189978445e+17
19098.0	5.050957941440511e+17
19099.0	5.0499531840334496e+17
19100.0	5.049433653772288e+17
19101.0	5.048557545455615e+17
19102.0	5.047437586595838e+17
19103.0	5.04671217263138e+17
19104.0	5.045791994063529e+17
19105.0	5.043962999996418e+17
19106.0	5.043756496235177e+17
19107.0	5.0427361353181856e+17
19108.0	5.04172853137681e+17
19109.0	5.0388625333944275e+17
19110.0	5.040138818857641e+17
19111.0	5.039010123961683e+17
19112.0	5.038047039062015e+17
19113.0	5.03741183828514e+17
19114.0	5.0363154381318816e+17
19115.0	5.035373456173738e+17
19116.0	5.0346026171979085e+17
19117.0	5.0336680263024634e+17
19118.0	5.0325040097744205e+17
19119.0	5.015827580802365e+17
19120.0	5.0306055776064826e+17
19121.0	5.0297831717601274e+17
19122.0	5.0290677136752634e+17
19123.0	5.028141133201407e+17
19124.0	5.0270615626929485e+17
19125.0	5.0262719283418445e+17
19126.0	5.025346325140821e+17
19127.0	5.0214298343615123e+17
19128.0	5.023274099190442e+17
19129.0	5.02246064328977e+17
19130.0	5.021629695044267e+17
19131.0	5.020723816256853e+17
19132.0	5.01979757412352e+17
19133.0	5.018753264429738e+17
19134.0	5.01784509485329e+17
19135.0	5.017011263023785e+17
19136.0	5.0161043370584736e+17
19137.0	5.014909757336234e+17
19138.0	5.0142280298441376e+17
19139.0	5.013331312115711e+17
19140.0	5.012409247509161e+17
19141.0	5.011484626474325e+17
19142.0	5.0105130928482976e+17
19143.0	5.009538777699669e+17
19144.0	5.0086577103175674e+17
19145.0	5.0077864436258125e+17
19146.0	5.0059012521765555e+17
19147.0	5.005779484540927e+17
19148.0	5.0046813178866336e+17
19149.0	5.003664608810325e+17
19150.0	5.003092978302975e+17
19151.0	5.002175282763094e+17
19152.0	5.001222278873086e+17
19153.0	4.999652693420713e+17
19154.0	4.999126087368703e+17
19155.0	4.9984860764241914e+17
19156.0	4.9975692099583994e+17
19157.0	4.996369709618517e+17
19158.0	4.9937887418559123e+17
19159.0	4.9947648857210874e+17
19160.0	4.993844382094677e+17
19161.0	4.9929387710436685e+17
19162.0	4.988526889620824e+17
19163.0	4.991030454299306e+17
19164.0	4.990200001680724e+17
19165.0	4.9884731193425894e+17
19166.0	4.988059516228948e+17
19167.0	4.9871226310492154e+17
19168.0	4.9865194006555296e+17
19169.0	4.985542144600747e+17
19170.0	4.9846994599935994e+17
19171.0	4.983549884454228e+17
19172.0	4.98284228579601e+17
19173.0	4.981935909983572e+17
19174.0	4.9809320249917446e+17
19175.0	4.980111770823338e+17
19176.0	4.979194686253738e+17
19177.0	4.978038159354538e+17
19178.0	4.977271326638079e+17
19179.0	4.9761226829332474e+17
19180.0	4.9755081398026234e+17
19181.0	4.9743641356970656e+17
19182.0	4.973660202161492e+17
19183.0	4.972785426235391e+17
19184.0	4.9718623074604365e+17
19185.0	4.9709330950608205e+17
19186.0	4.9700370847716685e+17
19187.0	4.969022792313514e+17
19188.0	4.9681992651898874e+17
19189.0	4.967286927873364e+17
19190.0	4.966358038435156e+17
19191.0	4.9653811934221645e+17
19192.0	4.9645480851101005e+17
19193.0	4.9635312222426445e+17
19194.0	4.962561081125546e+17
19195.0	4.961796416864255e+17
19196.0	4.960846885857962e+17
19197.0	4.959925904779947e+17
19198.0	4.958914796497578e+17
19199.0	4.9373583745133165e+17
19200.0	4.9430580365885504e+17
19201.0	4.956189229405526e+17
19202.0	4.9553810604250445e+17
19203.0	4.954424652857343e+17
19204.0	4.95353265721617e+17
19205.0	4.952664920730281e+17
19206.0	4.9517453202773325e+17
19207.0	4.9506844284026874e+17
19208.0	4.949534265660755e+17
19209.0	4.9490196315504634e+17
19210.0	4.948111900977834e+17
19211.0	4.947222966479529e+17
19212.0	4.946306226541908e+17
19213.0	4.945097118449664e+17
19214.0	4.9440788623742285e+17
19215.0	4.9434987279155194e+17
19216.0	4.9426701312764576e+17
19217.0	4.9417477989335046e+17
19218.0	4.9395094834380774e+17
19219.0	4.939722583441407e+17
19220.0	4.9389831367338656e+17
19221.0	4.937596796928e+17
19222.0	4.937203104175444e+17
19223.0	4.936271427622228e+17
19224.0	4.9353320712983885e+17
19225.0	4.934250549040467e+17
19226.0	4.933546356856149e+17
19227.0	4.9326436734293325e+17
19228.0	4.9317708513498445e+17
19229.0	4.93086197363507e+17
19230.0	4.929941207864661e+17
19231.0	4.929028195265193e+17
19232.0	4.928125106388991e+17
19233.0	4.927122445434878e+17
19234.0	4.9262871246274554e+17
19235.0	4.9253685336036685e+17
19236.0	4.9245107886489594e+17
19237.0	4.9235749478509216e+17
19238.0	4.922518325078699e+17
19239.0	4.9217954738339834e+17
19240.0	4.9208756622677325e+17
19241.0	4.9199487329675936e+17
19242.0	4.9190532770256205e+17
19243.0	4.917933583106047e+17
19244.0	4.917268048423593e+17
19245.0	4.916354329083903e+17
19246.0	4.915429209625941e+17
19247.0	4.914539032914601e+17
19248.0	4.913641142878208e+17
19249.0	4.9127040256136525e+17
19250.0	4.911669035663359e+17
19251.0	4.9106163289729696e+17
19252.0	4.90962085356066e+17
19253.0	4.909079699565226e+17
19254.0	4.908217518434985e+17
19255.0	4.907044172376744e+17
19256.0	4.9063639653198496e+17
19257.0	4.9055074276256416e+17
19258.0	4.9046058347178656e+17
19259.0	4.903597122082134e+17
19260.0	4.9019429976364346e+17
19261.0	4.9018753791645e+17
19262.0	4.90089592459537e+17
19263.0	4.899976656890538e+17
19264.0	4.898242341546664e+17
19265.0	4.897932687966207e+17
19266.0	4.8968247143301126e+17
19267.0	4.896480831733759e+17
19268.0	4.8955688243691514e+17
19269.0	4.8946711118916256e+17
19270.0	4.8937702830462285e+17
19271.0	4.892284782204246e+17
19272.0	4.8919131633745914e+17
19273.0	4.8903111622437523e+17
19274.0	4.8894052974373523e+17
19275.0	4.8892651356815354e+17
19276.0	4.8883318226507085e+17
19277.0	4.887440111523156e+17
19278.0	4.886525207292585e+17
19279.0	4.885608501608447e+17
19280.0	4.884601507938303e+17
19281.0	4.8838254533454496e+17
19282.0	4.882949853238612e+17
19283.0	4.881747768508415e+17
19284.0	4.8810441893915296e+17
19285.0	4.879979440854356e+17
19286.0	4.8792852527841274e+17
19287.0	4.8784259601312416e+17
19288.0	4.8673491835507955e+17
19289.0	4.851506771656659e+17
19290.0	4.875719995817983e+17
19291.0	4.874456579178496e+17
19292.0	4.873943178193577e+17
19293.0	4.873032625553408e+17
19294.0	4.872121443767636e+17
19295.0	4.871243855560704e+17
19296.0	4.869922088463019e+17
19297.0	4.869298589095253e+17
19298.0	4.868493467276628e+17
19299.0	4.8671599917793274e+17
19300.0	4.866706810514089e+17
19301.0	4.8658277605922125e+17
19302.0	4.864913322628436e+17
19303.0	4.8639020801283405e+17
19304.0	4.863079001795242e+17
19305.0	4.8621999756410874e+17
19306.0	4.861298249913685e+17
19307.0	4.860316566771028e+17
19308.0	4.85945758449664e+17
19309.0	4.857810383448745e+17
19310.0	4.85666406478643e+17
19311.0	4.8566722171153056e+17
19312.0	4.8558859829466445e+17
19313.0	4.854980222298794e+17
19314.0	4.780785488538309e+17
19315.0	4.785746869922568e+17
19316.0	4.851642763575296e+17
19317.0	4.8513725252676256e+17
19318.0	4.850476631020885e+17
19319.0	4.849599320337066e+17
19320.0	4.848511469573461e+17
19321.0	4.847425357348862e+17
19322.0	4.84674270011938e+17
19323.0	4.845654594901334e+17
19324.0	4.845045472908628e+17
19325.0	4.8434199976564045e+17
19326.0	4.8432623903921485e+17
19327.0	4.842334251734357e+17
19328.0	4.840675198282411e+17
19329.0	4.8405642169985696e+17
19330.0	4.8395934684064416e+17
19331.0	4.838678241913514e+17
19332.0	4.8378316524093434e+17
19333.0	4.8369013865403725e+17
19334.0	4.83598968885521e+17
19335.0	4.8334699551348064e+17
19336.0	4.8339763760988154e+17
19337.0	4.833101640717653e+17
19338.0	4.8318666132247885e+17
19339.0	4.8312738511148365e+17
19340.0	4.830003320236713e+17
19341.0	4.8287976948148915e+17
19342.0	4.827691579255466e+17
19343.0	4.827627086239061e+17
19344.0	4.826135205161643e+17
19345.0	4.822002495913977e+17
19346.0	4.823428761998676e+17
19347.0	4.823116790366207e+17
19348.0	4.823050003065514e+17
19349.0	4.822071642510676e+17
19350.0	4.8208815297221965e+17
19351.0	4.8202173470037325e+17
19352.0	4.818451613526697e+17
19353.0	4.818440455279956e+17
19354.0	4.817525562933247e+17
19355.0	4.8164451437772794e+17
19356.0	4.815665610009258e+17
19357.0	4.814740011701589e+17
19358.0	4.813792627479892e+17
19359.0	4.8125986118915405e+17
19360.0	4.8112691307697485e+17
19361.0	4.8109340918633805e+17
19362.0	4.8100657367176525e+17
19363.0	4.809123773633876e+17
19364.0	4.808178092998656e+17
19365.0	4.8072264704327674e+17
19366.0	4.8062851910205434e+17
19367.0	4.8053358571465376e+17
19368.0	4.804384781238271e+17
19369.0	4.8033352188777805e+17
19370.0	4.802375344717824e+17
19371.0	4.801265852743679e+17
19372.0	4.8002629757829114e+17
19373.0	4.799261424222207e+17
19374.0	4.798315184346451e+17
19375.0	4.7973371432577696e+17
19376.0	4.79636655055394e+17
19377.0	4.7953636022900045e+17
19378.0	4.794379241084245e+17
19379.0	4.793388818410155e+17
19380.0	4.792386489505108e+17
19381.0	4.791375574859776e+17
19382.0	4.790260930882217e+17
19383.0	4.789175555457023e+17
19384.0	4.7882901162120525e+17
19385.0	4.7869074988509856e+17
19386.0	4.785873838495061e+17
19387.0	4.784819814793216e+17
19388.0	4.7837640008226125e+17
19389.0	4.7826911761530874e+17
19390.0	4.781583540857514e+17
19391.0	4.745546315071436e+17
19392.0	4.778772135935996e+17
19393.0	4.777799030145023e+17
19394.0	4.776661660729343e+17
19395.0	4.77526303440896e+17
19396.0	4.7742773100543994e+17
19397.0	4.7730449948781216e+17
19398.0	4.770830310790486e+17
19399.0	4.768312764399614e+17
19400.0	4.768392800108543e+17
19401.0	4.767038650187776e+17
19402.0	4.765324175998974e+17
19403.0	4.7640076405964806e+17
19404.0	4.762124240814078e+17
19405.0	4.7603111165951994e+17
19406.0	4.7586500023418874e+17
19407.0	4.7560220192276474e+17
19408.0	4.7532413676421146e+17
19409.0	4.752581206562132e+17
19410.0	4.751079724023807e+17
19411.0	4.749347867241129e+17
19412.0	4.747317872339626e+17
19413.0	4.745368085113515e+17
19414.0	4.7438529850682016e+17
19415.0	4.7421000540050765e+17
19416.0	4.739883750916095e+17
19417.0	4.737416179657387e+17
19418.0	4.735462232380757e+17
19419.0	4.733363427125929e+17
19420.0	4.730917318819838e+17
19421.0	4.727635937940819e+17
19422.0	4.7251673712339616e+17
19423.0	4.7210243628728314e+17
19424.0	4.717550127895894e+17
19425.0	4.712932521454251e+17
19426.0	4.7070775408066554e+17
19427.0	4.7004039166033914e+17
19428.0	4.6912857171121536e+17
19429.0	4.679544020314794e+17
19430.0	4.663380955977048e+17
19431.0	4.6493157294080083e+17
19432.0	4.648788099246761e+17
19433.0	4.641515840208896e+17
19434.0	4.6339045821426336e+17
19435.0	4.625057000543572e+17
19436.0	4.6136405517489446e+17
19437.0	4.606792926145194e+17
19438.0	4.5300146073763994e+17
19439.0	4.5784313696529094e+17
19440.0	4.5557987367977024e+17
19441.0	4.5082214812439885e+17
19442.0	4.4695158231749984e+17
19443.0	4.4390667818543776e+17
19444.0	4.4065281949040614e+17
19445.0	4.3715338925943475e+17
19446.0	4.336109825818622e+17
19447.0	4.2881234012296435e+17
19448.0	4.160611010565481e+17
19449.0	4.0324014615647443e+17
19450.0	3.6310024814155725e+17
19451.0	3.421711942112609e+17
19452.0	3.8907985897281056e+17
19453.0	4.099071804790106e+17
19454.0	4.229227227731272e+17
19455.0	4.310955898262868e+17
19456.0	4.346716110542167e+17
19457.0	4.3803357653674643e+17
19458.0	4.217812579691481e+17
19459.0	4.436425997724389e+17
19460.0	4.471183862224207e+17
19461.0	4.52052036056952e+17
19462.0	4.552345539051511e+17
19463.0	4.5693528154221203e+17
19464.0	4.5801665231585286e+17
19465.0	4.588998013310294e+17
19466.0	4.596343014861483e+17
19467.0	4.603570441682943e+17
19468.0	4.6095584516724045e+17
19469.0	4.6144037186437094e+17
19470.0	4.620446186078207e+17
19471.0	4.6253560404377574e+17
19472.0	4.6364155120189466e+17
19473.0	4.6493212260433837e+17
19474.0	4.6567515865743354e+17
19475.0	4.661748167955791e+17
19476.0	4.6675544737054726e+17
19477.0	4.670633986927274e+17
19478.0	4.6735521991010976e+17
19479.0	4.674863047726419e+17
19480.0	4.676876666667007e+17
19481.0	4.677741348301483e+17
19482.0	4.679263990404436e+17
19483.0	4.67970700817203e+17
19484.0	4.680000639511211e+17
19485.0	4.6808458057482234e+17
19486.0	4.68060319182575e+17
19487.0	4.681333953527808e+17
19488.0	4.6813884123709434e+17
19489.0	4.681205255503871e+17
19490.0	4.678658042101756e+17
19491.0	4.6816040583167994e+17
19492.0	4.6815126287810554e+17
19493.0	4.6813800286562976e+17
19494.0	4.681744394835285e+17
19495.0	4.6816010614865914e+17
19496.0	4.681503805363539e+17
19497.0	4.6818702903650976e+17
19498.0	4.678852555046916e+17
19499.0	4.6265147861237414e+17
19500.0	4.6816042827120634e+17
19501.0	4.681759465668608e+17
19502.0	4.68146320240367e+17
19503.0	4.680981067158868e+17
19504.0	4.680448929518932e+17
19505.0	4.680451919358633e+17
19506.0	4.680239958807891e+17
19507.0	4.6796092725002234e+17
19508.0	4.6790524255163725e+17
19509.0	4.678426255775061e+17
19510.0	4.6775300273821e+17
19511.0	4.553539989449307e+17
19512.0	4.668600390516718e+17
19513.0	4.660515757708603e+17
19514.0	4.66432415148713e+17
19515.0	4.673879033249794e+17
19516.0	4.674233604330836e+17
19517.0	4.6735141504723616e+17
19518.0	4.672837954568191e+17
19519.0	4.672409484744021e+17
19520.0	4.6712933231274656e+17
19521.0	4.671187344949246e+17
19522.0	4.6703336209339725e+17
19523.0	4.6695738227643725e+17
19524.0	4.668587638434475e+17
19525.0	4.668235699978239e+17
19526.0	4.667528298452308e+17
19527.0	4.6667619368959994e+17
19528.0	4.665972812851881e+17
19529.0	4.665186817758549e+17
19530.0	4.664519591373482e+17
19531.0	4.6637580602572794e+17
19532.0	4.6629932310200314e+17
19533.0	4.662225481848149e+17
19534.0	4.661566797163177e+17
19535.0	4.660904431277396e+17
19536.0	4.6600917016903674e+17
19537.0	4.65937008496913e+17
19538.0	4.65789312373009e+17
19539.0	4.6568245849402054e+17
19540.0	4.656980185229994e+17
19541.0	4.6561134805428896e+17
19542.0	4.6553828146107725e+17
19543.0	4.6540806412042246e+17
19544.0	4.65381680620066e+17
19545.0	4.652245160645971e+17
19546.0	4.650697179354453e+17
19547.0	4.6514781126219085e+17
19548.0	4.650693252786858e+17
19549.0	4.649745328898046e+17
19550.0	4.649091592093695e+17
19551.0	4.6482933524288845e+17
19552.0	4.647487898561194e+17
19553.0	4.646644886099285e+17
19554.0	4.6458001602641914e+17
19555.0	4.6449830350465696e+17
19556.0	4.6442164623769594e+17
19557.0	4.643442026785449e+17
19558.0	4.6426375599773005e+17
19559.0	4.64183236755456e+17
19560.0	4.6407833679298554e+17
19561.0	4.6401696993116154e+17
19562.0	4.639188471250944e+17
19563.0	4.638589433763157e+17
19564.0	4.6377759918434976e+17
19565.0	4.636957577576446e+17
19566.0	4.636096443624107e+17
19567.0	4.6353305979671885e+17
19568.0	4.6344817435388576e+17
19569.0	4.633663506131626e+17
19570.0	4.632877038480042e+17
19571.0	4.6320526277563725e+17
19572.0	4.6311963361279994e+17
19573.0	4.6303289589541536e+17
19574.0	4.6294508870041594e+17
19575.0	4.6287881226594976e+17
19576.0	4.6279317618251085e+17
19577.0	4.627016672346111e+17
19578.0	4.6262578444588365e+17
19579.0	4.625471782955691e+17
19580.0	4.6246531519829325e+17
19581.0	4.6238440567603194e+17
19582.0	4.6230537100765856e+17
19583.0	4.6222327827223885e+17
19584.0	4.621392758003028e+17
19585.0	4.6204145624241485e+17
19586.0	4.6195441527685114e+17
19587.0	4.61880892203554e+17
19588.0	4.617325362457258e+17
19589.0	4.6172668470231034e+17
19590.0	4.6162474151444474e+17
19591.0	4.615641086558206e+17
19592.0	4.614827948026538e+17
19593.0	4.613928027947008e+17
19594.0	4.612754114958676e+17
19595.0	4.612378688400042e+17
19596.0	4.6111748651308365e+17
19597.0	4.6108552326021114e+17
19598.0	4.6091266047344614e+17
19599.0	4.609226578766507e+17
19600.0	4.608417900877141e+17
19601.0	4.6074864389324806e+17
19602.0	4.6066910283257165e+17
19603.0	4.604905552259753e+17
19604.0	4.605023343695189e+17
19605.0	4.6038202180785485e+17
19606.0	4.6034651136218445e+17
19607.0	4.602655562618197e+17
19608.0	4.6018039001033376e+17
19609.0	4.6009193123020794e+17
19610.0	4.599901112150698e+17
19611.0	4.598950083078826e+17
19612.0	4.5985389406235296e+17
19613.0	4.5976996009738234e+17
19614.0	4.5968326984553805e+17
19615.0	4.596061660949161e+17
19616.0	4.59465297948399e+17
19617.0	4.593997518121642e+17
19618.0	4.592566393634814e+17
19619.0	4.591453325317459e+17
19620.0	4.590612969947134e+17
19621.0	4.590571182795434e+17
19622.0	4.5903066955775994e+17
19623.0	4.5894550092950176e+17
19624.0	4.5885649681995085e+17
19625.0	4.587835660522836e+17
19626.0	4.5870013232797005e+17
19627.0	4.586181697557844e+17
19628.0	4.5848062825157984e+17
19629.0	4.582994587156478e+17
19630.0	4.58246677664017e+17
19631.0	4.5593203100876774e+17
19632.0	4.5819988384153594e+17
19633.0	4.5811084526878714e+17
19634.0	4.5804285741847885e+17
19635.0	4.579468813271038e+17
19636.0	4.5781540066208403e+17
19637.0	4.5768759623461536e+17
19638.0	4.577060295715497e+17
19639.0	4.576306451360426e+17
19640.0	4.575327033840982e+17
19641.0	4.572322193211397e+17
19642.0	4.5738071180356256e+17
19643.0	4.5729757846132045e+17
19644.0	4.5721206450203296e+17
19645.0	4.570924349128702e+17
19646.0	4.569900948739411e+17
19647.0	4.56974037819938e+17
19648.0	4.568937005405526e+17
19649.0	4.568110986865323e+17
19650.0	4.567300127238825e+17
19651.0	4.56647389548817e+17
19652.0	4.565650830437035e+17
19653.0	4.5648260002829645e+17
19654.0	4.564010980605951e+17
19655.0	4.5631813444785485e+17
