# Flux units: erg / (cm m2 s)
# Wavelength units: Angstrom
wave	flux
19000.0	7.362178208934568e+17
19001.0	7.360645773830825e+17
19002.0	7.359414073120084e+17
19003.0	7.358016751927293e+17
19004.0	7.356624869348692e+17
19005.0	7.355247732544854e+17
19006.0	7.353860827206996e+17
19007.0	7.351848460266156e+17
19008.0	7.350987719180284e+17
19009.0	7.349667424982355e+17
19010.0	7.347569998954492e+17
19011.0	7.346889120808957e+17
19012.0	7.344758477291519e+17
19013.0	7.34414950489566e+17
19014.0	7.342672094866089e+17
19015.0	7.341328155978408e+17
19016.0	7.339929604456447e+17
19017.0	7.338391869150548e+17
19018.0	7.337152634071721e+17
19019.0	7.335824194535424e+17
19020.0	7.334361477152765e+17
19021.0	7.333019530559487e+17
19022.0	7.33168248431138e+17
19023.0	7.330233830430035e+17
19024.0	7.328878990546262e+17
19025.0	7.327453970169855e+17
19026.0	7.32603345867025e+17
19027.0	7.324169126892883e+17
19028.0	7.323370564965716e+17
19029.0	7.321953299857407e+17
19030.0	7.320618062752425e+17
19031.0	7.319242887484756e+17
19032.0	7.317852479903059e+17
19033.0	7.316330362787156e+17
19034.0	7.315056032568662e+17
19035.0	7.313639486084436e+17
19036.0	7.26967906555218e+17
19037.0	7.310904864189097e+17
19038.0	7.309511857537023e+17
19039.0	7.308157694334292e+17
19040.0	7.306784019229352e+17
19041.0	7.305384879106729e+17
19042.0	7.303870936689321e+17
19043.0	7.302631191303508e+17
19044.0	7.301229008912383e+17
19045.0	7.299842278337194e+17
19046.0	7.298381600784384e+17
19047.0	7.297099655107923e+17
19048.0	7.295386413345449e+17
19049.0	7.294224978411519e+17
19050.0	7.292874310462121e+17
19051.0	7.28478973777236e+17
19052.0	7.289755156174166e+17
19053.0	7.288650278633471e+17
19054.0	7.287419018324649e+17
19055.0	7.285650379593046e+17
19056.0	7.284618373890047e+17
19057.0	7.283259929701033e+17
19058.0	7.281718824970918e+17
19059.0	7.280513574939306e+17
19060.0	7.279094193105577e+17
19061.0	7.27775928455441e+17
19062.0	7.276367635458729e+17
19063.0	7.27499546890513e+17
19064.0	7.273404830842879e+17
19065.0	7.271944276322985e+17
19066.0	7.270754208273747e+17
19067.0	7.269453772707156e+17
19068.0	7.268090039500799e+17
19069.0	7.266714037955241e+17
19070.0	7.265286362584403e+17
19071.0	7.263917761189203e+17
19072.0	7.262572131997012e+17
19073.0	7.26118593270033e+17
19074.0	7.25982247072563e+17
19075.0	7.258443821176148e+17
19076.0	7.25702941937937e+17
19077.0	7.255668936758614e+17
19078.0	7.254213763530751e+17
19079.0	7.252926963646461e+17
19080.0	7.251530629513215e+17
19081.0	7.250098736070655e+17
19082.0	7.248698594907475e+17
19083.0	7.247236582167892e+17
19084.0	7.245651655349587e+17
19085.0	7.24464082948369e+17
19086.0	7.242623099426132e+17
19087.0	7.240561840881664e+17
19088.0	7.240382191850836e+17
19089.0	7.238148049687892e+17
19090.0	7.237714983605587e+17
19091.0	7.236362837863081e+17
19092.0	7.234607714577064e+17
19093.0	7.233644601715369e+17
19094.0	7.232265584465236e+17
19095.0	7.230887963918335e+17
19096.0	7.229446308932264e+17
19097.0	7.228141989440169e+17
19098.0	7.226772645653161e+17
19099.0	7.225393705298602e+17
19100.0	7.223956575966548e+17
19101.0	7.222633452011517e+17
19102.0	7.221147467426474e+17
19103.0	7.219901150964394e+17
19104.0	7.218539534483455e+17
19105.0	7.217159798609236e+17
19106.0	7.21553890283793e+17
19107.0	7.214387379044352e+17
19108.0	7.213042267149651e+17
19109.0	7.206979270694221e+17
19110.0	7.210261811298301e+17
19111.0	7.208912657492649e+17
19112.0	7.207559256255145e+17
19113.0	7.206185916694527e+17
19114.0	7.204809519486291e+17
19115.0	7.203287244384938e+17
19116.0	7.202037200584701e+17
19117.0	7.200670337029459e+17
19118.0	7.198974138122239e+17
19119.0	7.194153866406564e+17
19120.0	7.196199313823058e+17
19121.0	7.194993280854696e+17
19122.0	7.193850057588735e+17
19123.0	7.192457994655059e+17
19124.0	7.190858576516436e+17
19125.0	7.189689210153641e+17
19126.0	7.188261004902399e+17
19127.0	7.184449473085436e+17
19128.0	7.181827480835406e+17
19129.0	7.184114405517994e+17
19130.0	7.18287277269538e+17
19131.0	7.181389759075668e+17
19132.0	7.180151868970323e+17
19133.0	7.177601877540865e+17
19134.0	7.175548869192366e+17
19135.0	7.176030705243476e+17
19136.0	7.174686103655764e+17
19137.0	7.173064746511017e+17
19138.0	7.171529422929919e+17
19139.0	7.170572651855871e+17
19140.0	7.169217642801833e+17
19141.0	7.167852408034644e+17
19142.0	7.166430224405844e+17
19143.0	7.16501981139217e+17
19144.0	7.163686372245501e+17
19145.0	7.162362929523369e+17
19146.0	7.159989238672042e+17
19147.0	7.159518088309417e+17
19148.0	7.158253715368617e+17
19149.0	7.156893105520639e+17
19150.0	7.15552538632738e+17
19151.0	7.15418320904738e+17
19152.0	7.152754777303722e+17
19153.0	7.151428283924479e+17
19154.0	7.149902394731178e+17
19155.0	7.148717786267647e+17
19156.0	7.14735918129698e+17
19157.0	7.145927914203817e+17
19158.0	7.141390021208741e+17
19159.0	7.143221514381994e+17
19160.0	7.141796403129e+17
19161.0	7.14014504133154e+17
19162.0	7.131978142842885e+17
19163.0	7.137757692428287e+17
19164.0	7.136452864027305e+17
19165.0	7.134962932602195e+17
19166.0	7.13342711968563e+17
19167.0	7.131679754463913e+17
19168.0	7.130786282427731e+17
19169.0	7.129423416044202e+17
19170.0	7.128273486086143e+17
19171.0	7.126526459204948e+17
19172.0	7.12551011643119e+17
19173.0	7.124175635699028e+17
19174.0	7.122742513325395e+17
19175.0	7.121464149584552e+17
19176.0	7.12009859465216e+17
19177.0	7.118514424206675e+17
19178.0	7.11728302268962e+17
19179.0	7.115445839243949e+17
19180.0	7.113924113596416e+17
19181.0	7.113121298644991e+17
19182.0	7.111801890843305e+17
19183.0	7.110492691977555e+17
19184.0	7.108964906958847e+17
19185.0	7.107824293948074e+17
19186.0	7.1064912672413e+17
19187.0	7.104985591797075e+17
19188.0	7.103716335288319e+17
19189.0	7.10224108392721e+17
19190.0	7.100843948681897e+17
19191.0	7.099546386213545e+17
19192.0	7.098274924898986e+17
19193.0	7.096417941542227e+17
19194.0	7.095333330878463e+17
19195.0	7.094170668411561e+17
19196.0	7.092838486157994e+17
19197.0	7.091470470567251e+17
19198.0	7.090027444043775e+17
19199.0	7.047563564460704e+17
19200.0	7.060753186728635e+17
19201.0	7.085963841546921e+17
19202.0	7.084689957322751e+17
19203.0	7.083258140775764e+17
19204.0	7.081941164272296e+17
19205.0	7.080619874626217e+17
19206.0	7.079253780026708e+17
19207.0	7.077792164347904e+17
19208.0	7.076236422894931e+17
19209.0	7.075146106579625e+17
19210.0	7.073821236396032e+17
19211.0	7.072477803621033e+17
19212.0	7.071120623315625e+17
19213.0	7.069249674324649e+17
19214.0	7.067670973251585e+17
19215.0	7.066886005063679e+17
19216.0	7.065635544629247e+17
19217.0	7.064306619951785e+17
19218.0	7.061716862326097e+17
19219.0	7.061346260615165e+17
19220.0	7.060172685967359e+17
19221.0	7.058329847201791e+17
19222.0	7.057520719822845e+17
19223.0	7.05611806347537e+17
19224.0	7.054655053889535e+17
19225.0	7.053188256847187e+17
19226.0	7.052028386388649e+17
19227.0	7.050665601094995e+17
19228.0	7.049350362431488e+17
19229.0	7.047988519458132e+17
19230.0	7.046457475465215e+17
19231.0	7.04512990974225e+17
19232.0	7.043827923681279e+17
19233.0	7.042417324720127e+17
19234.0	7.041131258839037e+17
19235.0	7.039750481379327e+17
19236.0	7.038449908798803e+17
19237.0	7.037055595621033e+17
19238.0	7.035519243736404e+17
19239.0	7.034349171332436e+17
19240.0	7.032586294875475e+17
19241.0	7.031483148883284e+17
19242.0	7.03022136103185e+17
19243.0	7.028611081043965e+17
19244.0	7.027531952335529e+17
19245.0	7.026158921056255e+17
19246.0	7.02477604364834e+17
19247.0	7.023412938189482e+17
19248.0	7.022061543227391e+17
19249.0	7.020685265556819e+17
19250.0	7.019301802344447e+17
19251.0	7.017826058851667e+17
19252.0	7.016058834299561e+17
19253.0	7.015192911850153e+17
19254.0	7.013794314889897e+17
19255.0	7.01215605539908e+17
19256.0	7.010984198318761e+17
19257.0	7.009736534086995e+17
19258.0	7.008369629986815e+17
19259.0	7.006875281959593e+17
19260.0	7.004998144273065e+17
19261.0	7.004233723980458e+17
19262.0	7.002785393060521e+17
19263.0	7.001430233710591e+17
19264.0	6.999353557603666e+17
19265.0	6.998466124666195e+17
19266.0	6.997166023944874e+17
19267.0	6.996000577159165e+17
19268.0	6.994605130820265e+17
19269.0	6.993232844029951e+17
19270.0	6.991851233301844e+17
19271.0	6.989957497356289e+17
19272.0	6.988829052720468e+17
19273.0	6.977021392104092e+17
19274.0	6.980940333055991e+17
19275.0	6.984737501478911e+17
19276.0	6.983322393640959e+17
19277.0	6.981934145426772e+17
19278.0	6.980552390694228e+17
19279.0	6.978998271038803e+17
19280.0	6.977647446502057e+17
19281.0	6.97637991944465e+17
19282.0	6.975005259377321e+17
19283.0	6.972930739841705e+17
19284.0	6.970829416606376e+17
19285.0	6.970467785812649e+17
19286.0	6.96937414201617e+17
19287.0	6.968030305888937e+17
19288.0	6.957102623533734e+17
19289.0	6.935517516005313e+17
19290.0	6.963826277395113e+17
19291.0	6.962007122466132e+17
19292.0	6.961013691077972e+17
19293.0	6.95959542702626e+17
19294.0	6.958179291583827e+17
19295.0	6.956786700167849e+17
19296.0	6.955362386531668e+17
19297.0	6.953895978860541e+17
19298.0	6.952488798257151e+17
19299.0	6.951116674345642e+17
19300.0	6.949695355442515e+17
19301.0	6.948255472549887e+17
19302.0	6.946824458513065e+17
19303.0	6.945249877644628e+17
19304.0	6.943886935064575e+17
19305.0	6.942516151233193e+17
19306.0	6.941058379634004e+17
19307.0	6.939525509720746e+17
19308.0	6.938138036054698e+17
19309.0	6.935387289856681e+17
19310.0	6.933254422659068e+17
19311.0	6.933723820501673e+17
19312.0	6.932394633680211e+17
19313.0	6.930852577542144e+17
19314.0	6.911480084212358e+17
19315.0	6.911408202929533e+17
19316.0	6.926507693834239e+17
19317.0	6.925120998211583e+17
19318.0	6.923640213864447e+17
19319.0	6.922187864102227e+17
19320.0	6.920673427455999e+17
19321.0	6.91921734406417e+17
19322.0	6.917352718685524e+17
19323.0	6.915219199972694e+17
19324.0	6.914413061035348e+17
19325.0	6.911762959958015e+17
19326.0	6.911413918367743e+17
19327.0	6.909889198686207e+17
19328.0	6.908403602773331e+17
19329.0	6.906877371045204e+17
19330.0	6.905278053569875e+17
19331.0	6.90373786739234e+17
19332.0	6.902243736070826e+17
19333.0	6.900661616639997e+17
19334.0	6.899074981341866e+17
19335.0	6.897534895128573e+17
19336.0	6.895942721951059e+17
19337.0	6.894337416407722e+17
19338.0	6.892288336024915e+17
19339.0	6.890999756357631e+17
19340.0	6.889316061369684e+17
19341.0	6.887782847523497e+17
19342.0	6.88550360331059e+17
19343.0	6.884418536865791e+17
19344.0	6.882516326329002e+17
19345.0	6.877710619333962e+17
19346.0	6.878433107072342e+17
19347.0	6.877437689681236e+17
19348.0	6.875867361138003e+17
19349.0	6.874101305398612e+17
19350.0	6.872400717152255e+17
19351.0	6.870675145534121e+17
19352.0	6.868897331762516e+17
19353.0	6.867266144567293e+17
19354.0	6.865497520515752e+17
19355.0	6.863570218254336e+17
19356.0	6.861482798437716e+17
19357.0	6.859652499942057e+17
19358.0	6.857730747443881e+17
19359.0	6.855427759276032e+17
19360.0	6.854059398354259e+17
19361.0	6.852161867961686e+17
19362.0	6.850346427787946e+17
19363.0	6.848419683368959e+17
19364.0	6.846130685302099e+17
19365.0	6.843929947974313e+17
19366.0	6.841947100545023e+17
19367.0	6.839920323373738e+17
19368.0	6.837886731856553e+17
19369.0	6.835574024088234e+17
19370.0	6.832152824687272e+17
19371.0	6.830811813423786e+17
19372.0	6.828630771149481e+17
19373.0	6.826187358382762e+17
19374.0	6.823994153325908e+17
19375.0	6.821224841740287e+17
19376.0	6.818609186384554e+17
19377.0	6.816256752265897e+17
19378.0	6.813879162809002e+17
19379.0	6.811101088623273e+17
19380.0	6.808499685512531e+17
19381.0	6.805963841470463e+17
19382.0	6.803266139237034e+17
19383.0	6.800612395406676e+17
19384.0	6.798090145103872e+17
19385.0	6.795158054677161e+17
19386.0	6.792090939118932e+17
19387.0	6.789209260031999e+17
19388.0	6.786269927440383e+17
19389.0	6.783264379371519e+17
19390.0	6.780141319487488e+17
19391.0	6.740394576445381e+17
19392.0	6.773612819600722e+17
19393.0	6.769755747429033e+17
19394.0	6.766277541844307e+17
19395.0	6.762658269233151e+17
19396.0	6.758981297679017e+17
19397.0	6.755206767312895e+17
19398.0	6.750566311002111e+17
19399.0	6.745583240871933e+17
19400.0	6.742350562153811e+17
19401.0	6.737561706474153e+17
19402.0	6.732595429638143e+17
19403.0	6.727942382725802e+17
19404.0	6.722265247558314e+17
19405.0	6.716842115246761e+17
19406.0	6.710956284794196e+17
19407.0	6.704500202362196e+17
19408.0	6.696753373205848e+17
19409.0	6.690956569651881e+17
19410.0	6.682838785764009e+17
19411.0	6.674888566418092e+17
19412.0	6.666121113501696e+17
19413.0	6.656820170981375e+17
19414.0	6.648213194932223e+17
19415.0	6.640347823560022e+17
19416.0	6.631495303167999e+17
19417.0	6.622646129830569e+17
19418.0	6.614398572079785e+17
19419.0	6.604887996847444e+17
19420.0	6.594519061495807e+17
19421.0	6.584067592028159e+17
19422.0	6.572639726338047e+17
19423.0	6.560475256979455e+17
19424.0	6.54750887374575e+17
19425.0	6.533756636626941e+17
19426.0	6.518371357731497e+17
19427.0	6.501751638545748e+17
19428.0	6.48365502522982e+17
19429.0	6.463065982413484e+17
19430.0	6.43929492527514e+17
19431.0	6.406621125847739e+17
19432.0	6.38572543956309e+17
19433.0	6.36196373851887e+17
19434.0	6.337120500536659e+17
19435.0	6.309507300152659e+17
19436.0	6.277870856262991e+17
19437.0	6.248504531877888e+17
19438.0	6.176009452432038e+17
19439.0	6.170516934448475e+17
19440.0	6.121406483223886e+17
19441.0	6.06434641453602e+17
19442.0	6.011000316056918e+17
19443.0	5.952321385835176e+17
19444.0	5.885328797728765e+17
19445.0	5.804515557113859e+17
19446.0	5.713577219806549e+17
19447.0	5.6134961596115565e+17
19448.0	5.493531862892549e+17
19449.0	5.345121777571156e+17
19450.0	5.0746379255589235e+17
19451.0	4.969229644901034e+17
19452.0	5.227042116556121e+17
19453.0	5.424549820628998e+17
19454.0	5.551586890394277e+17
19455.0	5.6595616600773965e+17
19456.0	5.750412390957059e+17
19457.0	5.83604846950263e+17
19458.0	5.888414724740471e+17
19459.0	5.966696571469827e+17
19460.0	6.01929408595012e+17
19461.0	6.072463026115926e+17
19462.0	6.124140503236608e+17
19463.0	6.166651404462758e+17
19464.0	6.202719813500927e+17
19465.0	6.234211031012694e+17
19466.0	6.2614344868823e+17
19467.0	6.288241242144767e+17
19468.0	6.311627307614208e+17
19469.0	6.33208950628898e+17
19470.0	6.355784991855954e+17
19471.0	6.38167179364489e+17
19472.0	6.403647582415525e+17
19473.0	6.42295843205939e+17
19474.0	6.439622378083668e+17
19475.0	6.453452655820796e+17
19476.0	6.467443515981823e+17
19477.0	6.479308920979455e+17
19478.0	6.490605191779668e+17
19479.0	6.500107035170132e+17
19480.0	6.5096646669981e+17
19481.0	6.517874964649299e+17
19482.0	6.525784266462547e+17
19483.0	6.53321942737442e+17
19484.0	6.539760287875071e+17
19485.0	6.545894804204202e+17
19486.0	6.55176674452002e+17
19487.0	6.557522339037183e+17
19488.0	6.562897089353044e+17
19489.0	6.569115840588457e+17
19490.0	6.573975758962684e+17
19491.0	6.581938942203217e+17
19492.0	6.58697613493316e+17
19493.0	6.591472927943338e+17
19494.0	6.596224639565823e+17
19495.0	6.599413987628371e+17
19496.0	6.603283991538346e+17
19497.0	6.606316978044928e+17
19498.0	6.608029507474779e+17
19499.0	6.554358564345107e+17
19500.0	6.614014870159359e+17
19501.0	6.616657548716712e+17
19502.0	6.618446468306259e+17
19503.0	6.619985232614739e+17
19504.0	6.621399572895059e+17
19505.0	6.623428050856617e+17
19506.0	6.624575238438911e+17
19507.0	6.625582673909076e+17
19508.0	6.626538575364095e+17
19509.0	6.627377401211561e+17
19510.0	6.628418117784916e+17
19511.0	6.58171897542516e+17
19512.0	6.622728715676297e+17
19513.0	6.613538536336012e+17
19514.0	6.619546801318556e+17
19515.0	6.629773963602605e+17
19516.0	6.63137826181393e+17
19517.0	6.631632731635711e+17
19518.0	6.632164203080361e+17
19519.0	6.632229746070868e+17
19520.0	6.632236503094614e+17
19521.0	6.63226570383906e+17
19522.0	6.632129604965716e+17
19523.0	6.632179053013674e+17
19524.0	6.632374093742079e+17
19525.0	6.63209665241634e+17
19526.0	6.631921337499647e+17
19527.0	6.631728459634004e+17
19528.0	6.63208332431633e+17
19529.0	6.631729802510333e+17
19530.0	6.631362628943872e+17
19531.0	6.631002797506559e+17
19532.0	6.630785274609663e+17
19533.0	6.630945398456319e+17
19534.0	6.63044407636787e+17
19535.0	6.629879804067839e+17
19536.0	6.629302773394089e+17
19537.0	6.628779564029268e+17
19538.0	6.62813368245726e+17
19539.0	6.626861957600602e+17
19540.0	6.627385564725247e+17
19541.0	6.62676401361169e+17
19542.0	6.626070029664255e+17
19543.0	6.625364475729235e+17
19544.0	6.624653636971177e+17
19545.0	6.623421367932241e+17
19546.0	6.621745805000704e+17
19547.0	6.622384365415082e+17
19548.0	6.621616965768532e+17
19549.0	6.621028742594559e+17
19550.0	6.620417993910954e+17
19551.0	6.619596355622228e+17
19552.0	6.618756518248447e+17
19553.0	6.617879300538368e+17
19554.0	6.616979558017706e+17
19555.0	6.616149906511188e+17
19556.0	6.61528186593826e+17
19557.0	6.61438410662434e+17
19558.0	6.613478843700563e+17
19559.0	6.612531946018132e+17
19560.0	6.611604796517034e+17
19561.0	6.610672894869503e+17
19562.0	6.609764986738003e+17
19563.0	6.608899141184169e+17
19564.0	6.608186710687743e+17
19565.0	6.607213846069247e+17
19566.0	6.606203650747049e+17
19567.0	6.605268239865172e+17
19568.0	6.604239186952191e+17
19569.0	6.603256661453482e+17
19570.0	6.602293775783252e+17
19571.0	6.601289755874644e+17
19572.0	6.60022025589009e+17
19573.0	6.599241728262143e+17
19574.0	6.598080370223785e+17
19575.0	6.597206640077482e+17
19576.0	6.596172104510121e+17
19577.0	6.595035710270121e+17
19578.0	6.594062439503187e+17
19579.0	6.593171827982336e+17
19580.0	6.592128458511699e+17
19581.0	6.591087349071872e+17
19582.0	6.590054248655529e+17
19583.0	6.588989971278505e+17
19584.0	6.587903686388393e+17
19585.0	6.586663460055721e+17
19586.0	6.585471357769044e+17
19587.0	6.584339601031167e+17
19588.0	6.58286555762961e+17
19589.0	6.582315991258452e+17
19590.0	6.581287888355327e+17
19591.0	6.580334150462122e+17
19592.0	6.57925536289041e+17
19593.0	6.578351326800553e+17
19594.0	6.576829348096681e+17
19595.0	6.576153690461524e+17
19596.0	6.566262205317126e+17
19597.0	6.573927638411946e+17
19598.0	6.572462546354175e+17
19599.0	6.571748422757034e+17
19600.0	6.570644660901203e+17
19601.0	6.569427893310804e+17
19602.0	6.568349298677075e+17
19603.0	6.566009829152082e+17
19604.0	6.566067697964372e+17
19605.0	6.56456638669346e+17
19606.0	6.563892265571668e+17
19607.0	6.562777885136212e+17
19608.0	6.561625181345108e+17
19609.0	6.560417649612116e+17
19610.0	6.55939041702707e+17
19611.0	6.558241949483008e+17
19612.0	6.557122076606463e+17
19613.0	6.555961825165311e+17
19614.0	6.554777682269523e+17
19615.0	6.553698476665514e+17
19616.0	6.552220371080531e+17
19617.0	6.551408914464765e+17
19618.0	6.549531892820649e+17
19619.0	6.548097751930194e+17
19620.0	6.547018834335059e+17
19621.0	6.546816331240788e+17
19622.0	6.545676901722793e+17
19623.0	6.544530839612073e+17
19624.0	6.543363164252841e+17
19625.0	6.542217966867795e+17
19626.0	6.541052632629247e+17
19627.0	6.539911942023849e+17
19628.0	6.537756222160899e+17
19629.0	6.537451917716138e+17
19630.0	6.53578612751292e+17
19631.0	6.492118335182141e+17
19632.0	6.534088452909738e+17
19633.0	6.532871617511423e+17
19634.0	6.531808238414505e+17
19635.0	6.530584115412991e+17
19636.0	6.529465688872276e+17
19637.0	6.527691629701804e+17
19638.0	6.527147590025215e+17
19639.0	6.525955788330323e+17
19640.0	6.524735820485972e+17
19641.0	6.522788312165038e+17
19642.0	6.522488376786943e+17
19643.0	6.521285237189289e+17
19644.0	6.520080194775721e+17
19645.0	6.518613186620073e+17
19646.0	6.517840400788137e+17
19647.0	6.51667246817826e+17
19648.0	6.515496509767679e+17
19649.0	6.514323137844566e+17
19650.0	6.513164236270249e+17
19651.0	6.511984256221183e+17
19652.0	6.510811885338623e+17
19653.0	6.509634813340329e+17
19654.0	6.508465062499668e+17
19655.0	6.507287899624787e+17
19656.0	6.506122874366634e+17
19657.0	6.50495408472064e+17
19658.0	6.503785660678143e+17
19659.0	6.502617819643904e+17
19660.0	6.501451620679679e+17
19661.0	6.500270987018239e+17
19662.0	6.499104932757503e+17
19663.0	6.49785346569011e+17
19664.0	6.496548860985343e+17
19665.0	6.495583088934911e+17
