# Flux units: erg / (cm m2 s)
# Wavelength units: Angstrom
wave	flux
19000.0	6.81772244271104e+17
19001.0	6.816405415176873e+17
19002.0	6.815140464121172e+17
19003.0	6.813848273158143e+17
19004.0	6.812555620821674e+17
19005.0	6.811266345598973e+17
19006.0	6.809976416064852e+17
19007.0	6.808549397102591e+17
19008.0	6.807368804685139e+17
19009.0	6.806098347207337e+17
19010.0	6.804693445509117e+17
19011.0	6.803520744674644e+17
19012.0	6.802109455051433e+17
19013.0	6.800947349727913e+17
19014.0	6.79964199494178e+17
19015.0	6.798360864358399e+17
19016.0	6.797070913852756e+17
19017.0	6.795584353249961e+17
19018.0	6.794492906569727e+17
19019.0	6.793215681582419e+17
19020.0	6.791904188432383e+17
19021.0	6.790628757908137e+17
19022.0	6.789356396915368e+17
19023.0	6.788058217185279e+17
19024.0	6.786778823742804e+17
19025.0	6.785480980955133e+17
19026.0	6.784194070620841e+17
19027.0	6.782866962077012e+17
19028.0	6.781639439592105e+17
19029.0	6.780348199337983e+17
19030.0	6.779070944990548e+17
19031.0	6.777787646651049e+17
19032.0	6.776502465069055e+17
19033.0	6.775194848154963e+17
19034.0	6.773926145993385e+17
19035.0	6.772639483123028e+17
19036.0	6.764060760604666e+17
19037.0	6.77007872561425e+17
19038.0	6.768792299722068e+17
19039.0	6.767514690256895e+17
19040.0	6.766233266072233e+17
19041.0	6.764948256456701e+17
19042.0	6.763643875448148e+17
19043.0	6.762386481130153e+17
19044.0	6.761100255865514e+17
19045.0	6.75981816828177e+17
19046.0	6.758514448575146e+17
19047.0	6.757259208032255e+17
19048.0	6.755923594138963e+17
19049.0	6.754678849142783e+17
19050.0	6.753404974705322e+17
19051.0	6.751450972902739e+17
19052.0	6.750809707861334e+17
19053.0	6.749542392616275e+17
19054.0	6.748298640971092e+17
19055.0	6.746952435761151e+17
19056.0	6.745730139379028e+17
19057.0	6.744456966089385e+17
19058.0	6.743143411438931e+17
19059.0	6.741903570283177e+17
19060.0	6.740619108024319e+17
19061.0	6.739348614894931e+17
19062.0	6.738070472753151e+17
19063.0	6.736793884601001e+17
19064.0	6.735482593476608e+17
19065.0	6.734190988318036e+17
19066.0	6.732945998654121e+17
19067.0	6.731683796964691e+17
19068.0	6.730411484905472e+17
19069.0	6.729136033409705e+17
19070.0	6.727849181795667e+17
19071.0	6.726579488380244e+17
19072.0	6.725309639775572e+17
19073.0	6.724034248398163e+17
19074.0	6.722761223307263e+17
19075.0	6.72148699025681e+17
19076.0	6.720206945998164e+17
19077.0	6.718936400439977e+17
19078.0	6.717615294644223e+17
19079.0	6.716385103183872e+17
19080.0	6.715108977803263e+17
19081.0	6.713826013609983e+17
19082.0	6.712537443729407e+17
19083.0	6.71126307086882e+17
19084.0	6.709955814664874e+17
19085.0	6.708748340254036e+17
19086.0	6.707368175162708e+17
19087.0	6.706065648735572e+17
19088.0	6.704915679630676e+17
19089.0	6.703542759500457e+17
19090.0	6.702388131921919e+17
19091.0	6.701116106473471e+17
19092.0	6.699809255019859e+17
19093.0	6.698587724098218e+17
19094.0	6.697284671285929e+17
19095.0	6.696006502580223e+17
19096.0	6.694734046516564e+17
19097.0	6.693506873556991e+17
19098.0	6.692241916908884e+17
19099.0	6.690968607304361e+17
19100.0	6.689694690923859e+17
19101.0	6.688436155056127e+17
19102.0	6.687150930832041e+17
19103.0	6.685905095316819e+17
19104.0	6.684639475269631e+17
19105.0	6.68337293037841e+17
19106.0	6.682079409121962e+17
19107.0	6.680835495996074e+17
19108.0	6.67957469450513e+17
19109.0	6.677480296065704e+17
19110.0	6.677040897283411e+17
19111.0	6.675776640385023e+17
19112.0	6.674514662391807e+17
19113.0	6.673249182154751e+17
19114.0	6.671986004590591e+17
19115.0	6.670701534642175e+17
19116.0	6.669452244418559e+17
19117.0	6.668189716971519e+17
19118.0	6.666878486664531e+17
19119.0	6.66512673420083e+17
19120.0	6.66436670394641e+17
19121.0	6.663121336795135e+17
19122.0	6.661881982877695e+17
19123.0	6.660603036827647e+17
19124.0	6.659330162032639e+17
19125.0	6.658079942770687e+17
19126.0	6.656761656246271e+17
19127.0	6.655152298306217e+17
19128.0	6.653501880926205e+17
19129.0	6.6530289661597e+17
19130.0	6.651790428733439e+17
19131.0	6.65050517025587e+17
19132.0	6.649273835847679e+17
19133.0	6.64770234548224e+17
19134.0	6.646357588705279e+17
19135.0	6.645494971367423e+17
19136.0	6.644239409960276e+17
19137.0	6.642938832486399e+17
19138.0	6.64149699924241e+17
19139.0	6.640463608720041e+17
19140.0	6.639207815927123e+17
19141.0	6.637950899060733e+17
19142.0	6.636684448541353e+17
19143.0	6.635417603757396e+17
19144.0	6.634158279360511e+17
19145.0	6.632919107196243e+17
19146.0	6.6314886461085e+17
19147.0	6.630390092879188e+17
19148.0	6.629151796625408e+17
19149.0	6.627896416272381e+17
19150.0	6.626622935400447e+17
19151.0	6.625390404217514e+17
19152.0	6.624107324680873e+17
19153.0	6.622877783337642e+17
19154.0	6.621596756912809e+17
19155.0	6.62037346787874e+17
19156.0	6.619121410113535e+17
19157.0	6.6178614048413e+17
19158.0	6.616032372326397e+17
19159.0	6.615356928600746e+17
19160.0	6.614071564566527e+17
19161.0	6.612771142980948e+17
19162.0	6.61033035305233e+17
19163.0	6.610349669919401e+17
19164.0	6.609103106692436e+17
19165.0	6.607837614571519e+17
19166.0	6.606560791538346e+17
19167.0	6.605229631296852e+17
19168.0	6.604037149425663e+17
19169.0	6.602806881069737e+17
19170.0	6.601598532146516e+17
19171.0	6.600304999006208e+17
19172.0	6.599095059043668e+17
19173.0	6.597848428008788e+17
19174.0	6.596586410169683e+17
19175.0	6.595352250198697e+17
19176.0	6.594101869456042e+17
19177.0	6.59281636770884e+17
19178.0	6.591598408936106e+17
19179.0	6.590292721401856e+17
19180.0	6.588712223069524e+17
19181.0	6.587835604445865e+17
19182.0	6.586507980002644e+17
19183.0	6.585324174049279e+17
19184.0	6.584051821445119e+17
19185.0	6.582870005689002e+17
19186.0	6.581629199144276e+17
19187.0	6.580358373965823e+17
19188.0	6.579127096879785e+17
19189.0	6.577854923232596e+17
19190.0	6.576602854282579e+17
19191.0	6.575376120326825e+17
19192.0	6.574098675138559e+17
19193.0	6.572293115346943e+17
19194.0	6.571402462582099e+17
19195.0	6.570370889591466e+17
19196.0	6.569172056844969e+17
19197.0	6.567929271287807e+17
19198.0	6.566682673108307e+17
19199.0	6.55780984739157e+17
19200.0	6.559385461456899e+17
19201.0	6.562953881627306e+17
19202.0	6.561716218014377e+17
19203.0	6.560460063812266e+17
19204.0	6.559223511689897e+17
19205.0	6.557987196545706e+17
19206.0	6.55674481713698e+17
19207.0	6.555484710502399e+17
19208.0	6.554204569075711e+17
19209.0	6.553012137536169e+17
19210.0	6.551776519345492e+17
19211.0	6.55053188899362e+17
19212.0	6.549300070143316e+17
19213.0	6.547969855018323e+17
19214.0	6.546688696472916e+17
19215.0	6.545551912861695e+17
19216.0	6.544292250823337e+17
19217.0	6.543095601212073e+17
19218.0	6.54165066068787e+17
19219.0	6.540575632610644e+17
19220.0	6.53936794079505e+17
19221.0	6.538046575651498e+17
19222.0	6.536902828796585e+17
19223.0	6.535657151266813e+17
19224.0	6.534339155547476e+17
19225.0	6.533125530888873e+17
19226.0	6.531937945867604e+17
19227.0	6.530698190695082e+17
19228.0	6.529469242146815e+17
19229.0	6.528231184269311e+17
19230.0	6.526953956485801e+17
19231.0	6.525714355803476e+17
19232.0	6.524453924110333e+17
19233.0	6.523260014777684e+17
19234.0	6.522036965517994e+17
19235.0	6.520796577005567e+17
19236.0	6.519569234875732e+17
19237.0	6.518327915227817e+17
19238.0	6.517061617800531e+17
19239.0	6.515857907777535e+17
19240.0	6.514501787232937e+17
19241.0	6.513348360623444e+17
19242.0	6.512131078531753e+17
19243.0	6.510862380564479e+17
19244.0	6.509675985327444e+17
19245.0	6.508440993486164e+17
19246.0	6.507203694777684e+17
19247.0	6.505960521946452e+17
19248.0	6.504736131907583e+17
19249.0	6.503499448363689e+17
19250.0	6.502261256967508e+17
19251.0	6.501007002086057e+17
19252.0	6.499684205985791e+17
19253.0	6.498555604063572e+17
19254.0	6.497307935637504e+17
19255.0	6.496034874895016e+17
19256.0	6.494828100233898e+17
19257.0	6.493619310908756e+17
19258.0	6.492382507827199e+17
19259.0	6.491130508083199e+17
19260.0	6.489856018481151e+17
19261.0	6.488679159693311e+17
19262.0	6.487431900211882e+17
19263.0	6.486201077508777e+17
19264.0	6.48484091924753e+17
19265.0	6.483692899794943e+17
19266.0	6.482462065207978e+17
19267.0	6.481259206628692e+17
19268.0	6.480018269361491e+17
19269.0	6.478788868527444e+17
19270.0	6.47754664780322e+17
19271.0	6.476230118692182e+17
19272.0	6.475076487959891e+17
19273.0	6.470746938627409e+17
19274.0	6.471133257094482e+17
19275.0	6.47138064343586e+17
19276.0	6.470140498892116e+17
19277.0	6.468904612965033e+17
19278.0	6.467670304096255e+17
19279.0	6.466381649630547e+17
19280.0	6.465179226559828e+17
19281.0	6.463963810234367e+17
19282.0	6.462732514273961e+17
19283.0	6.461369334016682e+17
19284.0	6.459956263911423e+17
19285.0	6.458959845479763e+17
19286.0	6.457778779105962e+17
19287.0	6.456551139180543e+17
19288.0	6.453677220255059e+17
19289.0	6.44899035816481e+17
19290.0	6.452839876395008e+17
19291.0	6.451531583498922e+17
19292.0	6.450365007746388e+17
19293.0	6.449124943593471e+17
19294.0	6.447884394998442e+17
19295.0	6.446649131925503e+17
19296.0	6.445408742014975e+17
19297.0	6.444161538457599e+17
19298.0	6.442922378177194e+17
19299.0	6.441690795606015e+17
19300.0	6.440449536775508e+17
19301.0	6.439204882655913e+17
19302.0	6.43796064936482e+17
19303.0	6.436692271562751e+17
19304.0	6.435459109137065e+17
19305.0	6.434232399648083e+17
19306.0	6.432984685084671e+17
19307.0	6.431722616214868e+17
19308.0	6.430489151100244e+17
19309.0	6.429043930256723e+17
19310.0	6.427650091734355e+17
19311.0	6.426737941064361e+17
19312.0	6.425499230273535e+17
19313.0	6.424121240627882e+17
19314.0	6.421426660354726e+17
19315.0	6.420287156038318e+17
19316.0	6.420509711400959e+17
19317.0	6.419264068124671e+17
19318.0	6.418009799262207e+17
19319.0	6.416761517768704e+17
19320.0	6.415470607466495e+17
19321.0	6.414250469752831e+17
19322.0	6.412939320535722e+17
19323.0	6.411604312020308e+17
19324.0	6.410470846103551e+17
19325.0	6.409088246218751e+17
19326.0	6.407952073577812e+17
19327.0	6.406682058599082e+17
19328.0	6.405424498606079e+17
19329.0	6.404158061368659e+17
19330.0	6.402879099939498e+17
19331.0	6.401608859866452e+17
19332.0	6.400345179684863e+17
19333.0	6.399068130159273e+17
19334.0	6.397755219334484e+17
19335.0	6.396523616490836e+17
19336.0	6.395240690046291e+17
19337.0	6.393958765341353e+17
19338.0	6.392624516694015e+17
19339.0	6.391391201875284e+17
19340.0	6.39009182257425e+17
19341.0	6.388813468620116e+17
19342.0	6.387389758963711e+17
19343.0	6.386223745247914e+17
19344.0	6.384922245726207e+17
19345.0	6.38309369206101e+17
19346.0	6.382182276093267e+17
19347.0	6.380987480364372e+17
19348.0	6.379695980762452e+17
19349.0	6.378369197277183e+17
19350.0	6.377050113135956e+17
19351.0	6.375727960861353e+17
19352.0	6.374391891886079e+17
19353.0	6.373080435785727e+17
19354.0	6.371739214807039e+17
19355.0	6.370366909841408e+17
19356.0	6.369047019694761e+17
19357.0	6.367692939679059e+17
19358.0	6.366309168185343e+17
19359.0	6.364804409196544e+17
19360.0	6.363592882388991e+17
19361.0	6.362205960273919e+17
19362.0	6.360849966956544e+17
19363.0	6.35945944612864e+17
19364.0	6.358058501756243e+17
19365.0	6.356656868119891e+17
19366.0	6.355246434833747e+17
19367.0	6.353823494133076e+17
19368.0	6.352392165523455e+17
19369.0	6.35088556593425e+17
19370.0	6.349105495627091e+17
19371.0	6.348018715110057e+17
19372.0	6.346561365737471e+17
19373.0	6.345068692635647e+17
19374.0	6.343578217349119e+17
19375.0	6.342067319996413e+17
19376.0	6.340538566792532e+17
19377.0	6.339002897880404e+17
19378.0	6.337448998425939e+17
19379.0	6.335876874021546e+17
19380.0	6.334287879427411e+17
19381.0	6.332677181407231e+17
19382.0	6.331025443520511e+17
19383.0	6.329370718590292e+17
19384.0	6.327726942890665e+17
19385.0	6.326028727222272e+17
19386.0	6.324306741734058e+17
19387.0	6.322555253511508e+17
19388.0	6.320776285607252e+17
19389.0	6.318965048126121e+17
19390.0	6.317096770207743e+17
19391.0	6.308688467853299e+17
19392.0	6.313252127156906e+17
19393.0	6.31130445455906e+17
19394.0	6.309297194183337e+17
19395.0	6.307235088389459e+17
19396.0	6.305118412603391e+17
19397.0	6.302979832763732e+17
19398.0	6.300743088734207e+17
19399.0	6.298297726315178e+17
19400.0	6.296114712018943e+17
19401.0	6.293707814163796e+17
19402.0	6.291210919127722e+17
19403.0	6.288620676360874e+17
19404.0	6.285949140292948e+17
19405.0	6.283161837240319e+17
19406.0	6.280270502865578e+17
19407.0	6.27727331893794e+17
19408.0	6.273960205352959e+17
19409.0	6.27082257375778e+17
19410.0	6.267418099144019e+17
19411.0	6.26380137177634e+17
19412.0	6.260018322778793e+17
19413.0	6.256040930006356e+17
19414.0	6.251830956785663e+17
19415.0	6.247386143085908e+17
19416.0	6.242572422873087e+17
19417.0	6.237451610401449e+17
19418.0	6.232278426451967e+17
19419.0	6.226550766698495e+17
19420.0	6.220514435530751e+17
19421.0	6.214020588284586e+17
19422.0	6.207001094083924e+17
19423.0	6.199457070710783e+17
19424.0	6.19129207783424e+17
19425.0	6.182492090400767e+17
19426.0	6.172934171262975e+17
19427.0	6.162459047318868e+17
19428.0	6.151363271240361e+17
19429.0	6.138995738148863e+17
19430.0	6.125390077274794e+17
19431.0	6.109258575074647e+17
19432.0	6.094340357095423e+17
19433.0	6.07659180949504e+17
19434.0	6.05721011106611e+17
19435.0	6.035436180865021e+17
19436.0	6.010361808071337e+17
19437.0	5.983190611831465e+17
19438.0	5.945823083539112e+17
19439.0	5.922874330185728e+17
19440.0	5.887310540658006e+17
19441.0	5.845951605025448e+17
19442.0	5.797548955183788e+17
19443.0	5.748669519233022e+17
19444.0	5.6935966670411066e+17
19445.0	5.6270435350391475e+17
19446.0	5.552152119694677e+17
19447.0	5.4684832004833216e+17
19448.0	5.366750140956676e+17
19449.0	5.2249184348842675e+17
19450.0	4.893559552824641e+17
19451.0	4.7689809400954835e+17
19452.0	5.0836032244940826e+17
19453.0	5.305734745030663e+17
19454.0	5.4148377398476755e+17
19455.0	5.5062735649505274e+17
19456.0	5.580745932275712e+17
19457.0	5.651063949841745e+17
19458.0	5.706559804582575e+17
19459.0	5.757479352795138e+17
19460.0	5.804430567931901e+17
19461.0	5.847065587701076e+17
19462.0	5.882981900790445e+17
19463.0	5.91390360032597e+17
19464.0	5.94106831077376e+17
19465.0	5.967716027116202e+17
19466.0	5.991080601670995e+17
19467.0	6.011937503925588e+17
19468.0	6.030114166232406e+17
19469.0	6.045623607711059e+17
19470.0	6.060766162234025e+17
19471.0	6.074045883744256e+17
19472.0	6.085733999007059e+17
19473.0	6.096128347646633e+17
19474.0	6.105473480654847e+17
19475.0	6.113650924322815e+17
19476.0	6.1213919164061e+17
19477.0	6.128152060013226e+17
19478.0	6.13417409070148e+17
19479.0	6.139659228108116e+17
19480.0	6.144507949088768e+17
19481.0	6.148864163009875e+17
19482.0	6.152728922641748e+17
19483.0	6.156233504806228e+17
19484.0	6.159325588357117e+17
19485.0	6.162088358925652e+17
19486.0	6.164603015441066e+17
19487.0	6.166809799557119e+17
19488.0	6.168752748669609e+17
19489.0	6.1704499639965e+17
19490.0	6.171609758957565e+17
19491.0	6.173241091555327e+17
19492.0	6.174402169274367e+17
19493.0	6.175387244909907e+17
19494.0	6.176215148090707e+17
19495.0	6.17684852154914e+17
19496.0	6.177356311953407e+17
19497.0	6.177932552699903e+17
19498.0	6.178004092846081e+17
19499.0	6.167611032556872e+17
19500.0	6.178730742033066e+17
19501.0	6.178805383168e+17
19502.0	6.178832478371839e+17
19503.0	6.178783057586858e+17
19504.0	6.178639973799252e+17
19505.0	6.178490021838847e+17
19506.0	6.178263447633919e+17
19507.0	6.177987051388927e+17
19508.0	6.177659134410751e+17
19509.0	6.177283242983423e+17
19510.0	6.176821599010815e+17
19511.0	6.169997116877478e+17
19512.0	6.174641930371066e+17
19513.0	6.172441306289487e+17
19514.0	6.172861119769254e+17
19515.0	6.174029048184832e+17
19516.0	6.173649907570006e+17
19517.0	6.172984242864127e+17
19518.0	6.172356088517972e+17
19519.0	6.171668928703146e+17
19520.0	6.17095225287202e+17
19521.0	6.170227031146495e+17
19522.0	6.169462217288361e+17
19523.0	6.168706704998399e+17
19524.0	6.167920121304406e+17
19525.0	6.167094564137641e+17
19526.0	6.166295656180393e+17
19527.0	6.165465105694719e+17
19528.0	6.16462053155362e+17
19529.0	6.163762699217578e+17
19530.0	6.162896456602964e+17
19531.0	6.16201641263104e+17
19532.0	6.161124333802836e+17
19533.0	6.160223424566612e+17
19534.0	6.159311532545363e+17
19535.0	6.1583848374272e+17
19536.0	6.157452178707796e+17
19537.0	6.156525763209898e+17
19538.0	6.155572540517033e+17
19539.0	6.1544852895389e+17
19540.0	6.1536608976896e+17
19541.0	6.152702102863871e+17
19542.0	6.151727914243412e+17
19543.0	6.150750280002217e+17
19544.0	6.149766440987305e+17
19545.0	6.148692946627241e+17
19546.0	6.147546066627242e+17
19547.0	6.146763429773312e+17
19548.0	6.145774844204372e+17
19549.0	6.144738131094186e+17
19550.0	6.143756524847103e+17
19551.0	6.142739952784724e+17
19552.0	6.141718362237609e+17
19553.0	6.140688760569855e+17
19554.0	6.139653987325268e+17
19555.0	6.138629144095401e+17
19556.0	6.137597268415827e+17
19557.0	6.136555314522793e+17
19558.0	6.135516365848573e+17
19559.0	6.134459034238976e+17
19560.0	6.133420780421119e+17
19561.0	6.132375253680127e+17
19562.0	6.131327788471636e+17
19563.0	6.130267257307135e+17
19564.0	6.129219428592297e+17
19565.0	6.128161330823167e+17
19566.0	6.127092617969664e+17
19567.0	6.126030750220287e+17
19568.0	6.124963761225728e+17
19569.0	6.123897696376148e+17
19570.0	6.122837855873706e+17
19571.0	6.121767234611882e+17
19572.0	6.120685322283689e+17
19573.0	6.119618557684394e+17
19574.0	6.118515851395071e+17
19575.0	6.117467689932116e+17
19576.0	6.116388557728425e+17
19577.0	6.115256215885139e+17
19578.0	6.114222507993769e+17
19579.0	6.113145430999039e+17
19580.0	6.112063706715476e+17
19581.0	6.110983551101609e+17
19582.0	6.109903368224765e+17
19583.0	6.108817657954304e+17
19584.0	6.107727919753897e+17
19585.0	6.106610025190739e+17
19586.0	6.105427772527956e+17
19587.0	6.104291787232596e+17
19588.0	6.103235674068307e+17
19589.0	6.102071554779817e+17
19590.0	6.101164362476202e+17
19591.0	6.100098390600361e+17
19592.0	6.099005257110868e+17
19593.0	6.097899358956202e+17
19594.0	6.096737420705791e+17
19595.0	6.095719383433215e+17
19596.0	6.09265807908318e+17
19597.0	6.093523232576852e+17
19598.0	6.09237606596608e+17
19599.0	6.091339789762559e+17
19600.0	6.090244443078655e+17
19601.0	6.089129488023551e+17
19602.0	6.088038095869268e+17
19603.0	6.086732928428714e+17
19604.0	6.085832047853568e+17
19605.0	6.084670891141801e+17
19606.0	6.083638505854292e+17
19607.0	6.082551619081556e+17
19608.0	6.081446505261737e+17
19609.0	6.080332549849087e+17
19610.0	6.079249329597098e+17
19611.0	6.078145290218153e+17
19612.0	6.077046445484714e+17
19613.0	6.075938875899903e+17
19614.0	6.074831128057172e+17
19615.0	6.073739960298153e+17
19616.0	6.072583006278998e+17
19617.0	6.071530840653823e+17
19618.0	6.070311875947178e+17
19619.0	6.069160882034003e+17
19620.0	6.068068442002771e+17
19621.0	6.06712038040098e+17
19622.0	6.06601933365794e+17
19623.0	6.064915871694847e+17
19624.0	6.06380952195345e+17
19625.0	6.062706083758079e+17
19626.0	6.061602897220948e+17
19627.0	6.060500279012009e+17
19628.0	6.059224624092502e+17
19629.0	6.058269189603327e+17
19630.0	6.057086495140522e+17
19631.0	6.048153922961404e+17
19632.0	6.054974533752148e+17
19633.0	6.053861865990825e+17
19634.0	6.052769781077332e+17
19635.0	6.051654991697235e+17
19636.0	6.050559122822484e+17
19637.0	6.049347285636438e+17
19638.0	6.048351102085802e+17
19639.0	6.047237989728255e+17
19640.0	6.046126974522707e+17
19641.0	6.044908963321172e+17
19642.0	6.043932263011668e+17
19643.0	6.042819854598144e+17
19644.0	6.041711301449044e+17
19645.0	6.040558225762985e+17
19646.0	6.039518978594131e+17
19647.0	6.03841478262784e+17
19648.0	6.037309334661801e+17
19649.0	6.036204452926806e+17
19650.0	6.035102540759039e+17
19651.0	6.033996658682537e+17
19652.0	6.032892315915604e+17
19653.0	6.031787549523967e+17
19654.0	6.03068451328273e+17
19655.0	6.029579992956928e+17
19656.0	6.028474567360511e+17
19657.0	6.027373828898813e+17
19658.0	6.026267934938452e+17
19659.0	6.025169468391424e+17
19660.0	6.024066679614121e+17
19661.0	6.02296358674978e+17
19662.0	6.021860590354431e+17
19663.0	6.020745740855978e+17
19664.0	6.019616697832788e+17
19665.0	6.018552339365887e+17
