# Flux units: erg / (cm m2 s)
# Wavelength units: Angstrom
wave	flux
19000.0	7.9441322573824e+17
19001.0	7.942669468696573e+17
19002.0	7.941315039854591e+17
19003.0	7.939902779949053e+17
19004.0	7.938606236696575e+17
19005.0	7.937202512199679e+17
19006.0	7.935825350230016e+17
19007.0	7.934616321130493e+17
19008.0	7.933228388188157e+17
19009.0	7.931787216945152e+17
19010.0	7.9302365282304e+17
19011.0	7.928975431041021e+17
19012.0	7.927353720176637e+17
19013.0	7.926156902094163e+17
19014.0	7.924699911334569e+17
19015.0	7.923288273584127e+17
19016.0	7.921862952615933e+17
19017.0	7.920449585414143e+17
19018.0	7.919011668951037e+17
19019.0	7.917586145258154e+17
19020.0	7.916145558421503e+17
19021.0	7.914729848001875e+17
19022.0	7.913296623566845e+17
19023.0	7.911835084783615e+17
19024.0	7.91040682780262e+17
19025.0	7.908955208548348e+17
19026.0	7.907493019647997e+17
19027.0	7.905888090193917e+17
19028.0	7.90465392882483e+17
19029.0	7.903212090687488e+17
19030.0	7.901779010256896e+17
19031.0	7.900332712176298e+17
19032.0	7.898881663347369e+17
19033.0	7.897370837297832e+17
19034.0	7.895915412411731e+17
19035.0	7.894038889190739e+17
19036.0	7.879514610029905e+17
19037.0	7.89164804083985e+17
19038.0	7.890493825701204e+17
19039.0	7.889103035039743e+17
19040.0	7.887666912340649e+17
19041.0	7.886221595727187e+17
19042.0	7.884714253746172e+17
19043.0	7.883321139440296e+17
19044.0	7.881866092041556e+17
19045.0	7.880401401937919e+17
19046.0	7.878932602814463e+17
19047.0	7.877476147527676e+17
19048.0	7.87594978158182e+17
19049.0	7.874502118954326e+17
19050.0	7.873024353807017e+17
19051.0	7.869572208132092e+17
19052.0	7.869439605211135e+17
19053.0	7.868686685700097e+17
19054.0	7.867273352052733e+17
19055.0	7.865680404327081e+17
19056.0	7.864351942421161e+17
19057.0	7.862898498644649e+17
19058.0	7.861414211354621e+17
19059.0	7.859976046029481e+17
19060.0	7.858505358071122e+17
19061.0	7.857049309631828e+17
19062.0	7.855581684913492e+17
19063.0	7.854114672563538e+17
19064.0	7.852599545954305e+17
19065.0	7.851082104089258e+17
19066.0	7.849678466274644e+17
19067.0	7.848247664749225e+17
19068.0	7.846779139653632e+17
19069.0	7.845309909914964e+17
19070.0	7.843828158780756e+17
19071.0	7.842360514489002e+17
19072.0	7.840896271777791e+17
19073.0	7.839425156000425e+17
19074.0	7.83795505664273e+17
19075.0	7.836482079992489e+17
19076.0	7.83500089369122e+17
19077.0	7.833526627991551e+17
19078.0	7.832049581468328e+17
19079.0	7.830585352738132e+17
19080.0	7.829107200316755e+17
19081.0	7.82760748917282e+17
19082.0	7.82613743874867e+17
19083.0	7.824604342342996e+17
19084.0	7.823052367375016e+17
19085.0	7.821701112223059e+17
19086.0	7.819943624747689e+17
19087.0	7.818514983288832e+17
19088.0	7.81710467932706e+17
19089.0	7.815546584869545e+17
19090.0	7.814244707860476e+17
19091.0	7.812796411893076e+17
19092.0	7.811265812496381e+17
19093.0	7.809870189996713e+17
19094.0	7.808401817294164e+17
19095.0	7.80692480851968e+17
19096.0	7.805440728148649e+17
19097.0	7.803964165368489e+17
19098.0	7.802478913388543e+17
19099.0	7.800994844202323e+17
19100.0	7.799491314843645e+17
19101.0	7.798019175656106e+17
19102.0	7.79650559255074e+17
19103.0	7.795060369610068e+17
19104.0	7.793571233704617e+17
19105.0	7.792060711043072e+17
19106.0	7.790548637887145e+17
19107.0	7.789064100336979e+17
19108.0	7.787511258546173e+17
19109.0	7.785216771533481e+17
19110.0	7.784365963957587e+17
19111.0	7.783111530119167e+17
19112.0	7.781655319500118e+17
19113.0	7.780180905601706e+17
19114.0	7.77869254144819e+17
19115.0	7.777157754738004e+17
19116.0	7.775698303320063e+17
19117.0	7.774200021035689e+17
19118.0	7.77263658583108e+17
19119.0	7.76979385435204e+17
19120.0	7.769611230161577e+17
19121.0	7.768152248505684e+17
19122.0	7.766762737106943e+17
19123.0	7.765273153809064e+17
19124.0	7.763675975428776e+17
19125.0	7.762273755288918e+17
19126.0	7.760751313813501e+17
19127.0	7.758518931860136e+17
19128.0	7.757518243627007e+17
19129.0	7.756247991670099e+17
19130.0	7.754804117897212e+17
19131.0	7.753305191088127e+17
19132.0	7.751809737162751e+17
19133.0	7.750246756341075e+17
19134.0	7.748701057449981e+17
19135.0	7.747312267471528e+17
19136.0	7.745813741917523e+17
19137.0	7.744249835552765e+17
19138.0	7.742803768158889e+17
19139.0	7.741314658817366e+17
19140.0	7.739815185350653e+17
19141.0	7.738313132386986e+17
19142.0	7.736796034454867e+17
19143.0	7.735284431060992e+17
19144.0	7.733784907262633e+17
19145.0	7.73229519254323e+17
19146.0	7.730457950377302e+17
19147.0	7.729250390682281e+17
19148.0	7.727766980001791e+17
19149.0	7.726259870105599e+17
19150.0	7.724759378821119e+17
19151.0	7.723251715276799e+17
19152.0	7.721721803745961e+17
19153.0	7.720204466738514e+17
19154.0	7.718636424790015e+17
19155.0	7.717147369974442e+17
19156.0	7.715608830760275e+17
19157.0	7.713977043779581e+17
19158.0	7.712152991301632e+17
19159.0	7.71097495810867e+17
19160.0	7.709508967770793e+17
19161.0	7.707882462816938e+17
19162.0	7.705094030797484e+17
19163.0	7.704350998659072e+17
19164.0	7.703187631549097e+17
19165.0	7.701682478994772e+17
19166.0	7.700020581105663e+17
19167.0	7.698450023972863e+17
19168.0	7.697032248557567e+17
19169.0	7.695536714940416e+17
19170.0	7.694028025189715e+17
19171.0	7.692473693022889e+17
19172.0	7.690974984317612e+17
19173.0	7.689472885216595e+17
19174.0	7.687936719978496e+17
19175.0	7.686435979831977e+17
19176.0	7.684909507630419e+17
19177.0	7.683292006449152e+17
19178.0	7.681802816017748e+17
19179.0	7.680252293677055e+17
19180.0	7.678778904586921e+17
19181.0	7.6772191254173e+17
19182.0	7.675728940935849e+17
19183.0	7.674209052393472e+17
19184.0	7.672672856397139e+17
19185.0	7.671139397883219e+17
19186.0	7.669604123235667e+17
19187.0	7.668021261413033e+17
19188.0	7.666520517072212e+17
19189.0	7.66496977662771e+17
19190.0	7.663412941859497e+17
19191.0	7.661850025350483e+17
19192.0	7.660322752036863e+17
19193.0	7.658752601751552e+17
19194.0	7.65716443693056e+17
19195.0	7.655558756696063e+17
19196.0	7.653872227057661e+17
19197.0	7.652008725752489e+17
19198.0	7.649391046645075e+17
19199.0	7.639792142865747e+17
19200.0	7.639576860426237e+17
19201.0	7.6448931015994e+17
19202.0	7.644069407402668e+17
19203.0	7.642640461157718e+17
19204.0	7.641240287838207e+17
19205.0	7.639761374849705e+17
19206.0	7.638240008514217e+17
19207.0	7.636650409241257e+17
19208.0	7.635081243219283e+17
19209.0	7.633610653128019e+17
19210.0	7.632063781229908e+17
19211.0	7.630502048912726e+17
19212.0	7.628928937448787e+17
19213.0	7.627268295054675e+17
19214.0	7.625663917850621e+17
19215.0	7.624187848600232e+17
19216.0	7.622659967112531e+17
19217.0	7.621078363581097e+17
19218.0	7.619175821694291e+17
19219.0	7.61783137809203e+17
19220.0	7.616354609790973e+17
19221.0	7.614668847710207e+17
19222.0	7.613190930169853e+17
19223.0	7.611630208679935e+17
19224.0	7.610016289434284e+17
19225.0	7.608403783669075e+17
19226.0	7.606857559091881e+17
19227.0	7.605266642807464e+17
19228.0	7.603691610352297e+17
19229.0	7.601714872625833e+17
19230.0	7.599997130375165e+17
19231.0	7.598393678714195e+17
19232.0	7.596801430039208e+17
19233.0	7.595163291484161e+17
19234.0	7.593587237016918e+17
19235.0	7.591974448835241e+17
19236.0	7.590375376027647e+17
19237.0	7.588754371204436e+17
19238.0	7.587086197238441e+17
19239.0	7.585525540061181e+17
19240.0	7.583899514656084e+17
19241.0	7.582266912582313e+17
19242.0	7.580645990247081e+17
19243.0	7.578926887643816e+17
19244.0	7.577391968114004e+17
19245.0	7.575755059888127e+17
19246.0	7.574109809191593e+17
19247.0	7.571922742498644e+17
19248.0	7.569971341164543e+17
19249.0	7.568317701860009e+17
19250.0	7.566662991609853e+17
19251.0	7.564964147494913e+17
19252.0	7.563193278791679e+17
19253.0	7.561692980445183e+17
19254.0	7.56004119781922e+17
19255.0	7.558264072612521e+17
19256.0	7.556685739240105e+17
19257.0	7.555031886026067e+17
19258.0	7.553354183999488e+17
19259.0	7.551623689666556e+17
19260.0	7.549739854375593e+17
19261.0	7.548031252911446e+17
19262.0	7.546187920616106e+17
19263.0	7.54447334506496e+17
19264.0	7.542586157126995e+17
19265.0	7.54102534476049e+17
19266.0	7.539337369485311e+17
19267.0	7.537699813938515e+17
19268.0	7.535984386943657e+17
19269.0	7.534263342377641e+17
19270.0	7.532525881305769e+17
19271.0	7.530667712359084e+17
19272.0	7.529053285602644e+17
19273.0	7.526997760671741e+17
19274.0	7.525255877405353e+17
19275.0	7.523853690819926e+17
19276.0	7.522098385780735e+17
19277.0	7.520345116377088e+17
19278.0	7.518592072067753e+17
19279.0	7.516805045507412e+17
19280.0	7.514900015000233e+17
19281.0	7.512853682585597e+17
19282.0	7.511063487927636e+17
19283.0	7.509212667401556e+17
19284.0	7.507365214901587e+17
19285.0	7.505607600198996e+17
19286.0	7.503812670171817e+17
19287.0	7.501935531786239e+17
19288.0	7.495842790724943e+17
19289.0	7.48967693455632e+17
19290.0	7.496411383158099e+17
19291.0	7.494527904382975e+17
19292.0	7.492841437659135e+17
19293.0	7.49098523164672e+17
19294.0	7.489119399706624e+17
19295.0	7.487241556677974e+17
19296.0	7.485347284560553e+17
19297.0	7.483447064920063e+17
19298.0	7.481539562569728e+17
19299.0	7.479625911369728e+17
19300.0	7.477512191868925e+17
19301.0	7.475154493898752e+17
19302.0	7.473201772756991e+17
19303.0	7.471215643983871e+17
19304.0	7.469272197846355e+17
19305.0	7.467294865926825e+17
19306.0	7.465306893058045e+17
19307.0	7.463276440278355e+17
19308.0	7.461240035781289e+17
19309.0	7.458936714166271e+17
19310.0	7.456746431840253e+17
19311.0	7.455042340651007e+17
19312.0	7.453077795766271e+17
19313.0	7.450980949950464e+17
19314.0	7.440324609004883e+17
19315.0	7.437979528899251e+17
19316.0	7.443605532005715e+17
19317.0	7.441568653552297e+17
19318.0	7.43944870690816e+17
19319.0	7.437316496119123e+17
19320.0	7.435149690710697e+17
19321.0	7.432959585943551e+17
19322.0	7.430695901899433e+17
19323.0	7.428451431961939e+17
19324.0	7.426280945352701e+17
19325.0	7.423452028512938e+17
19326.0	7.420633611414186e+17
19327.0	7.418406268218025e+17
19328.0	7.416133047724714e+17
19329.0	7.413853787433642e+17
19330.0	7.411528603708074e+17
19331.0	7.409187997526697e+17
19332.0	7.406866166448127e+17
19333.0	7.404494507038036e+17
19334.0	7.401068442943487e+17
19335.0	7.398165998556499e+17
19336.0	7.395766136646314e+17
19337.0	7.393320273007955e+17
19338.0	7.390729113086633e+17
19339.0	7.388316508880896e+17
19340.0	7.385750720304468e+17
19341.0	7.382885265484461e+17
19342.0	7.378559140102143e+17
19343.0	7.376069097859753e+17
19344.0	7.373077359536809e+17
19345.0	7.369654962662057e+17
19346.0	7.367297913410902e+17
19347.0	7.364992290521087e+17
19348.0	7.36102301792119e+17
19349.0	7.357222504540841e+17
19350.0	7.354421152666963e+17
19351.0	7.351585847902208e+17
19352.0	7.348682738018985e+17
19353.0	7.345825136334163e+17
19354.0	7.340753302847487e+17
19355.0	7.337197599806804e+17
19356.0	7.334238972717738e+17
19357.0	7.331199441698815e+17
19358.0	7.328113741179561e+17
19359.0	7.323658066329597e+17
19360.0	7.319475138680148e+17
19361.0	7.316241348471466e+17
19362.0	7.312965152451241e+17
19363.0	7.309633004415657e+17
19364.0	7.306256907064659e+17
19365.0	7.302839790818644e+17
19366.0	7.299382845461844e+17
19367.0	7.295880913398442e+17
19368.0	7.292328554616148e+17
19369.0	7.288110819835904e+17
19370.0	7.283847153232556e+17
19371.0	7.280160319471616e+17
19372.0	7.276445174158675e+17
19373.0	7.272644034428927e+17
19374.0	7.268813713528147e+17
19375.0	7.264923820927657e+17
19376.0	7.260987435865428e+17
19377.0	7.255845586862077e+17
19378.0	7.251130134997672e+17
19379.0	7.246823343958697e+17
19380.0	7.242420058761897e+17
19381.0	7.23792503574801e+17
19382.0	7.23329417041237e+17
19383.0	7.227914584063997e+17
19384.0	7.22152324351044e+17
19385.0	7.216590532291241e+17
19386.0	7.211613592136361e+17
19387.0	7.206518364220074e+17
19388.0	7.201298025807871e+17
19389.0	7.19356461003571e+17
19390.0	7.187443392446463e+17
19391.0	7.171898676871155e+17
19392.0	7.175520171764393e+17
19393.0	7.17036110094882e+17
19394.0	7.16174579641003e+17
19395.0	7.154660231435603e+17
19396.0	7.148297550561279e+17
19397.0	7.141653489210708e+17
19398.0	7.133882120579758e+17
19399.0	7.123338715463679e+17
19400.0	7.116434377976489e+17
19401.0	7.109222909782697e+17
19402.0	7.101784928201385e+17
19403.0	7.091701627049299e+17
19404.0	7.082098562520403e+17
19405.0	7.074089698415955e+17
19406.0	7.06532823077137e+17
19407.0	7.057030764997289e+17
19408.0	7.043808401992362e+17
19409.0	7.034801525620736e+17
19410.0	7.02553403826722e+17
19411.0	7.015428103252649e+17
19412.0	7.004742361634132e+17
19413.0	6.99191609751415e+17
19414.0	6.979478077046783e+17
19415.0	6.968454055723007e+17
19416.0	6.95608424792064e+17
19417.0	6.942991079964671e+17
19418.0	6.930432254454442e+17
19419.0	6.917307724289366e+17
19420.0	6.903683868524541e+17
19421.0	6.888144955768833e+17
19422.0	6.873070145546921e+17
19423.0	6.857767091787091e+17
19424.0	6.841404930129919e+17
19425.0	6.824041207125332e+17
19426.0	6.804483699550892e+17
19427.0	6.78456287297536e+17
19428.0	6.764195066413055e+17
19429.0	6.74287942054707e+17
19430.0	6.719958211188054e+17
19431.0	6.695295530303488e+17
19432.0	6.671515572153e+17
19433.0	6.64521701204514e+17
19434.0	6.61608096473634e+17
19435.0	6.584805182756178e+17
19436.0	6.551685311408812e+17
19437.0	6.517014329120084e+17
19438.0	6.468533791752191e+17
19439.0	6.437082690661037e+17
19440.0	6.393416421561684e+17
19441.0	6.344625052712956e+17
19442.0	6.291411317380439e+17
19443.0	6.232577903951872e+17
19444.0	6.167310350592678e+17
19445.0	6.094266410117805e+17
19446.0	6.011495166334292e+17
19447.0	5.916549240061947e+17
19448.0	5.805419746295812e+17
19449.0	5.671426583429119e+17
19450.0	5.4990846935695245e+17
19451.0	5.400666660230487e+17
19452.0	5.592319955479211e+17
19453.0	5.739860641972229e+17
19454.0	5.858826323143334e+17
19455.0	5.95880703042082e+17
19456.0	6.044820260782081e+17
19457.0	6.119993260026534e+17
19458.0	6.1768456316737e+17
19459.0	6.245646367457283e+17
19460.0	6.299460525096956e+17
19461.0	6.347905118677673e+17
19462.0	6.39218525073135e+17
19463.0	6.432115953150632e+17
19464.0	6.469272709278378e+17
19465.0	6.503395370904236e+17
19466.0	6.534607632946514e+17
19467.0	6.563926459635027e+17
19468.0	6.591594133542228e+17
19469.0	6.616407164147027e+17
19470.0	6.639734774300671e+17
19471.0	6.661429871159978e+17
19472.0	6.681906731723433e+17
19473.0	6.701176521228287e+17
19474.0	6.719319152350548e+17
19475.0	6.736346088822099e+17
19476.0	6.75434469872981e+17
19477.0	6.7697040701085e+17
19478.0	6.78392078934562e+17
19479.0	6.797100740946602e+17
19480.0	6.809305237946368e+17
19481.0	6.822558183019858e+17
19482.0	6.834073903300607e+17
19483.0	6.844784405293737e+17
19484.0	6.854985541222397e+17
19485.0	6.864920215115091e+17
19486.0	6.87548301119761e+17
19487.0	6.884091195206313e+17
19488.0	6.892313090807123e+17
19489.0	6.904109718306815e+17
19490.0	6.911367929921535e+17
19491.0	6.919872467785044e+17
19492.0	6.926637822814889e+17
19493.0	6.933061469995005e+17
19494.0	6.942285688908456e+17
19495.0	6.949356875109716e+17
19496.0	6.95497348227618e+17
19497.0	6.960746039956819e+17
19498.0	6.963996808009048e+17
19499.0	6.959665535516664e+17
19500.0	6.979689101568681e+17
19501.0	6.984496961639764e+17
19502.0	6.988972072195412e+17
19503.0	6.995023964230995e+17
19504.0	7.00139693023778e+17
19505.0	7.005632339116031e+17
19506.0	7.009353812934655e+17
19507.0	7.01288149103411e+17
19508.0	7.019161976132947e+17
19509.0	7.022808078308692e+17
19510.0	7.025641169179987e+17
19511.0	7.01234852991248e+17
19512.0	7.028328440878418e+17
19513.0	7.03157795133849e+17
19514.0	7.03576357173111e+17
19515.0	7.041552618618879e+17
19516.0	7.044149254903123e+17
19517.0	7.046331863050922e+17
19518.0	7.049141400808105e+17
19519.0	7.052707892996777e+17
19520.0	7.054574702209705e+17
19521.0	7.05637915889937e+17
19522.0	7.058058092653225e+17
19523.0	7.059671553321641e+17
19524.0	7.061147103876436e+17
19525.0	7.063841267515391e+17
19526.0	7.065294484799487e+17
19527.0	7.066456413263187e+17
19528.0	7.067562469403305e+17
19529.0	7.068627749918035e+17
19530.0	7.069643193712639e+17
19531.0	7.070607097899689e+17
19532.0	7.071524705359186e+17
19533.0	7.073503083058514e+17
19534.0	7.074327716779347e+17
19535.0	7.075088309070506e+17
19536.0	7.075794682991956e+17
19537.0	7.076487035355135e+17
19538.0	7.07704700010496e+17
19539.0	7.077512840478719e+17
19540.0	7.078250333339647e+17
19541.0	7.07877581112388e+17
19542.0	7.07954890244096e+17
19543.0	7.081439658333523e+17
19544.0	7.082108841361408e+17
19545.0	7.082183848099837e+17
19546.0	7.08231924023296e+17
19547.0	7.08288941531682e+17
19548.0	7.085202992005123e+17
19549.0	7.085700300843689e+17
19550.0	7.085878242792787e+17
19551.0	7.085969091417428e+17
19552.0	7.086024653362516e+17
19553.0	7.086218396652882e+17
19554.0	7.088152562193747e+17
19555.0	7.08813047079458e+17
19556.0	7.088077012991999e+17
19557.0	7.087983776410281e+17
19558.0	7.087864421897556e+17
19559.0	7.088042011525119e+17
19560.0	7.088624670255785e+17
19561.0	7.089437726299475e+17
19562.0	7.089235064520704e+17
19563.0	7.088991952874153e+17
19564.0	7.08872469881378e+17
19565.0	7.088430232109055e+17
19566.0	7.088097172215123e+17
19567.0	7.087750430501544e+17
19568.0	7.088530343155027e+17
19569.0	7.08838495879168e+17
19570.0	7.087981863807658e+17
19571.0	7.087556464913065e+17
19572.0	7.087098199452329e+17
19573.0	7.086650532997802e+17
19574.0	7.086130692358143e+17
19575.0	7.085693188702207e+17
19576.0	7.085202849398781e+17
19577.0	7.085728985688745e+17
19578.0	7.085179688452093e+17
19579.0	7.084631083275603e+17
19580.0	7.084067359031293e+17
19581.0	7.083494345801727e+17
19582.0	7.082907466203135e+17
19583.0	7.082300079254185e+17
19584.0	7.08167701120068e+17
19585.0	7.0809807777082e+17
19586.0	7.080307042462377e+17
19587.0	7.079695901611348e+17
19588.0	7.079643865677824e+17
19589.0	7.0791463974557e+17
19590.0	7.078557159260159e+17
19591.0	7.077894915009194e+17
19592.0	7.077178958501203e+17
19593.0	7.076439424412329e+17
19594.0	7.075578318422012e+17
19595.0	7.074938249456298e+17
19596.0	7.073637901970089e+17
19597.0	7.073386759629481e+17
19598.0	7.07246971560482e+17
19599.0	7.071810130542591e+17
19600.0	7.071000657832617e+17
19601.0	7.070145184792577e+17
19602.0	7.069623284749651e+17
19603.0	7.068746164906665e+17
19604.0	7.068112878130516e+17
19605.0	7.067190314401791e+17
19606.0	7.066478715775658e+17
19607.0	7.065610293521066e+17
19608.0	7.064725664475817e+17
19609.0	7.063815634725545e+17
19610.0	7.062938811280041e+17
19611.0	7.062031650433705e+17
19612.0	7.061128469981865e+17
19613.0	7.060209088331775e+17
19614.0	7.059258629685247e+17
19615.0	7.058338974007293e+17
19616.0	7.057302437057876e+17
19617.0	7.056444771794943e+17
19618.0	7.055231312112297e+17
19619.0	7.054200464037203e+17
19620.0	7.053283654893565e+17
19621.0	7.052580918831786e+17
19622.0	7.051617242535252e+17
19623.0	7.050864467028649e+17
19624.0	7.049971534659581e+17
19625.0	7.048966076104704e+17
19626.0	7.047945571183274e+17
19627.0	7.046875720275284e+17
19628.0	7.045600956645375e+17
19629.0	7.044476607747411e+17
19630.0	7.040906281265833e+17
19631.0	7.032837518305962e+17
19632.0	7.041137687308969e+17
19633.0	7.040619309083305e+17
19634.0	7.039732248739839e+17
19635.0	7.038714903527424e+17
19636.0	7.037710518714365e+17
19637.0	7.036454727319551e+17
19638.0	7.035638717087743e+17
19639.0	7.034585537839103e+17
19640.0	7.033754665091072e+17
19641.0	7.032894597890048e+17
19642.0	7.032128436961279e+17
19643.0	7.031056233048745e+17
19644.0	7.029950100013055e+17
19645.0	7.028802047006036e+17
19646.0	7.027827891240959e+17
19647.0	7.026759459405823e+17
19648.0	7.025675600920575e+17
19649.0	7.024586853974015e+17
19650.0	7.023496783724543e+17
19651.0	7.022402554822655e+17
19652.0	7.021305184387071e+17
19653.0	7.020566245889363e+17
19654.0	7.019623378234025e+17
19655.0	7.018515977120425e+17
19656.0	7.017525382479872e+17
19657.0	7.01648539361826e+17
19658.0	7.015371796818602e+17
19659.0	7.014254945239039e+17
19660.0	7.013136457880916e+17
19661.0	7.012013491006121e+17
19662.0	7.010885855870975e+17
19663.0	7.009728487314771e+17
19664.0	7.008596754344618e+17
19665.0	7.007495450350932e+17
19666.0	7.006357469265919e+17
