# Flux units: erg / (cm m2 s)
# Wavelength units: Angstrom
wave	flux
19000.0	5.942026591797247e+17
19001.0	5.940673359730004e+17
19002.0	5.939815055534761e+17
19003.0	5.938691501457405e+17
19004.0	5.937576138855763e+17
19005.0	5.936466942580052e+17
19006.0	5.935356804683092e+17
19007.0	5.933922914052778e+17
19008.0	5.932978639907498e+17
19009.0	5.931719199468201e+17
19010.0	5.929834308610729e+17
19011.0	5.929683770146815e+17
19012.0	5.928089191535956e+17
19013.0	5.927576207185235e+17
19014.0	5.926320433266687e+17
19015.0	5.92527093731601e+17
19016.0	5.924128714391551e+17
19017.0	5.922975187118761e+17
19018.0	5.921977975264596e+17
19019.0	5.9208926508701e+17
19020.0	5.919698387817812e+17
19021.0	5.918650453546323e+17
19022.0	5.917590815069524e+17
19023.0	5.916392671586985e+17
19024.0	5.915333806260223e+17
19025.0	5.914220870762496e+17
19026.0	5.913065394536447e+17
19027.0	5.911651962322943e+17
19028.0	5.910951047288148e+17
19029.0	5.909800229535744e+17
19030.0	5.908761512946346e+17
19031.0	5.907672651355476e+17
19032.0	5.906558528869716e+17
19033.0	5.905219035944275e+17
19034.0	5.904307064231252e+17
19035.0	5.903101765965139e+17
19036.0	5.870103062467928e+17
19037.0	5.900993272567124e+17
19038.0	5.899866094611113e+17
19039.0	5.898812279226368e+17
19040.0	5.897720838837588e+17
19041.0	5.896589409954474e+17
19042.0	5.895282560598015e+17
19043.0	5.89440234955298e+17
19044.0	5.893272185951572e+17
19045.0	5.892186297423187e+17
19046.0	5.890934300475391e+17
19047.0	5.889917032857599e+17
19048.0	5.888380625747967e+17
19049.0	5.887599831591593e+17
19050.0	5.886557678469119e+17
19051.0	5.881291812984145e+17
19052.0	5.883378542138707e+17
19053.0	5.883292684735828e+17
19054.0	5.882240543577428e+17
19055.0	5.880516058284032e+17
19056.0	5.880003172499455e+17
19057.0	5.878936330305535e+17
19058.0	5.877753277928788e+17
19059.0	5.876748356943871e+17
19060.0	5.875603375565481e+17
19061.0	5.874565965501779e+17
19062.0	5.873450971299839e+17
19063.0	5.872357531626154e+17
19064.0	5.87091954106368e+17
19065.0	5.869708853815978e+17
19066.0	5.86892039037474e+17
19067.0	5.867919527378943e+17
19068.0	5.866855602323455e+17
19069.0	5.865762642198527e+17
19070.0	5.86459253973538e+17
19071.0	5.863541095530495e+17
19072.0	5.86246240932113e+17
19073.0	5.861354120413183e+17
19074.0	5.860279348887551e+17
19075.0	5.859181928120319e+17
19076.0	5.858033800314879e+17
19077.0	5.856945881743359e+17
19078.0	5.855763578748927e+17
19079.0	5.854777091730089e+17
19080.0	5.85364247937024e+17
19081.0	5.852491068822868e+17
19082.0	5.851376663920639e+17
19083.0	5.850113341652991e+17
19084.0	5.848704246349823e+17
19085.0	5.848175267020799e+17
19086.0	5.846152162661716e+17
19087.0	5.845057396189868e+17
19088.0	5.844677620137984e+17
19089.0	5.842907905567401e+17
19090.0	5.842656285775188e+17
19091.0	5.841556898578432e+17
19092.0	5.840194288746495e+17
19093.0	5.839442352799743e+17
19094.0	5.838351151486292e+17
19095.0	5.837261692207101e+17
19096.0	5.836105650449065e+17
19097.0	5.835065065297235e+17
19098.0	5.833973398416042e+17
19099.0	5.832873506504704e+17
19100.0	5.831738589358761e+17
19101.0	5.830674027468116e+17
19102.0	5.829369889030143e+17
19103.0	5.828506434928639e+17
19104.0	5.827432751824895e+17
19105.0	5.826325447180287e+17
19106.0	5.825072351324842e+17
19107.0	5.824106633101311e+17
19108.0	5.823064498853204e+17
19109.0	5.819167533258066e+17
19110.0	5.820752320965289e+17
19111.0	5.819784455258111e+17
19112.0	5.818701741817855e+17
19113.0	5.817609389867007e+17
19114.0	5.816508015968255e+17
19115.0	5.815258251788288e+17
19116.0	5.814286077132799e+17
19117.0	5.813180039167999e+17
19118.0	5.811787832229887e+17
19119.0	5.801744827853472e+17
19120.0	5.809708861838676e+17
19121.0	5.808707562635261e+17
19122.0	5.807814211534847e+17
19123.0	5.806708863533055e+17
19124.0	5.805492827848701e+17
19125.0	5.804498338796884e+17
19126.0	5.803404170013354e+17
19127.0	5.79794993553954e+17
19128.0	5.799184463910227e+17
19129.0	5.800001141036372e+17
19130.0	5.799048576849238e+17
19131.0	5.797947102287187e+17
19132.0	5.796921850811731e+17
19133.0	5.794542013207894e+17
19134.0	5.793859861392042e+17
19135.0	5.793661237329919e+17
19136.0	5.792601939989844e+17
19137.0	5.791112596466346e+17
19138.0	5.790212313579519e+17
19139.0	5.789339334213631e+17
19140.0	5.788263571434154e+17
19141.0	5.787177362740564e+17
19142.0	5.786024452729513e+17
19143.0	5.784866759114751e+17
19144.0	5.78381024469538e+17
19145.0	5.78281089863953e+17
19146.0	5.780261134401536e+17
19147.0	5.780368623228244e+17
19148.0	5.779568994549759e+17
19149.0	5.778480637673471e+17
19150.0	5.777396791771136e+17
19151.0	5.77632932532497e+17
19152.0	5.775198027164329e+17
19153.0	5.774132252420777e+17
19154.0	5.772772257737386e+17
19155.0	5.772010494536361e+17
19156.0	5.770931683895978e+17
19157.0	5.769807688717652e+17
19158.0	5.766760352098984e+17
19159.0	5.767647683674112e+17
19160.0	5.766523436138495e+17
19161.0	5.765351438548991e+17
19162.0	5.7600799911444506e+17
19163.0	5.7631687989439136e+17
19164.0	5.7622937888358394e+17
19165.0	5.761112491775316e+17
19166.0	5.759756578848767e+17
19167.0	5.7586382515732474e+17
19168.0	5.757722710507519e+17
19169.0	5.7566762281642656e+17
19170.0	5.755814847447039e+17
19171.0	5.754475058124116e+17
19172.0	5.75362980450577e+17
19173.0	5.752570874167294e+17
19174.0	5.751210123810131e+17
19175.0	5.7498581758989645e+17
19176.0	5.7487729437791565e+17
19177.0	5.7473206576305485e+17
19178.0	5.746519521099775e+17
19179.0	5.745208032843092e+17
19180.0	5.74414230982929e+17
19181.0	5.7431420501142176e+17
19182.0	5.74215764976162e+17
19183.0	5.7411966368481274e+17
19184.0	5.739931069229737e+17
19185.0	5.7390461032420685e+17
19186.0	5.7380150580346874e+17
19187.0	5.736742289495381e+17
19188.0	5.7358334698018106e+17
19189.0	5.734700487628115e+17
19190.0	5.7336094317172045e+17
19191.0	5.73252547256866e+17
19192.0	5.731543795717462e+17
19193.0	5.730334709994837e+17
19194.0	5.729298428198911e+17
19195.0	5.7283153343720096e+17
19196.0	5.727228424530602e+17
19197.0	5.726171155136511e+17
19198.0	5.7251030707295565e+17
19199.0	5.69928401603788e+17
19200.0	5.7052203200457485e+17
19201.0	5.7218898018522445e+17
19202.0	5.72083449958673e+17
19203.0	5.719699990686377e+17
19204.0	5.7183483489594016e+17
19205.0	5.7173109340023456e+17
19206.0	5.7162134475243514e+17
19207.0	5.714898415080787e+17
19208.0	5.713634270729555e+17
19209.0	5.7130056431261005e+17
19210.0	5.711955842389332e+17
19211.0	5.710914219147264e+17
19212.0	5.7098427869866656e+17
19213.0	5.708376897312083e+17
19214.0	5.707094751707135e+17
19215.0	5.70653019279633e+17
19216.0	5.7055215367837005e+17
19217.0	5.704474207191039e+17
19218.0	5.70131988506214e+17
19219.0	5.701963884789758e+17
19220.0	5.7012030778900474e+17
19221.0	5.6993879425024006e+17
19222.0	5.699094590783487e+17
19223.0	5.698011859866964e+17
19224.0	5.6968164287010125e+17
19225.0	5.6955268668675405e+17
19226.0	5.694801081707177e+17
19227.0	5.6937302486330003e+17
19228.0	5.692717433268905e+17
19229.0	5.691650556122453e+17
19230.0	5.6904795581754016e+17
19231.0	5.689426069946366e+17
19232.0	5.688361301136724e+17
19233.0	5.687197238471337e+17
19234.0	5.686244912660479e+17
19235.0	5.6851513520510285e+17
19236.0	5.6841743078085965e+17
19237.0	5.683059048666452e+17
19238.0	5.681779485354666e+17
19239.0	5.680965080842239e+17
19240.0	5.6794557975975245e+17
19241.0	5.678615207346175e+17
19242.0	5.6776931700026016e+17
19243.0	5.676265423328596e+17
19244.0	5.675628689533609e+17
19245.0	5.6745539655434234e+17
19246.0	5.6734512005338445e+17
19247.0	5.672399301946025e+17
19248.0	5.6713594053591034e+17
19249.0	5.670276978529621e+17
19250.0	5.6691784329898656e+17
19251.0	5.667778484764671e+17
19252.0	5.666411220653397e+17
19253.0	5.6659641672663034e+17
19254.0	5.664884436675242e+17
19255.0	5.663459957364051e+17
19256.0	5.6626342359203834e+17
19257.0	5.66173947273762e+17
19258.0	5.6606818006903443e+17
19259.0	5.659451454739796e+17
19260.0	5.657979661582334e+17
19261.0	5.657442011228841e+17
19262.0	5.6562669832546976e+17
19263.0	5.6551601029338445e+17
19264.0	5.652933553160189e+17
19265.0	5.652711429111807e+17
19266.0	5.651713070814549e+17
19267.0	5.651077599505066e+17
19268.0	5.64999103848994e+17
19269.0	5.6489213777237325e+17
19270.0	5.647849642874196e+17
19271.0	5.6459457713930246e+17
19272.0	5.645635745917611e+17
19273.0	5.6322018166265075e+17
19274.0	5.636255687639031e+17
19275.0	5.6425259819772576e+17
19276.0	5.641406631990613e+17
19277.0	5.640339166243498e+17
19278.0	5.639276649076053e+17
19279.0	5.638086530695167e+17
19280.0	5.636928967802879e+17
19281.0	5.6360556200372896e+17
19282.0	5.6350321245771085e+17
19283.0	5.633518893793279e+17
19284.0	5.6321480365615763e+17
19285.0	5.631293919679828e+17
19286.0	5.6306561890385914e+17
19287.0	5.6296760151463245e+17
19288.0	5.618443475397277e+17
19289.0	5.608001894700352e+17
19290.0	5.626464909830825e+17
19291.0	5.62473151234048e+17
19292.0	5.6243076094143136e+17
19293.0	5.6232234461429754e+17
19294.0	5.6221424852227405e+17
19295.0	5.6210947935218336e+17
19296.0	5.6200019885861536e+17
19297.0	5.618860076739241e+17
19298.0	5.6177923628291405e+17
19299.0	5.6167872775673165e+17
19300.0	5.6157053505590605e+17
19301.0	5.614615134207999e+17
19302.0	5.6134908663999136e+17
19303.0	5.612258226165077e+17
19304.0	5.6112572065819296e+17
19305.0	5.610260087002453e+17
19306.0	5.609198047985664e+17
19307.0	5.6080005203667616e+17
19308.0	5.606963649271124e+17
19309.0	5.60503626871603e+17
19310.0	5.603648890120873e+17
19311.0	5.603609632134485e+17
19312.0	5.602689534656511e+17
19313.0	5.601509326017877e+17
19314.0	5.5794584067768506e+17
19315.0	5.579160284736181e+17
19316.0	5.598312637923328e+17
19317.0	5.597277378838526e+17
19318.0	5.5961757134356474e+17
19319.0	5.595115848466431e+17
19320.0	5.593998433452031e+17
19321.0	5.592932715331583e+17
19322.0	5.591480375356075e+17
19323.0	5.590324706192041e+17
19324.0	5.589618609793706e+17
19325.0	5.5877257231947085e+17
19326.0	5.587433101284692e+17
19327.0	5.5863059764565325e+17
19328.0	5.5852367749666125e+17
19329.0	5.584138534911999e+17
19330.0	5.5829325977135776e+17
19331.0	5.581807647632042e+17
19332.0	5.5807824870331725e+17
19333.0	5.579636010385407e+17
19334.0	5.5785346980031136e+17
19335.0	5.577449086298794e+17
19336.0	5.576319249853098e+17
19337.0	5.575199379073706e+17
19338.0	5.57355405357875e+17
19339.0	5.57295250580002e+17
19340.0	5.571648808463018e+17
19341.0	5.570610193235967e+17
19342.0	5.56853182682453e+17
19343.0	5.568413564927999e+17
19344.0	5.5672542886625274e+17
19345.0	5.561570675392504e+17
19346.0	5.562523303193255e+17
19347.0	5.563658046275583e+17
19348.0	5.5626893542905165e+17
19349.0	5.561357409714175e+17
19350.0	5.559600164110335e+17
19351.0	5.558421021523967e+17
19352.0	5.557153299431424e+17
19353.0	5.5561736910711456e+17
19354.0	5.5549972020811085e+17
19355.0	5.553564815108777e+17
19356.0	5.55262151823633e+17
19357.0	5.551415381109417e+17
19358.0	5.5500524720837965e+17
19359.0	5.54836602982673e+17
19360.0	5.547680040222719e+17
19361.0	5.5463134576858445e+17
19362.0	5.545146795950079e+17
19363.0	5.5439035734862496e+17
19364.0	5.54265190998562e+17
19365.0	5.541407288022357e+17
19366.0	5.5401599439557965e+17
19367.0	5.538893451493375e+17
19368.0	5.5376289058870605e+17
19369.0	5.535919688559273e+17
19370.0	5.533586457362431e+17
19371.0	5.5336164431407776e+17
19372.0	5.532429042668884e+17
19373.0	5.531036400222207e+17
19374.0	5.529747926111572e+17
19375.0	5.528156658903721e+17
19376.0	5.526181631754239e+17
19377.0	5.5247749348939085e+17
19378.0	5.5233887502772896e+17
19379.0	5.5219760891166714e+17
19380.0	5.5205514651019936e+17
19381.0	5.519092676384085e+17
19382.0	5.517456973321555e+17
19383.0	5.5158615991910394e+17
19384.0	5.514638358391467e+17
19385.0	5.5131182300747085e+17
19386.0	5.511573896429567e+17
19387.0	5.5091395797101216e+17
19388.0	5.507309842552147e+17
19389.0	5.50568459309329e+17
19390.0	5.504002724724734e+17
19391.0	5.4745513929823245e+17
19392.0	5.499277519006373e+17
19393.0	5.498806172909568e+17
19394.0	5.495782154523989e+17
19395.0	5.493797727240191e+17
19396.0	5.4918884765641376e+17
19397.0	5.490025433137151e+17
19398.0	5.4876468943694496e+17
19399.0	5.482738288514388e+17
19400.0	5.482082425896958e+17
19401.0	5.4801280703747405e+17
19402.0	5.476670977518249e+17
19403.0	5.473780603639124e+17
19404.0	5.4714161675195725e+17
19405.0	5.4669734139221325e+17
19406.0	5.464279071326207e+17
19407.0	5.4599498183912083e+17
19408.0	5.454621203322199e+17
19409.0	5.4511389914781005e+17
19410.0	5.447441225962836e+17
19411.0	5.4432086195787085e+17
19412.0	5.4397577510693536e+17
19413.0	5.435751897847124e+17
19414.0	5.431965662576639e+17
19415.0	5.4281333472843085e+17
19416.0	5.423574695280639e+17
19417.0	5.4193718691539616e+17
19418.0	5.4153738578821114e+17
19419.0	5.4105862535031456e+17
19420.0	5.405303446525269e+17
19421.0	5.399630256799743e+17
19422.0	5.3939797813275296e+17
19423.0	5.38817752867362e+17
19424.0	5.380998799119701e+17
19425.0	5.3741797444157434e+17
19426.0	5.366187081509545e+17
19427.0	5.3577395253630285e+17
19428.0	5.34826004320529e+17
19429.0	5.3377953483980794e+17
19430.0	5.3247780987426144e+17
19431.0	5.3064002636349466e+17
19432.0	5.294635434551975e+17
19433.0	5.2735106246246355e+17
19434.0	5.247766811552419e+17
19435.0	5.227428829287763e+17
19436.0	5.208236397428734e+17
19437.0	5.190840165072894e+17
19438.0	5.130219440570384e+17
19439.0	5.14276968103936e+17
19440.0	5.1191540263594624e+17
19441.0	5.08793048932898e+17
19442.0	5.048190115337562e+17
19443.0	4.990691333636107e+17
19444.0	4.927109267630759e+17
19445.0	4.871708916492973e+17
19446.0	4.80346540028723e+17
19447.0	4.7053821374190906e+17
19448.0	4.581828488156507e+17
19449.0	4.3983216036194963e+17
19450.0	4.0170150648872736e+17
19451.0	3.90864801523302e+17
19452.0	4.2202926961131565e+17
19453.0	4.507886461911052e+17
19454.0	4.6409094522033446e+17
19455.0	4.755117564406444e+17
19456.0	4.832245135179777e+17
19457.0	4.891106375019175e+17
19458.0	4.909651130843162e+17
19459.0	5.006064117699948e+17
19460.0	5.05394836764535e+17
19461.0	5.086866846689961e+17
19462.0	5.11334146969873e+17
19463.0	5.136502493282301e+17
19464.0	5.156693851067732e+17
19465.0	5.1753591616744115e+17
19466.0	5.190992972655271e+17
19467.0	5.2072253359827654e+17
19468.0	5.229235808152231e+17
19469.0	5.248931919997607e+17
19470.0	5.267650424864764e+17
19471.0	5.2810145798116685e+17
19472.0	5.291975484549802e+17
19473.0	5.301157968041301e+17
19474.0	5.3090370778562554e+17
19475.0	5.3136285789498003e+17
19476.0	5.32203078628147e+17
19477.0	5.327121252963669e+17
19478.0	5.332235720851455e+17
19479.0	5.336636228719957e+17
19480.0	5.340262260452011e+17
19481.0	5.343648510814889e+17
19482.0	5.347466769596415e+17
19483.0	5.350395032720725e+17
19484.0	5.3528888994693114e+17
19485.0	5.3551132619134285e+17
19486.0	5.357254321285802e+17
19487.0	5.359262518389417e+17
19488.0	5.361029976424447e+17
19489.0	5.3621888115889485e+17
19490.0	5.361352256258045e+17
19491.0	5.3658037340078074e+17
19492.0	5.368330435166207e+17
19493.0	5.3704900298670074e+17
19494.0	5.3726338197312845e+17
19495.0	5.3745209957853856e+17
19496.0	5.375186276013396e+17
19497.0	5.3771511396652365e+17
19498.0	5.3730988757701926e+17
19499.0	5.3365801327001594e+17
19500.0	5.38033060524851e+17
19501.0	5.3814660452843514e+17
19502.0	5.3815592923518285e+17
19503.0	5.381625294618623e+17
19504.0	5.382651895261866e+17
19505.0	5.383002551659178e+17
19506.0	5.3829137994874874e+17
19507.0	5.3827076424553805e+17
19508.0	5.382562542605652e+17
19509.0	5.3831567160989005e+17
19510.0	5.3827567346865485e+17
19511.0	5.338132464183969e+17
19512.0	5.374270326702079e+17
19513.0	5.369335507146054e+17
19514.0	5.371964208884382e+17
19515.0	5.379939858994518e+17
19516.0	5.381018873757696e+17
19517.0	5.381281182733651e+17
19518.0	5.380911370250922e+17
19519.0	5.380349137780735e+17
19520.0	5.379739012650326e+17
19521.0	5.3792446377274016e+17
19522.0	5.3785499407482874e+17
19523.0	5.3780490234101754e+17
19524.0	5.377419221401598e+17
19525.0	5.3766861011025914e+17
19526.0	5.3761070459781114e+17
19527.0	5.3754256652151456e+17
19528.0	5.37475266257442e+17
19529.0	5.374047995035646e+17
19530.0	5.373859718321491e+17
19531.0	5.3734707714239136e+17
19532.0	5.3727366801435296e+17
19533.0	5.372010862826836e+17
19534.0	5.3712484061675514e+17
19535.0	5.370454414633642e+17
19536.0	5.369634873496917e+17
19537.0	5.3689562316144634e+17
19538.0	5.367810191873365e+17
19539.0	5.366144978386946e+17
19540.0	5.36652620566801e+17
19541.0	5.365789068623871e+17
19542.0	5.364971400942932e+17
19543.0	5.3641499856513696e+17
19544.0	5.363342830993407e+17
19545.0	5.3612082895694496e+17
19546.0	5.359601618081109e+17
19547.0	5.3608462763950086e+17
19548.0	5.360003724607487e+17
19549.0	5.358929081008126e+17
19550.0	5.358322290349396e+17
19551.0	5.357475626745855e+17
19552.0	5.3566130709244576e+17
19553.0	5.3556843352773965e+17
19554.0	5.3547903801972045e+17
19555.0	5.3539804559005005e+17
19556.0	5.353140113113088e+17
19557.0	5.352258981418324e+17
19558.0	5.351376637569706e+17
19559.0	5.3504563660281165e+17
19560.0	5.349549145063423e+17
19561.0	5.348657061341866e+17
19562.0	5.347820935228073e+17
19563.0	5.3469452875857914e+17
19564.0	5.3460476575962445e+17
19565.0	5.3451424072553805e+17
19566.0	5.344175332174505e+17
19567.0	5.343343886204928e+17
19568.0	5.3423704721326074e+17
19569.0	5.3414842590385485e+17
19570.0	5.340630606326442e+17
19571.0	5.340223082856446e+17
19572.0	5.33934517588241e+17
19573.0	5.338449550071125e+17
19574.0	5.3373834831243936e+17
19575.0	5.336672231227391e+17
19576.0	5.3357600994317645e+17
19577.0	5.334664852712105e+17
19578.0	5.3337825983419725e+17
19579.0	5.33293026194227e+17
19580.0	5.332002751031977e+17
19581.0	5.3311175075211936e+17
19582.0	5.3302300410292896e+17
19583.0	5.3293025350123514e+17
19584.0	5.328329390773588e+17
19585.0	5.327173274217129e+17
19586.0	5.326120632538452e+17
19587.0	5.325379837362174e+17
19588.0	5.3234905620589235e+17
19589.0	5.3235924249258656e+17
19590.0	5.32266060157201e+17
19591.0	5.3220222222117523e+17
19592.0	5.3211049349174605e+17
19593.0	5.320119267885055e+17
19594.0	5.318638438099625e+17
19595.0	5.3181375417330323e+17
19596.0	5.3129739473605984e+17
19597.0	5.316076516671488e+17
19598.0	5.314643928372564e+17
19599.0	5.3145210555378336e+17
19600.0	5.3135970580561914e+17
19601.0	5.3124870229196794e+17
19602.0	5.3115512632115194e+17
19603.0	5.309429595504638e+17
19604.0	5.309605126427989e+17
19605.0	5.308145484868266e+17
19606.0	5.307904288620543e+17
19607.0	5.306979778035712e+17
19608.0	5.306003670521171e+17
19609.0	5.3049580319320723e+17
19610.0	5.304155173639509e+17
19611.0	5.3031876966045e+17
19612.0	5.3022717801485645e+17
19613.0	5.301293180518398e+17
19614.0	5.3002752816578554e+17
19615.0	5.29941163671552e+17
19616.0	5.2982482856837114e+17
19617.0	5.297524454369962e+17
19618.0	5.2951316612601146e+17
19619.0	5.2939276862969146e+17
19620.0	5.293040438607871e+17
19621.0	5.2937210280454816e+17
19622.0	5.292791416487935e+17
19623.0	5.2918480238455456e+17
19624.0	5.2908743860770125e+17
19625.0	5.2899447549460474e+17
19626.0	5.288971914095274e+17
19627.0	5.288043073590613e+17
19628.0	5.2864507410295456e+17
19629.0	5.285917941388628e+17
19630.0	5.2825477223546854e+17
19631.0	5.257679266119687e+17
19632.0	5.2832760877110605e+17
19633.0	5.2822145212525216e+17
19634.0	5.281393666599594e+17
19635.0	5.280346569790804e+17
19636.0	5.279463065518078e+17
19637.0	5.2775790631540045e+17
19638.0	5.277558109110271e+17
19639.0	5.276579633212073e+17
19640.0	5.2753316991467514e+17
19641.0	5.273023058455212e+17
19642.0	5.2737645449925965e+17
19643.0	5.2727748647103136e+17
19644.0	5.271716738979156e+17
19645.0	5.27026363773747e+17
19646.0	5.26998618452787e+17
19647.0	5.269039899912874e+17
19648.0	5.268077412701524e+17
19649.0	5.267117953078613e+17
19650.0	5.2661846407468365e+17
19651.0	5.2652211315234125e+17
19652.0	5.2642602346523296e+17
19653.0	5.263317055220394e+17
19654.0	5.2623526651931296e+17
19655.0	5.261387427916457e+17
19656.0	5.2604592822681594e+17
19657.0	5.2595071850468685e+17
19658.0	5.258566614472021e+17
