# Flux units: erg / (cm m2 s)
# Wavelength units: Angstrom
wave	flux
19000.0	4.5537085641195514e+17
19001.0	4.55288743334161e+17
19002.0	4.55221026365986e+17
19003.0	4.5514528485539834e+17
19004.0	4.5502962699250336e+17
19005.0	4.549722087882751e+17
19006.0	4.548958168110421e+17
19007.0	4.5483184158146554e+17
19008.0	4.547517080753492e+17
19009.0	4.546751275641513e+17
19010.0	4.545463860592638e+17
19011.0	4.5450128177233914e+17
19012.0	4.543751397572606e+17
19013.0	4.54371134476561e+17
19014.0	4.5426003274629114e+17
19015.0	4.5418012090914125e+17
19016.0	4.541168492041555e+17
19017.0	4.540569777515178e+17
19018.0	4.5396719399075834e+17
19019.0	4.538940807708672e+17
19020.0	4.538147547381759e+17
19021.0	4.537390066565118e+17
19022.0	4.5366995771719674e+17
19023.0	4.5356467222828365e+17
19024.0	4.5349021885835936e+17
19025.0	4.534215941029888e+17
19026.0	4.533450302991018e+17
19027.0	4.532489816462676e+17
19028.0	4.5317765743684256e+17
19029.0	4.5309262582251514e+17
19030.0	4.530086939546965e+17
19031.0	4.52953340186897e+17
19032.0	4.528879254022826e+17
19033.0	4.527760568134313e+17
19034.0	4.5271686798376966e+17
19035.0	4.526491206767957e+17
19036.0	4.517862165883552e+17
19037.0	4.5248652904147616e+17
19038.0	4.5240606362610336e+17
19039.0	4.5232771947997856e+17
19040.0	4.52246400733457e+17
19041.0	4.521732399781205e+17
19042.0	4.5137611655741325e+17
19043.0	4.5202083616740685e+17
19044.0	4.5195936214111565e+17
19045.0	4.518665430324564e+17
19046.0	4.5178007528843936e+17
19047.0	4.517056767240874e+17
19048.0	4.5152595079768736e+17
19049.0	4.5005109118456966e+17
19050.0	4.5148098415383885e+17
19051.0	4.511199640507727e+17
19052.0	4.51310002302703e+17
19053.0	4.512501533594964e+17
19054.0	4.511565383816532e+17
19055.0	4.5085993006530554e+17
19056.0	4.509577636042065e+17
19057.0	4.5094659032787616e+17
19058.0	4.500951686359709e+17
19059.0	4.504619478679548e+17
19060.0	4.5070871820588365e+17
19061.0	4.5062317362817696e+17
19062.0	4.505280814164649e+17
19063.0	4.504816534071978e+17
19064.0	4.503928929867092e+17
19065.0	4.5030928394048845e+17
19066.0	4.49969344199612e+17
19067.0	4.501262637378218e+17
19068.0	4.500976162919765e+17
19069.0	4.5001530671103994e+17
19070.0	4.4991227202546336e+17
19071.0	4.498419301919402e+17
19072.0	4.4949592863320704e+17
19073.0	4.497159375639893e+17
19074.0	4.4960206339877523e+17
19075.0	4.4955069463920614e+17
19076.0	4.494578310709247e+17
19077.0	4.4939062839432525e+17
19078.0	4.493117043157674e+17
19079.0	4.4922948232587936e+17
19080.0	4.491626837704704e+17
19081.0	4.490880724850004e+17
19082.0	4.4901651010901325e+17
19083.0	4.4892131674466976e+17
19084.0	4.488438613016576e+17
19085.0	4.4877547478275405e+17
19086.0	4.48274527035938e+17
19087.0	4.479595895412045e+17
19088.0	4.48155939941034e+17
19089.0	4.4843911215404365e+17
19090.0	4.483962946715646e+17
19091.0	4.4827116124678854e+17
19092.0	4.4763393748719104e+17
19093.0	4.4815780969185274e+17
19094.0	4.4808731266908154e+17
19095.0	4.479929683716778e+17
19096.0	4.479310569493845e+17
19097.0	4.478542593130496e+17
19098.0	4.4748092906755366e+17
19099.0	4.473284662569646e+17
19100.0	4.476275341131775e+17
19101.0	4.4754554700431354e+17
19102.0	4.4746135977328634e+17
19103.0	4.473819270654634e+17
19104.0	4.473256704038229e+17
19105.0	4.465637434851349e+17
19106.0	4.4715639283821216e+17
19107.0	4.4692111775935104e+17
19108.0	4.4674437943569075e+17
19109.0	4.4688191702521165e+17
19110.0	4.468463101804544e+17
19111.0	4.465585229048486e+17
19112.0	4.464545636548603e+17
19113.0	4.4662843160657914e+17
19114.0	4.464030450188284e+17
19115.0	4.464367569469439e+17
19116.0	4.4636121774161914e+17
19117.0	4.462745464340479e+17
19118.0	4.4607055869597005e+17
19119.0	4.45590165345621e+17
19120.0	4.459674562024789e+17
19121.0	4.4595852883613005e+17
19122.0	4.459337358158506e+17
19123.0	4.458700217516031e+17
19124.0	4.457827063387476e+17
19125.0	4.4571371199528954e+17
19126.0	4.456329928944297e+17
19127.0	4.4539198098636755e+17
19128.0	4.4546988235380045e+17
19129.0	4.454083998689962e+17
19130.0	4.453369624832683e+17
19131.0	4.4525876814370125e+17
19132.0	4.4516990999592954e+17
19133.0	4.451067844624383e+17
19134.0	4.45028798370065e+17
19135.0	4.4496062862677325e+17
19136.0	4.4487362086611616e+17
19137.0	4.447689195039402e+17
19138.0	4.447245240543914e+17
19139.0	4.4465722036497056e+17
19140.0	4.445831277051904e+17
19141.0	4.445018885805396e+17
19142.0	4.4441860759879674e+17
19143.0	4.443357166174208e+17
19144.0	4.4425552970383354e+17
19145.0	4.441867065578836e+17
19146.0	4.440727273253547e+17
19147.0	4.440245030354942e+17
19148.0	4.437213864875353e+17
19149.0	4.435813225988096e+17
19150.0	4.4381788476975776e+17
19151.0	4.43731369070865e+17
19152.0	4.436675701418666e+17
19153.0	4.43061496569309e+17
19154.0	4.434611187395242e+17
19155.0	4.434419023260329e+17
19156.0	4.433575760538282e+17
19157.0	4.431151619899397e+17
19158.0	4.428080842713776e+17
19159.0	4.4310482254124365e+17
19160.0	4.4303939076969805e+17
19161.0	4.42975672930577e+17
19162.0	4.428319137202176e+17
19163.0	4.428237276971007e+17
19164.0	4.4274600451768314e+17
19165.0	4.4209281695743904e+17
19166.0	4.4256316865467725e+17
19167.0	4.4252050440410445e+17
19168.0	4.4244275102569805e+17
19169.0	4.4236549145668256e+17
19170.0	4.422957403908778e+17
19171.0	4.42199160459537e+17
19172.0	4.421400957812736e+17
19173.0	4.42075129647377e+17
19174.0	4.4198663703319885e+17
19175.0	4.419106629484543e+17
19176.0	4.418447319149226e+17
19177.0	4.4175477737608525e+17
19178.0	4.4168153993489056e+17
19179.0	4.415917512108715e+17
19180.0	4.415413518248617e+17
19181.0	4.414517246514516e+17
19182.0	4.4136936907298125e+17
19183.0	4.413100605658453e+17
19184.0	4.4123894117826554e+17
19185.0	4.411565931495423e+17
19186.0	4.410839056515072e+17
19187.0	4.4100977384488954e+17
19188.0	4.409404029927423e+17
19189.0	4.4086649033850874e+17
19190.0	4.407881201876992e+17
19191.0	4.4071185375996576e+17
19192.0	4.406399250814293e+17
19193.0	4.4048825038056115e+17
19194.0	4.403801791747414e+17
19195.0	4.4041803975884794e+17
19196.0	4.403372394283008e+17
19197.0	4.4025007256371194e+17
19198.0	4.40165924339712e+17
19199.0	4.3923332909410963e+17
19200.0	4.394930511631706e+17
19201.0	4.399557376999423e+17
19202.0	4.398899453580628e+17
19203.0	4.3980589835659936e+17
19204.0	4.397448992653311e+17
19205.0	4.396630910435328e+17
19206.0	4.3958758651112096e+17
19207.0	4.3947654699636045e+17
19208.0	4.39409832047411e+17
19209.0	4.393610150324906e+17
19210.0	4.3927102400320845e+17
19211.0	4.3920785212265805e+17
19212.0	4.391320198752938e+17
19213.0	4.390467181477887e+17
19214.0	4.3896814604124154e+17
19215.0	4.3890754953325216e+17
19216.0	4.388370437723476e+17
19217.0	4.387715345459882e+17
19218.0	4.386107987503785e+17
19219.0	4.3859293290277536e+17
19220.0	4.385398747474602e+17
19221.0	4.3843117907967994e+17
19222.0	4.383682147472726e+17
19223.0	4.383031861182464e+17
19224.0	4.382229028754773e+17
19225.0	4.381529975990955e+17
19226.0	4.3809453745984845e+17
19227.0	4.380122731074902e+17
19228.0	4.379417393845589e+17
19229.0	4.3782663349207034e+17
19230.0	4.377824094497449e+17
19231.0	4.377271889909075e+17
19232.0	4.376496447684607e+17
19233.0	4.375596449311402e+17
19234.0	4.3748344645113165e+17
19235.0	4.37414224077346e+17
19236.0	4.3734450880293536e+17
19237.0	4.372494261682176e+17
19238.0	4.3717905343665485e+17
19239.0	4.3711854221284685e+17
19240.0	4.3703237967435085e+17
19241.0	4.369733593858047e+17
19242.0	4.3686849961874765e+17
19243.0	4.368136137255593e+17
19244.0	4.367399456691541e+17
19245.0	4.366742523827541e+17
19246.0	4.366025742439766e+17
19247.0	4.3653007926449485e+17
19248.0	4.364479492696747e+17
19249.0	4.363458839576575e+17
19250.0	4.3618310322913274e+17
19251.0	4.3611641085951974e+17
19252.0	4.3613720810618874e+17
19253.0	4.360710707129002e+17
19254.0	4.360044915195904e+17
19255.0	4.35910356378146e+17
19256.0	4.3583525715531085e+17
19257.0	4.357743973149353e+17
19258.0	4.3569516558417914e+17
19259.0	4.3563481856737274e+17
19260.0	4.355059202654206e+17
19261.0	4.354847524519936e+17
19262.0	4.3539905471228576e+17
19263.0	4.3531229672243194e+17
19264.0	4.352048977237332e+17
19265.0	4.351534130615636e+17
19266.0	4.3507875235321165e+17
19267.0	4.3503852373497165e+17
19268.0	4.34949438116113e+17
19269.0	4.3488400914077005e+17
19270.0	4.348107959566336e+17
19271.0	4.346919027474433e+17
19272.0	4.346646985616042e+17
19273.0	4.345873695069525e+17
19274.0	4.3449513522408096e+17
19275.0	4.344481592989012e+17
19276.0	4.3437355905843194e+17
19277.0	4.343036618910378e+17
19278.0	4.3421343248547834e+17
19279.0	4.341517694358868e+17
19280.0	4.3407749656084474e+17
19281.0	4.3400348568999245e+17
19282.0	4.339329586080425e+17
19283.0	4.338432181185193e+17
19284.0	4.337850653518506e+17
19285.0	4.336859914873513e+17
19286.0	4.336207852994559e+17
19287.0	4.3354464099587405e+17
19288.0	4.333369488485034e+17
19289.0	4.328332409700339e+17
19290.0	4.333356184152746e+17
19291.0	4.3324312401565024e+17
19292.0	4.331859016854186e+17
19293.0	4.3311053612427936e+17
19294.0	4.3304103273212576e+17
19295.0	4.329570175374677e+17
19296.0	4.325544916505951e+17
19297.0	4.3276224601347437e+17
19298.0	4.327316057838933e+17
19299.0	4.323017197529774e+17
19300.0	4.326000380870655e+17
19301.0	4.325193371615232e+17
19302.0	4.3244728461120845e+17
19303.0	4.323533455534762e+17
19304.0	4.322864963867989e+17
19305.0	4.322087909632681e+17
19306.0	4.321421840875519e+17
19307.0	4.3205545440925e+17
19308.0	4.319817398659753e+17
19309.0	4.318633683582974e+17
19310.0	4.31773728042735e+17
19311.0	4.316827689680896e+17
19312.0	4.3152253970459296e+17
19313.0	4.311447694387882e+17
19314.0	4.278706890255023e+17
19315.0	4.27846756956024e+17
19316.0	4.305050282579292e+17
19317.0	4.311731385226581e+17
19318.0	4.311846116218197e+17
19319.0	4.311262053793792e+17
19320.0	4.3097265009240704e+17
19321.0	4.307326260827477e+17
19322.0	4.3095901769564154e+17
19323.0	4.308967879955797e+17
19324.0	4.3082558437239456e+17
19325.0	4.3072563257016314e+17
19326.0	4.3067944146916685e+17
19327.0	4.30617230643473e+17
19328.0	4.299267508972208e+17
19329.0	4.3047317943965005e+17
19330.0	4.304013178699775e+17
19331.0	4.3032881128625485e+17
19332.0	4.3025037437610656e+17
19333.0	4.301908254654464e+17
19334.0	4.30073122390016e+17
19335.0	4.2878830564256595e+17
19336.0	4.2994782755444045e+17
19337.0	4.298866501353472e+17
19338.0	4.2980069787129165e+17
19339.0	4.2972912871451296e+17
19340.0	4.2962828841888416e+17
19341.0	4.291426992346464e+17
19342.0	4.2936726527672346e+17
19343.0	4.2945384004539725e+17
19344.0	4.2892675982732026e+17
19345.0	4.2889293961625594e+17
19346.0	4.2917535140195e+17
19347.0	4.2858220341602976e+17
19348.0	4.290931711453866e+17
19349.0	4.290139345911808e+17
19350.0	4.28715518459904e+17
19351.0	4.288629457289215e+17
19352.0	4.281760673518923e+17
19353.0	4.2872093778029216e+17
19354.0	4.286577998036992e+17
19355.0	4.285767332746581e+17
19356.0	4.285033305079807e+17
19357.0	4.2843747434277536e+17
19358.0	4.283628879435093e+17
19359.0	4.281602946717006e+17
19360.0	4.2772688193017146e+17
19361.0	4.28141462106931e+17
19362.0	4.280709483069438e+17
19363.0	4.279998858919934e+17
19364.0	4.279303282535082e+17
19365.0	4.278520626107733e+17
19366.0	4.277569920696318e+17
19367.0	4.277030265465515e+17
19368.0	4.2763722931131725e+17
19369.0	4.275689119285247e+17
19370.0	4.2750106046300154e+17
19371.0	4.274069641188693e+17
19372.0	4.2734667260668576e+17
19373.0	4.272599550918655e+17
19374.0	4.2718343260187296e+17
19375.0	4.271288054273365e+17
19376.0	4.2706149481731405e+17
19377.0	4.269901806742185e+17
19378.0	4.2691890532843514e+17
19379.0	4.268463811286357e+17
19380.0	4.267400701323946e+17
19381.0	4.266773297758208e+17
19382.0	4.2661573278651725e+17
19383.0	4.265356201121109e+17
19384.0	4.2644556211377485e+17
19385.0	4.2640792753274874e+17
19386.0	4.263320889939285e+17
19387.0	4.2625336414481056e+17
19388.0	4.2616839118083405e+17
19389.0	4.2606420851425274e+17
19390.0	4.259870784793257e+17
19391.0	4.251727672202569e+17
19392.0	4.2583796719725216e+17
19393.0	4.2576285259530234e+17
19394.0	4.256939274578602e+17
19395.0	4.254427100392111e+17
19396.0	4.255041236675245e+17
19397.0	4.254651825608021e+17
19398.0	4.252396820976982e+17
19399.0	4.2502894097093946e+17
19400.0	4.251095573812566e+17
19401.0	4.251646667609428e+17
19402.0	4.251001877255508e+17
19403.0	4.2502589835291296e+17
19404.0	4.2493533487103994e+17
19405.0	4.2485561974674784e+17
19406.0	4.2479483575336954e+17
19407.0	4.2450144866249344e+17
19408.0	4.245721334502743e+17
19409.0	4.24565793689873e+17
19410.0	4.244902221185023e+17
19411.0	4.244101716596053e+17
19412.0	4.2432974504154445e+17
19413.0	4.2403436866218656e+17
19414.0	4.241824019382272e+17
19415.0	4.240981265569108e+17
19416.0	4.2399656316327245e+17
19417.0	4.2392837112026445e+17
19418.0	4.238653568756394e+17
19419.0	4.237823383874217e+17
19420.0	4.236983841499818e+17
19421.0	4.2361504046339405e+17
19422.0	4.2352007883434656e+17
19423.0	4.2345576645263354e+17
19424.0	4.233701963595774e+17
19425.0	4.2327306347915936e+17
19426.0	4.2319980143138125e+17
19427.0	4.2311114307229005e+17
19428.0	4.229970143827285e+17
19429.0	4.229302083474772e+17
19430.0	4.228159381001558e+17
19431.0	4.2242110281919226e+17
19432.0	4.226218524147711e+17
19433.0	4.225111669691733e+17
19434.0	4.224116433354751e+17
19435.0	4.222521004698282e+17
19436.0	4.219617365633704e+17
19437.0	4.2192038268327245e+17
19438.0	4.214090251632644e+17
19439.0	4.215895914184702e+17
19440.0	4.216278824779774e+17
19441.0	4.2156925051207674e+17
19442.0	4.214659517950634e+17
19443.0	4.2134683048564045e+17
19444.0	4.212077447086079e+17
19445.0	4.210787103014911e+17
19446.0	4.209346686746623e+17
19447.0	4.2079490649620474e+17
19448.0	4.20649379246899e+17
19449.0	4.205324748368554e+17
19450.0	4.204008979125589e+17
19451.0	4.203321759891455e+17
19452.0	4.2027137612731725e+17
19453.0	4.2023304703945376e+17
19454.0	4.201549244923904e+17
19455.0	4.2006364595159034e+17
19456.0	4.1981752964546554e+17
19457.0	4.188643217025709e+17
19458.0	4.0988000747083424e+17
19459.0	4.1591966458183795e+17
19460.0	4.194134102725972e+17
19461.0	4.199102092236116e+17
19462.0	4.2004276642665805e+17
19463.0	4.20089039036962e+17
19464.0	4.2009156498664096e+17
19465.0	4.200832612433919e+17
19466.0	4.200674974411434e+17
19467.0	4.200413495907668e+17
19468.0	4.2001418902568954e+17
19469.0	4.1951989631112454e+17
19470.0	4.1993410655027194e+17
19471.0	4.19887791018257e+17
19472.0	4.198479745602902e+17
19473.0	4.1979370550941e+17
19474.0	4.1928172821107974e+17
19475.0	4.195829589300564e+17
19476.0	4.196323415468714e+17
19477.0	4.195718084427775e+17
19478.0	4.195258032892586e+17
19479.0	4.190320973578231e+17
19480.0	4.194095215236436e+17
19481.0	4.193253557534719e+17
19482.0	4.1926620012871674e+17
19483.0	4.192222924767232e+17
19484.0	4.1914529351379616e+17
19485.0	4.1909325177815034e+17
19486.0	4.1856112413464026e+17
19487.0	4.1895512076451834e+17
19488.0	4.1889965235240954e+17
19489.0	4.1884186302218234e+17
19490.0	4.186149524340733e+17
19491.0	4.1869201186488314e+17
19492.0	4.186298885603327e+17
19493.0	4.185479736634027e+17
19494.0	4.184785534582783e+17
19495.0	4.1841398899889485e+17
19496.0	4.182644843610111e+17
19497.0	4.182098105597951e+17
19498.0	4.180076040028159e+17
19499.0	4.178344293695487e+17
19500.0	4.1796460700412576e+17
19501.0	4.1801987080410445e+17
19502.0	4.1799620003976525e+17
19503.0	4.179394212571818e+17
19504.0	4.1786744462376954e+17
19505.0	4.177822344719018e+17
19506.0	4.1772441060857165e+17
19507.0	4.176414808997887e+17
19508.0	4.1753102767882234e+17
19509.0	4.1736383789793274e+17
19510.0	4.167178978852861e+17
19511.0	4.1283811670316314e+17
19512.0	4.1632942920826797e+17
19513.0	4.1665608020568666e+17
19514.0	4.168457777403218e+17
19515.0	4.1703012739754694e+17
19516.0	4.169555098206206e+17
19517.0	4.1695204986934605e+17
19518.0	4.167688291090429e+17
19519.0	4.1669895710747283e+17
19520.0	4.1632382142382016e+17
19521.0	4.1671003580224845e+17
19522.0	4.1656335274257056e+17
19523.0	4.164708017897475e+17
19524.0	4.161582317000031e+17
19525.0	4.164230343994027e+17
19526.0	4.163461212099925e+17
19527.0	4.1628679634507085e+17
19528.0	4.161750015759699e+17
19529.0	4.160919670095873e+17
19530.0	4.160760013215061e+17
19531.0	4.16002977370385e+17
19532.0	4.159295567080106e+17
19533.0	4.1584871380527776e+17
19534.0	4.1579830561122976e+17
19535.0	4.1573131278964045e+17
19536.0	4.156512884053333e+17
19537.0	4.155839975085396e+17
19538.0	4.1510763614262675e+17
19539.0	4.15398338599322e+17
19540.0	4.1538341156072096e+17
19541.0	4.152086621061119e+17
19542.0	4.1519215647129594e+17
19543.0	4.147310518861826e+17
19544.0	4.1506331779836576e+17
19545.0	4.1499996283644544e+17
19546.0	4.148607968783018e+17
19547.0	4.148986511010474e+17
19548.0	4.1482517381556896e+17
19549.0	4.1473757892225696e+17
19550.0	4.1466033333425485e+17
19551.0	4.1461557298025805e+17
19552.0	4.145305626170708e+17
19553.0	4.144725154070528e+17
19554.0	4.143845636483754e+17
19555.0	4.142640540243286e+17
19556.0	4.142146909809321e+17
19557.0	4.141856356390228e+17
19558.0	4.141200900620287e+17
19559.0	4.1404751804716365e+17
19560.0	4.138201393747282e+17
19561.0	4.1390797858624845e+17
19562.0	4.136985318217043e+17
19563.0	4.1377567471916365e+17
19564.0	4.136717075699028e+17
19565.0	4.136224897193301e+17
19566.0	4.1353685817972045e+17
19567.0	4.1349551177946445e+17
19568.0	4.134223944351743e+17
19569.0	4.1335589004028576e+17
19570.0	4.1328588361127245e+17
19571.0	4.132110093429419e+17
19572.0	4.131430059737087e+17
19573.0	4.1302682766759245e+17
19574.0	4.129816635419305e+17
19575.0	4.129402872223061e+17
19576.0	4.128482875408383e+17
19577.0	4.1273290524371616e+17
19578.0	4.127264900557482e+17
19579.0	4.1266582028724896e+17
19580.0	4.1258115637357216e+17
19581.0	4.124978001739774e+17
19582.0	4.124498057319764e+17
19583.0	4.123922135340372e+17
19584.0	4.1230804377927674e+17
19585.0	4.122404683688619e+17
19586.0	4.121722080286036e+17
19587.0	4.1210936861655034e+17
19588.0	4.1199504307432096e+17
19589.0	4.1197484414511763e+17
19590.0	4.118915572913493e+17
19591.0	4.118296364318719e+17
19592.0	4.117586944633514e+17
19593.0	4.116521894106452e+17
19594.0	4.11570311213875e+17
19595.0	4.1155220985610234e+17
19596.0	4.114676505204052e+17
19597.0	4.114174188366506e+17
19598.0	4.1126777396920314e+17
19599.0	4.1127249549721594e+17
19600.0	4.1119243902648314e+17
19601.0	4.1112864813656736e+17
19602.0	4.1106213325591885e+17
19603.0	4.109480161705983e+17
19604.0	4.1093062868336634e+17
19605.0	4.108263570975403e+17
19606.0	4.107770977932629e+17
19607.0	4.107228520207701e+17
19608.0	4.106208994656255e+17
19609.0	4.105769711217323e+17
19610.0	4.103105397740889e+17
19611.0	4.1012459432400237e+17
19612.0	4.103764557780308e+17
19613.0	4.102845925512534e+17
19614.0	4.1023184218794656e+17
19615.0	4.1017336324423674e+17
19616.0	4.0989946883167616e+17
19617.0	4.097259573957975e+17
19618.0	4.0989230307300685e+17
19619.0	4.0977552602999456e+17
19620.0	4.096520815116282e+17
19621.0	4.0927981997479226e+17
19622.0	4.0968671576719354e+17
19623.0	4.096030742850218e+17
19624.0	4.094949638624598e+17
19625.0	4.0948389523401376e+17
19626.0	4.0939935952622925e+17
19627.0	4.093452916621311e+17
19628.0	4.092647584388438e+17
19629.0	4.0814795865893485e+17
19630.0	4.0913961368944634e+17
19631.0	4.0858525015299366e+17
19632.0	4.0900425105626445e+17
19633.0	4.089310797452629e+17
19634.0	4.0886323659844256e+17
19635.0	4.087445874977447e+17
19636.0	4.0820819180038765e+17
19637.0	4.0813192530274925e+17
19638.0	4.085454782944594e+17
19639.0	4.0850685511598074e+17
19640.0	4.08439068033024e+17
19641.0	4.082346818360668e+17
19642.0	4.082880102443691e+17
19643.0	4.0821845693999776e+17
19644.0	4.0817192267502925e+17
19645.0	4.0809007341895674e+17
19646.0	4.074991994448546e+17
19647.0	4.0793664521939616e+17
19648.0	4.07906004570385e+17
19649.0	4.078282165190655e+17
19650.0	4.077622824796159e+17
19651.0	4.076951580966911e+17
19652.0	4.076335465671339e+17
19653.0	4.075530909384702e+17
19654.0	4.074974217590102e+17
19655.0	4.074139315514027e+17
