# Flux units: erg / (cm m2 s)
# Wavelength units: Angstrom
wave	flux
19000.0	9.001128814794067e+17
19001.0	8.999656906293247e+17
19002.0	8.998249625026559e+17
19003.0	8.996802380431356e+17
19004.0	8.995351149849256e+17
19005.0	8.993896038137855e+17
19006.0	8.99243588067874e+17
19007.0	8.99094230999586e+17
19008.0	8.989486334257834e+17
19009.0	8.987987366903807e+17
19010.0	8.986436982975145e+17
19011.0	8.985054421538131e+17
19012.0	8.983491190456317e+17
19013.0	8.982099549749248e+17
19014.0	8.980587238916093e+17
19015.0	8.979101981343743e+17
19016.0	8.977597332105898e+17
19017.0	8.976100345861459e+17
19018.0	8.974599379222528e+17
19019.0	8.973090268643327e+17
19020.0	8.971564527648765e+17
19021.0	8.970057623273472e+17
19022.0	8.968538073071616e+17
19023.0	8.967013089847977e+17
19024.0	8.965475716650323e+17
19025.0	8.963943547185834e+17
19026.0	8.962394943040169e+17
19027.0	8.960799509490345e+17
19028.0	8.959334258748073e+17
19029.0	8.957793478377472e+17
19030.0	8.956246016480595e+17
19031.0	8.95469415056452e+17
19032.0	8.953137770179241e+17
19033.0	8.95154354458897e+17
19034.0	8.949995703806633e+17
19035.0	8.948260669838675e+17
19036.0	8.941700852482045e+17
19037.0	8.945184695910395e+17
19038.0	8.943721134074537e+17
19039.0	8.942173359002964e+17
19040.0	8.940601803625812e+17
19041.0	8.939024359445842e+17
19042.0	8.937414296163667e+17
19043.0	8.935858434473983e+17
19044.0	8.934269866999807e+17
19045.0	8.932678720028671e+17
19046.0	8.931071542427647e+17
19047.0	8.929474988998653e+17
19048.0	8.927837163618301e+17
19049.0	8.92625604522803e+17
19050.0	8.925041436306089e+17
19051.0	8.922780184958291e+17
19052.0	8.921649540410025e+17
19053.0	8.920308439668052e+17
19054.0	8.918717765255167e+17
19055.0	8.91701626614579e+17
19056.0	8.915489546480298e+17
19057.0	8.913869591631186e+17
19058.0	8.912246644845222e+17
19059.0	8.910619665935017e+17
19060.0	8.908988236868265e+17
19061.0	8.907363387266388e+17
19062.0	8.90572985265903e+17
19063.0	8.904094376088915e+17
19064.0	8.902427144443219e+17
19065.0	8.900754878234621e+17
19066.0	8.899153906805416e+17
19067.0	8.897535227024724e+17
19068.0	8.895889695309821e+17
19069.0	8.894241621846696e+17
19070.0	8.892589375051094e+17
19071.0	8.891960416796672e+17
19072.0	8.890690283678377e+17
19073.0	8.889029128181078e+17
19074.0	8.887367939129343e+17
19075.0	8.885703314942633e+17
19076.0	8.884032000841043e+17
19077.0	8.882363057919315e+17
19078.0	8.880690147186003e+17
19079.0	8.879023719448575e+17
19080.0	8.877346393511251e+17
19081.0	8.875654089714345e+17
19082.0	8.87398025343795e+17
19083.0	8.872265223503871e+17
19084.0	8.870527405916157e+17
19085.0	8.868930872060588e+17
19086.0	8.867083880934056e+17
19087.0	8.865491005909676e+17
19088.0	8.863798597255167e+17
19089.0	8.862063476604927e+17
19090.0	8.860451039346685e+17
19091.0	8.858762974593021e+17
19092.0	8.857049700674217e+17
19093.0	8.855379628086612e+17
19094.0	8.853675165002409e+17
19095.0	8.851971364618237e+17
19096.0	8.850269464253779e+17
19097.0	8.848564523018922e+17
19098.0	8.846855714635775e+17
19099.0	8.845142930052438e+17
19100.0	8.843417657627985e+17
19101.0	8.841708380880895e+17
19102.0	8.839968238250668e+17
19103.0	8.838269276695208e+17
19104.0	8.836544637610665e+17
19105.0	8.834815233796777e+17
19106.0	8.833077213484371e+17
19107.0	8.831344715672234e+17
19108.0	8.829380885217279e+17
19109.0	8.827200866353152e+17
19110.0	8.825701171986431e+17
19111.0	8.824067406692352e+17
19112.0	8.822347789587798e+17
19113.0	8.820614596919295e+17
19114.0	8.81887503729732e+17
19115.0	8.817117383447892e+17
19116.0	8.815387846814377e+17
19117.0	8.813630959124476e+17
19118.0	8.811851079658152e+17
19119.0	8.80952055378739e+17
19120.0	8.808339250435411e+17
19121.0	8.806596779966464e+17
19122.0	8.804878683996157e+17
19123.0	8.803120826023935e+17
19124.0	8.801317732483071e+17
19125.0	8.79958973236292e+17
19126.0	8.797520198456659e+17
19127.0	8.795137208833362e+17
19128.0	8.793650056833705e+17
19129.0	8.79202311287603e+17
19130.0	8.790283511311016e+17
19131.0	8.788510689460221e+17
19132.0	8.786730179450195e+17
19133.0	8.784898686276947e+17
19134.0	8.783094787429714e+17
19135.0	8.781388401956179e+17
19136.0	8.779600242933756e+17
19137.0	8.777774142237353e+17
19138.0	8.776015980877139e+17
19139.0	8.774230467062441e+17
19140.0	8.772436610777085e+17
19141.0	8.770638602130772e+17
19142.0	8.768829218532012e+17
19143.0	8.767022032748543e+17
19144.0	8.765224862963026e+17
19145.0	8.76342038949615e+17
19146.0	8.76140427424563e+17
19147.0	8.7597779021114e+17
19148.0	8.757981435570858e+17
19149.0	8.756164576324265e+17
19150.0	8.754345393433256e+17
19151.0	8.752523552751616e+17
19152.0	8.750696492957695e+17
19153.0	8.748859505246207e+17
19154.0	8.747003746626216e+17
19155.0	8.745194058241364e+17
19156.0	8.743347975880701e+17
19157.0	8.741467328260777e+17
19158.0	8.739533046677501e+17
19159.0	8.737787282281814e+17
19160.0	8.735958957206188e+17
19161.0	8.734050498554537e+17
19162.0	8.731738308782761e+17
19163.0	8.730262598844413e+17
19164.0	8.728558373437439e+17
19165.0	8.726719397625856e+17
19166.0	8.724834179612672e+17
19167.0	8.722957671770792e+17
19168.0	8.72112566130005e+17
19169.0	8.719269175667372e+17
19170.0	8.717403431807656e+17
19171.0	8.715520931703464e+17
19172.0	8.713650925032787e+17
19173.0	8.711715497006417e+17
19174.0	8.709278522496339e+17
19175.0	8.707405691660969e+17
19176.0	8.705516338064042e+17
19177.0	8.703572869556905e+17
19178.0	8.701719986831357e+17
19179.0	8.699819972711764e+17
19180.0	8.697934185671336e+17
19181.0	8.696014069650774e+17
19182.0	8.694128893580628e+17
19183.0	8.692228274083155e+17
19184.0	8.690312538314067e+17
19185.0	8.688399416994473e+17
19186.0	8.686481166041085e+17
19187.0	8.68453170946594e+17
19188.0	8.682628226656937e+17
19189.0	8.680689478139901e+17
19190.0	8.678746494773928e+17
19191.0	8.676808710946816e+17
19192.0	8.674861187945811e+17
19193.0	8.672898242489001e+17
19194.0	8.670928219843241e+17
19195.0	8.668937011767977e+17
19196.0	8.666903797738154e+17
19197.0	8.664781682638847e+17
19198.0	8.662331229033812e+17
19199.0	8.657552630524586e+17
19200.0	8.656015918628864e+17
19201.0	8.656200549094739e+17
19202.0	8.654193929748476e+17
19203.0	8.652352529629183e+17
19204.0	8.650443873845245e+17
19205.0	8.648495390348626e+17
19206.0	8.646519137763325e+17
19207.0	8.644034787191468e+17
19208.0	8.641870705284436e+17
19209.0	8.639915431209641e+17
19210.0	8.637904305782784e+17
19211.0	8.635885082553e+17
19212.0	8.633856919863293e+17
19213.0	8.631785081886036e+17
19214.0	8.629739136745472e+17
19215.0	8.627737265351336e+17
19216.0	8.625704016368982e+17
19217.0	8.623644241210026e+17
19218.0	8.621395642679295e+17
19219.0	8.619458496386387e+17
19220.0	8.617456763404285e+17
19221.0	8.615320597386579e+17
19222.0	8.612653440871082e+17
19223.0	8.610313863692288e+17
19224.0	8.608211405897727e+17
19225.0	8.606096189030399e+17
19226.0	8.604027755429884e+17
19227.0	8.601911779393533e+17
19228.0	8.59980654916403e+17
19229.0	8.5976843040413e+17
19230.0	8.595548107265364e+17
19231.0	8.59342018585122e+17
19232.0	8.591273286609577e+17
19233.0	8.589094993002493e+17
19234.0	8.586942003631443e+17
19235.0	8.584759210934272e+17
19236.0	8.582580667067052e+17
19237.0	8.580383265609042e+17
19238.0	8.578153586185556e+17
19239.0	8.575750061249875e+17
19240.0	8.573220237432147e+17
19241.0	8.571005939919528e+17
19242.0	8.568778883334143e+17
19243.0	8.566488371123539e+17
19244.0	8.563878577307647e+17
19245.0	8.561089771995135e+17
19246.0	8.558831990734847e+17
19247.0	8.556572422701056e+17
19248.0	8.554304738689021e+17
19249.0	8.552030587060224e+17
19250.0	8.549747454028456e+17
19251.0	8.547420765945855e+17
19252.0	8.545054378775891e+17
19253.0	8.542853993769642e+17
19254.0	8.540541653002922e+17
19255.0	8.538151289793194e+17
19256.0	8.535880935407613e+17
19257.0	8.533552387850239e+17
19258.0	8.531204915593213e+17
19259.0	8.528819960239446e+17
19260.0	8.5264028429626e+17
19261.0	8.524110061633536e+17
19262.0	8.521683652575231e+17
19263.0	8.519139542958079e+17
19264.0	8.516638013915135e+17
19265.0	8.514305815915178e+17
19266.0	8.511905980568915e+17
19267.0	8.509514080845824e+17
19268.0	8.506453193829034e+17
19269.0	8.503229549641727e+17
19270.0	8.500768518002002e+17
19271.0	8.498229879155369e+17
19272.0	8.49581950631936e+17
19273.0	8.493005196842323e+17
19274.0	8.490569391144957e+17
19275.0	8.488362050584573e+17
19276.0	8.485857979793407e+17
19277.0	8.48330966328934e+17
19278.0	8.480724713734143e+17
19279.0	8.478112346013697e+17
19280.0	8.47547144024883e+17
19281.0	8.472844721018195e+17
19282.0	8.47018516877585e+17
19283.0	8.467497077090985e+17
19284.0	8.464759624040445e+17
19285.0	8.462102059898195e+17
19286.0	8.458322896923305e+17
19287.0	8.454759038757545e+17
19288.0	8.450466017618598e+17
19289.0	8.446196369937743e+17
19290.0	8.446469814790825e+17
19291.0	8.443632176594944e+17
19292.0	8.440926252127572e+17
19293.0	8.438105732284415e+17
19294.0	8.435266300324521e+17
19295.0	8.432406225398441e+17
19296.0	8.429525985656831e+17
19297.0	8.42662529868322e+17
19298.0	8.423704669192191e+17
19299.0	8.420762808134314e+17
19300.0	8.417762855966036e+17
19301.0	8.41243266733397e+17
19302.0	8.409301896222036e+17
19303.0	8.405968284374355e+17
19304.0	8.402939373333162e+17
19305.0	8.399880610032297e+17
19306.0	8.396789877746345e+17
19307.0	8.393653852569599e+17
19308.0	8.390508588739241e+17
19309.0	8.387252901467475e+17
19310.0	8.384000882813612e+17
19311.0	8.38091148571443e+17
19312.0	8.377718153762132e+17
19313.0	8.372031101162839e+17
19314.0	8.366319785913004e+17
19315.0	8.363143503806464e+17
19316.0	8.361577115811837e+17
19317.0	8.358215932007764e+17
19318.0	8.354809244199592e+17
19319.0	8.35137184010513e+17
19320.0	8.347900806081194e+17
19321.0	8.344393701042858e+17
19322.0	8.340823762534399e+17
19323.0	8.337226856049322e+17
19324.0	8.330850753402196e+17
19325.0	8.325783024741033e+17
19326.0	8.322126746484735e+17
19327.0	8.318418538550611e+17
19328.0	8.314672566501373e+17
19329.0	8.310888424887634e+17
19330.0	8.307060616374952e+17
19331.0	8.303199131795455e+17
19332.0	8.299323130729812e+17
19333.0	8.295398417017514e+17
19334.0	8.28977418670353e+17
19335.0	8.283734175034025e+17
19336.0	8.279733505272488e+17
19337.0	8.275695110542675e+17
19338.0	8.271562423664637e+17
19339.0	8.266268937988776e+17
19340.0	8.262115314543273e+17
19341.0	8.257931686445055e+17
19342.0	8.253646388417875e+17
19343.0	8.249438974421673e+17
19344.0	8.242075500456614e+17
19345.0	8.236377429420714e+17
19346.0	8.2322187630237e+17
19347.0	8.228093354661203e+17
19348.0	8.223723380626772e+17
19349.0	8.21920495898897e+17
19350.0	8.213369853050876e+17
19351.0	8.208057655186774e+17
19352.0	8.203272158445565e+17
19353.0	8.198454771012948e+17
19354.0	8.192405336140458e+17
19355.0	8.186519509882196e+17
19356.0	8.181536641777664e+17
19357.0	8.176460446214826e+17
19358.0	8.171307464130557e+17
19359.0	8.166076107281748e+17
19360.0	8.158871468812965e+17
19361.0	8.153100497977343e+17
19362.0	8.147658396925952e+17
19363.0	8.142124415451133e+17
19364.0	8.136498219406675e+17
19365.0	8.130764043801939e+17
19366.0	8.124936813368659e+17
19367.0	8.119009838191956e+17
19368.0	8.112934177734653e+17
19369.0	8.104096844917418e+17
19370.0	8.097662444240893e+17
19371.0	8.091281783783421e+17
19372.0	8.084803115024383e+17
19373.0	8.078207917315414e+17
19374.0	8.071509724277416e+17
19375.0	8.064707864821757e+17
19376.0	8.057768658687315e+17
19377.0	8.050179545148077e+17
19378.0	8.040460689866751e+17
19379.0	8.033305422550355e+17
19380.0	8.026046699929599e+17
19381.0	8.018684407360169e+17
19382.0	8.011189506277377e+17
19383.0	8.00359945740834e+17
19384.0	7.995893754800809e+17
19385.0	7.987855908055724e+17
19386.0	7.979616536188244e+17
19387.0	7.968669015474173e+17
19388.0	7.959430101816659e+17
19389.0	7.950666530029567e+17
19390.0	7.941693138184872e+17
19391.0	7.929652332986364e+17
19392.0	7.923070099871058e+17
19393.0	7.91341808501828e+17
19394.0	7.90359115370769e+17
19395.0	7.893590018970964e+17
19396.0	7.883378556665855e+17
19397.0	7.872972231191209e+17
19398.0	7.862342399645012e+17
19399.0	7.85135805294182e+17
19400.0	7.840306470147412e+17
19401.0	7.82890705372228e+17
19402.0	7.817264753541117e+17
19403.0	7.805404538295638e+17
19404.0	7.793261045350399e+17
19405.0	7.780220025875113e+17
19406.0	7.767232508941654e+17
19407.0	7.753879245903187e+17
19408.0	7.740047274366292e+17
19409.0	7.726048934363136e+17
19410.0	7.71149431640337e+17
19411.0	7.696468296422739e+17
19412.0	7.681047465208489e+17
19413.0	7.665253247265449e+17
19414.0	7.64906158965828e+17
19415.0	7.632449546747905e+17
19416.0	7.615391449393832e+17
19417.0	7.597442838386002e+17
19418.0	7.578881371056812e+17
19419.0	7.559804667035645e+17
19420.0	7.540535419295059e+17
19421.0	7.520255818246825e+17
19422.0	7.499434296344577e+17
19423.0	7.477869061428561e+17
19424.0	7.455512373930666e+17
19425.0	7.432089850871807e+17
19426.0	7.407831507883347e+17
19427.0	7.382869363479892e+17
19428.0	7.356978622540457e+17
19429.0	7.330042069647357e+17
19430.0	7.301725130762924e+17
19431.0	7.272093745938432e+17
19432.0	7.242038971290961e+17
19433.0	7.21032716414703e+17
19434.0	7.177011372665514e+17
19435.0	7.142061908164605e+17
19436.0	7.105652177152684e+17
19437.0	7.0677366336826e+17
19438.0	7.025699555289769e+17
19439.0	6.9854085761379e+17
19440.0	6.941462565836116e+17
19441.0	6.894806947069948e+17
19442.0	6.845809224056832e+17
19443.0	6.793918285523625e+17
19444.0	6.73915035014485e+17
19445.0	6.681089905699501e+17
19446.0	6.619464219667114e+17
19447.0	6.553856102804134e+17
19448.0	6.483875549850285e+17
19449.0	6.409305312635561e+17
19450.0	6.327789570140837e+17
19451.0	6.282182673476266e+17
19452.0	6.368676766810111e+17
19453.0	6.443509885523286e+17
19454.0	6.513399375942993e+17
19455.0	6.57873863582242e+17
19456.0	6.639848881739095e+17
19457.0	6.697156314398716e+17
19458.0	6.749969397230252e+17
19459.0	6.801731748189527e+17
19460.0	6.849587001513299e+17
19461.0	6.894785389046441e+17
19462.0	6.937543884931072e+17
19463.0	6.977850118067538e+17
19464.0	7.016352353790633e+17
19465.0	7.052632250122239e+17
19466.0	7.087055413357224e+17
19467.0	7.11990544695296e+17
19468.0	7.151258126603604e+17
19469.0	7.180955289299625e+17
19470.0	7.209174484123647e+17
19471.0	7.236228098643284e+17
19472.0	7.262259639571795e+17
19473.0	7.286914017132544e+17
19474.0	7.310510498949804e+17
19475.0	7.332881774237011e+17
19476.0	7.354703229397672e+17
19477.0	7.375680236945407e+17
19478.0	7.395644675194879e+17
19479.0	7.414662808556884e+17
19480.0	7.432913732414122e+17
19481.0	7.45050356265779e+17
19482.0	7.467381265793021e+17
19483.0	7.483534356774911e+17
19484.0	7.499363644691795e+17
19485.0	7.514820421091327e+17
19486.0	7.529176859585193e+17
19487.0	7.542999177232381e+17
19488.0	7.556404381133481e+17
19489.0	7.56934789702178e+17
19490.0	7.581791974763177e+17
19491.0	7.594173596521811e+17
19492.0	7.605957626429439e+17
19493.0	7.617231412264957e+17
19494.0	7.628116416877906e+17
19495.0	7.638592686566058e+17
19496.0	7.648655239894356e+17
19497.0	7.65867046609442e+17
19498.0	7.667587376043348e+17
19499.0	7.672787179143165e+17
19500.0	7.68575805727266e+17
19501.0	7.694274479696553e+17
19502.0	7.702498725505705e+17
19503.0	7.710429212049408e+17
19504.0	7.718103573419347e+17
19505.0	7.725534642787668e+17
19506.0	7.732760877727743e+17
19507.0	7.739772775344809e+17
19508.0	7.746577911949994e+17
19509.0	7.753368189534208e+17
19510.0	7.759748075443542e+17
19511.0	7.762099607786834e+17
19512.0	7.77092058142037e+17
19513.0	7.776159321642323e+17
19514.0	7.782307595288572e+17
19515.0	7.791484075332948e+17
19516.0	7.796809072814762e+17
19517.0	7.801848666084691e+17
19518.0	7.80662119403793e+17
19519.0	7.811149265371136e+17
19520.0	7.815564470779901e+17
19521.0	7.819864295079936e+17
19522.0	7.824053754658815e+17
19523.0	7.828136583845203e+17
19524.0	7.834191992804691e+17
19525.0	7.839040356570454e+17
19526.0	7.84296047751987e+17
19527.0	7.846675280297983e+17
19528.0	7.850284399198207e+17
19529.0	7.853788896777556e+17
19530.0	7.857189259575293e+17
19531.0	7.860488720001705e+17
19532.0	7.863673010432684e+17
19533.0	7.869140526170107e+17
19534.0	7.872377167107411e+17
19535.0	7.875223377062568e+17
19536.0	7.877937926417064e+17
19537.0	7.880578718935722e+17
19538.0	7.883074793985364e+17
19539.0	7.885434940030973e+17
19540.0	7.887872030583466e+17
19541.0	7.890196313931773e+17
19542.0	7.894499237822463e+17
19543.0	7.89660254286643e+17
19544.0	7.898629276696575e+17
19545.0	7.900468116892328e+17
19546.0	7.902291660461395e+17
19547.0	7.905621652624722e+17
19548.0	7.908014037488979e+17
19549.0	7.909699447248212e+17
19550.0	7.911376704678569e+17
19551.0	7.91321882482005e+17
19552.0	7.916147135479807e+17
19553.0	7.91757104156945e+17
19554.0	7.918852871203498e+17
19555.0	7.920080510429864e+17
19556.0	7.921265486594045e+17
19557.0	7.924475693629439e+17
19558.0	7.927350138241024e+17
19559.0	7.928485330812927e+17
19560.0	7.929565105444182e+17
19561.0	7.930609115245225e+17
19562.0	7.931604612328106e+17
19563.0	7.933504721518591e+17
19564.0	7.93463547372066e+17
19565.0	7.935514627801085e+17
19566.0	7.936353144668157e+17
19567.0	7.940032971145217e+17
19568.0	7.941430911696893e+17
19569.0	7.942209071131306e+17
19570.0	7.942944352195923e+17
19571.0	7.943641343459327e+17
19572.0	7.944294691591508e+17
19573.0	7.944929173744297e+17
19574.0	7.945497404069202e+17
19575.0	7.946088749203453e+17
19576.0	7.946614247959209e+17
19577.0	7.949569863538006e+17
19578.0	7.951186560811007e+17
19579.0	7.951804690770602e+17
19580.0	7.95218297365026e+17
19581.0	7.952528898872659e+17
19582.0	7.952841097696596e+17
19583.0	7.953117920362493e+17
19584.0	7.953365985482067e+17
19585.0	7.953550880189098e+17
19586.0	7.953728483797673e+17
19587.0	7.953921604932947e+17
19588.0	7.955490411642876e+17
19589.0	7.956784659212969e+17
19590.0	7.956855418519551e+17
19591.0	7.95692678180591e+17
19592.0	7.956951820402688e+17
19593.0	7.956943833049769e+17
19594.0	7.956850474833236e+17
19595.0	7.956870530596861e+17
19596.0	7.956419198320641e+17
19597.0	7.956689684791293e+17
19598.0	7.956514519471444e+17
19599.0	7.956514206296745e+17
19600.0	7.957631008243711e+17
19601.0	7.958566869314217e+17
19602.0	7.958355347767293e+17
19603.0	7.958015883171156e+17
19604.0	7.957872243638271e+17
19605.0	7.957559616995327e+17
19606.0	7.957366389604351e+17
19607.0	7.957065318268927e+17
19608.0	7.956742113591293e+17
19609.0	7.956396460998656e+17
19610.0	7.956041645249876e+17
19611.0	7.955663779004415e+17
19612.0	7.95527148015889e+17
19613.0	7.954868358610943e+17
19614.0	7.954641652285437e+17
19615.0	7.955669613281279e+17
19616.0	7.955188504242857e+17
19617.0	7.954753985533267e+17
19618.0	7.954122024157183e+17
19619.0	7.953587731344042e+17
19620.0	7.953107554839209e+17
19621.0	7.952740477741738e+17
19622.0	7.952204763059539e+17
19623.0	7.951649207921322e+17
19624.0	7.95107536142336e+17
19625.0	7.950469969565011e+17
19626.0	7.949822310307155e+17
19627.0	7.949134368953684e+17
19628.0	7.948357648165549e+17
19629.0	7.947611856175101e+17
19630.0	7.945857216632148e+17
19631.0	7.942483252783786e+17
19632.0	7.945876353843199e+17
19633.0	7.946145294013779e+17
19634.0	7.945481012729174e+17
19635.0	7.944756218822655e+17
19636.0	7.944042158140073e+17
19637.0	7.943150208636247e+17
19638.0	7.942542136617642e+17
19639.0	7.941774051901439e+17
19640.0	7.941017191142739e+17
19641.0	7.940221661697364e+17
19642.0	7.93956786197845e+17
19643.0	7.938766162711892e+17
19644.0	7.937931798205782e+17
19645.0	7.937072540505427e+17
19646.0	7.936312346673151e+17
19647.0	7.935480251285503e+17
19648.0	7.934638467055611e+17
19649.0	7.933787992227837e+17
19650.0	7.932930821892778e+17
19651.0	7.932065351030098e+17
19652.0	7.9311920969373e+17
19653.0	7.930310939377663e+17
19654.0	7.929424044010153e+17
19655.0	7.928550946504703e+17
19656.0	7.928448144113661e+17
19657.0	7.927739411595261e+17
19658.0	7.927081597927421e+17
19659.0	7.926162642698239e+17
19660.0	7.925237333098496e+17
19661.0	7.924304665291434e+17
19662.0	7.923364142951081e+17
19663.0	7.92240308949265e+17
19664.0	7.921453801056936e+17
19665.0	7.920506500721321e+17
