# Flux units: erg / (cm m2 s)
# Wavelength units: Angstrom
wave	flux
19000.0	6.326232966758399e+17
19001.0	6.325054362441044e+17
19002.0	6.323875607128745e+17
19003.0	6.322696591769599e+17
19004.0	6.321517612062036e+17
19005.0	6.320338816204799e+17
19006.0	6.319159749814954e+17
19007.0	6.317980671541247e+17
19008.0	6.316796581074259e+17
19009.0	6.315613650332329e+17
19010.0	6.314406608633855e+17
19011.0	6.313261096676009e+17
19012.0	6.312078223955284e+17
19013.0	6.310905186178388e+17
19014.0	6.309725831080618e+17
19015.0	6.308546467594239e+17
19016.0	6.307362337281364e+17
19017.0	6.306186759154346e+17
19018.0	6.305007951413247e+17
19019.0	6.303828912985427e+17
19020.0	6.302649004239529e+17
19021.0	6.301469728833533e+17
19022.0	6.30029081903104e+17
19023.0	6.299111380746239e+17
19024.0	6.297931130863615e+17
19025.0	6.296752562197843e+17
19026.0	6.295570839415465e+17
19027.0	6.294388019822591e+17
19028.0	6.293214996725759e+17
19029.0	6.29204809032226e+17
19030.0	6.290923187776169e+17
19031.0	6.289743847358463e+17
19032.0	6.288564534203731e+17
19033.0	6.287385279769257e+17
19034.0	6.286206027431933e+17
19035.0	6.285026253602815e+17
19036.0	6.283421466755071e+17
19037.0	6.282668436094976e+17
19038.0	6.281489823389012e+17
19039.0	6.280310929664682e+17
19040.0	6.279132126117887e+17
19041.0	6.277953352630272e+17
19042.0	6.276774648348671e+17
19043.0	6.27559605731328e+17
19044.0	6.274417277534207e+17
19045.0	6.273239001071615e+17
19046.0	6.272056456904703e+17
19047.0	6.270880470532096e+17
19048.0	6.269687912464383e+17
19049.0	6.268525880541181e+17
19050.0	6.267347801210879e+17
19051.0	6.266110387159039e+17
19052.0	6.264978835243008e+17
19053.0	6.263814190268415e+17
19054.0	6.26263652827136e+17
19055.0	6.261444790190079e+17
19056.0	6.260281478305108e+17
19057.0	6.259104075655849e+17
19058.0	6.257926765281279e+17
19059.0	6.256749431138985e+17
19060.0	6.255570610115924e+17
19061.0	6.254395524120576e+17
19062.0	6.253218250096639e+17
19063.0	6.252041617801215e+17
19064.0	6.250857523139924e+17
19065.0	6.249683047415807e+17
19066.0	6.248512245901993e+17
19067.0	6.247335908605952e+17
19068.0	6.246159664283647e+17
19069.0	6.244983665328128e+17
19070.0	6.243806909300735e+17
19071.0	6.242631862452223e+17
19072.0	6.241456129835007e+17
19073.0	6.24028010151936e+17
19074.0	6.239105060962303e+17
19075.0	6.237929680666623e+17
19076.0	6.23675286032657e+17
19077.0	6.235578039271423e+17
19078.0	6.234402217874772e+17
19079.0	6.2332294135808e+17
19080.0	6.232054691790847e+17
19081.0	6.230880183910399e+17
19082.0	6.229702247885482e+17
19083.0	6.228529959490899e+17
19084.0	6.227338723328e+17
19085.0	6.226182963986431e+17
19086.0	6.224983990031699e+17
19087.0	6.223822993402537e+17
19088.0	6.222659634681171e+17
19089.0	6.221469406549332e+17
19090.0	6.22031438750242e+17
19091.0	6.219140660461567e+17
19092.0	6.217965351469055e+17
19093.0	6.216795138555904e+17
19094.0	6.215620012015615e+17
19095.0	6.214446739357695e+17
19096.0	6.213275568046077e+17
19097.0	6.212104139483817e+17
19098.0	6.210932074086399e+17
19099.0	6.20975985140258e+17
19100.0	6.208587764334591e+17
19101.0	6.207415403937791e+17
19102.0	6.206235915321343e+17
19103.0	6.205072348282879e+17
19104.0	6.203900807872511e+17
19105.0	6.202729380708351e+17
19106.0	6.201555892043776e+17
19107.0	6.200385799367337e+17
19108.0	6.199215912211796e+17
19109.0	6.198012073563476e+17
19110.0	6.196872964909737e+17
19111.0	6.195703831330815e+17
19112.0	6.194533426178729e+17
19113.0	6.193363123787092e+17
19114.0	6.192192943030271e+17
19115.0	6.191020433735679e+17
19116.0	6.189852961800191e+17
19117.0	6.188682822287359e+17
19118.0	6.187509328030378e+17
19119.0	6.185966896502099e+17
19120.0	6.185171306938365e+17
19121.0	6.184002789223082e+17
19122.0	6.182836463031635e+17
19123.0	6.181667452485631e+17
19124.0	6.180498665635839e+17
19125.0	6.179329924923391e+17
19126.0	6.178160882221055e+17
19127.0	6.176851503699284e+17
19128.0	6.175824020854099e+17
19129.0	6.174656058185044e+17
19130.0	6.173488518441641e+17
19131.0	6.172320380310867e+17
19132.0	6.171152407855103e+17
19133.0	6.169978363445247e+17
19134.0	6.168817590512297e+17
19135.0	6.167650146538836e+17
19136.0	6.166482971000831e+17
19137.0	6.165302947610623e+17
19138.0	6.164147272155136e+17
19139.0	6.162981794611199e+17
19140.0	6.161815162235561e+17
19141.0	6.160648508888404e+17
19142.0	6.159481831074474e+17
19143.0	6.158311419630931e+17
19144.0	6.157148214001663e+17
19145.0	6.155983066409642e+17
19146.0	6.154771034188457e+17
19147.0	6.153642569280169e+17
19148.0	6.152484995902121e+17
19149.0	6.151319316332543e+17
19150.0	6.150153089406292e+17
19151.0	6.148988311612074e+17
19152.0	6.147822797717503e+17
19153.0	6.146657623561556e+17
19154.0	6.145482198526634e+17
19155.0	6.144327337465172e+17
19156.0	6.143162085015551e+17
19157.0	6.141996645919402e+17
19158.0	6.140809696335187e+17
19159.0	6.139666336055295e+17
19160.0	6.138502773910185e+17
19161.0	6.137338548365993e+17
19162.0	6.136122818865834e+17
19163.0	6.135008044165801e+17
19164.0	6.133845899695444e+17
19165.0	6.132680611594237e+17
19166.0	6.131507302585684e+17
19167.0	6.130348905725951e+17
19168.0	6.129188067781289e+17
19169.0	6.128023944997546e+17
19170.0	6.126862213666132e+17
19171.0	6.125695457558527e+17
19172.0	6.124535007586986e+17
19173.0	6.123371492278271e+17
19174.0	6.122203554075988e+17
19175.0	6.121044807690922e+17
19176.0	6.119881525166079e+17
19177.0	6.11870617562863e+17
19178.0	6.117553503993855e+17
19179.0	6.116387611912873e+17
19180.0	6.115227939984724e+17
19181.0	6.114056597405695e+17
19182.0	6.112900543763796e+17
19183.0	6.111739660380841e+17
19184.0	6.110575206247082e+17
19185.0	6.109413427380223e+17
19186.0	6.108250924995924e+17
19187.0	6.107087795563176e+17
19188.0	6.105925171544063e+17
19189.0	6.104762855806292e+17
19190.0	6.103599883659945e+17
19191.0	6.102436777295872e+17
19192.0	6.10127463981602e+17
19193.0	6.100111676058282e+17
19194.0	6.098949098176512e+17
19195.0	6.097786369299795e+17
19196.0	6.096622759619242e+17
19197.0	6.095459917496319e+17
19198.0	6.094296528016724e+17
19199.0	6.09283085504785e+17
19200.0	6.091756506447872e+17
19201.0	6.090808685319508e+17
19202.0	6.089647135042218e+17
19203.0	6.088484630560767e+17
19204.0	6.087319861155156e+17
19205.0	6.086158993850367e+17
19206.0	6.084995271622655e+17
19207.0	6.083830007988223e+17
19208.0	6.082653703547561e+17
19209.0	6.081507227598847e+17
19210.0	6.080344104457556e+17
19211.0	6.079180876458665e+17
19212.0	6.078017606516733e+17
19213.0	6.076851631248724e+17
19214.0	6.075681386878294e+17
19215.0	6.074525960983892e+17
19216.0	6.07336337121826e+17
19217.0	6.072199723788969e+17
19218.0	6.070848081362943e+17
19219.0	6.067981280171348e+17
19220.0	6.06682891751697e+17
19221.0	6.065639199692116e+17
19222.0	6.064498651693053e+17
19223.0	6.063334635864063e+17
19224.0	6.062169540001791e+17
19225.0	6.06099324534784e+17
19226.0	6.059839354568703e+17
19227.0	6.058673972095657e+17
19228.0	6.057508254078292e+17
19229.0	6.056342152282111e+17
19230.0	6.05517576737041e+17
19231.0	6.054009738974547e+17
19232.0	6.052842143307092e+17
19233.0	6.051674419713364e+17
19234.0	6.050507226699092e+17
19235.0	6.049341651987114e+17
19236.0	6.04817392280098e+17
19237.0	6.047004729802751e+17
19238.0	6.045834514792447e+17
19239.0	6.044669394463402e+17
19240.0	6.043497351435603e+17
19241.0	6.042330170305193e+17
19242.0	6.041161365979135e+17
19243.0	6.039979557213524e+17
19244.0	6.038821741264895e+17
19245.0	6.037651127795711e+17
19246.0	6.036478878547968e+17
19247.0	6.035308632080383e+17
19248.0	6.034136923897856e+17
19249.0	6.032964573986815e+17
19250.0	6.031791401992191e+17
19251.0	6.030608142696447e+17
19252.0	6.029424203923455e+17
19253.0	6.028270130692095e+17
19254.0	6.027095962550271e+17
19255.0	6.025907670089727e+17
19256.0	6.024741896847359e+17
19257.0	6.023569488216063e+17
19258.0	6.022392637816831e+17
19259.0	6.02121525404194e+17
19260.0	6.020029686480895e+17
19261.0	6.018858671057577e+17
19262.0	6.017679415924052e+17
19263.0	6.016496272670719e+17
19264.0	6.015277198912169e+17
19265.0	6.014121590565546e+17
19266.0	6.012939207879338e+17
19267.0	6.011772702730921e+17
19268.0	6.01058916311586e+17
19269.0	6.009404779047593e+17
19270.0	6.008219304460288e+17
19271.0	6.007006651482111e+17
19272.0	6.00584373805602e+17
19273.0	6.004554563496617e+17
19274.0	6.003398648266751e+17
19275.0	6.002280378313386e+17
19276.0	6.00108979855906e+17
19277.0	5.9998981338781e+17
19278.0	5.998705437398356e+17
19279.0	5.997511440684374e+17
19280.0	5.996310641508351e+17
19281.0	5.99512047559202e+17
19282.0	5.993923529583273e+17
19283.0	5.992720649333418e+17
19284.0	5.991524619780095e+17
19285.0	5.9903107413661e+17
19286.0	5.989122341251753e+17
19287.0	5.987918868206932e+17
19288.0	5.986586906853375e+17
19289.0	5.985241070742185e+17
19290.0	5.984299792029012e+17
19291.0	5.9830701654016e+17
19292.0	5.981879568171005e+17
19293.0	5.980666543996928e+17
19294.0	5.979452997631999e+17
19295.0	5.978237085679615e+17
19296.0	5.976798699454459e+17
19297.0	5.973473562198015e+17
19298.0	5.972248717776212e+17
19299.0	5.97102168322867e+17
19300.0	5.969792371174057e+17
19301.0	5.968560729183571e+17
19302.0	5.967327545087316e+17
19303.0	5.966089122305363e+17
19304.0	5.964850866596521e+17
19305.0	5.963613312035498e+17
19306.0	5.962370564926121e+17
19307.0	5.961123105516202e+17
19308.0	5.959876649943039e+17
19309.0	5.95861461672482e+17
19310.0	5.957358308032512e+17
19311.0	5.956114403295231e+17
19312.0	5.954856437153791e+17
19313.0	5.95359319457792e+17
19314.0	5.951922524301994e+17
19315.0	5.950676191761748e+17
19316.0	5.949785943747242e+17
19317.0	5.948511298256895e+17
19318.0	5.947231934174548e+17
19319.0	5.945949095111338e+17
19320.0	5.944662124658687e+17
19321.0	5.943371593241939e+17
19322.0	5.942069930841427e+17
19323.0	5.940773453998762e+17
19324.0	5.938917192761344e+17
19325.0	5.935292195624276e+17
19326.0	5.93398036832802e+17
19327.0	5.932652543956308e+17
19328.0	5.931321805941417e+17
19329.0	5.929984798840148e+17
19330.0	5.928639294078976e+17
19331.0	5.927293299283284e+17
19332.0	5.925940156694527e+17
19333.0	5.924580099795625e+17
19334.0	5.923213622815402e+17
19335.0	5.921841138193748e+17
19336.0	5.920461584072701e+17
19337.0	5.919075047833599e+17
19338.0	5.917665593218388e+17
19339.0	5.916281728051882e+17
19340.0	5.912079755466067e+17
19341.0	5.909976326690132e+17
19342.0	5.908508437730643e+17
19343.0	5.907085097172991e+17
19344.0	5.90562430497587e+17
19345.0	5.904005647564799e+17
19346.0	5.902600819965951e+17
19347.0	5.901177716386474e+17
19348.0	5.899681843729748e+17
19349.0	5.898169604199764e+17
19350.0	5.893785150029825e+17
19351.0	5.890970055518889e+17
19352.0	5.88939144602146e+17
19353.0	5.887801701345961e+17
19354.0	5.886198270656511e+17
19355.0	5.884580384997376e+17
19356.0	5.882946524632404e+17
19357.0	5.879490471963306e+17
19358.0	5.874783514263551e+17
19359.0	5.873053131079679e+17
19360.0	5.871310196441087e+17
19361.0	5.869544294492841e+17
19362.0	5.867760889714004e+17
19363.0	5.863816541765632e+17
19364.0	5.861303805542399e+17
19365.0	5.859419401923242e+17
19366.0	5.857509616473428e+17
19367.0	5.855573568389119e+17
19368.0	5.853609987495252e+17
19369.0	5.85161376862481e+17
19370.0	5.849524270530559e+17
19371.0	5.847420181850793e+17
19372.0	5.845335141602643e+17
19373.0	5.8432166573725e+17
19374.0	5.841065777736362e+17
19375.0	5.838884357275647e+17
19376.0	5.836666414213801e+17
19377.0	5.834409250914303e+17
19378.0	5.832112382235988e+17
19379.0	5.82977344049425e+17
19380.0	5.827390880088063e+17
19381.0	5.824963058947412e+17
19382.0	5.822482546862762e+17
19383.0	5.819955614318591e+17
19384.0	5.817389397923155e+17
19385.0	5.814762011099135e+17
19386.0	5.812079981581652e+17
19387.0	5.809340796283561e+17
19388.0	5.806542451725652e+17
19389.0	5.803682737509716e+17
19390.0	5.800765974467924e+17
19391.0	5.797440519842474e+17
19392.0	5.794743975236947e+17
19393.0	5.791645880549375e+17
19394.0	5.788464256297641e+17
19395.0	5.785208758468607e+17
19396.0	5.78187614626338e+17
19397.0	5.778464925111636e+17
19398.0	5.774970862960639e+17
19399.0	5.771339489782441e+17
19400.0	5.767722359062527e+17
19401.0	5.7639722073893536e+17
19402.0	5.7601287261607245e+17
19403.0	5.756223821447166e+17
19404.0	5.7522345469105485e+17
19405.0	5.7481476688226976e+17
19406.0	5.743961492684799e+17
19407.0	5.7396741995670176e+17
19408.0	5.7352274096510285e+17
19409.0	5.730654981455871e+17
19410.0	5.7257689248781645e+17
19411.0	5.721054293699241e+17
19412.0	5.7162240654049274e+17
19413.0	5.711222084556116e+17
19414.0	5.706121764055721e+17
19415.0	5.7009575377414816e+17
19416.0	5.6957105920628045e+17
19417.0	5.689579560501247e+17
19418.0	5.684161977952938e+17
19419.0	5.6786837709346125e+17
19420.0	5.672703023382526e+17
19421.0	5.665855621474985e+17
19422.0	5.659779786954068e+17
19423.0	5.651743536840701e+17
19424.0	5.644441766679891e+17
19425.0	5.6356380295386445e+17
19426.0	5.625435420710225e+17
19427.0	5.614066582858414e+17
19428.0	5.599188886749181e+17
19429.0	5.5816820289262906e+17
19430.0	5.556484039507965e+17
19431.0	5.5270525622026195e+17
19432.0	5.5100136992276474e+17
19433.0	5.4939125036701e+17
19434.0	5.476608994792789e+17
19435.0	5.457632124294483e+17
19436.0	5.438070363695786e+17
19437.0	5.418187945760085e+17
19438.0	5.396092503982079e+17
19439.0	5.3732931314647046e+17
19440.0	5.346310109877588e+17
19441.0	5.31230453574315e+17
19442.0	5.259240109244436e+17
19443.0	5.1841297659112154e+17
19444.0	5.1325037081613606e+17
19445.0	5.075221305709912e+17
19446.0	5.005768848485037e+17
19447.0	4.900038520078343e+17
19448.0	4.754202709109424e+17
19449.0	4.557902047434068e+17
19450.0	4.129326500937719e+17
19451.0	3.9830668219951405e+17
19452.0	4.3702667807730374e+17
19453.0	4.6727529618909946e+17
19454.0	4.8243655276407546e+17
19455.0	4.9553218005019283e+17
19456.0	5.035069237013168e+17
19457.0	5.0948691152513664e+17
19458.0	5.145653106354858e+17
19459.0	5.205957464992427e+17
19460.0	5.2735007798941e+17
19461.0	5.312524061420199e+17
19462.0	5.3399084303646726e+17
19463.0	5.362757428488871e+17
19464.0	5.382955862065151e+17
19465.0	5.401550226019669e+17
19466.0	5.4191488943609146e+17
19467.0	5.4365282998681594e+17
19468.0	5.452520942643883e+17
19469.0	5.4670720800303763e+17
19470.0	5.480518567067647e+17
19471.0	5.502404180399441e+17
19472.0	5.528435200535208e+17
19473.0	5.547616588791809e+17
19474.0	5.560967061919063e+17
19475.0	5.5716725027853626e+17
19476.0	5.5802725393585466e+17
19477.0	5.587176502154579e+17
19478.0	5.5935376059706016e+17
19479.0	5.5989812694002336e+17
19480.0	5.603775595850409e+17
19481.0	5.607921127784447e+17
19482.0	5.612577346988715e+17
19483.0	5.61597918618146e+17
19484.0	5.619289937674238e+17
19485.0	5.6229145629163514e+17
19486.0	5.626472807006207e+17
19487.0	5.6295343832869536e+17
19488.0	5.632519210795007e+17
19489.0	5.635416184411476e+17
19490.0	5.638082506260479e+17
19491.0	5.6407934645917005e+17
19492.0	5.6432983546702496e+17
19493.0	5.6460781569092256e+17
19494.0	5.648352964946602e+17
19495.0	5.650521514486441e+17
19496.0	5.652556687256234e+17
19497.0	5.654545650679806e+17
19498.0	5.6563513376986445e+17
19499.0	5.6576159790749005e+17
19500.0	5.659871783419903e+17
19501.0	5.6614897410812576e+17
19502.0	5.663015192668841e+17
19503.0	5.664452143043924e+17
19504.0	5.665802820780031e+17
19505.0	5.667068790352554e+17
19506.0	5.6682531953923405e+17
19507.0	5.669358166605823e+17
19508.0	5.670388623212542e+17
19509.0	5.6713443520020474e+17
19510.0	5.6722146365276154e+17
19511.0	5.672308904908115e+17
19512.0	5.673699594207231e+17
19513.0	5.6743168370715296e+17
19514.0	5.675010516232873e+17
19515.0	5.6756762795048954e+17
19516.0	5.676230828709204e+17
19517.0	5.67669200921122e+17
19518.0	5.677107145342975e+17
19519.0	5.6774658974460576e+17
19520.0	5.6777736901536403e+17
19521.0	5.678036795348308e+17
19522.0	5.678252339232767e+17
19523.0	5.67842398483251e+17
19524.0	5.678553146327039e+17
19525.0	5.678640469639168e+17
19526.0	5.6786908054814714e+17
19527.0	5.6787025586203296e+17
19528.0	5.678680562292052e+17
19529.0	5.678628591370238e+17
19530.0	5.678543201632256e+17
19531.0	5.678425448644607e+17
19532.0	5.6782766787788794e+17
19533.0	5.6780980377791123e+17
19534.0	5.677890636436821e+17
19535.0	5.6776557008868685e+17
19536.0	5.6773936568511136e+17
19537.0	5.6771122078679034e+17
19538.0	5.6768977118603936e+17
19539.0	5.6765322537642656e+17
19540.0	5.677888142224043e+17
19541.0	5.6784082834554874e+17
19542.0	5.677982105119402e+17
19543.0	5.6775366350820685e+17
19544.0	5.677072555616938e+17
19545.0	5.6765513665085434e+17
19546.0	5.6787715598144826e+17
19547.0	5.680011774962345e+17
19548.0	5.6794427260491085e+17
19549.0	5.678861738049535e+17
19550.0	5.678267303810388e+17
19551.0	5.677659888899411e+17
19552.0	5.6770395848922445e+17
19553.0	5.6764051481777485e+17
19554.0	5.677710403698684e+17
19555.0	5.6788752276302496e+17
19556.0	5.678183939222186e+17
19557.0	5.6774824425772365e+17
19558.0	5.676771907207167e+17
19559.0	5.6760520276268365e+17
19560.0	5.6753236007540045e+17
19561.0	5.6745863553570125e+17
19562.0	5.6738408024418976e+17
19563.0	5.673087285242537e+17
19564.0	5.6723259771234976e+17
19565.0	5.671557255572138e+17
19566.0	5.673442181382146e+17
19567.0	5.67313486193186e+17
19568.0	5.6723302014866765e+17
19569.0	5.671518577098751e+17
19570.0	5.6707024354454176e+17
19571.0	5.6698798988765856e+17
19572.0	5.669051652461908e+17
19573.0	5.668217620004863e+17
19574.0	5.6673797546530125e+17
19575.0	5.66653613191987e+17
19576.0	5.6656877213887136e+17
19577.0	5.6648334751825914e+17
19578.0	5.6639733793204896e+17
19579.0	5.663114571109716e+17
19580.0	5.6622477720507725e+17
19581.0	5.6613761201821005e+17
19582.0	5.660502727677268e+17
19583.0	5.659624168488958e+17
19584.0	5.6587417687162874e+17
19585.0	5.659203267985406e+17
19586.0	5.659515884841642e+17
19587.0	5.6586239171624954e+17
19588.0	5.657684839060821e+17
19589.0	5.6568143692868256e+17
19590.0	5.65589924066099e+17
19591.0	5.654991548536147e+17
19592.0	5.6540756292840096e+17
19593.0	5.653157384290303e+17
19594.0	5.652218541069651e+17
19595.0	5.651310136612181e+17
19596.0	5.6503660134618445e+17
19597.0	5.64945696727586e+17
19598.0	5.648501625061374e+17
19599.0	5.647594004239699e+17
19600.0	5.6466587345660576e+17
19601.0	5.645718208730453e+17
19602.0	5.6447772005498874e+17
19603.0	5.643804860918441e+17
19604.0	5.6428944746523296e+17
19605.0	5.641929656806057e+17
19606.0	5.6410043534977683e+17
19607.0	5.6400558200367776e+17
19608.0	5.639104892327252e+17
19609.0	5.6381510286049274e+17
19610.0	5.637199139700735e+17
19611.0	5.6362432116817914e+17
19612.0	5.635286836969471e+17
19613.0	5.634328400756735e+17
19614.0	5.6333685321891834e+17
19615.0	5.632407090757631e+17
19616.0	5.6314414487306234e+17
19617.0	5.630480665804798e+17
19618.0	5.629469167452158e+17
19619.0	5.628493417851562e+17
19620.0	5.6275284643894605e+17
19621.0	5.6266124920094726e+17
19622.0	5.625642607443967e+17
19623.0	5.6246715897173325e+17
19624.0	5.6236994416257696e+17
19625.0	5.6227262659297274e+17
19626.0	5.621752112960853e+17
19627.0	5.620776842209961e+17
19628.0	5.6197934652675405e+17
19629.0	5.6188233737830394e+17
19630.0	5.618696696015529e+17
19631.0	5.6185532661978445e+17
19632.0	5.617899949522943e+17
19633.0	5.61692301922577e+17
19634.0	5.6160112788985165e+17
19635.0	5.615026536710143e+17
19636.0	5.614041064712873e+17
19637.0	5.6130261857512096e+17
19638.0	5.612067188899839e+17
19639.0	5.6110804844762445e+17
19640.0	5.6100851146205856e+17
19641.0	5.6090370978611194e+17
19642.0	5.6081142936589645e+17
19643.0	5.6071242316950176e+17
19644.0	5.606131233718271e+17
19645.0	5.605121016026452e+17
19646.0	5.6041515187350176e+17
19647.0	5.6031595672371194e+17
19648.0	5.6021671564629325e+17
19649.0	5.601173980228266e+17
19650.0	5.600180745273343e+17
19651.0	5.5991869377959245e+17
19652.0	5.5981927018004474e+17
19653.0	5.597197874408105e+17
19654.0	5.5962029945869645e+17
19655.0	5.595207186426538e+17
19656.0	5.594211214688255e+17
19657.0	5.5932155952715085e+17
19658.0	5.5922190922547194e+17
19659.0	5.5912221208739834e+17
19660.0	5.5902250865786874e+17
19661.0	5.589227622367231e+17
