# Flux units: erg / (cm m2 s)
# Wavelength units: Angstrom
wave	flux
19000.0	6.813741714068819e+17
19001.0	6.812425817598634e+17
19002.0	6.811257598377983e+17
19003.0	6.810010792580436e+17
19004.0	6.808764810963625e+17
19005.0	6.807520871273812e+17
19006.0	6.806278066143231e+17
19007.0	6.8050228360861e+17
19008.0	6.803758384152575e+17
19009.0	6.802431439186601e+17
19010.0	6.801137114720938e+17
19011.0	6.799969052087635e+17
19012.0	6.798589284057088e+17
19013.0	6.797553139275091e+17
19014.0	6.796284358120787e+17
19015.0	6.795055328482644e+17
19016.0	6.793832315573587e+17
19017.0	6.792600029058387e+17
19018.0	6.791347410654547e+17
19019.0	6.790108222412116e+17
19020.0	6.788855295726931e+17
19021.0	6.787624133285204e+17
19022.0	6.786374513109674e+17
19023.0	6.785100983304191e+17
19024.0	6.783856884929875e+17
19025.0	6.782587471833769e+17
19026.0	6.781295605230249e+17
19027.0	6.779989995989674e+17
19028.0	6.778848693015891e+17
19029.0	6.777618063250772e+17
19030.0	6.776389637592404e+17
19031.0	6.775125519805097e+17
19032.0	6.773836195648852e+17
19033.0	6.772433614798845e+17
19034.0	6.770950461369002e+17
19035.0	6.767903768575997e+17
19036.0	6.757050687509843e+17
19037.0	6.765832440905727e+17
19038.0	6.7660166477469e+17
19039.0	6.765051049061034e+17
19040.0	6.763898619996842e+17
19041.0	6.762690977813844e+17
19042.0	6.761203034488831e+17
19043.0	6.760244091464362e+17
19044.0	6.758997473012393e+17
19045.0	6.757744428886697e+17
19046.0	6.75649419424563e+17
19047.0	6.755221495611391e+17
19048.0	6.753886895341567e+17
19049.0	6.752190740474538e+17
19050.0	6.751153293361151e+17
19051.0	6.748673561417044e+17
19052.0	6.747956756261546e+17
19053.0	6.747566101583188e+17
19054.0	6.746503930445823e+17
19055.0	6.745085992151722e+17
19056.0	6.74406548443409e+17
19057.0	6.742872192363177e+17
19058.0	6.741416589918207e+17
19059.0	6.740326853814953e+17
19060.0	6.739166041036116e+17
19061.0	6.737930788448938e+17
19062.0	6.736689634476031e+17
19063.0	6.735444749669716e+17
19064.0	6.734166706094079e+17
19065.0	6.73286430269986e+17
19066.0	6.731610471443114e+17
19067.0	6.73048985407761e+17
19068.0	6.729256793014271e+17
19069.0	6.728017654404435e+17
19070.0	6.72676646555921e+17
19071.0	6.725526102911657e+17
19072.0	6.724219073899178e+17
19073.0	6.723059743107753e+17
19074.0	6.721820759687167e+17
19075.0	6.720580222276948e+17
19076.0	6.719335821912746e+17
19077.0	6.718089900414291e+17
19078.0	6.716845579042815e+17
19079.0	6.715618878641491e+17
19080.0	6.714369336060586e+17
19081.0	6.713102458421247e+17
19082.0	6.711883952990889e+17
19083.0	6.710573773357056e+17
19084.0	6.709233684141395e+17
19085.0	6.708135658695338e+17
19086.0	6.706469251230378e+17
19087.0	6.705385455659689e+17
19088.0	6.704181545708201e+17
19089.0	6.702994278754985e+17
19090.0	6.701897757665962e+17
19091.0	6.700675812207274e+17
19092.0	6.699268135277908e+17
19093.0	6.698259791740927e+17
19094.0	6.697037409375571e+17
19095.0	6.695808927793151e+17
19096.0	6.694574356081321e+17
19097.0	6.693342942680403e+17
19098.0	6.692017313327785e+17
19099.0	6.690764329320447e+17
19100.0	6.689597755665066e+17
19101.0	6.688374946878804e+17
19102.0	6.687122614386687e+17
19103.0	6.685918583499434e+17
19104.0	6.684680432648191e+17
19105.0	6.68322632756975e+17
19106.0	6.682161797136383e+17
19107.0	6.680843971985408e+17
19108.0	6.679492323966975e+17
19109.0	6.678115314390355e+17
19110.0	6.677020738759338e+17
19111.0	6.675870469062655e+17
19112.0	6.67469189690163e+17
19113.0	6.673555612412585e+17
19114.0	6.672280473392467e+17
19115.0	6.671047305374378e+17
19116.0	6.669841510782291e+17
19117.0	6.668594062557183e+17
19118.0	6.66714884940322e+17
19119.0	6.6636644117818e+17
19120.0	6.664713381347327e+17
19121.0	6.663591128902313e+17
19122.0	6.662458290034003e+17
19123.0	6.661245318987775e+17
19124.0	6.659877717235027e+17
19125.0	6.658752484037972e+17
19126.0	6.657412022228308e+17
19127.0	6.655753683905193e+17
19128.0	6.654869370131795e+17
19129.0	6.6537745022976e+17
19130.0	6.652622355649876e+17
19131.0	6.651411452395519e+17
19132.0	6.650183618833065e+17
19133.0	6.648920200795476e+17
19134.0	6.647686558821033e+17
19135.0	6.646492192309247e+17
19136.0	6.645256839058771e+17
19137.0	6.643994074633555e+17
19138.0	6.642788866544979e+17
19139.0	6.641575980782932e+17
19140.0	6.640350672191487e+17
19141.0	6.639121664223913e+17
19142.0	6.63786720731682e+17
19143.0	6.636645263256234e+17
19144.0	6.635400755937279e+17
19145.0	6.634197928815273e+17
19146.0	6.632541539445417e+17
19147.0	6.631712738683561e+17
19148.0	6.630434305736704e+17
19149.0	6.62919038771746e+17
19150.0	6.628046675815081e+17
19151.0	6.626814431242921e+17
19152.0	6.625553091482964e+17
19153.0	6.62417411617587e+17
19154.0	6.623054847279104e+17
19155.0	6.62183339045683e+17
19156.0	6.620586956554239e+17
19157.0	6.619250229073236e+17
19158.0	6.617890895691775e+17
19159.0	6.616804340968105e+17
19160.0	6.615553875640319e+17
19161.0	6.614197939645097e+17
19162.0	6.612621297276244e+17
19163.0	6.611630905360384e+17
19164.0	6.610639679477075e+17
19165.0	6.609330617625257e+17
19166.0	6.60825288282385e+17
19167.0	6.607051418151593e+17
19168.0	6.605867875740329e+17
19169.0	6.604668373303295e+17
19170.0	6.603454434071891e+17
19171.0	6.60222742958353e+17
19172.0	6.600997444343123e+17
19173.0	6.599788357222399e+17
19174.0	6.598557356960425e+17
19175.0	6.597344233521151e+17
19176.0	6.596119975602857e+17
19177.0	6.594783450846548e+17
19178.0	6.593644331007999e+17
19179.0	6.592410758239571e+17
19180.0	6.591192110901929e+17
19181.0	6.589935907766271e+17
19182.0	6.588730945044479e+17
19183.0	6.587531034361855e+17
19184.0	6.586302100493652e+17
19185.0	6.585065165291517e+17
19186.0	6.583835698047657e+17
19187.0	6.582543546930516e+17
19188.0	6.581352045827412e+17
19189.0	6.580102388602195e+17
19190.0	6.578842126079316e+17
19191.0	6.577556222377983e+17
19192.0	6.576297560681129e+17
19193.0	6.574964866722474e+17
19194.0	6.57358725456418e+17
19195.0	6.572199641088e+17
19196.0	6.570612006846463e+17
19197.0	6.5687169531904e+17
19198.0	6.566173753737213e+17
19199.0	6.562139556107604e+17
19200.0	6.561221598423722e+17
19201.0	6.562641776476159e+17
19202.0	6.562664589295615e+17
19203.0	6.562019314499581e+17
19204.0	6.561168623665151e+17
19205.0	6.560148429821268e+17
19206.0	6.559055215241897e+17
19207.0	6.557820723920893e+17
19208.0	6.556678591173972e+17
19209.0	6.555556011573247e+17
19210.0	6.554369510779562e+17
19211.0	6.553170260000767e+17
19212.0	6.551951354713427e+17
19213.0	6.550646787058345e+17
19214.0	6.549450946947753e+17
19215.0	6.548285544202239e+17
19216.0	6.54707934765602e+17
19217.0	6.545821730340863e+17
19218.0	6.544445201012052e+17
19219.0	6.543264608594602e+17
19220.0	6.542179513488723e+17
19221.0	6.540938306387968e+17
19222.0	6.53976042279185e+17
19223.0	6.538559515962025e+17
19224.0	6.53731972583697e+17
19225.0	6.536107458734761e+17
19226.0	6.53490166903603e+17
19227.0	6.533685471870975e+17
19228.0	6.532485349375999e+17
19229.0	6.531262472082772e+17
19230.0	6.530038748938237e+17
19231.0	6.528804279986857e+17
19232.0	6.527584059785213e+17
19233.0	6.526318996182356e+17
19234.0	6.525134937172649e+17
19235.0	6.523892173985107e+17
19236.0	6.522687706890239e+17
19237.0	6.521455815338665e+17
19238.0	6.520180363143848e+17
19239.0	6.519009254746794e+17
19240.0	6.517786044705449e+17
19241.0	6.516545523373396e+17
19242.0	6.515322020429823e+17
19243.0	6.513980577852073e+17
19244.0	6.512867760493907e+17
19245.0	6.511601367296682e+17
19246.0	6.510373903532032e+17
19247.0	6.509148539016532e+17
19248.0	6.507916047679487e+17
19249.0	6.506674049952425e+17
19250.0	6.50541349802257e+17
19251.0	6.50413766484514e+17
19252.0	6.502782334926847e+17
19253.0	6.501757800677375e+17
19254.0	6.500540256441684e+17
19255.0	6.499165578898089e+17
19256.0	6.498064790803798e+17
19257.0	6.496841364755796e+17
19258.0	6.495601834677587e+17
19259.0	6.494273512581802e+17
19260.0	6.492833659748351e+17
19261.0	6.491853825594707e+17
19262.0	6.490600440332287e+17
19263.0	6.489332700064425e+17
19264.0	6.487981960811859e+17
19265.0	6.486832816586751e+17
19266.0	6.485610666306217e+17
19267.0	6.48447846916642e+17
19268.0	6.483246588799657e+17
19269.0	6.482003466999123e+17
19270.0	6.480730947321855e+17
19271.0	6.479418719469565e+17
19272.0	6.478231486070783e+17
19273.0	6.476862070980605e+17
19274.0	6.475492902655316e+17
19275.0	6.474531392716797e+17
19276.0	6.473278443661993e+17
19277.0	6.472035955900413e+17
19278.0	6.470780550381565e+17
19279.0	6.469510989086719e+17
19280.0	6.468261888305833e+17
19281.0	6.467012177253716e+17
19282.0	6.465759920259071e+17
19283.0	6.464478253503827e+17
19284.0	6.463168454153556e+17
19285.0	6.461876084233556e+17
19286.0	6.460497193511593e+17
19287.0	6.458788187996159e+17
19288.0	6.452474314839378e+17
19289.0	6.449058750485841e+17
19290.0	6.454876809374378e+17
19291.0	6.454046923685887e+17
19292.0	6.453120769632938e+17
19293.0	6.451919990729386e+17
19294.0	6.450679296731817e+17
19295.0	6.449439472353279e+17
19296.0	6.44807467728896e+17
19297.0	6.446882966470655e+17
19298.0	6.445635133068627e+17
19299.0	6.444266385571837e+17
19300.0	6.443107319720617e+17
19301.0	6.441832148544169e+17
19302.0	6.440523322272425e+17
19303.0	6.439206931573417e+17
19304.0	6.437960426367657e+17
19305.0	6.436662015251795e+17
19306.0	6.435362303901696e+17
19307.0	6.434032853538132e+17
19308.0	6.432695901661865e+17
19309.0	6.431276787564543e+17
19310.0	6.42990026592529e+17
19311.0	6.428682660872191e+17
19312.0	6.427366972020052e+17
19313.0	6.425645720535039e+17
19314.0	6.40574236183757e+17
19315.0	6.405595496185868e+17
19316.0	6.421605731270656e+17
19317.0	6.420892377328298e+17
19318.0	6.419702682572116e+17
19319.0	6.418451608371199e+17
19320.0	6.417110977391274e+17
19321.0	6.415738220139859e+17
19322.0	6.414477300509353e+17
19323.0	6.413141653760682e+17
19324.0	6.411810062903978e+17
19325.0	6.410465938767872e+17
19326.0	6.409169612920148e+17
19327.0	6.407850539264682e+17
19328.0	6.406340310204415e+17
19329.0	6.405142393214291e+17
19330.0	6.40378554355985e+17
19331.0	6.402405379167572e+17
19332.0	6.401069264754004e+17
19333.0	6.39968811819554e+17
19334.0	6.39832234795554e+17
19335.0	6.396582166178474e+17
19336.0	6.395540604452863e+17
19337.0	6.394157306915497e+17
19338.0	6.392618304929791e+17
19339.0	6.391334106912086e+17
19340.0	6.389867651705514e+17
19341.0	6.38831067013666e+17
19342.0	6.386902773006333e+17
19343.0	6.385594062077951e+17
19344.0	6.383953921441791e+17
19345.0	6.381989091344381e+17
19346.0	6.380717881688063e+17
19347.0	6.379522261778431e+17
19348.0	6.378325050130431e+17
19349.0	6.37684999590161e+17
19350.0	6.375325506906793e+17
19351.0	6.373905800014505e+17
19352.0	6.372218302889983e+17
19353.0	6.370949020516351e+17
19354.0	6.369444739678205e+17
19355.0	6.367860768462164e+17
19356.0	6.366395598809769e+17
19357.0	6.364844699680767e+17
19358.0	6.36327086190319e+17
19359.0	6.361630245213524e+17
19360.0	6.359885972591956e+17
19361.0	6.358392651470166e+17
19362.0	6.356789713611433e+17
19363.0	6.355165074423805e+17
19364.0	6.353523626562902e+17
19365.0	6.35186598449425e+17
19366.0	6.350192158703615e+17
19367.0	6.348496068149247e+17
19368.0	6.346777119337129e+17
19369.0	6.345021067711827e+17
19370.0	6.343267824173055e+17
19371.0	6.3414804166301e+17
19372.0	6.339616746154666e+17
19373.0	6.337791984839337e+17
19374.0	6.33597069500962e+17
19375.0	6.334121309634559e+17
19376.0	6.332248737447935e+17
19377.0	6.330345171451904e+17
19378.0	6.328425901981695e+17
19379.0	6.326475958168233e+17
19380.0	6.324471301057193e+17
19381.0	6.322479979735721e+17
19382.0	6.320411688741546e+17
19383.0	6.318259344594259e+17
19384.0	6.316206030061567e+17
19385.0	6.314072428860756e+17
19386.0	6.311886914060287e+17
19387.0	6.30964538642705e+17
19388.0	6.307327428089172e+17
19389.0	6.304852326656681e+17
19390.0	6.301668503191551e+17
19391.0	6.29058122197674e+17
19392.0	6.29489220592162e+17
19393.0	6.294979699802111e+17
19394.0	6.292616347211094e+17
19395.0	6.289952620238164e+17
19396.0	6.287370986280275e+17
19397.0	6.284681092442793e+17
19398.0	6.281805542632105e+17
19399.0	6.278779794795176e+17
19400.0	6.275961055434067e+17
19401.0	6.273120641307988e+17
19402.0	6.270084363670867e+17
19403.0	6.2669497841309e+17
19404.0	6.263760879965524e+17
19405.0	6.260449464374612e+17
19406.0	6.257002460916393e+17
19407.0	6.253260734201855e+17
19408.0	6.249447932908883e+17
19409.0	6.245869163293353e+17
19410.0	6.241994598776832e+17
19411.0	6.237902148556116e+17
19412.0	6.233697328037888e+17
19413.0	6.229263723615572e+17
19414.0	6.224748860844714e+17
19415.0	6.219998113213098e+17
19416.0	6.214978521879892e+17
19417.0	6.209973289746431e+17
19418.0	6.204722420995412e+17
19419.0	6.199236293733033e+17
19420.0	6.193556909719551e+17
19421.0	6.187591964906836e+17
19422.0	6.181362471359827e+17
19423.0	6.174845372290388e+17
19424.0	6.167919000726186e+17
19425.0	6.160607062174378e+17
19426.0	6.152919641139881e+17
19427.0	6.144806458403497e+17
19428.0	6.13615783780898e+17
19429.0	6.126861224509439e+17
19430.0	6.116535455536468e+17
19431.0	6.105899443683328e+17
19432.0	6.096518526970537e+17
19433.0	6.085213687207254e+17
19434.0	6.072746721148927e+17
19435.0	6.058967363660457e+17
19436.0	6.044187755544576e+17
19437.0	6.027888488873983e+17
19438.0	5.996584609251328e+17
19439.0	5.989614084248916e+17
19440.0	5.974559631780521e+17
19441.0	5.953188152737791e+17
19442.0	5.92874874933521e+17
19443.0	5.901425169137663e+17
19444.0	5.869945025287507e+17
19445.0	5.833507047036246e+17
19446.0	5.790337798067539e+17
19447.0	5.737918097610065e+17
19448.0	5.671662015305048e+17
19449.0	5.5826628739072e+17
19450.0	5.443356445026978e+17
19451.0	5.3424745321157997e+17
19452.0	5.5228523673026554e+17
19453.0	5.628119434832557e+17
19454.0	5.701611162697724e+17
19455.0	5.7578339147885216e+17
19456.0	5.802820998878551e+17
19457.0	5.839122214857385e+17
19458.0	5.825825495930243e+17
19459.0	5.891631827910668e+17
19460.0	5.922186867681961e+17
19461.0	5.943592015101951e+17
19462.0	5.962533755508052e+17
19463.0	5.979209692348415e+17
19464.0	5.994246248420692e+17
19465.0	6.008042401999529e+17
19466.0	6.020655842241193e+17
19467.0	6.032149306845866e+17
19468.0	6.042673306315434e+17
19469.0	6.052213912764415e+17
19470.0	6.060992434449066e+17
19471.0	6.068995941029206e+17
19472.0	6.076554934572372e+17
19473.0	6.083623468575401e+17
19474.0	6.090044760653823e+17
19475.0	6.095915060297727e+17
19476.0	6.101707712888831e+17
19477.0	6.106975205064701e+17
19478.0	6.111802992274089e+17
19479.0	6.116155381689001e+17
19480.0	6.120242955332265e+17
19481.0	6.124083511033855e+17
19482.0	6.127590392375977e+17
19483.0	6.130904004384084e+17
19484.0	6.133991655254697e+17
19485.0	6.136848296443904e+17
19486.0	6.139406093473108e+17
19487.0	6.142039380983808e+17
19488.0	6.144344883636906e+17
19489.0	6.146301434877267e+17
19490.0	6.148062977545556e+17
19491.0	6.150223168536575e+17
19492.0	6.152040613587626e+17
19493.0	6.153541929751892e+17
19494.0	6.154881301741567e+17
19495.0	6.156115310717609e+17
19496.0	6.157042339282943e+17
19497.0	6.157554760198826e+17
19498.0	6.152933608871251e+17
19499.0	6.144973439238144e+17
19500.0	6.159417750497961e+17
19501.0	6.161392557446484e+17
19502.0	6.162330701616467e+17
19503.0	6.16302981030434e+17
19504.0	6.163587803731284e+17
19505.0	6.164042569744383e+17
19506.0	6.164430291905193e+17
19507.0	6.164709736011092e+17
19508.0	6.165006972354559e+17
19509.0	6.16503881900578e+17
19510.0	6.163751802415785e+17
19511.0	6.135284319475018e+17
19512.0	6.159063762425172e+17
19513.0	6.159701508445522e+17
19514.0	6.160740536811517e+17
19515.0	6.164859260152492e+17
19516.0	6.165293050451284e+17
19517.0	6.165318343502506e+17
19518.0	6.16517538624307e+17
19519.0	6.164953030808916e+17
19520.0	6.164714400077139e+17
19521.0	6.164576462001492e+17
19522.0	6.164209523316052e+17
19523.0	6.163902519137619e+17
19524.0	6.163480859465044e+17
19525.0	6.163186012476756e+17
19526.0	6.162777071332009e+17
19527.0	6.162332338094079e+17
19528.0	6.161851441567059e+17
19529.0	6.161364391297023e+17
19530.0	6.160885952632148e+17
19531.0	6.160464629901993e+17
19532.0	6.159929500325204e+17
19533.0	6.15936642969327e+17
19534.0	6.158785078187348e+17
19535.0	6.158177947090944e+17
19536.0	6.157536937203028e+17
19537.0	6.156903730817706e+17
19538.0	6.156024156607828e+17
19539.0	6.15542876676642e+17
19540.0	6.154874254611796e+17
19541.0	6.154177097673385e+17
19542.0	6.153501265275561e+17
19543.0	6.152712266361514e+17
19544.0	6.152088986495658e+17
19545.0	6.151128720168276e+17
19546.0	6.150332077834239e+17
19547.0	6.14982932758528e+17
19548.0	6.149087315361791e+17
19549.0	6.148234875502591e+17
19550.0	6.147506661840212e+17
19551.0	6.146697708524884e+17
19552.0	6.145877866796372e+17
19553.0	6.145041983952212e+17
19554.0	6.144206646367572e+17
19555.0	6.143348120573268e+17
19556.0	6.1425276434077e+17
19557.0	6.141727255560191e+17
19558.0	6.140870829714089e+17
19559.0	6.140006536052735e+17
19560.0	6.139061423046653e+17
19561.0	6.138235111604223e+17
19562.0	6.137317645352959e+17
19563.0	6.13648004424226e+17
19564.0	6.135583714486953e+17
19565.0	6.134681268038314e+17
19566.0	6.133762153425577e+17
19567.0	6.132860898159273e+17
19568.0	6.131926572903082e+17
19569.0	6.131012745909588e+17
19570.0	6.130097499144191e+17
19571.0	6.129166668442281e+17
19572.0	6.128207843557375e+17
19573.0	6.127261595293011e+17
19574.0	6.126264213569535e+17
19575.0	6.125391216028329e+17
19576.0	6.124457472382292e+17
19577.0	6.12346273796369e+17
19578.0	6.122535137574911e+17
19579.0	6.121557419447635e+17
19580.0	6.120591009163945e+17
19581.0	6.119633309051562e+17
19582.0	6.118659853036202e+17
19583.0	6.117677478532435e+17
19584.0	6.116681078975145e+17
19585.0	6.115617478279165e+17
19586.0	6.11460203029026e+17
19587.0	6.113719441074858e+17
19588.0	6.112690460164096e+17
19589.0	6.111790897998506e+17
19590.0	6.110782246180179e+17
19591.0	6.109842657771519e+17
19592.0	6.108851445869225e+17
19593.0	6.107817442978474e+17
19594.0	6.106660855261865e+17
19595.0	6.10582230344226e+17
19596.0	6.104657109013844e+17
19597.0	6.103790955877716e+17
19598.0	6.102600399192063e+17
19599.0	6.101753843242324e+17
19600.0	6.100749197683369e+17
19601.0	6.099685602579796e+17
19602.0	6.098620804410026e+17
19603.0	6.097497028034559e+17
19604.0	6.096553211068415e+17
19605.0	6.095477205019306e+17
19606.0	6.094617264346452e+17
19607.0	6.09360603582737e+17
19608.0	6.092569732360874e+17
19609.0	6.091524870417065e+17
19610.0	6.0904493299357e+17
19611.0	6.08938583269922e+17
19612.0	6.088447317333332e+17
19613.0	6.087400508533418e+17
19614.0	6.086334923232595e+17
19615.0	6.085292612124671e+17
19616.0	6.084114720838998e+17
19617.0	6.083072800500393e+17
19618.0	6.081869219102719e+17
19619.0	6.080726507541844e+17
19620.0	6.079787249784148e+17
19621.0	6.078842294064468e+17
19622.0	6.077962977804288e+17
19623.0	6.076900933195092e+17
19624.0	6.075805847956137e+17
19625.0	6.074748740042751e+17
19626.0	6.073621511056041e+17
19627.0	6.072410647647572e+17
19628.0	6.071042732720127e+17
19629.0	6.069011566209705e+17
19630.0	6.066243598898516e+17
19631.0	6.063401473496404e+17
19632.0	6.065670122198356e+17
19633.0	6.065645134632276e+17
19634.0	6.065035015793321e+17
19635.0	6.064104984805375e+17
19636.0	6.063026852943188e+17
19637.0	6.061770472947712e+17
19638.0	6.061132394179241e+17
19639.0	6.060096108189012e+17
19640.0	6.058911646526121e+17
19641.0	6.057626560015018e+17
19642.0	6.056931238783658e+17
19643.0	6.055882075581098e+17
19644.0	6.05479914054178e+17
19645.0	6.053722090110976e+17
19646.0	6.052577213590186e+17
19647.0	6.051691823977812e+17
19648.0	6.050640279109631e+17
19649.0	6.049582305072468e+17
19650.0	6.048523665539072e+17
19651.0	6.047458929584809e+17
19652.0	6.046401665783124e+17
19653.0	6.045334551658495e+17
19654.0	6.044273464748714e+17
19655.0	6.043210731574612e+17
19656.0	6.042153116150441e+17
19657.0	6.041091981705215e+17
19658.0	6.04002887803426e+17
19659.0	6.038964987232255e+17
19660.0	6.037900895103657e+17
19661.0	6.036835112670548e+17
19662.0	6.035765407864148e+17
19663.0	6.03468550041327e+17
19664.0	6.033626342184276e+17
19665.0	6.032597872279551e+17
