# Flux units: erg / (cm m2 s)
# Wavelength units: Angstrom
wave	flux
19000.0	3.4370579137385805e+17
19001.0	3.4365727876055034e+17
19002.0	3.4360019603073696e+17
19003.0	3.4354681152361805e+17
19004.0	3.4345277973681485e+17
19005.0	3.4342160116831565e+17
19006.0	3.4337023793124685e+17
19007.0	3.4331854505683616e+17
19008.0	3.432643494062762e+17
19009.0	3.432128708258474e+17
19010.0	3.4314139135726925e+17
19011.0	3.4307647775703034e+17
19012.0	3.4299438627990176e+17
19013.0	3.4298744411258874e+17
19014.0	3.429027927119189e+17
19015.0	3.4284366658710176e+17
19016.0	3.4279970675097594e+17
19017.0	3.427613340773034e+17
19018.0	3.4269658803950925e+17
19019.0	3.426438859806037e+17
19020.0	3.42585053352209e+17
19021.0	3.4252944268328954e+17
19022.0	3.4248281002693965e+17
19023.0	3.424074288420181e+17
19024.0	3.4236490688320845e+17
19025.0	3.423024651610795e+17
19026.0	3.422498997316266e+17
19027.0	3.42193989554449e+17
19028.0	3.421244142998869e+17
19029.0	3.420592190171819e+17
19030.0	3.4199349724446714e+17
19031.0	3.419635147516586e+17
19032.0	3.4191898903401805e+17
19033.0	3.4183598089175034e+17
19034.0	3.417935996168874e+17
19035.0	3.417478690854229e+17
19036.0	3.416259533209598e+17
19037.0	3.4162608348419405e+17
19038.0	3.415707763780266e+17
19039.0	3.4151425135083514e+17
19040.0	3.4145289986812576e+17
19041.0	3.4140250114621434e+17
19042.0	3.410115405632848e+17
19043.0	3.4129148739147085e+17
19044.0	3.4125122665185274e+17
19045.0	3.411835537238698e+17
19046.0	3.411225410710186e+17
19047.0	3.410614273004885e+17
19048.0	3.4098120407121914e+17
19049.0	3.402510198199627e+17
19050.0	3.4091012180322976e+17
19051.0	3.408320920551423e+17
19052.0	3.4078685791955616e+17
19053.0	3.4073679142147405e+17
19054.0	3.406629188927487e+17
19055.0	3.40518220927249e+17
19056.0	3.405459851225769e+17
19057.0	3.4051897600682656e+17
19058.0	3.4009624000593856e+17
19059.0	3.402296575655934e+17
19060.0	3.4035049567354874e+17
19061.0	3.4028025107797325e+17
19062.0	3.402071311122432e+17
19063.0	3.401839593302698e+17
19064.0	3.4012698502321485e+17
19065.0	3.400676303088299e+17
19066.0	3.398838171729921e+17
19067.0	3.399158663391914e+17
19068.0	3.399083877553493e+17
19069.0	3.3984720236707834e+17
19070.0	3.39766619406336e+17
19071.0	3.397211480828587e+17
19072.0	3.3954156189668666e+17
19073.0	3.396350366100138e+17
19074.0	3.3954411339666765e+17
19075.0	3.3951506749194234e+17
19076.0	3.394513377340074e+17
19077.0	3.3939884514563405e+17
19078.0	3.3934332217262074e+17
19079.0	3.3927618010371405e+17
19080.0	3.392338511527936e+17
19081.0	3.39183882801425e+17
19082.0	3.391339063061162e+17
19083.0	3.390637570610517e+17
19084.0	3.3901386211000314e+17
19085.0	3.389550223163392e+17
19086.0	3.387158921827668e+17
19087.0	3.3856615504063104e+17
19088.0	3.386186377723901e+17
19089.0	3.38734815449361e+17
19090.0	3.3868296417006925e+17
19091.0	3.386057713603926e+17
19092.0	3.3829820217426003e+17
19093.0	3.385079847627434e+17
19094.0	3.3845860696937805e+17
19095.0	3.38387782930705e+17
19096.0	3.3834673362698234e+17
19097.0	3.382877641943722e+17
19098.0	3.381070066789032e+17
19099.0	3.380116252699308e+17
19100.0	3.3813073039633056e+17
19101.0	3.380683743079083e+17
19102.0	3.3801558133746336e+17
19103.0	3.3794537987331405e+17
19104.0	3.379124710495573e+17
19105.0	3.3754126927353274e+17
19106.0	3.3779444469814605e+17
19107.0	3.376658609340413e+17
19108.0	3.375622205909675e+17
19109.0	3.3761994050546336e+17
19110.0	3.375643504235861e+17
19111.0	3.374021147099134e+17
19112.0	3.373475877093374e+17
19113.0	3.374099333469525e+17
19114.0	3.372863471659689e+17
19115.0	3.3729010309529594e+17
19116.0	3.372225993375744e+17
19117.0	3.3717856176701434e+17
19118.0	3.3713112097314125e+17
19119.0	3.3674777385588e+17
19120.0	3.3702103978693965e+17
19121.0	3.369493606345386e+17
19122.0	3.36919348641792e+17
19123.0	3.368696223716693e+17
19124.0	3.368084165711189e+17
19125.0	3.36751270367505e+17
19126.0	3.3669125567938554e+17
19127.0	3.366088320832852e+17
19128.0	3.3657255264692896e+17
19129.0	3.365341093691391e+17
19130.0	3.3648083723441485e+17
19131.0	3.3642199219787085e+17
19132.0	3.3635736457925965e+17
19133.0	3.3631419166446925e+17
19134.0	3.3625455820363085e+17
19135.0	3.362089504953685e+17
19136.0	3.361415410395818e+17
19137.0	3.3606940313518074e+17
19138.0	3.360341026493781e+17
19139.0	3.3598941195578016e+17
19140.0	3.3593539725448525e+17
19141.0	3.3587763903201274e+17
19142.0	3.3581735478995616e+17
19143.0	3.357572648490325e+17
19144.0	3.3569414169231354e+17
19145.0	3.356460989459114e+17
19146.0	3.355960241640789e+17
19147.0	3.3553833126789114e+17
19148.0	3.353744964408663e+17
19149.0	3.3527963771207674e+17
19150.0	3.35383488958737e+17
19151.0	3.353193487182506e+17
19152.0	3.3527532103925754e+17
19153.0	3.349642260862288e+17
19154.0	3.351418415786667e+17
19155.0	3.3511237023170554e+17
19156.0	3.350491858031957e+17
19157.0	3.3491695963559277e+17
19158.0	3.3476275929961837e+17
19159.0	3.348641077351765e+17
19160.0	3.3481763516142925e+17
19161.0	3.347720243423914e+17
19162.0	3.3471319402086394e+17
19163.0	3.3466409602252794e+17
19164.0	3.3460718075030176e+17
19165.0	3.3427379226760486e+17
19166.0	3.3447969806090234e+17
19167.0	3.3445216245514234e+17
19168.0	3.343883952979968e+17
19169.0	3.343350795075584e+17
19170.0	3.3428255962125645e+17
19171.0	3.3422002772159136e+17
19172.0	3.3417055793315834e+17
19173.0	3.3412691833214285e+17
19174.0	3.3406324002433696e+17
19175.0	3.3400424895610874e+17
19176.0	3.33958630412561e+17
19177.0	3.3390137938629965e+17
19178.0	3.3384530213601274e+17
19179.0	3.3379110910689274e+17
19180.0	3.3374020650926074e+17
19181.0	3.3368306072507725e+17
19182.0	3.336154759473834e+17
19183.0	3.3357143862149114e+17
19184.0	3.3352302583261856e+17
19185.0	3.334613905003861e+17
19186.0	3.334076445491199e+17
19187.0	3.333608206674602e+17
19188.0	3.3330761532702714e+17
19189.0	3.3325427534943565e+17
19190.0	3.331956859557205e+17
19191.0	3.3314511921698125e+17
19192.0	3.330910754002261e+17
19193.0	3.3300118650224634e+17
19194.0	3.329374775410688e+17
19195.0	3.3293164997509114e+17
19196.0	3.3287288403613005e+17
19197.0	3.3280101998482765e+17
19198.0	3.327389151352149e+17
19199.0	3.326657305422506e+17
19200.0	3.32624612032512e+17
19201.0	3.325984709629269e+17
19202.0	3.3255023975246496e+17
19203.0	3.324888331845632e+17
19204.0	3.324473091904853e+17
19205.0	3.323870327078912e+17
19206.0	3.323302036286121e+17
19207.0	3.3223749322233165e+17
19208.0	3.3221566036705274e+17
19209.0	3.321660932008618e+17
19210.0	3.320984309683541e+17
19211.0	3.3205529003513165e+17
19212.0	3.3200124502999034e+17
19213.0	3.3195009063430816e+17
19214.0	3.318959179475626e+17
19215.0	3.318407156640426e+17
19216.0	3.31786391458065e+17
19217.0	3.317432691894954e+17
19218.0	3.316662315690666e+17
19219.0	3.316158094289578e+17
19220.0	3.3157661883105274e+17
19221.0	3.315123799545173e+17
19222.0	3.314454041897643e+17
19223.0	3.314036298656426e+17
19224.0	3.313450891957589e+17
19225.0	3.3130290903777274e+17
19226.0	3.3125509694313805e+17
19227.0	3.311943380456789e+17
19228.0	3.3114300804846925e+17
19229.0	3.3104746211792205e+17
19230.0	3.310240411593386e+17
19231.0	3.3099031647354874e+17
19232.0	3.309335167893503e+17
19233.0	3.3086968116019194e+17
19234.0	3.3081259815075834e+17
19235.0	3.3076266957537274e+17
19236.0	3.3071123779638605e+17
19237.0	3.30639295451409e+17
19238.0	3.3059426669690874e+17
19239.0	3.3054789943514445e+17
19240.0	3.3048207762827936e+17
19241.0	3.3044643666984954e+17
19242.0	3.3035809428165965e+17
19243.0	3.3033357640772256e+17
19244.0	3.30272856342528e+17
19245.0	3.3022859294365005e+17
19246.0	3.301772049951402e+17
19247.0	3.3012615612115616e+17
19248.0	3.300630284555605e+17
19249.0	3.2998831811461114e+17
19250.0	3.2990316850053114e+17
19251.0	3.2986243757943456e+17
19252.0	3.2985618111092045e+17
19253.0	3.297925988177237e+17
19254.0	3.2974438892830714e+17
19255.0	3.296830585219754e+17
19256.0	3.296207477320362e+17
19257.0	3.295775433599658e+17
19258.0	3.2951788158757536e+17
19259.0	3.2948315676999674e+17
19260.0	3.2941643021680634e+17
19261.0	3.2936858086277114e+17
19262.0	3.2931420241046176e+17
19263.0	3.2924784981442554e+17
19264.0	3.291953104246101e+17
19265.0	3.291372210268842e+17
19266.0	3.2909196004775245e+17
19267.0	3.2904628058193914e+17
19268.0	3.2897278704353274e+17
19269.0	3.2893251302195194e+17
19270.0	3.2888178668994554e+17
19271.0	3.2880863264549536e+17
19272.0	3.287783476734634e+17
19273.0	3.2872992422406816e+17
19274.0	3.2867365707666765e+17
19275.0	3.2862103240267085e+17
19276.0	3.285672160220501e+17
19277.0	3.2851739835105274e+17
19278.0	3.284583587337557e+17
19279.0	3.2840931991005856e+17
19280.0	3.283600792704341e+17
19281.0	3.283024775654058e+17
19282.0	3.2824895062671354e+17
19283.0	3.2818707531038714e+17
19284.0	3.281459613444778e+17
19285.0	3.2808064299390285e+17
19286.0	3.2802107328648525e+17
19287.0	3.27957900497169e+17
19288.0	3.279200207241216e+17
19289.0	3.278278528860158e+17
19290.0	3.278184309413205e+17
19291.0	3.277632687483562e+17
19292.0	3.2770880326423885e+17
19293.0	3.276508847494485e+17
19294.0	3.276092053214549e+17
19295.0	3.275403628467541e+17
19296.0	3.273498350496431e+17
19297.0	3.2741999635333126e+17
19298.0	3.2738287679788365e+17
19299.0	3.271820052529153e+17
19300.0	3.272916601580202e+17
19301.0	3.2723125532972365e+17
19302.0	3.271798904498858e+17
19303.0	3.271103024726015e+17
19304.0	3.270639838647637e+17
19305.0	3.270098333728767e+17
19306.0	3.269652512418474e+17
19307.0	3.269107901267968e+17
19308.0	3.2685689870308685e+17
19309.0	3.2679468955511456e+17
19310.0	3.2673793719664634e+17
19311.0	3.2668310180986874e+17
19312.0	3.266263000285183e+17
19313.0	3.265793922607786e+17
19314.0	3.259047765606397e+17
19315.0	3.258819557021018e+17
19316.0	3.262371800809475e+17
19317.0	3.2638514090038605e+17
19318.0	3.263265807968938e+17
19319.0	3.262535829902677e+17
19320.0	3.261722526045523e+17
19321.0	3.2604023279670605e+17
19322.0	3.2611578696171514e+17
19323.0	3.2607134586415776e+17
19324.0	3.2601063359337805e+17
19325.0	3.259638659503445e+17
19326.0	3.2590206903255034e+17
19327.0	3.2586019338103456e+17
19328.0	3.2551669620626797e+17
19329.0	3.2575091893425485e+17
19330.0	3.2570250324432205e+17
19331.0	3.256508515439957e+17
19332.0	3.255900817762986e+17
19333.0	3.2554979740876794e+17
19334.0	3.254594601746432e+17
19335.0	3.248568321878706e+17
19336.0	3.253714740925781e+17
19337.0	3.253258659998378e+17
19338.0	3.252695907784021e+17
19339.0	3.2520342213754874e+17
19340.0	3.2514018804148896e+17
19341.0	3.2491146691215405e+17
19342.0	3.250056918816087e+17
19343.0	3.2501238840251725e+17
19344.0	3.2474938345171654e+17
19345.0	3.247896085397505e+17
19346.0	3.248346204471296e+17
19347.0	3.245432987713535e+17
19348.0	3.2475245644349434e+17
19349.0	3.2469583907170976e+17
19350.0	3.2454934244884474e+17
19351.0	3.245900707485014e+17
19352.0	3.242604926511782e+17
19353.0	3.244804411839829e+17
19354.0	3.24437472182272e+17
19355.0	3.243829702426623e+17
19356.0	3.2432116937523194e+17
19357.0	3.242768191193088e+17
19358.0	3.2422272787196576e+17
19359.0	3.241159677706237e+17
19360.0	3.238956852663636e+17
19361.0	3.2406540022797645e+17
19362.0	3.240108219170815e+17
19363.0	3.2395834558163616e+17
19364.0	3.2391116906386765e+17
19365.0	3.23854085460241e+17
19366.0	3.2376977002332154e+17
19367.0	3.2374473548103674e+17
19368.0	3.2369703879966714e+17
19369.0	3.2365358601994234e+17
19370.0	3.23602401530129e+17
19371.0	3.235317054526805e+17
19372.0	3.2349084429844474e+17
19373.0	3.2342359422621005e+17
19374.0	3.2336621747568634e+17
19375.0	3.23329507528977e+17
19376.0	3.232808323164842e+17
19377.0	3.23231194616081e+17
19378.0	3.231797969857194e+17
19379.0	3.231269225409194e+17
19380.0	3.230412710783658e+17
19381.0	3.2299909840022176e+17
19382.0	3.2296086896203085e+17
19383.0	3.229048707394218e+17
19384.0	3.2282556435005434e+17
19385.0	3.228113457993045e+17
19386.0	3.227513159068331e+17
19387.0	3.2269228048383994e+17
19388.0	3.2263907601722016e+17
19389.0	3.225958506736298e+17
19390.0	3.22541077467409e+17
19391.0	3.224152104588628e+17
19392.0	3.2243877091300685e+17
19393.0	3.2238163830592845e+17
19394.0	3.223352235436714e+17
19395.0	3.222006965906093e+17
19396.0	3.222113063971499e+17
19397.0	3.221650209243136e+17
19398.0	3.220548276802901e+17
19399.0	3.2195427567315616e+17
19400.0	3.21964965555951e+17
19401.0	3.2195996587567776e+17
19402.0	3.2191963977482234e+17
19403.0	3.2186934545612794e+17
19404.0	3.2179531536138246e+17
19405.0	3.21739635556352e+17
19406.0	3.217066710881621e+17
19407.0	3.2154534047034003e+17
19408.0	3.215965513842688e+17
19409.0	3.215498898920789e+17
19410.0	3.21498291704081e+17
19411.0	3.2144114298388474e+17
19412.0	3.2138452568200525e+17
19413.0	3.2123377715336525e+17
19414.0	3.212944296203605e+17
19415.0	3.212346662409557e+17
19416.0	3.2116945232855034e+17
19417.0	3.2113358239607456e+17
19418.0	3.2107791604776954e+17
19419.0	3.2102386901538125e+17
19420.0	3.209711273552554e+17
19421.0	3.20915436540177e+17
19422.0	3.2085389166510074e+17
19423.0	3.208165012624725e+17
19424.0	3.2076313996383565e+17
19425.0	3.2070123581166925e+17
19426.0	3.2066080114824525e+17
19427.0	3.2060580574877005e+17
19428.0	3.205284942752426e+17
19429.0	3.2049984543129594e+17
19430.0	3.204330475399851e+17
19431.0	3.203557750734848e+17
19432.0	3.2031901549417805e+17
19433.0	3.202585165736618e+17
19434.0	3.2021617185914874e+17
19435.0	3.20144198476322e+17
19436.0	3.200695430108501e+17
19437.0	3.200318776715946e+17
19438.0	3.19831766414131e+17
19439.0	3.1992504329611936e+17
19440.0	3.1985284303639885e+17
19441.0	3.1978367326617594e+17
19442.0	3.1970661208773965e+17
19443.0	3.1962218511728634e+17
19444.0	3.195166858586794e+17
19445.0	3.194070963847168e+17
19446.0	3.1925705166028794e+17
19447.0	3.19072086523904e+17
19448.0	3.188129571099989e+17
19449.0	3.1852322549486925e+17
19450.0	3.181840152483157e+17
19451.0	3.1803984779236685e+17
19452.0	3.1816989470446925e+17
19453.0	3.1840759492990285e+17
19454.0	3.1857753194496e+17
19455.0	3.1870589327114234e+17
19456.0	3.1876294817873914e+17
19457.0	3.187559002800128e+17
19458.0	3.1654980556772934e+17
19459.0	3.184603538565807e+17
19460.0	3.1873653825426765e+17
19461.0	3.187490461231786e+17
19462.0	3.1871883762728954e+17
19463.0	3.1868252526564685e+17
19464.0	3.1863539390655136e+17
19465.0	3.1859611784970234e+17
19466.0	3.185574674781525e+17
19467.0	3.185090445879978e+17
19468.0	3.184678893780992e+17
19469.0	3.182165121564668e+17
19470.0	3.1837272397578234e+17
19471.0	3.1831890591743994e+17
19472.0	3.182804498819754e+17
19473.0	3.18230230082082e+17
19474.0	3.179543847239676e+17
19475.0	3.180967438057472e+17
19476.0	3.1807762536420685e+17
19477.0	3.180203409582762e+17
19478.0	3.1797954984891725e+17
19479.0	3.1772401771479e+17
19480.0	3.178799571839658e+17
19481.0	3.1780929878534816e+17
19482.0	3.1775369877695136e+17
19483.0	3.177229922773674e+17
19484.0	3.176555861420714e+17
19485.0	3.1762370415383885e+17
19486.0	3.173441708490759e+17
19487.0	3.17507548741632e+17
19488.0	3.1746917987778554e+17
19489.0	3.1742488918097914e+17
19490.0	3.173427620872191e+17
19491.0	3.1730708935693645e+17
19492.0	3.172623436130986e+17
19493.0	3.172005497711274e+17
19494.0	3.1715089735570765e+17
19495.0	3.171192424890368e+17
19496.0	3.1705038225844896e+17
19497.0	3.1702109815220896e+17
19498.0	3.169710064183978e+17
19499.0	3.168091838436691e+17
19500.0	3.1686213217812474e+17
19501.0	3.168202207701674e+17
19502.0	3.167606726634154e+17
19503.0	3.1671177980149754e+17
19504.0	3.1665524219139405e+17
19505.0	3.1659346750341114e+17
19506.0	3.165559829386581e+17
19507.0	3.165099815250602e+17
19508.0	3.164527969435648e+17
19509.0	3.1640153576789325e+17
19510.0	3.163039722023594e+17
19511.0	3.154379971493883e+17
19512.0	3.1620345525261645e+17
19513.0	3.1614651110959776e+17
19514.0	3.1611512544733856e+17
19515.0	3.160951175337301e+17
19516.0	3.160147961577471e+17
19517.0	3.15991719481617e+17
19518.0	3.1588944934775456e+17
19519.0	3.1583599378213536e+17
19520.0	3.1565572696528186e+17
19521.0	3.1580094750610765e+17
19522.0	3.1571622371874125e+17
19523.0	3.15664223821278e+17
19524.0	3.154969366276783e+17
19525.0	3.1559442074610336e+17
19526.0	3.155279164211199e+17
19527.0	3.15490331332881e+17
19528.0	3.154166900151636e+17
19529.0	3.15363834269969e+17
19530.0	3.153355301279061e+17
19531.0	3.1527878692700154e+17
19532.0	3.1522368174161914e+17
19533.0	3.151562614505471e+17
19534.0	3.1513306883686394e+17
19535.0	3.150879756648448e+17
19536.0	3.1502965869117434e+17
19537.0	3.1498256158556154e+17
19538.0	3.147564203376642e+17
19539.0	3.148808888953515e+17
19540.0	3.1483662322455885e+17
19541.0	3.1473877032195405e+17
19542.0	3.147059415744512e+17
19543.0	3.144876831713963e+17
19544.0	3.146039798267903e+17
19545.0	3.1457652041755296e+17
19546.0	3.145110956365141e+17
19547.0	3.1448297017180154e+17
19548.0	3.1442955183063034e+17
19549.0	3.1436959477923834e+17
19550.0	3.142998232662016e+17
19551.0	3.1427726885082445e+17
19552.0	3.14208712462609e+17
19553.0	3.141744746386773e+17
19554.0	3.1410663802798074e+17
19555.0	3.140354612832939e+17
19556.0	3.139947760102058e+17
19557.0	3.139672408238762e+17
19558.0	3.139159076809386e+17
19559.0	3.138647081265834e+17
19560.0	3.137481303829161e+17
19561.0	3.1376514489166496e+17
19562.0	3.13662444282402e+17
19563.0	3.136679272513535e+17
19564.0	3.1357374726580896e+17
19565.0	3.1355188435135136e+17
19566.0	3.134860950503423e+17
19567.0	3.1346456425485645e+17
19568.0	3.134124370253141e+17
19569.0	3.133662213526869e+17
19570.0	3.133154320012629e+17
19571.0	3.132592067969024e+17
19572.0	3.13209672695808e+17
19573.0	3.1314392897290234e+17
19574.0	3.1310375624376314e+17
19575.0	3.1306258631884794e+17
19576.0	3.130082219524096e+17
19577.0	3.12944741126417e+17
19578.0	3.129104863505067e+17
19579.0	3.128666834512554e+17
19580.0	3.127980487693653e+17
19581.0	3.127301680136191e+17
19582.0	3.127068329683626e+17
19583.0	3.126667983366826e+17
19584.0	3.125980863048362e+17
19585.0	3.1256269738912416e+17
19586.0	3.125141036160341e+17
19587.0	3.1246635489034234e+17
19588.0	3.12402222584081e+17
19589.0	3.1236588267984205e+17
19590.0	3.1231075128005965e+17
19591.0	3.1225859720697165e+17
19592.0	3.122059478564864e+17
19593.0	3.1214574666164896e+17
19594.0	3.1209666446185805e+17
19595.0	3.120576477877589e+17
19596.0	3.119874682738004e+17
19597.0	3.1196078023202125e+17
19598.0	3.118667841317547e+17
19599.0	3.1185491792145056e+17
19600.0	3.11793708241169e+17
19601.0	3.117519981947562e+17
19602.0	3.1169954835333114e+17
19603.0	3.11645366788642e+17
19604.0	3.116074454570325e+17
19605.0	3.115415202605738e+17
19606.0	3.1149044583628794e+17
19607.0	3.1145588571504634e+17
19608.0	3.1136943415405216e+17
19609.0	3.1135037174142285e+17
19610.0	3.112166868647938e+17
19611.0	3.111033260823893e+17
19612.0	3.112055620676266e+17
19613.0	3.1112914398085114e+17
19614.0	3.1110062418165754e+17
19615.0	3.110593009549312e+17
19616.0	3.109209317747373e+17
19617.0	3.108215264553643e+17
19618.0	3.108830485064362e+17
19619.0	3.1083024358222496e+17
19620.0	3.1074853315761466e+17
19621.0	3.105160444248062e+17
19622.0	3.1070421355506336e+17
19623.0	3.1065326936391674e+17
19624.0	3.105911949579605e+17
19625.0	3.105577528983551e+17
19626.0	3.104923128081066e+17
19627.0	3.104570648909141e+17
19628.0	3.104082826887168e+17
19629.0	3.09891008648533e+17
19630.0	3.1030826517572256e+17
19631.0	3.102019676362069e+17
19632.0	3.102113094347434e+17
19633.0	3.101620841742336e+17
19634.0	3.1010772379238394e+17
19635.0	3.1003261635570336e+17
19636.0	3.097626028627282e+17
19637.0	3.097145265968466e+17
19638.0	3.098842890939049e+17
19639.0	3.0984481768734714e+17
19640.0	3.0980220586557434e+17
19641.0	3.097255594338989e+17
19642.0	3.0970422224049485e+17
19643.0	3.0965365609594874e+17
19644.0	3.0960871003914234e+17
19645.0	3.0956396342149114e+17
19646.0	3.0926137989966464e+17
19647.0	3.0942517592937805e+17
19648.0	3.0941351950417914e+17
19649.0	3.093553958180182e+17
19650.0	3.093066402146986e+17
19651.0	3.0926023866449914e+17
19652.0	3.0921591724441594e+17
19653.0	3.091552174516906e+17
19654.0	3.091193139647829e+17
