# Flux units: erg / (cm m2 s)
# Wavelength units: Angstrom
wave	flux
19000.0	7.887617851566762e+17
19001.0	7.886124733868713e+17
19002.0	7.884655657921194e+17
19003.0	7.883173550271145e+17
19004.0	7.881691336365395e+17
19005.0	7.880209701273597e+17
19006.0	7.878727424453289e+17
19007.0	7.877114859967828e+17
19008.0	7.875753594410326e+17
19009.0	7.87427576914466e+17
19010.0	7.872739150921725e+17
19011.0	7.871307612596905e+17
19012.0	7.869692808353108e+17
19013.0	7.868345404970326e+17
19014.0	7.86685465146163e+17
19015.0	7.865377399417514e+17
19016.0	7.863886431999315e+17
19017.0	7.862385628938239e+17
19018.0	7.860914131479209e+17
19019.0	7.859439765116244e+17
19020.0	7.857949373715795e+17
19021.0	7.856465835808084e+17
19022.0	7.854985598817619e+17
19023.0	7.853500598495912e+17
19024.0	7.85201371493171e+17
19025.0	7.85051894887219e+17
19026.0	7.849026602926079e+17
19027.0	7.847445232877564e+17
19028.0	7.84607438053922e+17
19029.0	7.844588928630783e+17
19030.0	7.843103527053993e+17
19031.0	7.841617928344915e+17
19032.0	7.840132287692799e+17
19033.0	7.83863580057054e+17
19034.0	7.837160524043604e+17
19035.0	7.835668421367123e+17
19036.0	7.82572875135931e+17
19037.0	7.832701895005523e+17
19038.0	7.831217789468671e+17
19039.0	7.829732236896936e+17
19040.0	7.828246487192915e+17
19041.0	7.826760765450921e+17
19042.0	7.825265094819837e+17
19043.0	7.823789733008726e+17
19044.0	7.822303320604671e+17
19045.0	7.82081257967889e+17
19046.0	7.819324509126653e+17
19047.0	7.817846337131859e+17
19048.0	7.816336452004521e+17
19049.0	7.81486709224243e+17
19050.0	7.813384067437908e+17
19051.0	7.81064840954948e+17
19052.0	7.810324360418646e+17
19053.0	7.808900048879616e+17
19054.0	7.807447312542377e+17
19055.0	7.805930881504596e+17
19056.0	7.804476559720447e+17
19057.0	7.802989119711913e+17
19058.0	7.801473519146323e+17
19059.0	7.800020601055914e+17
19060.0	7.798532417257471e+17
19061.0	7.797050252285267e+17
19062.0	7.79556473746227e+17
19063.0	7.794080002779817e+17
19064.0	7.792581415709353e+17
19065.0	7.791087597562536e+17
19066.0	7.789617338821289e+17
19067.0	7.788140812391764e+17
19068.0	7.786656107069439e+17
19069.0	7.785171678571178e+17
19070.0	7.783685362636115e+17
19071.0	7.782197989736447e+17
19072.0	7.780717550021288e+17
19073.0	7.779233595479378e+17
19074.0	7.777750173614079e+17
19075.0	7.77626605968862e+17
19076.0	7.774779352285181e+17
19077.0	7.773297237644628e+17
19078.0	7.771808084961962e+17
19079.0	7.770330719671636e+17
19080.0	7.768846762333526e+17
19081.0	7.767357931214163e+17
19082.0	7.765873895582378e+17
19083.0	7.764383944583849e+17
19084.0	7.762881955932841e+17
19085.0	7.761429806798164e+17
19086.0	7.759887924723711e+17
19087.0	7.758212034636458e+17
19088.0	7.756960141148157e+17
19089.0	7.755342721056765e+17
19090.0	7.754011511881727e+17
19091.0	7.752528758308864e+17
19092.0	7.750983302687402e+17
19093.0	7.749568021484884e+17
19094.0	7.748068682235901e+17
19095.0	7.746581507866621e+17
19096.0	7.745110489956351e+17
19097.0	7.74363797607765e+17
19098.0	7.742159268610047e+17
19099.0	7.740677855816362e+17
19100.0	7.739182975112531e+17
19101.0	7.737710634598399e+17
19102.0	7.736224641624744e+17
19103.0	7.734753439165096e+17
19104.0	7.733272321370794e+17
19105.0	7.73179088061508e+17
19106.0	7.730264458745172e+17
19107.0	7.728826851262464e+17
19108.0	7.727347053275816e+17
19109.0	7.72492607584119e+17
19110.0	7.724375149816489e+17
19111.0	7.722904429701802e+17
19112.0	7.721428105996969e+17
19113.0	7.719948544289449e+17
19114.0	7.718468647037609e+17
19115.0	7.71697030603298e+17
19116.0	7.715509143339007e+17
19117.0	7.714026791021225e+17
19118.0	7.712496124515667e+17
19119.0	7.710816614744061e+17
19120.0	7.70952410501393e+17
19121.0	7.70806951898863e+17
19122.0	7.70659121836851e+17
19123.0	7.705053375408808e+17
19124.0	7.703528097185791e+17
19125.0	7.702087297837738e+17
19126.0	7.700599870412115e+17
19127.0	7.698943982960637e+17
19128.0	7.6968780379805e+17
19129.0	7.696173018819241e+17
19130.0	7.694706600662358e+17
19131.0	7.693203255853055e+17
19132.0	7.691750481767084e+17
19133.0	7.690120140423169e+17
19134.0	7.688417589941587e+17
19135.0	7.687314875263658e+17
19136.0	7.685839795869011e+17
19137.0	7.684340339179517e+17
19138.0	7.682797458860714e+17
19139.0	7.681404155811155e+17
19140.0	7.679930640891901e+17
19141.0	7.678454118656681e+17
19142.0	7.676977063744854e+17
19143.0	7.67549298057762e+17
19144.0	7.674020519826772e+17
19145.0	7.672542655414271e+17
19146.0	7.670973089535315e+17
19147.0	7.669583379606186e+17
19148.0	7.668110660206591e+17
19149.0	7.666636054768297e+17
19150.0	7.665158421042515e+17
19151.0	7.663687228369577e+17
19152.0	7.662199655541416e+17
19153.0	7.660734836812458e+17
19154.0	7.65924315636258e+17
19155.0	7.65778169167872e+17
19156.0	7.656303604968105e+17
19157.0	7.654809015069353e+17
19158.0	7.652709050089471e+17
19159.0	7.65186694849058e+17
19160.0	7.650384204704425e+17
19161.0	7.648839919293782e+17
19162.0	7.646002244747263e+17
19163.0	7.645954881268393e+17
19164.0	7.644496614042281e+17
19165.0	7.643000048626344e+17
19166.0	7.64150639685359e+17
19167.0	7.639932889726972e+17
19168.0	7.638575317953194e+17
19169.0	7.637089685689684e+17
19170.0	7.635642056616617e+17
19171.0	7.634096863838207e+17
19172.0	7.632683896493396e+17
19173.0	7.631213170786303e+17
19174.0	7.62973484500036e+17
19175.0	7.628265503413586e+17
19176.0	7.626789397812564e+17
19177.0	7.625294715639123e+17
19178.0	7.623812512918185e+17
19179.0	7.622255483813887e+17
19180.0	7.620730503386451e+17
19181.0	7.619389981458432e+17
19182.0	7.617921305367892e+17
19183.0	7.616439475940008e+17
19184.0	7.614950588896596e+17
19185.0	7.6135039762432e+17
19186.0	7.612028888459945e+17
19187.0	7.610543923090772e+17
19188.0	7.609067350523901e+17
19189.0	7.607563397540521e+17
19190.0	7.606079066909353e+17
19191.0	7.604626822703786e+17
19192.0	7.603152210274985e+17
19193.0	7.601548086127272e+17
19194.0	7.600149724747091e+17
19195.0	7.598720468123647e+17
19196.0	7.597252001748306e+17
19197.0	7.595766590384809e+17
19198.0	7.594254406778879e+17
19199.0	7.5841429087191e+17
19200.0	7.585679670946478e+17
19201.0	7.58982627172898e+17
19202.0	7.588378930664786e+17
19203.0	7.586890088360617e+17
19204.0	7.585425824677888e+17
19205.0	7.583954803971412e+17
19206.0	7.582475080084138e+17
19207.0	7.580991799427071e+17
19208.0	7.579494954390871e+17
19209.0	7.578038669672445e+17
19210.0	7.5765584522554e+17
19211.0	7.575077203039572e+17
19212.0	7.573596845812394e+17
19213.0	7.572034691268608e+17
19214.0	7.570511087970985e+17
19215.0	7.569120084798118e+17
19216.0	7.567667479882409e+17
19217.0	7.566189795824982e+17
19218.0	7.564609695252479e+17
19219.0	7.563203691850409e+17
19220.0	7.561736000023209e+17
19221.0	7.560211469784404e+17
19222.0	7.558773656780799e+17
19223.0	7.557288773899603e+17
19224.0	7.555794014830592e+17
19225.0	7.554300186897064e+17
19226.0	7.552833110234451e+17
19227.0	7.551347082308266e+17
19228.0	7.54986035393331e+17
19229.0	7.548372986626045e+17
19230.0	7.546853291021651e+17
19231.0	7.545375165164204e+17
19232.0	7.543901591524692e+17
19233.0	7.54240976007987e+17
19234.0	7.540925830703785e+17
19235.0	7.539438418657279e+17
19236.0	7.537947126879572e+17
19237.0	7.536453414988458e+17
19238.0	7.53493869522671e+17
19239.0	7.533470065273513e+17
19240.0	7.531941758763007e+17
19241.0	7.530472020115455e+17
19242.0	7.528986735979178e+17
19243.0	7.527468463641939e+17
19244.0	7.525993612137812e+17
19245.0	7.524496343476905e+17
19246.0	7.52299622268928e+17
19247.0	7.52149792222959e+17
19248.0	7.519998929709736e+17
19249.0	7.518494820139007e+17
19250.0	7.51699530612736e+17
19251.0	7.515482107499859e+17
19252.0	7.513946695838377e+17
19253.0	7.512483447177215e+17
19254.0	7.510973451599871e+17
19255.0	7.50944580219699e+17
19256.0	7.507938128865961e+17
19257.0	7.506453318686036e+17
19258.0	7.504943866970108e+17
19259.0	7.50342291726882e+17
19260.0	7.501812670835369e+17
19261.0	7.500406271770621e+17
19262.0	7.49888875720431e+17
19263.0	7.497370456905046e+17
19264.0	7.49580077638178e+17
19265.0	7.49431546847778e+17
19266.0	7.492801665870506e+17
19267.0	7.491294133747711e+17
19268.0	7.489770330521599e+17
19269.0	7.488140141570729e+17
19270.0	7.486587165562196e+17
19271.0	7.485021858299903e+17
19272.0	7.483526268758698e+17
19273.0	7.481098528707923e+17
19274.0	7.480005940477952e+17
19275.0	7.478929089276585e+17
19276.0	7.477391732856148e+17
19277.0	7.475852202388136e+17
19278.0	7.474310658654207e+17
19279.0	7.472743898764628e+17
19280.0	7.471211856527357e+17
19281.0	7.469672368002387e+17
19282.0	7.468119763888808e+17
19283.0	7.466437634075305e+17
19284.0	7.464725636623017e+17
19285.0	7.463431849028266e+17
19286.0	7.461893473391958e+17
19287.0	7.460334474362879e+17
19288.0	7.456858393193129e+17
19289.0	7.45137744729428e+17
19290.0	7.455630189133824e+17
19291.0	7.454024062905e+17
19292.0	7.452480016569683e+17
19293.0	7.45089907573828e+17
19294.0	7.449316692066301e+17
19295.0	7.44773023572514e+17
19296.0	7.446140486855336e+17
19297.0	7.444543192432639e+17
19298.0	7.442949988854441e+17
19299.0	7.441349201974611e+17
19300.0	7.439744535363583e+17
19301.0	7.43813504110865e+17
19302.0	7.436522203993428e+17
19303.0	7.434894338686973e+17
19304.0	7.433277294684841e+17
19305.0	7.431659287390889e+17
19306.0	7.43002548015377e+17
19307.0	7.428320738847402e+17
19308.0	7.426573123365545e+17
19309.0	7.42466997470276e+17
19310.0	7.422882844682922e+17
19311.0	7.421605238713e+17
19312.0	7.419972358417064e+17
19313.0	7.418293140848639e+17
19314.0	7.41372505865147e+17
19315.0	7.412247385778862e+17
19316.0	7.413250522087424e+17
19317.0	7.411582141202432e+17
19318.0	7.409885411016701e+17
19319.0	7.40818150297873e+17
19320.0	7.406466650603519e+17
19321.0	7.40470884016674e+17
19322.0	7.40286230761745e+17
19323.0	7.401015425542825e+17
19324.0	7.399446265113258e+17
19325.0	7.397489237819391e+17
19326.0	7.395943129284607e+17
19327.0	7.394054413221887e+17
19328.0	7.392180694592169e+17
19329.0	7.390394627129343e+17
19330.0	7.388593636332884e+17
19331.0	7.386786944079187e+17
19332.0	7.38497515434803e+17
19333.0	7.383143659776681e+17
19334.0	7.381304218397353e+17
19335.0	7.379457561417044e+17
19336.0	7.377590641754111e+17
19337.0	7.375718062576982e+17
19338.0	7.37380561793843e+17
19339.0	7.371907354241705e+17
19340.0	7.369724177066664e+17
19341.0	7.367798846128125e+17
19342.0	7.365801452852564e+17
19343.0	7.363895368176982e+17
19344.0	7.361919493079039e+17
19345.0	7.359691330595497e+17
19346.0	7.357852091940863e+17
19347.0	7.355880925648212e+17
19348.0	7.353741496461993e+17
19349.0	7.351422907580415e+17
19350.0	7.349335335370752e+17
19351.0	7.347230172250111e+17
19352.0	7.345097655276883e+17
19353.0	7.342853234272938e+17
19354.0	7.340569911099391e+17
19355.0	7.338106530649427e+17
19356.0	7.335720737832957e+17
19357.0	7.333474061691561e+17
19358.0	7.331193642374483e+17
19359.0	7.328854182636202e+17
19360.0	7.326491348041725e+17
19361.0	7.323942055662931e+17
19362.0	7.321555835027455e+17
19363.0	7.319129713978025e+17
19364.0	7.316646097409364e+17
19365.0	7.314089480377683e+17
19366.0	7.311555093157204e+17
19367.0	7.308907173117951e+17
19368.0	7.306051864319316e+17
19369.0	7.303378072414889e+17
19370.0	7.300585207016105e+17
19371.0	7.297937650483199e+17
19372.0	7.295146699085143e+17
19373.0	7.292298036860244e+17
19374.0	7.289396174083411e+17
19375.0	7.286438036329811e+17
19376.0	7.283158384203091e+17
19377.0	7.279903465887062e+17
19378.0	7.276763576358228e+17
19379.0	7.273556365453994e+17
19380.0	7.270278932114089e+17
19381.0	7.266928056511145e+17
19382.0	7.263109620869802e+17
19383.0	7.259399282229247e+17
19384.0	7.255819101230419e+17
19385.0	7.252137432055807e+17
19386.0	7.248205406273535e+17
19387.0	7.243753429401599e+17
19388.0	7.239780086928723e+17
19389.0	7.235698577549993e+17
19390.0	7.230877197139968e+17
19391.0	7.219353014151837e+17
19392.0	7.221779016362664e+17
19393.0	7.216149530585769e+17
19394.0	7.2112464227642e+17
19395.0	7.205816837515945e+17
19396.0	7.200042044271274e+17
19397.0	7.194311432426836e+17
19398.0	7.188023067628883e+17
19399.0	7.181393915630932e+17
19400.0	7.175000828848812e+17
19401.0	7.168123077656573e+17
19402.0	7.161745195226451e+17
19403.0	7.155391330779135e+17
19404.0	7.148856894554111e+17
19405.0	7.142078337253373e+17
19406.0	7.135040714571773e+17
19407.0	7.12733364462114e+17
19408.0	7.119500816853674e+17
19409.0	7.111661169147904e+17
19410.0	7.103273391620093e+17
19411.0	7.094162549637119e+17
19412.0	7.085214671743658e+17
19413.0	7.07524343120964e+17
19414.0	7.06514631541828e+17
19415.0	7.054104165613568e+17
19416.0	7.042941068858706e+17
19417.0	7.030352034572968e+17
19418.0	7.01745158300194e+17
19419.0	7.003435083759615e+17
19420.0	6.988290866195113e+17
19421.0	6.971598578559658e+17
19422.0	6.953256892061009e+17
19423.0	6.93386895110963e+17
19424.0	6.916851926477482e+17
19425.0	6.899674789183487e+17
19426.0	6.881690602788179e+17
19427.0	6.862770430891348e+17
19428.0	6.842465374612138e+17
19429.0	6.820718843002877e+17
19430.0	6.79727325127202e+17
19431.0	6.771054812856321e+17
19432.0	6.744803816155817e+17
19433.0	6.714587908931583e+17
19434.0	6.681501322881704e+17
19435.0	6.643389994194258e+17
19436.0	6.602870408697172e+17
19437.0	6.565987732859562e+17
19438.0	6.520670106157052e+17
19439.0	6.482469377977004e+17
19440.0	6.434078514129578e+17
19441.0	6.379788225391272e+17
19442.0	6.316694997827587e+17
19443.0	6.252103712374783e+17
19444.0	6.183290444709884e+17
19445.0	6.105265411020119e+17
19446.0	6.016670859875668e+17
19447.0	5.919813244638545e+17
19448.0	5.80893033610172e+17
19449.0	5.673294857153193e+17
19450.0	5.4189735249182163e+17
19451.0	5.3116571043758125e+17
19452.0	5.564070586832217e+17
19453.0	5.7447830526798554e+17
19454.0	5.861669836860069e+17
19455.0	5.962632348915028e+17
19456.0	6.052797629857795e+17
19457.0	6.133678152002214e+17
19458.0	6.202511051806039e+17
19459.0	6.267280107241476e+17
19460.0	6.330213420673704e+17
19461.0	6.386000987160576e+17
19462.0	6.434638074828118e+17
19463.0	6.477813241959762e+17
19464.0	6.516796894303572e+17
19465.0	6.55280809373423e+17
19466.0	6.587957269321044e+17
19467.0	6.625949560864767e+17
19468.0	6.658475155958442e+17
19469.0	6.687165456405843e+17
19470.0	6.713320095263401e+17
19471.0	6.736913574658048e+17
19472.0	6.75846189953843e+17
19473.0	6.778366438932479e+17
19474.0	6.796499581140992e+17
19475.0	6.81340847731507e+17
19476.0	6.829090626950484e+17
19477.0	6.844072703208106e+17
19478.0	6.857980470711636e+17
19479.0	6.873928844705788e+17
19480.0	6.889923882429098e+17
19481.0	6.904544773887316e+17
19482.0	6.917804680806397e+17
19483.0	6.92970576535006e+17
19484.0	6.94045096682018e+17
19485.0	6.950123860219219e+17
19486.0	6.959047487346004e+17
19487.0	6.967641273008128e+17
19488.0	6.975104386859007e+17
19489.0	6.982643683950592e+17
19490.0	6.989049784259923e+17
19491.0	6.995328178498217e+17
19492.0	7.001473430847487e+17
19493.0	7.006756546106708e+17
19494.0	7.011728851555667e+17
19495.0	7.016779066201428e+17
19496.0	7.021296035211945e+17
19497.0	7.025458911991126e+17
19498.0	7.029017314066432e+17
19499.0	7.021956743648585e+17
19500.0	7.036544974061567e+17
19501.0	7.040371983559338e+17
19502.0	7.043895161170602e+17
19503.0	7.048169745547264e+17
19504.0	7.051133958051156e+17
19505.0	7.055022597952852e+17
19506.0	7.057326994707798e+17
19507.0	7.060726780089684e+17
19508.0	7.062723822441812e+17
19509.0	7.065154978054143e+17
19510.0	7.067505779190441e+17
19511.0	7.060959935856634e+17
19512.0	7.069771008136527e+17
19513.0	7.069727808203427e+17
19514.0	7.071942838321147e+17
19515.0	7.075049988511059e+17
19516.0	7.076943525227178e+17
19517.0	7.077883035342164e+17
19518.0	7.078745104624297e+17
19519.0	7.07951094398976e+17
19520.0	7.080442328339798e+17
19521.0	7.081355819788969e+17
19522.0	7.08189007904768e+17
19523.0	7.082355234351785e+17
19524.0	7.082751502406995e+17
19525.0	7.083076924473343e+17
19526.0	7.083447161279828e+17
19527.0	7.083970532125353e+17
19528.0	7.084126423220224e+17
19529.0	7.08422802743842e+17
19530.0	7.084281627847338e+17
19531.0	7.084282182893565e+17
19532.0	7.084235680645117e+17
19533.0	7.084144153941332e+17
19534.0	7.084009224579753e+17
19535.0	7.083849189512531e+17
19536.0	7.083903330986666e+17
19537.0	7.083655197360127e+17
19538.0	7.083361625440255e+17
19539.0	7.082978587617962e+17
19540.0	7.082680929047892e+17
19541.0	7.082369662757545e+17
19542.0	7.082008740102143e+17
19543.0	7.081738905146708e+17
19544.0	7.081262153990143e+17
19545.0	7.080719113256959e+17
19546.0	7.080122645479423e+17
19547.0	7.079671367729151e+17
19548.0	7.079305336411476e+17
19549.0	7.07887054786833e+17
19550.0	7.078261286065492e+17
19551.0	7.077669831879338e+17
19552.0	7.077143825612799e+17
19553.0	7.076456347030867e+17
19554.0	7.075749714460671e+17
19555.0	7.075121611844266e+17
19556.0	7.074608335290365e+17
19557.0	7.073850863561386e+17
19558.0	7.073077579306323e+17
19559.0	7.072285935184553e+17
19560.0	7.071480820356436e+17
19561.0	7.070665068773375e+17
19562.0	7.069831336209066e+17
19563.0	7.068983204599123e+17
19564.0	7.068123442184191e+17
19565.0	7.067354493441364e+17
19566.0	7.066614054780927e+17
19567.0	7.065718531730089e+17
19568.0	7.064810597733718e+17
19569.0	7.063890154924714e+17
19570.0	7.062960505618432e+17
19571.0	7.062019579226794e+17
19572.0	7.061064913693353e+17
19573.0	7.060106716555945e+17
19574.0	7.0591262504605e+17
19575.0	7.058160035211945e+17
19576.0	7.057173012021247e+17
19577.0	7.056171262629204e+17
19578.0	7.055168678570666e+17
19579.0	7.054158121140223e+17
19580.0	7.053272305106943e+17
19581.0	7.052307299216041e+17
19582.0	7.051275608085844e+17
19583.0	7.050234759391914e+17
19584.0	7.049183753491798e+17
19585.0	7.048116838596607e+17
19586.0	7.047035127595008e+17
19587.0	7.045935671891283e+17
19588.0	7.044871318317738e+17
19589.0	7.043812564140032e+17
19590.0	7.042758415308116e+17
19591.0	7.041685387913897e+17
19592.0	7.04059897230131e+17
19593.0	7.039609123547817e+17
19594.0	7.038459564086611e+17
19595.0	7.037396534515027e+17
19596.0	7.034395945511594e+17
19597.0	7.035159519952895e+17
19598.0	7.034019558457343e+17
19599.0	7.032920953498281e+17
19600.0	7.031791486850387e+17
19601.0	7.030649879789565e+17
19602.0	7.029515549846185e+17
19603.0	7.028196928476499e+17
19604.0	7.027221683590484e+17
19605.0	7.026050634612735e+17
19606.0	7.025048926464681e+17
19607.0	7.023925220693332e+17
19608.0	7.022766953157972e+17
19609.0	7.02160359793186e+17
19610.0	7.020442855058089e+17
19611.0	7.019275579555839e+17
19612.0	7.018106693440852e+17
19613.0	7.016934470057984e+17
19614.0	7.015754318741503e+17
19615.0	7.014581666840575e+17
19616.0	7.013338839340372e+17
19617.0	7.012219776663551e+17
19618.0	7.01097900577041e+17
19619.0	7.009770687605417e+17
19620.0	7.008586648169129e+17
19621.0	7.007467484129962e+17
19622.0	7.006273950886568e+17
19623.0	7.005078567955113e+17
19624.0	7.00388103754001e+17
19625.0	7.00268018803234e+17
19626.0	7.001479681059497e+17
19627.0	7.000275982221311e+17
19628.0	6.998875632041983e+17
19629.0	6.997850423907668e+17
19630.0	6.996471669500586e+17
19631.0	6.986373807822161e+17
19632.0	6.994224750089555e+17
19633.0	6.993017325311316e+17
19634.0	6.991808462585856e+17
19635.0	6.990587911733247e+17
19636.0	6.989376426868733e+17
19637.0	6.988107175952383e+17
19638.0	6.986937359400959e+17
19639.0	6.985710982660093e+17
19640.0	6.984488611479551e+17
19641.0	6.983210063189332e+17
19642.0	6.982046461897385e+17
19643.0	6.980818396949162e+17
19644.0	6.979586175445672e+17
19645.0	6.978335410924201e+17
19646.0	6.977136272692563e+17
19647.0	6.975906193080319e+17
19648.0	6.974675012463274e+17
19649.0	6.973442550486355e+17
19650.0	6.972209866211327e+17
19651.0	6.97097593622801e+17
19652.0	6.969741085594963e+17
19653.0	6.968505177298259e+17
19654.0	6.967268912485716e+17
19655.0	6.966031142617087e+17
19656.0	6.964792702358868e+17
19657.0	6.963554679433897e+17
19658.0	6.962315168230058e+17
19659.0	6.961074689540095e+17
19660.0	6.959833902568788e+17
19661.0	6.958592270445225e+17
19662.0	6.957349956747263e+17
19663.0	6.956099998930262e+17
19664.0	6.954828201372329e+17
19665.0	6.953619746193407e+17
19666.0	6.95237417771554e+17
