# Flux units: erg / (cm m2 s)
# Wavelength units: Angstrom
wave	flux
19000.0	5.6683915228392096e+17
19001.0	5.667220778647552e+17
19002.0	5.666341087696213e+17
19003.0	5.665309843958441e+17
19004.0	5.6642836005300896e+17
19005.0	5.6632152525810336e+17
19006.0	5.662201669659306e+17
19007.0	5.6612020754404685e+17
19008.0	5.660144367741609e+17
19009.0	5.6589226396876794e+17
19010.0	5.657842268766207e+17
19011.0	5.656958777076393e+17
19012.0	5.6554365369275725e+17
19013.0	5.6550614074654714e+17
19014.0	5.6540184846882125e+17
19015.0	5.653003315620521e+17
19016.0	5.6520049335555405e+17
19017.0	5.651007041525076e+17
19018.0	5.649974215136595e+17
19019.0	5.648965812180309e+17
19020.0	5.6479390011228154e+17
19021.0	5.6469345498999456e+17
19022.0	5.645906932837035e+17
19023.0	5.6448007354886816e+17
19024.0	5.643702519900841e+17
19025.0	5.6427226130459296e+17
19026.0	5.6415759532468896e+17
19027.0	5.6403032357382816e+17
19028.0	5.639665475736918e+17
19029.0	5.6386783798449485e+17
19030.0	5.6376811568059725e+17
19031.0	5.636639627935743e+17
19032.0	5.6355374242638496e+17
19033.0	5.634263807776084e+17
19034.0	5.6328140927358285e+17
19035.0	5.628206416308905e+17
19036.0	5.597380831346688e+17
19037.0	5.627060161260202e+17
19038.0	5.6288076606996474e+17
19039.0	5.6282627800651085e+17
19040.0	5.627390132748287e+17
19041.0	5.626441917355347e+17
19042.0	5.621954502109862e+17
19043.0	5.624502757097471e+17
19044.0	5.623475415460522e+17
19045.0	5.622415513441619e+17
19046.0	5.621409592115199e+17
19047.0	5.6203596921132365e+17
19048.0	5.6187154026113696e+17
19049.0	5.6109824069686515e+17
19050.0	5.61662605271586e+17
19051.0	5.611609375724883e+17
19052.0	5.6124459911741434e+17
19053.0	5.613892176707583e+17
19054.0	5.613213743841279e+17
19055.0	5.611051355734016e+17
19056.0	5.610986060906494e+17
19057.0	5.61033645339443e+17
19058.0	5.605678772475215e+17
19059.0	5.6069581575290854e+17
19060.0	5.6073173982685856e+17
19061.0	5.606306057202347e+17
19062.0	5.605310599266303e+17
19063.0	5.6042973553841485e+17
19064.0	5.6032117667485005e+17
19065.0	5.60213045490483e+17
19066.0	5.5999113206606515e+17
19067.0	5.6002429754627405e+17
19068.0	5.599263380384426e+17
19069.0	5.598254257405951e+17
19070.0	5.597216351715326e+17
19071.0	5.596188875161599e+17
19072.0	5.593867296440317e+17
19073.0	5.594216138801151e+17
19074.0	5.5932019022670496e+17
19075.0	5.592197553804628e+17
19076.0	5.591178841249109e+17
19077.0	5.5901572087589536e+17
19078.0	5.589124067098623e+17
19079.0	5.588151196188671e+17
19080.0	5.5871309918590285e+17
19081.0	5.58607371407633e+17
19082.0	5.5850963091237536e+17
19083.0	5.583999105761279e+17
19084.0	5.582845593867604e+17
19085.0	5.581982963247785e+17
19086.0	5.5785807332857146e+17
19087.0	5.576577077215227e+17
19088.0	5.5767672224918144e+17
19089.0	5.577568648429568e+17
19090.0	5.5768331849127245e+17
19091.0	5.575661202003286e+17
19092.0	5.5720187621539904e+17
19093.0	5.5739854384442016e+17
19094.0	5.5730196223535776e+17
19095.0	5.572028958507007e+17
19096.0	5.571032047244628e+17
19097.0	5.570036779450368e+17
19098.0	5.56752268567074e+17
19099.0	5.5662097273105075e+17
19100.0	5.566928422699007e+17
19101.0	5.56596337975842e+17
19102.0	5.5649282583866016e+17
19103.0	5.5639905930663245e+17
19104.0	5.562987244246356e+17
19105.0	5.558648117220703e+17
19106.0	5.560843392865621e+17
19107.0	5.559003091653972e+17
19108.0	5.557347547436374e+17
19109.0	5.556893985188521e+17
19110.0	5.5563593617244154e+17
19111.0	5.554824245761363e+17
19112.0	5.553753895731197e+17
19113.0	5.5539417530149536e+17
19114.0	5.552266506753364e+17
19115.0	5.5517264153149434e+17
19116.0	5.550913256510804e+17
19117.0	5.549872021940905e+17
19118.0	5.54847749345553e+17
19119.0	5.540880104554488e+17
19120.0	5.54643380904482e+17
19121.0	5.5456435979769165e+17
19122.0	5.5449364208462496e+17
19123.0	5.543977778413567e+17
19124.0	5.542691657307476e+17
19125.0	5.541952936214526e+17
19126.0	5.540806264531626e+17
19127.0	5.538889352260266e+17
19128.0	5.538705829090645e+17
19129.0	5.537894905151488e+17
19130.0	5.5369984873157965e+17
19131.0	5.5360243860766714e+17
19132.0	5.5350262200183456e+17
19133.0	5.5339850986946534e+17
19134.0	5.532998753583103e+17
19135.0	5.5320336232611834e+17
19136.0	5.5310343345274874e+17
19137.0	5.5299598957499725e+17
19138.0	5.529026154900137e+17
19139.0	5.5280605023873696e+17
19140.0	5.5270702209215136e+17
19141.0	5.526072073038506e+17
19142.0	5.525041721988436e+17
19143.0	5.524049763500031e+17
19144.0	5.523038987266729e+17
19145.0	5.5220833780148896e+17
19146.0	5.520454097829888e+17
19147.0	5.520045416731988e+17
19148.0	5.517917599476395e+17
19149.0	5.5167142312891725e+17
19150.0	5.517105843666943e+17
19151.0	5.5161025367900154e+17
19152.0	5.5150439084414285e+17
19153.0	5.511596284226214e+17
19154.0	5.512800305326762e+17
19155.0	5.512015956497747e+17
19156.0	5.510974119346175e+17
19157.0	5.5090084720585395e+17
19158.0	5.506822576974508e+17
19159.0	5.507776122628777e+17
19160.0	5.506806555432277e+17
19161.0	5.505522950908586e+17
19162.0	5.50339289808896e+17
19163.0	5.5031646811149645e+17
19164.0	5.502816897116842e+17
19165.0	5.499310120632315e+17
19166.0	5.500934834618368e+17
19167.0	5.499961452003326e+17
19168.0	5.499075552083967e+17
19169.0	5.4981417720872954e+17
19170.0	5.4971676645567136e+17
19171.0	5.496160638031188e+17
19172.0	5.4951694121478816e+17
19173.0	5.4942319446589434e+17
19174.0	5.49323663352354e+17
19175.0	5.492275798867968e+17
19176.0	5.491282770832041e+17
19177.0	5.4901157316089165e+17
19178.0	5.489195161572692e+17
19179.0	5.488204591398912e+17
19180.0	5.487278414277289e+17
19181.0	5.486232821126483e+17
19182.0	5.485283370511017e+17
19183.0	5.484364242616319e+17
19184.0	5.4833815891913376e+17
19185.0	5.482367601519274e+17
19186.0	5.481387466074794e+17
19187.0	5.480305669789013e+17
19188.0	5.479363188009643e+17
19189.0	5.4783353731153914e+17
19190.0	5.477301370224639e+17
19191.0	5.476230846130858e+17
19192.0	5.475194092475732e+17
19193.0	5.473747689537536e+17
19194.0	5.4723618341737805e+17
19195.0	5.471590675032745e+17
19196.0	5.469977155644073e+17
19197.0	5.4676768818899616e+17
19198.0	5.463257618492073e+17
19199.0	5.4526173501194214e+17
19200.0	5.4526893775039136e+17
19201.0	5.4606871714420045e+17
19202.0	5.4629137925188256e+17
19203.0	5.463070453268479e+17
19204.0	5.4627576329885005e+17
19205.0	5.462109424276821e+17
19206.0	5.461317513117696e+17
19207.0	5.4603053884156576e+17
19208.0	5.45941369266722e+17
19209.0	5.458615079709354e+17
19210.0	5.457670226051071e+17
19211.0	5.456731996596906e+17
19212.0	5.4557373935998285e+17
19213.0	5.4545917662986214e+17
19214.0	5.453596054607188e+17
19215.0	5.4527730923165e+17
19216.0	5.451859692442964e+17
19217.0	5.450831813236052e+17
19218.0	5.4495119915963725e+17
19219.0	5.448731840566613e+17
19220.0	5.44794140090914e+17
19221.0	5.4469002236613965e+17
19222.0	5.4460177253225805e+17
19223.0	5.445087815969451e+17
19224.0	5.444077573111807e+17
19225.0	5.443097585866068e+17
19226.0	5.44216649302016e+17
19227.0	5.441205460533247e+17
19228.0	5.440257445068799e+17
19229.0	5.43927526629922e+17
19230.0	5.4383008148357114e+17
19231.0	5.437316655655593e+17
19232.0	5.436341789655039e+17
19233.0	5.435306681565183e+17
19234.0	5.434389462777855e+17
19235.0	5.433387941975381e+17
19236.0	5.4324473301565434e+17
19237.0	5.431456072116905e+17
19238.0	5.43040440771106e+17
19239.0	5.4295146797902496e+17
19240.0	5.428538725367807e+17
19241.0	5.427545737876821e+17
19242.0	5.4265781503918074e+17
19243.0	5.4254611974498976e+17
19244.0	5.424647419286868e+17
19245.0	5.423665587246422e+17
19246.0	5.4226899166385485e+17
19247.0	5.4217113323874976e+17
19248.0	5.420734226628607e+17
19249.0	5.4196593579349325e+17
19250.0	5.418235514060799e+17
19251.0	5.4171962522118803e+17
19252.0	5.416546360186196e+17
19253.0	5.4158489949306874e+17
19254.0	5.4148951997153274e+17
19255.0	5.413728136724479e+17
19256.0	5.412934789715285e+17
19257.0	5.4119707450190496e+17
19258.0	5.410987081465855e+17
19259.0	5.4098470472690336e+17
19260.0	5.407973943104851e+17
19261.0	5.4079807721308154e+17
19262.0	5.406967626115754e+17
19263.0	5.405939690984788e+17
19264.0	5.404763229257726e+17
19265.0	5.40396980745011e+17
19266.0	5.402957973553152e+17
19267.0	5.402232369446911e+17
19268.0	5.401262603720019e+17
19269.0	5.4002918187772576e+17
19270.0	5.399273436872703e+17
19271.0	5.3981409538211834e+17
19272.0	5.397334672277503e+17
19273.0	5.396206683422719e+17
19274.0	5.3950331556113043e+17
19275.0	5.394468550563157e+17
19276.0	5.393477997166591e+17
19277.0	5.392509275821396e+17
19278.0	5.3914500791446176e+17
19279.0	5.390507580588032e+17
19280.0	5.3895230488139085e+17
19281.0	5.3885514984106656e+17
19282.0	5.387568438837247e+17
19283.0	5.3865262864138234e+17
19284.0	5.3854705724074656e+17
19285.0	5.384431170049364e+17
19286.0	5.38326425805346e+17
19287.0	5.38146657866001e+17
19288.0	5.366863695446009e+17
19289.0	5.3584382118242854e+17
19290.0	5.3782958435205114e+17
19291.0	5.378182160405845e+17
19292.0	5.3777355061766816e+17
19293.0	5.37687533691426e+17
19294.0	5.37591531175936e+17
19295.0	5.375020253577214e+17
19296.0	5.372419482408281e+17
19297.0	5.3727875004279475e+17
19298.0	5.372114521554943e+17
19299.0	5.369316577553067e+17
19300.0	5.370175445882198e+17
19301.0	5.3692363726738765e+17
19302.0	5.3682470489074323e+17
19303.0	5.367201074774015e+17
19304.0	5.366289297397077e+17
19305.0	5.3652927762049696e+17
19306.0	5.364284632596479e+17
19307.0	5.3632009299995296e+17
19308.0	5.3621322066602656e+17
19309.0	5.3607176902191763e+17
19310.0	5.3595378380963834e+17
19311.0	5.358817581727743e+17
19312.0	5.3577009321738234e+17
19313.0	5.3552780470299296e+17
19314.0	5.2686767186247725e+17
19315.0	5.273772568696226e+17
19316.0	5.3502481796519277e+17
19317.0	5.352909668963668e+17
19318.0	5.352347971966292e+17
19319.0	5.351553864389972e+17
19320.0	5.349998519298728e+17
19321.0	5.3482150376243194e+17
19322.0	5.348649993240575e+17
19323.0	5.347640689207979e+17
19324.0	5.3466579393140045e+17
19325.0	5.34563104297233e+17
19326.0	5.344812474914133e+17
19327.0	5.3439175684259834e+17
19328.0	5.3400701382601414e+17
19329.0	5.342079896343892e+17
19330.0	5.341105782521855e+17
19331.0	5.340115120073386e+17
19332.0	5.339191629403476e+17
19333.0	5.338197607317503e+17
19334.0	5.337199797075967e+17
19335.0	5.330304320055985e+17
19336.0	5.335258049631573e+17
19337.0	5.3343481862553594e+17
19338.0	5.333170503985834e+17
19339.0	5.33237620207343e+17
19340.0	5.3312498329190406e+17
19341.0	5.3281142900872576e+17
19342.0	5.3285360958614195e+17
19343.0	5.3284068721513805e+17
19344.0	5.3251618572861466e+17
19345.0	5.324198287944364e+17
19346.0	5.324474308799145e+17
19347.0	5.321613453732522e+17
19348.0	5.3235535185619616e+17
19349.0	5.3225574685300045e+17
19350.0	5.3205053235090765e+17
19351.0	5.320585141114196e+17
19352.0	5.316605917528058e+17
19353.0	5.3186960265925965e+17
19354.0	5.31772297253137e+17
19355.0	5.316639074899285e+17
19356.0	5.3157451093333325e+17
19357.0	5.314762694284628e+17
19358.0	5.3137496657100794e+17
19359.0	5.3120924283917626e+17
19360.0	5.3094113908271763e+17
19361.0	5.3107601979037e+17
19362.0	5.3097909068322125e+17
19363.0	5.308797030847828e+17
19364.0	5.3077984705249274e+17
19365.0	5.306791717328213e+17
19366.0	5.305790653704874e+17
19367.0	5.3047743752437754e+17
19368.0	5.3037769334019405e+17
19369.0	5.302703002135209e+17
19370.0	5.301710740258815e+17
19371.0	5.300684738002943e+17
19372.0	5.299709721706494e+17
19373.0	5.298669425961642e+17
19374.0	5.297672525884073e+17
19375.0	5.296644474710698e+17
19376.0	5.295623031663273e+17
19377.0	5.294578896732159e+17
19378.0	5.2935410092168525e+17
19379.0	5.292499945914367e+17
19380.0	5.291433591657812e+17
19381.0	5.290388403956394e+17
19382.0	5.2892336449563296e+17
19383.0	5.288180223836159e+17
19384.0	5.2871377561408845e+17
19385.0	5.286070601471317e+17
19386.0	5.284964545331199e+17
19387.0	5.2838102714722976e+17
19388.0	5.282591315853311e+17
19389.0	5.2811503452378445e+17
19390.0	5.278348390083243e+17
19391.0	5.249595988071747e+17
19392.0	5.271188059542867e+17
19393.0	5.2762037949125965e+17
19394.0	5.2756553239538336e+17
19395.0	5.273829697912834e+17
19396.0	5.273395458823509e+17
19397.0	5.2724690468208634e+17
19398.0	5.270436099828394e+17
19399.0	5.268633443194196e+17
19400.0	5.267959161989802e+17
19401.0	5.267573901186388e+17
19402.0	5.266321937793023e+17
19403.0	5.265025366578515e+17
19404.0	5.2636831200925005e+17
19405.0	5.2622893109302605e+17
19406.0	5.2609132681407136e+17
19407.0	5.2584539589618323e+17
19408.0	5.257550235347627e+17
19409.0	5.2563573745909754e+17
19410.0	5.2549909388547405e+17
19411.0	5.253471830452906e+17
19412.0	5.251750718778025e+17
19413.0	5.2490551891940685e+17
19414.0	5.2483835035648e+17
19415.0	5.246511541649406e+17
19416.0	5.244411102014121e+17
19417.0	5.242596009268564e+17
19418.0	5.2407551327382176e+17
19419.0	5.238681280795989e+17
19420.0	5.236516657823743e+17
19421.0	5.234208906324651e+17
19422.0	5.231740396939946e+17
19423.0	5.2291532915124896e+17
19424.0	5.226493944091989e+17
19425.0	5.2236173750654285e+17
19426.0	5.220444046447958e+17
19427.0	5.217019726484821e+17
19428.0	5.2133355379316045e+17
19429.0	5.2089214293333325e+17
19430.0	5.2023861843066874e+17
19431.0	5.195720017575936e+17
19432.0	5.1946152525823994e+17
19433.0	5.18969966600738e+17
19434.0	5.183494760169471e+17
19435.0	5.175076840975017e+17
19436.0	5.166166584590336e+17
19437.0	5.156390877615445e+17
19438.0	5.094406795995827e+17
19439.0	5.125332389942609e+17
19440.0	5.127476989307561e+17
19441.0	5.114911212437503e+17
19442.0	5.099058729320448e+17
19443.0	5.0804079303065594e+17
19444.0	5.0580411897610214e+17
19445.0	5.0304130017307296e+17
19446.0	4.996592835406506e+17
19447.0	4.9530015387921043e+17
19448.0	4.893984653224621e+17
19449.0	4.805481543499775e+17
19450.0	4.6339432060900634e+17
19451.0	4.48562138640112e+17
19452.0	4.738148699471876e+17
19453.0	4.8526768321768134e+17
19454.0	4.921235671263912e+17
19455.0	4.96939944850227e+17
19456.0	5.004488932152662e+17
19457.0	5.0292874644466336e+17
19458.0	4.818124417969075e+17
19459.0	5.0428041920949434e+17
19460.0	5.0888873883293e+17
19461.0	5.1039944555451725e+17
19462.0	5.115789400429909e+17
19463.0	5.1253150646708896e+17
19464.0	5.133368975600298e+17
19465.0	5.1404521693948576e+17
19466.0	5.146491742060542e+17
19467.0	5.151833858594132e+17
19468.0	5.1562080618850976e+17
19469.0	5.157912270514854e+17
19470.0	5.1633733745595725e+17
19471.0	5.166272536903679e+17
19472.0	5.168725158963881e+17
19473.0	5.171023360032767e+17
19474.0	5.170744851256658e+17
19475.0	5.1737949365425485e+17
19476.0	5.1757178340857165e+17
19477.0	5.1769339389760845e+17
19478.0	5.17782673293312e+17
19479.0	5.1765402077757395e+17
19480.0	5.1791890827182074e+17
19481.0	5.179670339256319e+17
19482.0	5.1800768532971514e+17
19483.0	5.180354908389375e+17
19484.0	5.180553541539156e+17
19485.0	5.1805905401937914e+17
19486.0	5.1784233775704794e+17
19487.0	5.180536765022207e+17
19488.0	5.1803881084026874e+17
19489.0	5.1797935259647994e+17
19490.0	5.1790790206859936e+17
19491.0	5.1796028529049594e+17
19492.0	5.179344229324117e+17
19493.0	5.1789309624538445e+17
19494.0	5.178510432447146e+17
19495.0	5.1778536813363194e+17
19496.0	5.176692350560938e+17
19497.0	5.1751814867626656e+17
19498.0	5.1604244006611584e+17
19499.0	5.129615906788691e+17
19500.0	5.1720884413180576e+17
19501.0	5.174010407026687e+17
19502.0	5.173925855450451e+17
19503.0	5.173501116459689e+17
19504.0	5.172942027620352e+17
19505.0	5.172215449037481e+17
19506.0	5.171552802832383e+17
19507.0	5.170735758005588e+17
19508.0	5.169787897730389e+17
19509.0	5.168333568256683e+17
19510.0	5.1633037330350054e+17
19511.0	5.033030261407676e+17
19512.0	5.14866409583411e+17
19513.0	5.149451087773687e+17
19514.0	5.1517906516705216e+17
19515.0	5.1633297614875296e+17
19516.0	5.163419193136468e+17
19517.0	5.163216467744083e+17
19518.0	5.1619901469272723e+17
19519.0	5.161208806113279e+17
19520.0	5.158949004596561e+17
19521.0	5.160403222921215e+17
19522.0	5.159245084011177e+17
19523.0	5.1582340994607795e+17
19524.0	5.156336494968835e+17
19525.0	5.157127953143124e+17
19526.0	5.1563774041128954e+17
19527.0	5.155540616697172e+17
19528.0	5.154532364036778e+17
19529.0	5.1535915452989434e+17
19530.0	5.1530429659873274e+17
19531.0	5.152218518913023e+17
19532.0	5.151370690691071e+17
19533.0	5.1505180613891405e+17
19534.0	5.1496677431487136e+17
19535.0	5.1487906302962336e+17
19536.0	5.147911014842367e+17
19537.0	5.1470312987252045e+17
19538.0	5.1439769953675974e+17
19539.0	5.1450244368083616e+17
19540.0	5.144432184306345e+17
19541.0	5.1431078426050554e+17
19542.0	5.1425304211619834e+17
19543.0	5.1396634633830406e+17
19544.0	5.140811103950164e+17
19545.0	5.1395961028607994e+17
19546.0	5.138663682517674e+17
19547.0	5.1383444575354874e+17
19548.0	5.1375227661189114e+17
19549.0	5.136562184519679e+17
19550.0	5.135787192483839e+17
19551.0	5.134915515449342e+17
19552.0	5.134032400547838e+17
19553.0	5.133136709724841e+17
19554.0	5.13223963128627e+17
19555.0	5.1311186839688525e+17
19556.0	5.130314338096468e+17
19557.0	5.129593475650899e+17
19558.0	5.1287360592500045e+17
19559.0	5.127864166208851e+17
19560.0	5.126164390259368e+17
19561.0	5.126067782156288e+17
19562.0	5.1244127440513683e+17
19563.0	5.1243245993547085e+17
19564.0	5.123428369563647e+17
19565.0	5.1225508533589325e+17
19566.0	5.12164441952529e+17
19567.0	5.120776808169472e+17
19568.0	5.1198682415322445e+17
19569.0	5.1189843975208954e+17
19570.0	5.118084894075562e+17
19571.0	5.117205163278335e+17
19572.0	5.116297875204778e+17
19573.0	5.115152013022547e+17
19574.0	5.114357725790207e+17
19575.0	5.113664497516543e+17
19576.0	5.1126191741992954e+17
19577.0	5.111438474827094e+17
19578.0	5.110961686620842e+17
19579.0	5.110065721769983e+17
19580.0	5.1091746600605e+17
19581.0	5.10829903548689e+17
19582.0	5.107420219047935e+17
19583.0	5.10652608221457e+17
19584.0	5.1056033430241274e+17
19585.0	5.104605980874068e+17
19586.0	5.103662077924693e+17
19587.0	5.1028424424161274e+17
19588.0	5.1017371244735136e+17
19589.0	5.101078157372074e+17
19590.0	5.1001278804787194e+17
19591.0	5.099366252893524e+17
19592.0	5.098490845025621e+17
19593.0	5.097366900877993e+17
19594.0	5.096255499796478e+17
19595.0	5.0957931560741536e+17
19596.0	5.09474484850961e+17
19597.0	5.0939977360124576e+17
19598.0	5.092694823010304e+17
19599.0	5.0922025934738765e+17
19600.0	5.091333520403115e+17
19601.0	5.090373728731136e+17
19602.0	5.0894020951408634e+17
19603.0	5.088243674513407e+17
19604.0	5.087572824249685e+17
19605.0	5.086605159170048e+17
19606.0	5.085967160093354e+17
19607.0	5.0851023134829216e+17
19608.0	5.084192782854825e+17
19609.0	5.0832837660289696e+17
19610.0	5.0813935875522566e+17
19611.0	5.080012900969132e+17
19612.0	5.0806432384505165e+17
19613.0	5.0797300930314234e+17
19614.0	5.0788044688588794e+17
19615.0	5.0778839848058874e+17
19616.0	5.075765604734295e+17
19617.0	5.074543633410731e+17
19618.0	5.0746106849525754e+17
19619.0	5.073408821821439e+17
19620.0	5.072423996446034e+17
19621.0	5.0703007216216723e+17
19622.0	5.0716311960944634e+17
19623.0	5.0706047513395194e+17
19624.0	5.0694428641198074e+17
19625.0	5.0688473379635194e+17
19626.0	5.0678335572104525e+17
19627.0	5.06666791538961e+17
19628.0	5.0651567363194874e+17
19629.0	5.058014541250556e+17
19630.0	5.0568080895508474e+17
19631.0	5.050087923253248e+17
19632.0	5.0593465871892474e+17
19633.0	5.0605647829401594e+17
19634.0	5.0604376270219936e+17
19635.0	5.059530702454782e+17
19636.0	5.0565937074885946e+17
19637.0	5.055535179104253e+17
19638.0	5.057196107410089e+17
19639.0	5.056485966304596e+17
19640.0	5.0553742422616736e+17
19641.0	5.0537865905438726e+17
19642.0	5.05367319683618e+17
19643.0	5.0527997001727994e+17
19644.0	5.052029696562518e+17
19645.0	5.0510785011165856e+17
19646.0	5.047747826679803e+17
19647.0	5.049436728197118e+17
19648.0	5.048596571357182e+17
19649.0	5.0477115857960954e+17
19650.0	5.0468309203681274e+17
19651.0	5.0459409184194554e+17
19652.0	5.0450543390228474e+17
19653.0	5.044152597217279e+17
19654.0	5.0432816017571834e+17
19655.0	5.0423906099527674e+17
19656.0	5.041514063331328e+17
