# Flux units: erg / (cm m2 s)
# Wavelength units: Angstrom
wave	flux
19000.0	4.845468709639508e+17
19001.0	4.8444783708514976e+17
19002.0	4.8436813817883296e+17
19003.0	4.8427841551510176e+17
19004.0	4.841890404193621e+17
19005.0	4.8409904463653536e+17
19006.0	4.8401054286479354e+17
19007.0	4.839199745594709e+17
19008.0	4.838253615469908e+17
19009.0	4.837277326202196e+17
19010.0	4.836082998138196e+17
19011.0	4.8355902415175674e+17
19012.0	4.834604706605738e+17
19013.0	4.833840289109332e+17
19014.0	4.8328980694739616e+17
19015.0	4.832015792734207e+17
19016.0	4.831103735737002e+17
19017.0	4.8302702918806176e+17
19018.0	4.829367860112042e+17
19019.0	4.8284762692212045e+17
19020.0	4.82757183607057e+17
19021.0	4.826697090203647e+17
19022.0	4.825800450768895e+17
19023.0	4.8248799653178016e+17
19024.0	4.824003599750485e+17
19025.0	4.8231242681111885e+17
19026.0	4.8222083495581e+17
19027.0	4.8212789379290445e+17
19028.0	4.820454544681642e+17
19029.0	4.81955289235456e+17
19030.0	4.818681879418198e+17
19031.0	4.8177914706220365e+17
19032.0	4.816893240147968e+17
19033.0	4.8159201350560416e+17
19034.0	4.815106440779093e+17
19035.0	4.814170829269674e+17
19036.0	4.8074132281098246e+17
19037.0	4.8124309403948365e+17
19038.0	4.811533446021119e+17
19039.0	4.810665678777002e+17
19040.0	4.809775554494463e+17
19041.0	4.808872752229034e+17
19042.0	4.8078914116212045e+17
19043.0	4.807105814986751e+17
19044.0	4.8062052049442125e+17
19045.0	4.8053268121299616e+17
19046.0	4.8043841311211514e+17
19047.0	4.8035099514852685e+17
19048.0	4.802450018708138e+17
19049.0	4.8016676446972576e+17
19050.0	4.8008329642202445e+17
19051.0	4.799232470941695e+17
19052.0	4.798885058838527e+17
19053.0	4.798215584306517e+17
19054.0	4.7973208903297696e+17
19055.0	4.796189030132393e+17
19056.0	4.795521943557461e+17
19057.0	4.7946552689295354e+17
19058.0	4.7937463017362765e+17
19059.0	4.7928733202732365e+17
19060.0	4.791977062520149e+17
19061.0	4.791113384023381e+17
19062.0	4.7902209277078176e+17
19063.0	4.789335459102719e+17
19064.0	4.788322647932927e+17
19065.0	4.787402126830251e+17
19066.0	4.7866222428378445e+17
19067.0	4.7857806033114445e+17
19068.0	4.784903775671637e+17
19069.0	4.784018475537748e+17
19070.0	4.783110612844543e+17
19071.0	4.78224823947537e+17
19072.0	4.7813549540857165e+17
19073.0	4.7804719615180794e+17
19074.0	4.7795917315986765e+17
19075.0	4.7787064643201696e+17
19076.0	4.7778027267249485e+17
19077.0	4.7769154412871674e+17
19078.0	4.7760174163339936e+17
19079.0	4.7751631449620474e+17
19080.0	4.7742639602838176e+17
19081.0	4.7733604638610765e+17
19082.0	4.7724726674172576e+17
19083.0	4.7715363645467296e+17
19084.0	4.7705413225458336e+17
19085.0	4.769858533894826e+17
19086.0	4.768647534870527e+17
19087.0	4.767915598763349e+17
19088.0	4.7671171291108685e+17
19089.0	4.766103704873643e+17
19090.0	4.765420718391295e+17
19091.0	4.76453046198818e+17
19092.0	4.7635976375937696e+17
19093.0	4.7627973343313914e+17
19094.0	4.7619132330693965e+17
19095.0	4.761030549482155e+17
19096.0	4.7601350984335354e+17
19097.0	4.7592641197506554e+17
19098.0	4.758377627735381e+17
19099.0	4.757494528912042e+17
19100.0	4.756602172560725e+17
19101.0	4.755730295597738e+17
19102.0	4.754747271675902e+17
19103.0	4.753977073729536e+17
19104.0	4.7530993778687994e+17
19105.0	4.752200913911807e+17
19106.0	4.7513114726017696e+17
19107.0	4.7504383478333434e+17
19108.0	4.749570684048724e+17
19109.0	4.7483266136364365e+17
19110.0	4.747792359271082e+17
19111.0	4.7469322179706874e+17
19112.0	4.746052005527551e+17
19113.0	4.745174939511466e+17
19114.0	4.744292555117909e+17
19115.0	4.743366962402645e+17
19116.0	4.742519901738325e+17
19117.0	4.74163813949986e+17
19118.0	4.740630626435071e+17
19119.0	4.732206747134627e+17
19120.0	4.738972988560724e+17
19121.0	4.738111704312489e+17
19122.0	4.737270071776596e+17
19123.0	4.7363916929433594e+17
19124.0	4.7354932338797216e+17
19125.0	4.7346309541833376e+17
19126.0	4.733753509980842e+17
19127.0	4.731055859477162e+17
19128.0	4.731915753313621e+17
19129.0	4.7310608185425914e+17
19130.0	4.730225062925653e+17
19131.0	4.729368885941589e+17
19132.0	4.728491546596692e+17
19133.0	4.727501439194453e+17
19134.0	4.726700358587732e+17
19135.0	4.7258612671010125e+17
19136.0	4.724991750133077e+17
19137.0	4.7239571565445114e+17
19138.0	4.72321775178001e+17
19139.0	4.7223631770200736e+17
19140.0	4.721489832050687e+17
19141.0	4.720613228107092e+17
19142.0	4.7197160727729485e+17
19143.0	4.718812545591979e+17
19144.0	4.717950344888319e+17
19145.0	4.717113516228607e+17
19146.0	4.715691350775125e+17
19147.0	4.7152260235045536e+17
19148.0	4.714482456592383e+17
19149.0	4.713601652752383e+17
19150.0	4.7127348977336314e+17
19151.0	4.711868748791807e+17
19152.0	4.710983713598121e+17
19153.0	4.7100926428009805e+17
19154.0	4.709118816987819e+17
19155.0	4.7083749809411405e+17
19156.0	4.7074997058928634e+17
19157.0	4.7066168461448525e+17
19158.0	4.70548317540625e+17
19159.0	4.704865546665984e+17
19160.0	4.7039967895661216e+17
19161.0	4.703128098876074e+17
19162.0	4.701682536196779e+17
19163.0	4.701356763906047e+17
19164.0	4.700520392425471e+17
19165.0	4.699614569562111e+17
19166.0	4.698635359660713e+17
19167.0	4.697850721424724e+17
19168.0	4.6970163953664e+17
19169.0	4.696139029457579e+17
19170.0	4.695291106164736e+17
19171.0	4.694383168673109e+17
19172.0	4.6935492746280954e+17
19173.0	4.692678250506921e+17
19174.0	4.6917497015063885e+17
19175.0	4.690934299448661e+17
19176.0	4.690068260257791e+17
19177.0	4.689049584052907e+17
19178.0	4.688308509256362e+17
19179.0	4.6874051491485005e+17
19180.0	4.68657230577664e+17
19181.0	4.685591099386538e+17
19182.0	4.684809065114282e+17
19183.0	4.6839763762326176e+17
19184.0	4.6830922588924576e+17
19185.0	4.682231814903125e+17
19186.0	4.681366516006911e+17
19187.0	4.6804402752716794e+17
19188.0	4.679625066850985e+17
19189.0	4.6787593296500045e+17
19190.0	4.6778871262303565e+17
19191.0	4.6769933004745376e+17
19192.0	4.676154636107775e+17
19193.0	4.6752808828927994e+17
19194.0	4.674404729137834e+17
19195.0	4.6735483095831885e+17
19196.0	4.672665256897194e+17
19197.0	4.6718043249704954e+17
19198.0	4.670941316863316e+17
19199.0	4.6666890301057696e+17
19200.0	4.666745210710699e+17
19201.0	4.668339448883882e+17
19202.0	4.667474924535807e+17
19203.0	4.6665981038865056e+17
19204.0	4.665715555915091e+17
19205.0	4.664859984308906e+17
19206.0	4.6639856124340896e+17
19207.0	4.6630050198104736e+17
19208.0	4.662058051523923e+17
19209.0	4.6613935759032314e+17
19210.0	4.6605301204036256e+17
19211.0	4.6596713786026656e+17
19212.0	4.6588045984180896e+17
19213.0	4.6578438532410016e+17
19214.0	4.6569279549603834e+17
19215.0	4.656190280346282e+17
19216.0	4.6553361236186445e+17
19217.0	4.6544710777787725e+17
19218.0	4.6527784845748883e+17
19219.0	4.6526046027120634e+17
19220.0	4.6518485381720736e+17
19221.0	4.6506978714146125e+17
19222.0	4.6501123430809594e+17
19223.0	4.649252091330559e+17
19224.0	4.6483596482969594e+17
19225.0	4.647389952475134e+17
19226.0	4.6466553984232096e+17
19227.0	4.645788326035456e+17
19228.0	4.644942223070549e+17
19229.0	4.644076411071147e+17
19230.0	4.6432068193047885e+17
19231.0	4.642334027284479e+17
19232.0	4.641466339033087e+17
19233.0	4.640548122700458e+17
19234.0	4.6397240559097165e+17
19235.0	4.638855788145323e+17
19236.0	4.6380148134161056e+17
19237.0	4.6371330239146656e+17
19238.0	4.6361928510996486e+17
19239.0	4.635416364493481e+17
19240.0	4.6345228987487565e+17
19241.0	4.6336564806724256e+17
19242.0	4.632796927972693e+17
19243.0	4.6318151532543994e+17
19244.0	4.6310897763396256e+17
19245.0	4.630219712714068e+17
19246.0	4.629340767649791e+17
19247.0	4.628490931055275e+17
19248.0	4.6276265451192314e+17
19249.0	4.626756006139221e+17
19250.0	4.6258729590456314e+17
19251.0	4.6248865391356576e+17
19252.0	4.6239306055243085e+17
19253.0	4.623270117288619e+17
19254.0	4.6224238115990176e+17
19255.0	4.621413064026793e+17
19256.0	4.620639061846698e+17
19257.0	4.619828901969919e+17
19258.0	4.618961502426451e+17
19259.0	4.6180372043530234e+17
19260.0	4.617092447163732e+17
19261.0	4.6163467789052576e+17
19262.0	4.6154393545168205e+17
19263.0	4.6145374959697914e+17
19264.0	4.6132039051291296e+17
19265.0	4.612665021650259e+17
19266.0	4.6117537797461325e+17
19267.0	4.611154633905493e+17
19268.0	4.6102842347356154e+17
19269.0	4.609414908608511e+17
19270.0	4.608540473819136e+17
19271.0	4.6073346177105914e+17
19272.0	4.6067758574250656e+17
19273.0	4.6048460924081485e+17
19274.0	4.604272504558932e+17
19275.0	4.604201746650453e+17
19276.0	4.603312422081877e+17
19277.0	4.6024476719404365e+17
19278.0	4.6015773426756256e+17
19279.0	4.6006942144921594e+17
19280.0	4.59976276652851e+17
19281.0	4.5989579082519885e+17
19282.0	4.598105526413994e+17
19283.0	4.597176544002047e+17
19284.0	4.596319003170131e+17
19285.0	4.5953165910780576e+17
19286.0	4.5945792778731514e+17
19287.0	4.593738286366719e+17
19288.0	4.590891861803005e+17
19289.0	4.5884189316218835e+17
19290.0	4.591116585620821e+17
19291.0	4.590006728043178e+17
19292.0	4.589360894705663e+17
19293.0	4.5884813722255354e+17
19294.0	4.587602516639744e+17
19295.0	4.5867338986509645e+17
19296.0	4.585842707617108e+17
19297.0	4.5849630760850765e+17
19298.0	4.5840736997867514e+17
19299.0	4.5832095990633805e+17
19300.0	4.582328161184426e+17
19301.0	4.581450212966398e+17
19302.0	4.580550421512191e+17
19303.0	4.579622205259775e+17
19304.0	4.578769816431274e+17
19305.0	4.5779024161887565e+17
19306.0	4.5770276633313274e+17
19307.0	4.576101530249898e+17
19308.0	4.5752307193391776e+17
19309.0	4.574230944066219e+17
19310.0	4.5732964713103366e+17
19311.0	4.572546900251989e+17
19312.0	4.571694705060521e+17
19313.0	4.5708104604931405e+17
19314.0	4.5607153118303654e+17
19315.0	4.560257084118359e+17
19316.0	4.5681072623233696e+17
19317.0	4.5672287269027834e+17
19318.0	4.566328284632404e+17
19319.0	4.5654435374475936e+17
19320.0	4.5645399019137696e+17
19321.0	4.563637208001194e+17
19322.0	4.5626560295731194e+17
19323.0	4.561781103351125e+17
19324.0	4.5609310430603936e+17
19325.0	4.5599005556954445e+17
19326.0	4.55911431873058e+17
19327.0	4.5581888036099405e+17
19328.0	4.557274511048704e+17
19329.0	4.5563781449427616e+17
19330.0	4.5554258960274765e+17
19331.0	4.5544993777691296e+17
19332.0	4.5536153568979616e+17
19333.0	4.5526932202891936e+17
19334.0	4.5517724335472634e+17
19335.0	4.55081953731106e+17
19336.0	4.549915037051561e+17
19337.0	4.548980962055509e+17
19338.0	4.5478469690545485e+17
19339.0	4.547111076320597e+17
19340.0	4.54602188268066e+17
19341.0	4.5451411934849696e+17
19342.0	4.543910231670783e+17
19343.0	4.543330727755775e+17
19344.0	4.542370834721449e+17
19345.0	4.539542628816211e+17
19346.0	4.539372189078868e+17
19347.0	4.539424141825364e+17
19348.0	4.538544671774036e+17
19349.0	4.5375443666206714e+17
19350.0	4.536567534889642e+17
19351.0	4.5355836860880205e+17
19352.0	4.534549044264959e+17
19353.0	4.533646736927402e+17
19354.0	4.5326579325556045e+17
19355.0	4.5315684264400205e+17
19356.0	4.530656360355157e+17
19357.0	4.529650188768596e+17
19358.0	4.528624195600383e+17
19359.0	4.5275440602589856e+17
19360.0	4.5265354440922445e+17
19361.0	4.5255243204307616e+17
19362.0	4.524522345944405e+17
19363.0	4.5234744522178554e+17
19364.0	4.5224194016105805e+17
19365.0	4.521362339834538e+17
19366.0	4.5202940079636474e+17
19367.0	4.5192180690234016e+17
19368.0	4.5181344559049376e+17
19369.0	4.5169787783522976e+17
19370.0	4.515819406316884e+17
19371.0	4.5147764534804474e+17
19372.0	4.513699168168618e+17
19373.0	4.512547103309823e+17
19374.0	4.511416510491306e+17
19375.0	4.510263486534996e+17
19376.0	4.509098833171798e+17
19377.0	4.507907437625343e+17
19378.0	4.5067168599681696e+17
19379.0	4.505515956633598e+17
19380.0	4.5042924585833805e+17
19381.0	4.503050245548714e+17
19382.0	4.501737744367615e+17
19383.0	4.5004222792116896e+17
19384.0	4.499233119229268e+17
19385.0	4.4979388443962016e+17
19386.0	4.496620936058196e+17
19387.0	4.4952785560535034e+17
19388.0	4.4939159196576416e+17
19389.0	4.492531534397439e+17
19390.0	4.4911252485789005e+17
19391.0	4.4845510950911936e+17
19392.0	4.487911281349971e+17
19393.0	4.48677054320913e+17
19394.0	4.485256398067029e+17
19395.0	4.483718728471893e+17
19396.0	4.4821656217408845e+17
19397.0	4.4805856854452896e+17
19398.0	4.47894110933265e+17
19399.0	4.47659696525585e+17
19400.0	4.4755006804459514e+17
19401.0	4.473899547536042e+17
19402.0	4.4721576160351565e+17
19403.0	4.470347592105983e+17
19404.0	4.468536630749865e+17
19405.0	4.466660418606421e+17
19406.0	4.4647673355741856e+17
19407.0	4.462823868465151e+17
19408.0	4.460034942915925e+17
19409.0	4.45875665047825e+17
19410.0	4.4562493088290125e+17
19411.0	4.4541218410987514e+17
19412.0	4.451945815911081e+17
19413.0	4.4497167621379405e+17
19414.0	4.4474162709790714e+17
19415.0	4.445121407877119e+17
19416.0	4.442603894341632e+17
19417.0	4.4402775907368954e+17
19418.0	4.437860210617002e+17
19419.0	4.435315782931796e+17
19420.0	4.4327230767104e+17
19421.0	4.430061277719211e+17
19422.0	4.426566666114387e+17
19423.0	4.4236589424967674e+17
19424.0	4.420782137191083e+17
19425.0	4.417813257824938e+17
19426.0	4.4140083928541856e+17
19427.0	4.4101936461032096e+17
19428.0	4.406632719755947e+17
19429.0	4.401556739500714e+17
19430.0	4.396463440964267e+17
19431.0	4.389795465789443e+17
19432.0	4.3830372963013984e+17
19433.0	4.373776779881132e+17
19434.0	4.359709456160085e+17
19435.0	4.338567367098366e+17
19436.0	4.317361038775636e+17
19437.0	4.3062372293672954e+17
19438.0	4.2845417606130374e+17
19439.0	4.2788431750758394e+17
19440.0	4.2646371016813216e+17
19441.0	4.248138488829267e+17
19442.0	4.229721077667158e+17
19443.0	4.2066812925378605e+17
19444.0	4.166923535952545e+17
19445.0	4.0912591047884845e+17
19446.0	4.037414971157162e+17
19447.0	3.9794460750861626e+17
19448.0	3.902991290946901e+17
19449.0	3.718756584914939e+17
19450.0	3.238237570771605e+17
19451.0	3.0498059742521856e+17
19452.0	3.531256536323432e+17
19453.0	3.8238126929346464e+17
19454.0	3.9442142724095955e+17
19455.0	4.0046662705479674e+17
19456.0	4.057201245159425e+17
19457.0	4.1221295338509766e+17
19458.0	4.1552653792051424e+17
19459.0	4.204224777464502e+17
19460.0	4.2259214576735565e+17
19461.0	4.241945439589717e+17
19462.0	4.255766168294741e+17
19463.0	4.2690478932841805e+17
19464.0	4.2804944047527245e+17
19465.0	4.2906204297844045e+17
19466.0	4.303766530555904e+17
19467.0	4.3257574558706266e+17
19468.0	4.3409057475024186e+17
19469.0	4.349972541603835e+17
19470.0	4.3572826325647315e+17
19471.0	4.362164687077375e+17
19472.0	4.366564377056598e+17
19473.0	4.369207112936106e+17
19474.0	4.372186533986304e+17
19475.0	4.3729686905924256e+17
19476.0	4.376473909592061e+17
19477.0	4.378082342688085e+17
19478.0	4.379412984233983e+17
19479.0	4.3806214240337914e+17
19480.0	4.3822227526778874e+17
19481.0	4.3836509215784954e+17
19482.0	4.384686409951913e+17
19483.0	4.385654319699285e+17
19484.0	4.386533238199636e+17
19485.0	4.3873049342115834e+17
19486.0	4.3880685268282016e+17
19487.0	4.3888307786656416e+17
19488.0	4.389499082287786e+17
19489.0	4.389858976639657e+17
19490.0	4.3892938375167994e+17
19491.0	4.3911538044218016e+17
19492.0	4.391657859798357e+17
19493.0	4.3924068233816736e+17
19494.0	4.392903066167978e+17
19495.0	4.393225379556011e+17
19496.0	4.393064255367849e+17
19497.0	4.3937168590110714e+17
19498.0	4.3926224448607546e+17
19499.0	4.386093382937259e+17
19500.0	4.394247098728447e+17
19501.0	4.3943394901579085e+17
19502.0	4.3943894184536736e+17
19503.0	4.3944207736722765e+17
19504.0	4.394412306071551e+17
19505.0	4.394372911770281e+17
19506.0	4.3943021133168634e+17
19507.0	4.394182958732628e+17
19508.0	4.394079516710228e+17
19509.0	4.393925065659732e+17
19510.0	4.393527923791189e+17
19511.0	4.3780671180636134e+17
19512.0	4.391630891122687e+17
19513.0	4.390445654212605e+17
19514.0	4.390859540441768e+17
19515.0	4.39203310670097e+17
19516.0	4.3921579983940256e+17
19517.0	4.391790705988949e+17
19518.0	4.3915050060786336e+17
19519.0	4.391130902822911e+17
19520.0	4.390721689048404e+17
19521.0	4.390361875087359e+17
19522.0	4.3899200268315315e+17
19523.0	4.3895192624824314e+17
19524.0	4.389072971759614e+17
19525.0	4.3886119338639354e+17
19526.0	4.3881571636565325e+17
19527.0	4.3876721042827936e+17
19528.0	4.387175655276543e+17
19529.0	4.3866767588939085e+17
19530.0	4.386173545873407e+17
19531.0	4.3856506531785376e+17
19532.0	4.385118066049023e+17
19533.0	4.3845761661665274e+17
19534.0	4.3840213876735994e+17
19535.0	4.3834568581229216e+17
19536.0	4.3828588894836045e+17
19537.0	4.382322969280511e+17
19538.0	4.3815539324573005e+17
19539.0	4.380635772747775e+17
19540.0	4.3805270025611936e+17
19541.0	4.3799456832116045e+17
19542.0	4.37933363499281e+17
19543.0	4.3787090772623354e+17
19544.0	4.3780969961881594e+17
19545.0	4.376899160287914e+17
19546.0	4.375977724826965e+17
19547.0	4.376205114824021e+17
19548.0	4.375553352837802e+17
19549.0	4.3748335340748794e+17
19550.0	4.374262559976105e+17
19551.0	4.373608839249919e+17
19552.0	4.3729474051986765e+17
19553.0	4.3722542398395725e+17
19554.0	4.371578306778453e+17
19555.0	4.3709293598692685e+17
19556.0	4.370268658423125e+17
19557.0	4.369585529334442e+17
19558.0	4.368904719695872e+17
19559.0	4.3682182917870925e+17
19560.0	4.367504883318783e+17
19561.0	4.36681494827281e+17
19562.0	4.366143847748949e+17
19563.0	4.3654516030395725e+17
19564.0	4.3647523769111885e+17
19565.0	4.3640505950535674e+17
19566.0	4.363317439102975e+17
19567.0	4.362636716146687e+17
19568.0	4.361910001947989e+17
19569.0	4.361202565469526e+17
19570.0	4.3605066381612365e+17
19571.0	4.3597824482344954e+17
19572.0	4.359049614546261e+17
19573.0	4.358329208580778e+17
19574.0	4.357558966594218e+17
19575.0	4.356910195845802e+17
19576.0	4.356185378171562e+17
19577.0	4.3554277386704205e+17
19578.0	4.3546889273999354e+17
19579.0	4.3539810323442336e+17
19580.0	4.353248084710741e+17
19581.0	4.352530161074175e+17
19582.0	4.3518133069851296e+17
19583.0	4.351079291202218e+17
19584.0	4.3503281109292365e+17
19585.0	4.3495076134911994e+17
19586.0	4.348736908733098e+17
19587.0	4.348108075608746e+17
19588.0	4.3469062837807776e+17
19589.0	4.3466264265359354e+17
19590.0	4.345790484971519e+17
19591.0	4.345156385898496e+17
19592.0	4.3444182876596896e+17
19593.0	4.343658118993238e+17
19594.0	4.3427260824289274e+17
19595.0	4.3421211659250336e+17
19596.0	4.341237239425706e+17
19597.0	4.3406570119932576e+17
19598.0	4.3394493956751354e+17
19599.0	4.3391992075386874e+17
19600.0	4.338474838654976e+17
19601.0	4.3376579804747085e+17
19602.0	4.3368955245144736e+17
19603.0	4.335781046910975e+17
19604.0	4.335399198173866e+17
19605.0	4.3344385047265274e+17
19606.0	4.333953451644244e+17
19607.0	4.3332075037655034e+17
19608.0	4.3324328032337914e+17
19609.0	4.3316480804126714e+17
19610.0	4.3309341210924365e+17
19611.0	4.330169476404565e+17
19612.0	4.3294279486231885e+17
19613.0	4.3286615388323834e+17
19614.0	4.3278775010809165e+17
19615.0	4.327152592530091e+17
19616.0	4.326348388564991e+17
19617.0	4.325619196231679e+17
19618.0	4.324250861174782e+17
19619.0	4.323377468669951e+17
19620.0	4.3226759133047456e+17
19621.0	4.322591805625685e+17
19622.0	4.3218420241530874e+17
19623.0	4.3210815520986445e+17
19624.0	4.320311921781418e+17
19625.0	4.319559434982741e+17
19626.0	4.31879831490833e+17
19627.0	4.318034801983487e+17
19628.0	4.317187133844138e+17
19629.0	4.316401340077397e+17
19630.0	4.3152736769802234e+17
19631.0	4.3112236150947846e+17
19632.0	4.3142201579929594e+17
19633.0	4.313424167174143e+17
19634.0	4.312697109042517e+17
19635.0	4.3118994188315296e+17
19636.0	4.311153247256576e+17
19637.0	4.310086653924694e+17
19638.0	4.3096289414130336e+17
19639.0	4.308864216334334e+17
19640.0	4.3078812686090234e+17
19641.0	4.3062621805827424e+17
19642.0	4.3065806743579296e+17
19643.0	4.3058126462648314e+17
19644.0	4.304988671049727e+17
19645.0	4.304015531704319e+17
19646.0	4.303519658016767e+17
19647.0	4.302766639240532e+17
19648.0	4.3020034933172896e+17
19649.0	4.3012361314194765e+17
19650.0	4.3004739977215994e+17
19651.0	4.2997040940755616e+17
19652.0	4.298941201208661e+17
19653.0	4.298177344350891e+17
19654.0	4.297407049236479e+17
