# Flux units: erg / (cm m2 s)
# Wavelength units: Angstrom
wave	flux
19000.0	6.667340713645396e+17
19001.0	6.666053277625001e+17
19002.0	6.664847647309823e+17
19003.0	6.663599990068563e+17
19004.0	6.662352523668138e+17
19005.0	6.661106772738047e+17
19006.0	6.659859700602196e+17
19007.0	6.658604281102336e+17
19008.0	6.657339824275455e+17
19009.0	6.65608759803904e+17
19010.0	6.65468008608563e+17
19011.0	6.653610697250132e+17
19012.0	6.652331918273193e+17
19013.0	6.651129748258815e+17
19014.0	6.649853218826921e+17
19015.0	6.648616606586196e+17
19016.0	6.647363839983615e+17
19017.0	6.646126382590633e+17
19018.0	6.644885456508244e+17
19019.0	6.643644892534099e+17
19020.0	6.642380881002495e+17
19021.0	6.641145885665962e+17
19022.0	6.639905510435497e+17
19023.0	6.638640444735487e+17
19024.0	6.637399701804371e+17
19025.0	6.636161173465769e+17
19026.0	6.634903856742399e+17
19027.0	6.633651938088276e+17
19028.0	6.632424058388479e+17
19029.0	6.631177100896938e+17
19030.0	6.629930638333267e+17
19031.0	6.628684035959466e+17
19032.0	6.627437453858134e+17
19033.0	6.626153842343936e+17
19034.0	6.624944381930153e+17
19035.0	6.623683015606271e+17
19036.0	6.621145578427732e+17
19037.0	6.621205378017961e+17
19038.0	6.619949274846548e+17
19039.0	6.618713558089728e+17
19040.0	6.617467613522602e+17
19041.0	6.616221538932051e+17
19042.0	6.614942474043391e+17
19043.0	6.613730356538025e+17
19044.0	6.612483806593023e+17
19045.0	6.611239232165204e+17
19046.0	6.609973166123689e+17
19047.0	6.608743568856403e+17
19048.0	6.607418796539903e+17
19049.0	6.606231929443668e+17
19050.0	6.60499593236753e+17
19051.0	6.603550610161663e+17
19052.0	6.602494413810346e+17
19053.0	6.601278866063359e+17
19054.0	6.60003417629218e+17
19055.0	6.598684707913727e+17
19056.0	6.597536637430442e+17
19057.0	6.596297634436436e+17
19058.0	6.595052680424106e+17
19059.0	6.593813223047167e+17
19060.0	6.5925596853917e+17
19061.0	6.591326076971689e+17
19062.0	6.590080449773565e+17
19063.0	6.588837855057236e+17
19064.0	6.587547703225002e+17
19065.0	6.586278950731773e+17
19066.0	6.585083997017428e+17
19067.0	6.58386566844689e+17
19068.0	6.582623263173289e+17
19069.0	6.581380969048746e+17
19070.0	6.58012840726801e+17
19071.0	6.578896266854397e+17
19072.0	6.577654022362451e+17
19073.0	6.576409689107113e+17
19074.0	6.575169971683327e+17
19075.0	6.573928165496147e+17
19076.0	6.572677679196842e+17
19077.0	6.571439859695615e+17
19078.0	6.570191237764435e+17
19079.0	6.568962297604777e+17
19080.0	6.567718388673193e+17
19081.0	6.566463901706921e+17
19082.0	6.565220270997504e+17
19083.0	6.563952333597353e+17
19084.0	6.562660115371348e+17
19085.0	6.561517863086761e+17
19086.0	6.560122211926016e+17
19087.0	6.558997055624531e+17
19088.0	6.557768505535146e+17
19089.0	6.556462608984745e+17
19090.0	6.555306082085546e+17
19091.0	6.55406733144883e+17
19092.0	6.552811908453716e+17
19093.0	6.551600357878442e+17
19094.0	6.55035420709137e+17
19095.0	6.549113696944127e+17
19096.0	6.547876389147988e+17
19097.0	6.546644238248617e+17
19098.0	6.545406987774634e+17
19099.0	6.544168426580649e+17
19100.0	6.542930637837652e+17
19101.0	6.541691964795561e+17
19102.0	6.540415830327295e+17
19103.0	6.539217436584617e+17
19104.0	6.537979942141951e+17
19105.0	6.536742567236948e+17
19106.0	6.535498202524329e+17
19107.0	6.534262334073513e+17
19108.0	6.533031528147625e+17
19109.0	6.531678426103807e+17
19110.0	6.530556211407529e+17
19111.0	6.52932210106914e+17
19112.0	6.528085963483818e+17
19113.0	6.526849899997866e+17
19114.0	6.525613997992617e+17
19115.0	6.524367362763434e+17
19116.0	6.523133193005737e+17
19117.0	6.521898605914793e+17
19118.0	6.520634771243007e+17
19119.0	6.517979360875858e+17
19120.0	6.518191126391466e+17
19121.0	6.516958598703785e+17
19122.0	6.515732349190143e+17
19123.0	6.51449672540706e+17
19124.0	6.513256603931988e+17
19125.0	6.512028071318868e+17
19126.0	6.51079249437218e+17
19127.0	6.508855404003327e+17
19128.0	6.50828257042978e+17
19129.0	6.507059026242217e+17
19130.0	6.505856717116758e+17
19131.0	6.504625895112703e+17
19132.0	6.503391726054057e+17
19133.0	6.502049273348095e+17
19134.0	6.500907155281235e+17
19135.0	6.499694864411305e+17
19136.0	6.498462696035668e+17
19137.0	6.497163977337513e+17
19138.0	6.495989047230463e+17
19139.0	6.494765287036244e+17
19140.0	6.493533817012223e+17
19141.0	6.492301912877738e+17
19142.0	6.491059988550996e+17
19143.0	6.489816894013439e+17
19144.0	6.488596631169706e+17
19145.0	6.487375667877204e+17
19146.0	6.485907387449343e+17
19147.0	6.484875520158377e+17
19148.0	6.48368188695074e+17
19149.0	6.482451180290047e+17
19150.0	6.481216994454185e+17
19151.0	6.479990505166163e+17
19152.0	6.47875665207842e+17
19153.0	6.477521328887123e+17
19154.0	6.476247028028756e+17
19155.0	6.475069561765887e+17
19156.0	6.473838460840618e+17
19157.0	6.472607808006825e+17
19158.0	6.471297474581844e+17
19159.0	6.470142586257407e+17
19160.0	6.468917375533055e+17
19161.0	6.467690946363392e+17
19162.0	6.466279391100928e+17
19163.0	6.465230128633172e+17
19164.0	6.464004389426516e+17
19165.0	6.462771335353684e+17
19166.0	6.461498587086847e+17
19167.0	6.460300942027434e+17
19168.0	6.4590647408285e+17
19169.0	6.457843367892308e+17
19170.0	6.456631822210388e+17
19171.0	6.455392904500563e+17
19172.0	6.454175772005716e+17
19173.0	6.452947475671722e+17
19174.0	6.451696490250239e+17
19175.0	6.450491996591444e+17
19176.0	6.449264096619177e+17
19177.0	6.447974601195519e+17
19178.0	6.446804446303572e+17
19179.0	6.445565869031423e+17
19180.0	6.444345316780712e+17
19181.0	6.443081189905748e+17
19182.0	6.441883889478314e+17
19183.0	6.440669644062719e+17
19184.0	6.439421357675859e+17
19185.0	6.438212700471295e+17
19186.0	6.436987773561514e+17
19187.0	6.435735629114025e+17
19188.0	6.434532872596137e+17
19189.0	6.433308018387625e+17
19190.0	6.432080302265684e+17
19191.0	6.430845118884521e+17
19192.0	6.429626278608895e+17
19193.0	6.428395889317204e+17
19194.0	6.427166279467007e+17
19195.0	6.425945465072297e+17
19196.0	6.424714072642899e+17
19197.0	6.423487329599487e+17
19198.0	6.422262266374826e+17
19199.0	6.419952696644948e+17
19200.0	6.419083053148841e+17
19201.0	6.418582508404733e+17
19202.0	6.417357817075028e+17
19203.0	6.416131482976255e+17
19204.0	6.414894132538025e+17
19205.0	6.413677696996691e+17
19206.0	6.41244514624034e+17
19207.0	6.41118431748642e+17
19208.0	6.409913223173459e+17
19209.0	6.408770557050879e+17
19210.0	6.407543352634025e+17
19211.0	6.406315797992788e+17
19212.0	6.405089305209514e+17
19213.0	6.403826558959615e+17
19214.0	6.402584984857257e+17
19215.0	6.401403357145769e+17
19216.0	6.400176290441897e+17
19217.0	6.398952277890388e+17
19218.0	6.397389861202601e+17
19219.0	6.396432699359231e+17
19220.0	6.395259298075988e+17
19221.0	6.393908895066793e+17
19222.0	6.392811595235327e+17
19223.0	6.391583818995028e+17
19224.0	6.390339521391273e+17
19225.0	6.389067677695997e+17
19226.0	6.387892598691156e+17
19227.0	6.386662406531753e+17
19228.0	6.385442731589631e+17
19229.0	6.384213409049258e+17
19230.0	6.38298258215185e+17
19231.0	6.381755282664105e+17
19232.0	6.380517194028372e+17
19233.0	6.379265841605289e+17
19234.0	6.378055117307903e+17
19235.0	6.376825537516884e+17
19236.0	6.375604251262975e+17
19237.0	6.374366934379177e+17
19238.0	6.373104927025833e+17
19239.0	6.371911928556201e+17
19240.0	6.370633068489385e+17
19241.0	6.369424446936403e+17
19242.0	6.368208931345748e+17
19243.0	6.366913138873684e+17
19244.0	6.365750895138132e+17
19245.0	6.364518437355519e+17
19246.0	6.36327842353425e+17
19247.0	6.36205053055249e+17
19248.0	6.360817180781226e+17
19249.0	6.35958203584785e+17
19250.0	6.358344907707734e+17
19251.0	6.35706185753122e+17
19252.0	6.355758418842963e+17
19253.0	6.35463587139857e+17
19254.0	6.353396259531433e+17
19255.0	6.352089767389865e+17
19256.0	6.350913402131795e+17
19257.0	6.349690771603455e+17
19258.0	6.348451626003114e+17
19259.0	6.347182936424447e+17
19260.0	6.345948400364202e+17
19261.0	6.344732610745684e+17
19262.0	6.343471465321812e+17
19263.0	6.342226649721514e+17
19264.0	6.340792402575359e+17
19265.0	6.339687243317247e+17
19266.0	6.338450790460073e+17
19267.0	6.337277621261651e+17
19268.0	6.336032612723369e+17
19269.0	6.334786947776511e+17
19270.0	6.333539905000788e+17
19271.0	6.33215864869137e+17
19272.0	6.331030365536255e+17
19273.0	6.328455431279954e+17
19274.0	6.32779461449045e+17
19275.0	6.327295476935338e+17
19276.0	6.326035920453631e+17
19277.0	6.324785145446399e+17
19278.0	6.323538394873855e+17
19279.0	6.322281993207807e+17
19280.0	6.320996394991615e+17
19281.0	6.319763754057727e+17
19282.0	6.318513748705279e+17
19283.0	6.317238362920275e+17
19284.0	6.315973943143082e+17
19285.0	6.314648236195839e+17
19286.0	6.313456141598719e+17
19287.0	6.312227950122324e+17
19288.0	6.310607972903593e+17
19289.0	6.308851453613395e+17
19290.0	6.308435339509759e+17
19291.0	6.307058262125226e+17
19292.0	6.305894918083924e+17
19293.0	6.304619080712191e+17
19294.0	6.303348565912233e+17
19295.0	6.302072866952532e+17
19296.0	6.300795504252243e+17
19297.0	6.299515425740116e+17
19298.0	6.29822787227921e+17
19299.0	6.296952685723647e+17
19300.0	6.295667244094803e+17
19301.0	6.294378153421482e+17
19302.0	6.293085793288191e+17
19303.0	6.291767373944148e+17
19304.0	6.290488716602025e+17
19305.0	6.289204519982419e+17
19306.0	6.287916047269887e+17
19307.0	6.286592824049664e+17
19308.0	6.285299513906516e+17
19309.0	6.283970118068905e+17
19310.0	6.282642704738985e+17
19311.0	6.281373516737194e+17
19312.0	6.280070881258154e+17
19313.0	6.278751431513428e+17
19314.0	6.276554812293119e+17
19315.0	6.275287007013546e+17
19316.0	6.274796617378473e+17
19317.0	6.273471812206591e+17
19318.0	6.272132725429588e+17
19319.0	6.270805862252544e+17
19320.0	6.269464985206783e+17
19321.0	6.268126039638015e+17
19322.0	6.266738839300778e+17
19323.0	6.26541412290833e+17
19324.0	6.264077274491562e+17
19325.0	6.262685944862035e+17
19326.0	6.261357638145364e+17
19327.0	6.25998507942434e+17
19328.0	6.258620946361001e+17
19329.0	6.257245865465172e+17
19330.0	6.255849181806592e+17
19331.0	6.254461680178516e+17
19332.0	6.252595603570687e+17
19333.0	6.250917805075114e+17
19334.0	6.249512130925908e+17
19335.0	6.248107873752403e+17
19336.0	6.24669267783407e+17
19337.0	6.245270666870783e+17
19338.0	6.243760177763667e+17
19339.0	6.242413834840746e+17
19340.0	6.240946170276522e+17
19341.0	6.239517403687593e+17
19342.0	6.237914028223145e+17
19343.0	6.236608332300287e+17
19344.0	6.235139237478399e+17
19345.0	6.232874028105724e+17
19346.0	6.231840860580521e+17
19347.0	6.230648828897962e+17
19348.0	6.229173830593193e+17
19349.0	6.227649150757545e+17
19350.0	6.226124881963689e+17
19351.0	6.224590343416489e+17
19352.0	6.223025864529236e+17
19353.0	6.221501357359103e+17
19354.0	6.219935855061673e+17
19355.0	6.218323802980351e+17
19356.0	6.216767506481151e+17
19357.0	6.215165125066752e+17
19358.0	6.213537638645759e+17
19359.0	6.211849195705684e+17
19360.0	6.21026061914385e+17
19361.0	6.208603975319551e+17
19362.0	6.206948130510164e+17
19363.0	6.20525859705105e+17
19364.0	6.202975043889833e+17
19365.0	6.200750063484927e+17
19366.0	6.199007241393492e+17
19367.0	6.197246142622378e+17
19368.0	6.195465739567104e+17
19369.0	6.193629701166419e+17
19370.0	6.191689946016426e+17
19371.0	6.1899770181277e+17
19372.0	6.188131934011391e+17
19373.0	6.186233975100756e+17
19374.0	6.184328390246399e+17
19375.0	6.182387938142889e+17
19376.0	6.18042278088977e+17
19377.0	6.178291060834301e+17
19378.0	6.174971262227796e+17
19379.0	6.172910765648553e+17
19380.0	6.170817807253504e+17
19381.0	6.168690887578963e+17
19382.0	6.166495802774867e+17
19383.0	6.164281240322047e+17
19384.0	6.162089390025385e+17
19385.0	6.159259222583978e+17
19386.0	6.155400258082132e+17
19387.0	6.15302104612864e+17
19388.0	6.150594119073791e+17
19389.0	6.148117522371924e+17
19390.0	6.145590816320169e+17
19391.0	6.139987110133759e+17
19392.0	6.138074809499647e+17
19393.0	6.135369521168384e+17
19394.0	6.132579554732713e+17
19395.0	6.127414830694396e+17
19396.0	6.124037911958867e+17
19397.0	6.12100662694161e+17
19398.0	6.115531632760147e+17
19399.0	6.111134914445311e+17
19400.0	6.107278690222079e+17
19401.0	6.100844202863273e+17
19402.0	6.096667528222035e+17
19403.0	6.08917063274769e+17
19404.0	6.083634196905987e+17
19405.0	6.076273622603092e+17
19406.0	6.069800546948435e+17
19407.0	6.064843451443881e+17
19408.0	6.059985431691264e+17
19409.0	6.055517550018559e+17
19410.0	6.050019927567018e+17
19411.0	6.044883898160468e+17
19412.0	6.039567448670207e+17
19413.0	6.034036939380052e+17
19414.0	6.02827009364241e+17
19415.0	6.022287762740563e+17
19416.0	6.015729455333375e+17
19417.0	6.008522750470825e+17
19418.0	6.0017529585664e+17
19419.0	5.994728706626899e+17
19420.0	5.986364219370153e+17
19421.0	5.978056857834836e+17
19422.0	5.969286478692351e+17
19423.0	5.959285037771433e+17
19424.0	5.948737576064338e+17
19425.0	5.937285349157546e+17
19426.0	5.924107984044031e+17
19427.0	5.908891750978899e+17
19428.0	5.891448002751149e+17
19429.0	5.869746352291827e+17
19430.0	5.842653770590885e+17
19431.0	5.814711134890665e+17
19432.0	5.796195740592809e+17
19433.0	5.777180576798038e+17
19434.0	5.7567116029242016e+17
19435.0	5.7342900861665254e+17
19436.0	5.711086235942912e+17
19437.0	5.6856853610496e+17
19438.0	5.656598372417536e+17
19439.0	5.627120086679554e+17
19440.0	5.591180824455849e+17
19441.0	5.545108962628949e+17
19442.0	5.4797843960954995e+17
19443.0	5.41727812362786e+17
19444.0	5.358508405598887e+17
19445.0	5.2907811655734656e+17
19446.0	5.202599874308779e+17
19447.0	5.079618644082676e+17
19448.0	4.945114445818545e+17
19449.0	4.7409720581597856e+17
19450.0	4.3863135671200275e+17
19451.0	4.2873312873458195e+17
19452.0	4.57450725852229e+17
19453.0	4.8556530557692666e+17
19454.0	5.013827672342522e+17
19455.0	5.137570222571512e+17
19456.0	5.2427556640522304e+17
19457.0	5.315964009360039e+17
19458.0	5.375144450413911e+17
19459.0	5.4312269302988896e+17
19460.0	5.499067250158256e+17
19461.0	5.550929703075842e+17
19462.0	5.5887612087719264e+17
19463.0	5.6194564284743654e+17
19464.0	5.646572743644501e+17
19465.0	5.67088956431838e+17
19466.0	5.692759269354153e+17
19467.0	5.713323593039871e+17
19468.0	5.732542136538453e+17
19469.0	5.7498293771086483e+17
19470.0	5.766251171282941e+17
19471.0	5.786497245861206e+17
19472.0	5.813476187788626e+17
19473.0	5.83477031268079e+17
19474.0	5.85243968650172e+17
19475.0	5.86575834443503e+17
19476.0	5.877521274197329e+17
19477.0	5.887447484683604e+17
19478.0	5.89677245707059e+17
19479.0	5.903887679968595e+17
19480.0	5.911569136003754e+17
19481.0	5.917259599970303e+17
19482.0	5.923795867009025e+17
19483.0	5.928951247536128e+17
19484.0	5.933567949406205e+17
19485.0	5.938089565705555e+17
19486.0	5.94297408786705e+17
19487.0	5.946802094910122e+17
19488.0	5.950376785565012e+17
19489.0	5.953688331878399e+17
19490.0	5.956323792038569e+17
19491.0	5.959739417908563e+17
19492.0	5.962675725008895e+17
19493.0	5.96558894805811e+17
19494.0	5.967941642223615e+17
19495.0	5.970127707176959e+17
19496.0	5.973780985806843e+17
19497.0	5.977151059438255e+17
19498.0	5.983034838177107e+17
19499.0	5.983975177366182e+17
19500.0	5.99022070923264e+17
19501.0	5.99194168389359e+17
19502.0	5.996172156775081e+17
19503.0	5.997153920308564e+17
19504.0	5.999854052442108e+17
19505.0	6.001913562660863e+17
19506.0	6.002600017133568e+17
19507.0	6.004182796468223e+17
19508.0	6.0063377536669e+17
19509.0	6.006784559590057e+17
19510.0	6.007088585113599e+17
19511.0	6.006200978811561e+17
19512.0	6.00961298010385e+17
19513.0	6.009451602160296e+17
19514.0	6.009846718180009e+17
19515.0	6.010136504041472e+17
19516.0	6.010369132025172e+17
19517.0	6.011435272372223e+17
19518.0	6.012061616177151e+17
19519.0	6.012121634570239e+17
19520.0	6.012080968695807e+17
19521.0	6.011927098556415e+17
19522.0	6.011722135502847e+17
19523.0	6.011501624164351e+17
19524.0	6.011240709095423e+17
19525.0	6.011160383979521e+17
19526.0	6.01196748411153e+17
19527.0	6.011615287705599e+17
19528.0	6.011232785356116e+17
19529.0	6.010831363899391e+17
19530.0	6.010406903130793e+17
19531.0	6.009957073114452e+17
19532.0	6.009485095774889e+17
19533.0	6.008991938598228e+17
19534.0	6.008477027663872e+17
19535.0	6.007940194500608e+17
19536.0	6.007376716322131e+17
19537.0	6.006823608560297e+17
19538.0	6.006198490890239e+17
19539.0	6.005414221053951e+17
19540.0	6.005000480227327e+17
19541.0	6.005329446480553e+17
19542.0	6.004721786901844e+17
19543.0	6.004055197351936e+17
19544.0	6.003374823221929e+17
19545.0	6.002497061650431e+17
19546.0	6.001617846752595e+17
19547.0	6.001255739905363e+17
19548.0	6.000525870891007e+17
19549.0	5.999745525525161e+17
19550.0	5.999034948212052e+17
19551.0	5.998274383183871e+17
19552.0	5.997502298499754e+17
19553.0	5.996711713439741e+17
19554.0	5.995915364007936e+17
19555.0	5.995124783841279e+17
19556.0	5.994322431661396e+17
19557.0	5.993503746861738e+17
19558.0	5.992679548649471e+17
19559.0	5.991843431623338e+17
19560.0	5.990995519515305e+17
19561.0	5.990152896424617e+17
19562.0	5.989305116437162e+17
19563.0	5.988443218422441e+17
19564.0	5.987575693748905e+17
19565.0	5.986701453295615e+17
19566.0	5.985812772552703e+17
19567.0	5.984933956812799e+17
19568.0	5.984031431371433e+17
19569.0	5.983141704149674e+17
19570.0	5.98224221049105e+17
19571.0	5.981332379271167e+17
19572.0	5.980408712440489e+17
19573.0	5.979494191289684e+17
19574.0	5.978542300987391e+17
19575.0	5.977653298681172e+17
19576.0	5.976722510621353e+17
19577.0	5.975775256423082e+17
19578.0	5.974829937197056e+17
19579.0	5.973893885285716e+17
19580.0	5.972947449675776e+17
19581.0	5.971999336344233e+17
19582.0	5.971051699066195e+17
19583.0	5.970093762674687e+17
19584.0	5.969130389067092e+17
19585.0	5.96812319756561e+17
19586.0	5.967180305443498e+17
19587.0	5.966909069590527e+17
19588.0	5.965752877536595e+17
19589.0	5.964958686773247e+17
19590.0	5.963953760195924e+17
19591.0	5.963004307483305e+17
19592.0	5.962018413259434e+17
19593.0	5.96102272323857e+17
19594.0	5.959946154453673e+17
19595.0	5.959033545206442e+17
19596.0	5.9579048656896e+17
19597.0	5.95704803369506e+17
19598.0	5.955928061553321e+17
19599.0	5.955058134242644e+17
19600.0	5.954055088111615e+17
19601.0	5.953022137991168e+17
19602.0	5.952023728663209e+17
19603.0	5.950859436709204e+17
19604.0	5.950002258684586e+17
19605.0	5.948889789453652e+17
19606.0	5.947995742797824e+17
19607.0	5.946982589093206e+17
19608.0	5.945963499749375e+17
19609.0	5.944928209906346e+17
19610.0	5.943926921188692e+17
19611.0	5.942903020978173e+17
19612.0	5.941882820143786e+17
19613.0	5.940858063596202e+17
19614.0	5.939815957310121e+17
19615.0	5.938806237342378e+17
19616.0	5.937768659506516e+17
19617.0	5.936749326194004e+17
19618.0	5.935495575328084e+17
19619.0	5.934409969216169e+17
19620.0	5.933388865208319e+17
19621.0	5.93262169694754e+17
19622.0	5.931587288607402e+17
19623.0	5.930551784854868e+17
19624.0	5.929515301732351e+17
19625.0	5.928477763742378e+17
19626.0	5.927439586820095e+17
19627.0	5.926400346641748e+17
19628.0	5.925335141624489e+17
19629.0	5.924283691827199e+17
19630.0	5.92322637210146e+17
19631.0	5.921064583080617e+17
19632.0	5.921191590800042e+17
19633.0	5.920139564985001e+17
19634.0	5.919103978045439e+17
19635.0	5.918042457025193e+17
19636.0	5.917013278283092e+17
19637.0	5.91581017014272e+17
19638.0	5.914916238131199e+17
19639.0	5.913865214754815e+17
19640.0	5.912786446057472e+17
19641.0	5.911482984300544e+17
19642.0	5.910725658673151e+17
19643.0	5.909672828949844e+17
19644.0	5.908599633084415e+17
19645.0	5.907464057432746e+17
19646.0	5.906523270152191e+17
19647.0	5.905471537938432e+17
19648.0	5.904419340156928e+17
19649.0	5.903365594677248e+17
19650.0	5.902313648553983e+17
19651.0	5.901260280561663e+17
19652.0	5.900206459584511e+17
19653.0	5.899151518728191e+17
19654.0	5.898097779539967e+17
19655.0	5.897041012763306e+17
19656.0	5.89598483948066e+17
19657.0	5.894932160053247e+17
19658.0	5.893876371248468e+17
19659.0	5.892819617054719e+17
19660.0	5.891763900951209e+17
19661.0	5.890707249517908e+17
19662.0	5.889650306580479e+17
19663.0	5.888575672068777e+17
19664.0	5.887531446261075e+17
19665.0	5.886478129299455e+17
