# Flux units: erg / (cm m2 s)
# Wavelength units: Angstrom
wave	flux
19000.0	7.896984664932348e+17
19001.0	7.895508490824361e+17
19002.0	7.894101849888084e+17
19003.0	7.892658085167103e+17
19004.0	7.891213755613181e+17
19005.0	7.889769816129535e+17
19006.0	7.888324001792e+17
19007.0	7.886849673177769e+17
19008.0	7.885408041959421e+17
19009.0	7.88395366425122e+17
19010.0	7.882378710089725e+17
19011.0	7.881069010703702e+17
19012.0	7.879548946000553e+17
19013.0	7.878180097141417e+17
19014.0	7.876708665393148e+17
19015.0	7.875265796855126e+17
19016.0	7.873801197628073e+17
19017.0	7.872351475597311e+17
19018.0	7.870907428459859e+17
19019.0	7.869454980131497e+17
19020.0	7.867983100990804e+17
19021.0	7.866536849047552e+17
19022.0	7.865084343397033e+17
19023.0	7.863625704275965e+17
19024.0	7.862157036574036e+17
19025.0	7.860700781215743e+17
19026.0	7.859229701789012e+17
19027.0	7.857723184687785e+17
19028.0	7.85632476598545e+17
19029.0	7.854862858103466e+17
19030.0	7.853400539179689e+17
19031.0	7.851937591110312e+17
19032.0	7.850473914630143e+17
19033.0	7.84897783715157e+17
19034.0	7.847544555394387e+17
19035.0	7.846060919619584e+17
19036.0	7.840538206841512e+17
19037.0	7.843144517986985e+17
19038.0	7.841672578727935e+17
19039.0	7.840215436973395e+17
19040.0	7.838748252656979e+17
19041.0	7.837280172157608e+17
19042.0	7.83578352005939e+17
19043.0	7.834343985993046e+17
19044.0	7.832874040426496e+17
19045.0	7.831405416065705e+17
19046.0	7.82991845560593e+17
19047.0	7.82846019117602e+17
19048.0	7.82692577076838e+17
19049.0	7.825499823450794e+17
19050.0	7.8240364391738e+17
19051.0	7.821953048685224e+17
19052.0	7.820997779172009e+17
19053.0	7.819626624843775e+17
19054.0	7.818162872866131e+17
19055.0	7.816599363562152e+17
19056.0	7.815532928215721e+17
19057.0	7.814356660824745e+17
19058.0	7.812882273490259e+17
19059.0	7.811407059877885e+17
19060.0	7.809924145523369e+17
19061.0	7.808457295353172e+17
19062.0	7.806980068474879e+17
19063.0	7.805504842279593e+17
19064.0	7.803988545459539e+17
19065.0	7.802487746592765e+17
19066.0	7.801053221923497e+17
19067.0	7.799598388434259e+17
19068.0	7.798121582384467e+17
19069.0	7.796644331738454e+17
19070.0	7.795163033589075e+17
19071.0	7.793688478482432e+17
19072.0	7.79221011075345e+17
19073.0	7.790729675232595e+17
19074.0	7.789252638496083e+17
19075.0	7.787773546550611e+17
19076.0	7.786286892275028e+17
19077.0	7.78481050006323e+17
19078.0	7.782914731977386e+17
19079.0	7.781247406658902e+17
19080.0	7.779764804080982e+17
19081.0	7.778272344888658e+17
19082.0	7.776790718185471e+17
19083.0	7.775287808185683e+17
19084.0	7.773754657254057e+17
19085.0	7.772362889319764e+17
19086.0	7.770738206091944e+17
19087.0	7.769278715527165e+17
19088.0	7.767877124532904e+17
19089.0	7.766307965501439e+17
19090.0	7.764941466850644e+17
19091.0	7.76345949901073e+17
19092.0	7.761943165840042e+17
19093.0	7.76050556814404e+17
19094.0	7.759010199502847e+17
19095.0	7.75752429880388e+17
19096.0	7.756051098457428e+17
19097.0	7.754573050893651e+17
19098.0	7.753090589523965e+17
19099.0	7.751606391712425e+17
19100.0	7.750122487502164e+17
19101.0	7.748637432654506e+17
19102.0	7.747123806208e+17
19103.0	7.745668866463059e+17
19104.0	7.744183741710335e+17
19105.0	7.742697673239209e+17
19106.0	7.741190487845545e+17
19107.0	7.739720799529642e+17
19108.0	7.738238557661866e+17
19109.0	7.736354354670246e+17
19110.0	7.735249256229545e+17
19111.0	7.733782529092264e+17
19112.0	7.732296926188884e+17
19113.0	7.730810495609514e+17
19114.0	7.729323578490879e+17
19115.0	7.727820711832233e+17
19116.0	7.726348817312425e+17
19117.0	7.724852553886377e+17
19118.0	7.723325835618986e+17
19119.0	7.720999224431955e+17
19120.0	7.720362305388543e+17
19121.0	7.718883163111424e+17
19122.0	7.71742096302626e+17
19123.0	7.715931126672041e+17
19124.0	7.714419198918655e+17
19125.0	7.712950225032531e+17
19126.0	7.711460837468841e+17
19127.0	7.709393540524714e+17
19128.0	7.708302434282152e+17
19129.0	7.706963637611177e+17
19130.0	7.705501225014611e+17
19131.0	7.704013301263017e+17
19132.0	7.702521103515645e+17
19133.0	7.700919410666153e+17
19134.0	7.6994484123293e+17
19135.0	7.698048377421824e+17
19136.0	7.696557681235284e+17
19137.0	7.695010293437778e+17
19138.0	7.69356078391842e+17
19139.0	7.692080098137428e+17
19140.0	7.690588623208447e+17
19141.0	7.689095801907881e+17
19142.0	7.68759379927586e+17
19143.0	7.686091521217876e+17
19144.0	7.6846119007901e+17
19145.0	7.683121211594067e+17
19146.0	7.681425641832447e+17
19147.0	7.680100487834281e+17
19148.0	7.678634572993875e+17
19149.0	7.677139834896381e+17
19150.0	7.675642768960169e+17
19151.0	7.674150199317846e+17
19152.0	7.672651353598634e+17
19153.0	7.671150196817919e+17
19154.0	7.669616130129919e+17
19155.0	7.668162514386943e+17
19156.0	7.666662392201215e+17
19157.0	7.665148916749651e+17
19158.0	7.66340582272751e+17
19159.0	7.662155421013332e+17
19160.0	7.660662279547561e+17
19161.0	7.659147143151615e+17
19162.0	7.65705024840226e+17
19163.0	7.656143381157204e+17
19164.0	7.654670393322152e+17
19165.0	7.653160302673919e+17
19166.0	7.65162283999778e+17
19167.0	7.650109697294335e+17
19168.0	7.648645539867305e+17
19169.0	7.647144253063165e+17
19170.0	7.645660445321898e+17
19171.0	7.644127404840275e+17
19172.0	7.642652644212735e+17
19173.0	7.641150529732608e+17
19174.0	7.639628697829375e+17
19175.0	7.638142907580412e+17
19176.0	7.636637265690621e+17
19177.0	7.635077731188736e+17
19178.0	7.633606383326547e+17
19179.0	7.632073152703144e+17
19180.0	7.630592711589887e+17
19181.0	7.629067402608641e+17
19182.0	7.627582272263508e+17
19183.0	7.626082780621481e+17
19184.0	7.62455782535987e+17
19185.0	7.623061490630655e+17
19186.0	7.621552900145152e+17
19187.0	7.62001725779695e+17
19188.0	7.618528402909866e+17
19189.0	7.617008824745983e+17
19190.0	7.615490799872681e+17
19191.0	7.613981851473234e+17
19192.0	7.612471829331968e+17
19193.0	7.610945401869654e+17
19194.0	7.609435151837864e+17
19195.0	7.607921231790079e+17
19196.0	7.606395927003136e+17
19197.0	7.604868213287594e+17
19198.0	7.603307083552083e+17
19199.0	7.598129230643197e+17
19200.0	7.597665575501824e+17
19201.0	7.598753091420156e+17
19202.0	7.597270191046655e+17
19203.0	7.595748370328233e+17
19204.0	7.594228252497238e+17
19205.0	7.592713897639935e+17
19206.0	7.59118486970914e+17
19207.0	7.589640725506728e+17
19208.0	7.588071737043625e+17
19209.0	7.586608979116032e+17
19210.0	7.585079695332692e+17
19211.0	7.583548981291689e+17
19212.0	7.582017608744957e+17
19213.0	7.580433387967827e+17
19214.0	7.57887966117888e+17
19215.0	7.577402111339177e+17
19216.0	7.575879720195412e+17
19217.0	7.574345724810578e+17
19218.0	7.572528086821544e+17
19219.0	7.57121022112563e+17
19220.0	7.569720868514474e+17
19221.0	7.568078861413034e+17
19222.0	7.566643469920938e+17
19223.0	7.565101489979391e+17
19224.0	7.563543483602259e+17
19225.0	7.561961615829674e+17
19226.0	7.560464646362451e+17
19227.0	7.55891671330543e+17
19228.0	7.557366750205267e+17
19229.0	7.555814852132863e+17
19230.0	7.554260821955923e+17
19231.0	7.552708108790442e+17
19232.0	7.551145463513088e+17
19233.0	7.549568377247059e+17
19234.0	7.548027236166313e+17
19235.0	7.546466697827667e+17
19236.0	7.54491248869376e+17
19237.0	7.54334318006545e+17
19238.0	7.541746714716841e+17
19239.0	7.540216225770153e+17
19240.0	7.538611464088233e+17
19241.0	7.537064011978071e+17
19242.0	7.535503101744467e+17
19243.0	7.533868011050323e+17
19244.0	7.532353081573375e+17
19245.0	7.530774454599679e+17
19246.0	7.529188466622463e+17
19247.0	7.527610674315263e+17
19248.0	7.526026783490047e+17
19249.0	7.524439419781119e+17
19250.0	7.522848620937215e+17
19251.0	7.521214243274751e+17
19252.0	7.519561532309503e+17
19253.0	7.518066584496808e+17
19254.0	7.516466137355604e+17
19255.0	7.514803551600637e+17
19256.0	7.513253842954921e+17
19257.0	7.511662057051476e+17
19258.0	7.51005317935923e+17
19259.0	7.508090573641044e+17
19260.0	7.505917371919017e+17
19261.0	7.504366198063101e+17
19262.0	7.502736250983763e+17
19263.0	7.501104136847357e+17
19264.0	7.499330351704745e+17
19265.0	7.49780717342993e+17
19266.0	7.496190492934143e+17
19267.0	7.494603319366995e+17
19268.0	7.492965075954344e+17
19269.0	7.49132351344913e+17
19270.0	7.489677651782312e+17
19271.0	7.487921654682966e+17
19272.0	7.486366061428735e+17
19273.0	7.483722587351718e+17
19274.0	7.482479062898003e+17
19275.0	7.481403846077098e+17
19276.0	7.47973908627456e+17
19277.0	7.478069560344573e+17
19278.0	7.476395735252992e+17
19279.0	7.474715669037055e+17
19280.0	7.473008826384383e+17
19281.0	7.471346619514879e+17
19282.0	7.46965412557619e+17
19283.0	7.467909114757117e+17
19284.0	7.466181606768639e+17
19285.0	7.464490614390781e+17
19286.0	7.462832396304381e+17
19287.0	7.461128600114514e+17
19288.0	7.458290211138216e+17
19289.0	7.455090928866641e+17
19290.0	7.45595263324433e+17
19291.0	7.454123398004735e+17
19292.0	7.452475766341632e+17
19293.0	7.450725474893823e+17
19294.0	7.448974566883327e+17
19295.0	7.447214775336957e+17
19296.0	7.445448964964351e+17
19297.0	7.443198221746177e+17
19298.0	7.440717058845353e+17
19299.0	7.438930228019199e+17
19300.0	7.43713596069205e+17
19301.0	7.435333317339817e+17
19302.0	7.43352196661248e+17
19303.0	7.431684456011091e+17
19304.0	7.429873299619839e+17
19305.0	7.428057728024573e+17
19306.0	7.426218764795901e+17
19307.0	7.424349342531583e+17
19308.0	7.422498755488426e+17
19309.0	7.420525526996308e+17
19310.0	7.418596580567721e+17
19311.0	7.416863607401129e+17
19312.0	7.415000996686506e+17
19313.0	7.412955113062399e+17
19314.0	7.409083826394454e+17
19315.0	7.407262317062829e+17
19316.0	7.407155689466538e+17
19317.0	7.404131484434432e+17
19318.0	7.401696738497875e+17
19319.0	7.399732571100502e+17
19320.0	7.397754330415101e+17
19321.0	7.395768275741353e+17
19322.0	7.393726966704809e+17
19323.0	7.391702089553236e+17
19324.0	7.389727137202175e+17
19325.0	7.387595137526441e+17
19326.0	7.385640868686505e+17
19327.0	7.383577875098281e+17
19328.0	7.381506515271679e+17
19329.0	7.379283033631402e+17
19330.0	7.375255191770451e+17
19331.0	7.373126055406249e+17
19332.0	7.370997261576874e+17
19333.0	7.368839518661289e+17
19334.0	7.366661426380799e+17
19335.0	7.364471096519336e+17
19336.0	7.362259254072659e+17
19337.0	7.360025124492628e+17
19338.0	7.357459667266214e+17
19339.0	7.352942151598079e+17
19340.0	7.350626825885011e+17
19341.0	7.348314733980329e+17
19342.0	7.345857930199037e+17
19343.0	7.343612305429844e+17
19344.0	7.341224763588608e+17
19345.0	7.337881612495529e+17
19346.0	7.332986134112936e+17
19347.0	7.330811462986408e+17
19348.0	7.328333673704105e+17
19349.0	7.325795436112552e+17
19350.0	7.323237833419433e+17
19351.0	7.318455915817646e+17
19352.0	7.314250678665215e+17
19353.0	7.311610237069994e+17
19354.0	7.308912421590355e+17
19355.0	7.305777197525678e+17
19356.0	7.29897849917713e+17
19357.0	7.296152494582442e+17
19358.0	7.293279778024105e+17
19359.0	7.289553166882131e+17
19360.0	7.284850432147455e+17
19361.0	7.281734872378025e+17
19362.0	7.27842701775121e+17
19363.0	7.275354455190185e+17
19364.0	7.272236919903572e+17
19365.0	7.269072917321044e+17
19366.0	7.265862190191955e+17
19367.0	7.262606115646121e+17
19368.0	7.259299983480148e+17
19369.0	7.255914184703999e+17
19370.0	7.2524241057437e+17
19371.0	7.249041961604436e+17
19372.0	7.24553273844258e+17
19373.0	7.241946345679529e+17
19374.0	7.23829833020211e+17
19375.0	7.234585412064595e+17
19376.0	7.230679121133568e+17
19377.0	7.226218993330858e+17
19378.0	7.222296537552211e+17
19379.0	7.218300234061139e+17
19380.0	7.214222727446527e+17
19381.0	7.210047967505064e+17
19382.0	7.205769861311145e+17
19383.0	7.201430750363645e+17
19384.0	7.197063604688211e+17
19385.0	7.191435712746835e+17
19386.0	7.18683951333376e+17
19387.0	7.182170395945641e+17
19388.0	7.177411510665216e+17
19389.0	7.172559571954345e+17
19390.0	7.166730536572244e+17
19391.0	7.157764406465873e+17
19392.0	7.155612946617683e+17
19393.0	7.150352710587732e+17
19394.0	7.14364904677922e+17
19395.0	7.137035707307347e+17
19396.0	7.131228928300372e+17
19397.0	7.123835431507282e+17
19398.0	7.116270879812266e+17
19399.0	7.109761057161215e+17
19400.0	7.09992486622549e+17
19401.0	7.093135154872319e+17
19402.0	7.0823848209722e+17
19403.0	7.074066190740138e+17
19404.0	7.062060294733824e+17
19405.0	7.050948364293458e+17
19406.0	7.038386159572305e+17
19407.0	7.024331062946474e+17
19408.0	7.007708244869119e+17
19409.0	6.994027093513554e+17
19410.0	6.983929545708884e+17
19411.0	6.973650000762195e+17
19412.0	6.963128408124076e+17
19413.0	6.952329369965908e+17
19414.0	6.941246608113661e+17
19415.0	6.929778600837119e+17
19416.0	6.917742625379668e+17
19417.0	6.905695748926121e+17
19418.0	6.893046357906772e+17
19419.0	6.879858868442452e+17
19420.0	6.865512230638932e+17
19421.0	6.851458533512531e+17
19422.0	6.836384588715348e+17
19423.0	6.820355999356243e+17
19424.0	6.803716000011604e+17
19425.0	6.786063392221864e+17
19426.0	6.766218681778173e+17
19427.0	6.744980462064983e+17
19428.0	6.721268494980435e+17
19429.0	6.694901818676563e+17
19430.0	6.666131877483867e+17
19431.0	6.632475830779912e+17
19432.0	6.594903264635562e+17
19433.0	6.563608971094698e+17
19434.0	6.533840211629396e+17
19435.0	6.501747459620863e+17
19436.0	6.46728922361583e+17
19437.0	6.430357672252756e+17
19438.0	6.387534476432723e+17
19439.0	6.344690288820224e+17
19440.0	6.292897660578476e+17
19441.0	6.233454588286291e+17
19442.0	6.166680106784088e+17
19443.0	6.097043449708544e+17
19444.0	6.023281491225254e+17
19445.0	5.938562666419546e+17
19446.0	5.840383407816704e+17
19447.0	5.7271235040160365e+17
19448.0	5.596991029510149e+17
19449.0	5.443863329461588e+17
19450.0	5.2533611742275866e+17
19451.0	5.184249593681243e+17
19452.0	5.350049775091715e+17
19453.0	5.5227517151914714e+17
19454.0	5.660383251529721e+17
19455.0	5.779363612065792e+17
19456.0	5.882343692697603e+17
19457.0	5.971465165165905e+17
19458.0	6.045927877902339e+17
19459.0	6.115677082135214e+17
19460.0	6.182560484818943e+17
19461.0	6.242974926460244e+17
19462.0	6.296158171998894e+17
19463.0	6.341873399846227e+17
19464.0	6.38195496648704e+17
19465.0	6.418088109714092e+17
19466.0	6.451224137520467e+17
19467.0	6.481734160525993e+17
19468.0	6.510110308302848e+17
19469.0	6.536812493275136e+17
19470.0	6.570491380760568e+17
19471.0	6.603441063329788e+17
19472.0	6.63175408473429e+17
19473.0	6.656698012576428e+17
19474.0	6.678708345634817e+17
19475.0	6.698309458591743e+17
19476.0	6.716126645278035e+17
19477.0	6.731873768876714e+17
19478.0	6.747053096260947e+17
19479.0	6.760176807138643e+17
19480.0	6.77343160889071e+17
19481.0	6.785113025150975e+17
19482.0	6.796633911416148e+17
19483.0	6.80774774886673e+17
19484.0	6.818008138427049e+17
19485.0	6.827698177441791e+17
19486.0	6.836948865209684e+17
19487.0	6.846101321678847e+17
19488.0	6.854623753841321e+17
19489.0	6.862836631688534e+17
19490.0	6.870490056491005e+17
19491.0	6.878478474761556e+17
19492.0	6.885939362835113e+17
19493.0	6.895446735017302e+17
19494.0	6.907710079500283e+17
19495.0	6.919484382816941e+17
19496.0	6.929634802619731e+17
19497.0	6.940596835625642e+17
19498.0	6.947546993786877e+17
19499.0	6.950545918350674e+17
19500.0	6.962315684129449e+17
19501.0	6.967942853951487e+17
19502.0	6.973679361589245e+17
19503.0	6.978943807302313e+17
19504.0	6.982439477269844e+17
19505.0	6.988461419877718e+17
19506.0	6.991638058500095e+17
19507.0	6.994621077564074e+17
19508.0	6.999329744442708e+17
19509.0	7.002183631372287e+17
19510.0	7.004638526745258e+17
19511.0	7.002831586328573e+17
19512.0	7.010048449096358e+17
19513.0	7.011641056384338e+17
19514.0	7.014107195288232e+17
19515.0	7.016926876969642e+17
19516.0	7.018969303788202e+17
19517.0	7.021127907934205e+17
19518.0	7.023539427912361e+17
19519.0	7.025146859967827e+17
19520.0	7.026671183287636e+17
19521.0	7.028130387241642e+17
19522.0	7.029495947067391e+17
19523.0	7.030769917973844e+17
19524.0	7.031967811895295e+17
19525.0	7.033086144064168e+17
19526.0	7.034785724978515e+17
19527.0	7.035820570225321e+17
19528.0	7.036737882685439e+17
19529.0	7.037591829697875e+17
19530.0	7.03838451540514e+17
19531.0	7.039118220809556e+17
19532.0	7.039794841736531e+17
19533.0	7.040416290788692e+17
19534.0	7.040984434431316e+17
19535.0	7.041500708514472e+17
19536.0	7.041956372108628e+17
19537.0	7.042392012095488e+17
19538.0	7.042736501467816e+17
19539.0	7.042935332448938e+17
19540.0	7.043375507876521e+17
19541.0	7.043660322089641e+17
19542.0	7.044224882398548e+17
19543.0	7.046587687632897e+17
19544.0	7.046908178595837e+17
19545.0	7.046842687335081e+17
19546.0	7.046943709943123e+17
19547.0	7.051137615484244e+17
19548.0	7.051086155568468e+17
19549.0	7.0509695874717e+17
19550.0	7.050888417902591e+17
19551.0	7.05211280514526e+17
19552.0	7.054021920904531e+17
19553.0	7.053791998945961e+17
19554.0	7.053538119122943e+17
19555.0	7.053272851764564e+17
19556.0	7.052970151641088e+17
19557.0	7.054636396227241e+17
19558.0	7.05514866614818e+17
19559.0	7.054759348054697e+17
19560.0	7.054342112673791e+17
19561.0	7.053920586519892e+17
19562.0	7.053467786237268e+17
19563.0	7.052994025619455e+17
19564.0	7.053446442822312e+17
19565.0	7.054314919602857e+17
19566.0	7.05376712532514e+17
19567.0	7.05321215459328e+17
19568.0	7.052624247390207e+17
19569.0	7.052037748075178e+17
19570.0	7.051429232858452e+17
19571.0	7.050800968062292e+17
19572.0	7.050149658361855e+17
19573.0	7.049495945325225e+17
19574.0	7.050333333924518e+17
19575.0	7.049978451066879e+17
19576.0	7.04927429173794e+17
19577.0	7.048551252448595e+17
19578.0	7.047812311154687e+17
19579.0	7.04707375993105e+17
19580.0	7.046319345849684e+17
19581.0	7.045555571479892e+17
19582.0	7.044782494143828e+17
19583.0	7.043993050633556e+17
19584.0	7.043190681676457e+17
19585.0	7.042343924400127e+17
19586.0	7.041509389325652e+17
19587.0	7.040706897335636e+17
19588.0	7.041017913365846e+17
19589.0	7.040428009674068e+17
19590.0	7.039549613364564e+17
19591.0	7.038702833718611e+17
19592.0	7.037822127745706e+17
19593.0	7.036926547372714e+17
19594.0	7.035958204213929e+17
19595.0	7.0351246065664e+17
19596.0	7.033730531065856e+17
19597.0	7.033276273262591e+17
19598.0	7.032277940131155e+17
19599.0	7.031426302083072e+17
19600.0	7.030481393199785e+17
19601.0	7.029635948041556e+17
19602.0	7.028698049937407e+17
19603.0	7.027565877963433e+17
19604.0	7.026750947065855e+17
19605.0	7.025695235156649e+17
19606.0	7.024811623929172e+17
19607.0	7.023822110719997e+17
19608.0	7.022823558086655e+17
19609.0	7.021813429174271e+17
19610.0	7.020839028741459e+17
19611.0	7.020820251541504e+17
19612.0	7.019801044757161e+17
19613.0	7.018774662916777e+17
19614.0	7.017728073618771e+17
19615.0	7.016705796603903e+17
19616.0	7.01563565838609e+17
19617.0	7.014619129664852e+17
19618.0	7.013388177637373e+17
19619.0	7.012290485638484e+17
19620.0	7.01123880235827e+17
19621.0	7.010389741709993e+17
19622.0	7.009321899174569e+17
19623.0	7.008249700155391e+17
19624.0	7.007173411689812e+17
19625.0	7.006092896763904e+17
19626.0	7.005008711821994e+17
19627.0	7.003919346914644e+17
19628.0	7.002741343081812e+17
19629.0	7.001697035485183e+17
19630.0	7.000364730198697e+17
19631.0	6.995599151508138e+17
19632.0	6.998415306478932e+17
19633.0	6.997319109050367e+17
19634.0	6.996211273127252e+17
19635.0	6.995083310137343e+17
19636.0	6.993982230538921e+17
19637.0	6.992718397265236e+17
19638.0	6.991737556478633e+17
19639.0	6.990609613062143e+17
19640.0	6.989460590471849e+17
19641.0	6.988162030458196e+17
19642.0	6.987222066659327e+17
19643.0	6.986083632589481e+17
19644.0	6.984925167222783e+17
19645.0	6.983716590409043e+17
19646.0	6.982662417110356e+17
19647.0	6.981516604560723e+17
19648.0	6.980368353023316e+17
19649.0	6.979216878163284e+17
19650.0	6.978065162130772e+17
19651.0	6.976910264718676e+17
19652.0	6.975753303009961e+17
19653.0	6.974593661140991e+17
19654.0	6.973433213965652e+17
19655.0	6.972268611633151e+17
19656.0	6.971102899208192e+17
19657.0	6.969938426200061e+17
19658.0	6.968769802928127e+17
19659.0	6.967598806379178e+17
19660.0	6.966427115672916e+17
19661.0	6.965253197791231e+17
19662.0	6.964077440008191e+17
19663.0	6.962883946610687e+17
19664.0	6.962393390601556e+17
19665.0	6.961237326473897e+17
