# Flux units: erg / (cm m2 s)
# Wavelength units: Angstrom
wave	flux
19000.0	4.860410724701524e+17
19001.0	4.8593565569952416e+17
19002.0	4.8586251920124576e+17
19003.0	4.8577172615113376e+17
19004.0	4.8568175588365645e+17
19005.0	4.855912737013759e+17
19006.0	4.855031394904745e+17
19007.0	4.854110081078612e+17
19008.0	4.853148246081536e+17
19009.0	4.8522246945942176e+17
19010.0	4.850588335123112e+17
19011.0	4.8505000883650554e+17
19012.0	4.84892164104738e+17
19013.0	4.848770906849279e+17
19014.0	4.847805665378304e+17
19015.0	4.846909655089151e+17
19016.0	4.8459890556927994e+17
19017.0	4.8451988208571725e+17
19018.0	4.844264444570282e+17
19019.0	4.8434059068921165e+17
19020.0	4.84249977295121e+17
19021.0	4.8416329396387834e+17
19022.0	4.840734497352361e+17
19023.0	4.839784847507455e+17
19024.0	4.83888535314978e+17
19025.0	4.838015385294166e+17
19026.0	4.837068409318058e+17
19027.0	4.835783227736063e+17
19028.0	4.835387479075497e+17
19029.0	4.8344670642285216e+17
19030.0	4.8336180678929056e+17
19031.0	4.8327376862795085e+17
19032.0	4.831831996235775e+17
19033.0	4.8308063407090336e+17
19034.0	4.830036277679444e+17
19035.0	4.8290789159075834e+17
19036.0	4.7895788804286976e+17
19037.0	4.827344028740265e+17
19038.0	4.8264639414272e+17
19039.0	4.8256075414459725e+17
19040.0	4.824726021079039e+17
19041.0	4.82382692098594e+17
19042.0	4.8218721292561056e+17
19043.0	4.822071569809406e+17
19044.0	4.821160761316692e+17
19045.0	4.820270433610409e+17
19046.0	4.819298532283732e+17
19047.0	4.81850053309235e+17
19048.0	4.817100277983913e+17
19049.0	4.814723800017576e+17
19050.0	4.815751101109589e+17
19051.0	4.809550408450037e+17
19052.0	4.81340176728064e+17
19053.0	4.81318547960627e+17
19054.0	4.812308224147456e+17
19055.0	4.810762474924714e+17
19056.0	4.810397503367851e+17
19057.0	4.8096468445866656e+17
19058.0	4.807754071932927e+17
19059.0	4.807496459878398e+17
19060.0	4.8069582237204474e+17
19061.0	4.806115736944639e+17
19062.0	4.805222092242943e+17
19063.0	4.8043427102719994e+17
19064.0	4.8032577130332154e+17
19065.0	4.8023223643668474e+17
19066.0	4.8012487357890554e+17
19067.0	4.8007919697919994e+17
19068.0	4.799928206011049e+17
19069.0	4.799045729342804e+17
19070.0	4.7981146029424634e+17
19071.0	4.797252437191338e+17
19072.0	4.79601611645474e+17
19073.0	4.7955033432173216e+17
19074.0	4.7946346511291725e+17
19075.0	4.7937525037137914e+17
19076.0	4.7928358602451616e+17
19077.0	4.7919609808595616e+17
19078.0	4.7910295958104736e+17
19079.0	4.790220750848e+17
19080.0	4.789320325354837e+17
19081.0	4.788388935412393e+17
19082.0	4.7875096932515834e+17
19083.0	4.786570164961279e+17
19084.0	4.7855080979824634e+17
19085.0	4.7849138566813005e+17
19086.0	4.7830117370210976e+17
19087.0	4.781486957920254e+17
19088.0	4.781682771099647e+17
19089.0	4.780702876128598e+17
19090.0	4.780495171398314e+17
19091.0	4.7795354657095674e+17
19092.0	4.777763910538582e+17
19093.0	4.7779041799482016e+17
19094.0	4.7770235452784634e+17
19095.0	4.776148972077056e+17
19096.0	4.775241324691455e+17
19097.0	4.774389409819306e+17
19098.0	4.773098128321193e+17
19099.0	4.772145551551147e+17
19100.0	4.771673031049216e+17
19101.0	4.770855068368895e+17
19102.0	4.769782672916479e+17
19103.0	4.769117747806207e+17
19104.0	4.768251770830847e+17
19105.0	4.7664879150039046e+17
19106.0	4.7663250697530016e+17
19107.0	4.765366906170026e+17
19108.0	4.764413452790442e+17
19109.0	4.76155699754871e+17
19110.0	4.762952518686036e+17
19111.0	4.7618561786511354e+17
19112.0	4.760945083547646e+17
19113.0	4.760359648886783e+17
19114.0	4.7593205184593894e+17
19115.0	4.758429776915114e+17
19116.0	4.7577137889498445e+17
19117.0	4.7568364901498874e+17
19118.0	4.7557292008843936e+17
19119.0	4.7379207390494445e+17
19120.0	4.7539331880277325e+17
19121.0	4.753168381160106e+17
19122.0	4.752502283741866e+17
19123.0	4.751629830761129e+17
19124.0	4.7506053153860256e+17
19125.0	4.7498674764950176e+17
19126.0	4.7490005537041056e+17
19127.0	4.745108873631059e+17
19128.0	4.7469972366731936e+17
19129.0	4.746273951318015e+17
19130.0	4.745498356700502e+17
19131.0	4.744644410387114e+17
19132.0	4.743771090583552e+17
19133.0	4.742772889572693e+17
19134.0	4.74191021281553e+17
19135.0	4.7411481028853766e+17
19136.0	4.7402953169960954e+17
19137.0	4.7391511066705914e+17
19138.0	4.73852624974643e+17
19139.0	4.737684050979498e+17
19140.0	4.736815498701483e+17
19141.0	4.735944780065449e+17
19142.0	4.7350268852961274e+17
19143.0	4.7340999622874445e+17
19144.0	4.7332820345596576e+17
19145.0	4.7324609583076685e+17
19146.0	4.7306239426341555e+17
19147.0	4.730562625404927e+17
19148.0	4.7295170846829216e+17
19149.0	4.728597499609087e+17
19150.0	4.7281088037737805e+17
19151.0	4.727248459049642e+17
19152.0	4.726349370840404e+17
19153.0	4.72482983392051e+17
19154.0	4.7243671511586125e+17
19155.0	4.723775215326549e+17
19156.0	4.722913176802645e+17
19157.0	4.721786273573545e+17
19158.0	4.719213622416723e+17
19159.0	4.720273930584063e+17
19160.0	4.7194038823376205e+17
19161.0	4.718550946851498e+17
19162.0	4.714136271323139e+17
19163.0	4.7167863199716685e+17
19164.0	4.7159776588595194e+17
19165.0	4.714301330467497e+17
19166.0	4.713934739210239e+17
19167.0	4.7130516361925965e+17
19168.0	4.7125089282075296e+17
19169.0	4.711576986015061e+17
19170.0	4.710794677714943e+17
19171.0	4.70969219092753e+17
19172.0	4.7090432684851194e+17
19173.0	4.708190156139177e+17
19174.0	4.707238379083093e+17
19175.0	4.706472438355285e+17
19176.0	4.705609189075626e+17
19177.0	4.7045076425113594e+17
19178.0	4.703808974225407e+17
19179.0	4.702684397436928e+17
19180.0	4.7021358034452474e+17
19181.0	4.701034460304724e+17
19182.0	4.700398303925589e+17
19183.0	4.699574330807636e+17
19184.0	4.6987036576098976e+17
19185.0	4.697828715309738e+17
19186.0	4.696986599729833e+17
19187.0	4.696027739892394e+17
19188.0	4.6952561767000736e+17
19189.0	4.694396310825642e+17
19190.0	4.693521840384682e+17
19191.0	4.692598505603071e+17
19192.0	4.691820566369621e+17
19193.0	4.6908602671868576e+17
19194.0	4.6899388722708474e+17
19195.0	4.6892330163459405e+17
19196.0	4.688341029093375e+17
19197.0	4.687484132087124e+17
19198.0	4.6865781386554016e+17
19199.0	4.6650575304348954e+17
19200.0	4.671211304910856e+17
19201.0	4.684004710853289e+17
19202.0	4.683204574664021e+17
19203.0	4.6822924239940256e+17
19204.0	4.681448269283327e+17
19205.0	4.680633579558229e+17
19206.0	4.6797615334249805e+17
19207.0	4.6787641572939085e+17
19208.0	4.6776414567574163e+17
19209.0	4.677197310022997e+17
19210.0	4.6763418677411834e+17
19211.0	4.675507674502485e+17
19212.0	4.6746448327693645e+17
19213.0	4.6734860870833485e+17
19214.0	4.672526750493355e+17
19215.0	4.672000776383145e+17
19216.0	4.6712215879461536e+17
19217.0	4.6703541863055354e+17
19218.0	4.668159662140072e+17
19219.0	4.668439785723221e+17
19220.0	4.667747083834709e+17
19221.0	4.666407703456426e+17
19222.0	4.666078269538304e+17
19223.0	4.6651951168880634e+17
19224.0	4.664309799277908e+17
19225.0	4.663278786226857e+17
19226.0	4.6626299099217914e+17
19227.0	4.6617807199491405e+17
19228.0	4.660960416148137e+17
19229.0	4.660104842444798e+17
19230.0	4.6592288613553485e+17
19231.0	4.6583710457965216e+17
19232.0	4.657528222078292e+17
19233.0	4.6565791964856314e+17
19234.0	4.655790168910507e+17
19235.0	4.6549277794631674e+17
19236.0	4.654126331155797e+17
19237.0	4.653243611916969e+17
19238.0	4.6522392487744845e+17
19239.0	4.65157082771183e+17
19240.0	4.650700408968532e+17
19241.0	4.6498278721017165e+17
19242.0	4.648988863802026e+17
19243.0	4.6479249527275514e+17
19244.0	4.6473094064592205e+17
19245.0	4.646449006510079e+17
19246.0	4.6455770428648096e+17
19247.0	4.6447405588370765e+17
19248.0	4.643895734435839e+17
19249.0	4.643013488454314e+17
19250.0	4.642032581257898e+17
19251.0	4.641042716426238e+17
19252.0	4.640086529758549e+17
19253.0	4.6395998520825165e+17
19254.0	4.6387909924399776e+17
19255.0	4.63766994236211e+17
19256.0	4.6370497509021e+17
19257.0	4.63624147566592e+17
19258.0	4.6353932748499616e+17
19259.0	4.634438452729172e+17
19260.0	4.6328218120792723e+17
19261.0	4.6328239357952e+17
19262.0	4.631898446539434e+17
19263.0	4.631035950137344e+17
19264.0	4.629340433503571e+17
19265.0	4.6290905739209376e+17
19266.0	4.628008614057302e+17
19267.0	4.627748616142847e+17
19268.0	4.626888572709546e+17
19269.0	4.6260457657685325e+17
19270.0	4.625199922151423e+17
19271.0	4.623760320976215e+17
19272.0	4.6234435279912934e+17
19273.0	4.621814658149033e+17
19274.0	4.621005248353619e+17
19275.0	4.6209606328429216e+17
19276.0	4.620080667164671e+17
19277.0	4.619242663400789e+17
19278.0	4.618382895393451e+17
19279.0	4.617512398356479e+17
19280.0	4.616563338510336e+17
19281.0	4.615843702898687e+17
19282.0	4.615019887067136e+17
19283.0	4.613865613208234e+17
19284.0	4.6132126859045536e+17
19285.0	4.6122110148061856e+17
19286.0	4.6115749681780045e+17
19287.0	4.6107740937912314e+17
19288.0	4.5999139362351706e+17
19289.0	4.582917568550181e+17
19290.0	4.608232447628629e+17
19291.0	4.607017938670934e+17
19292.0	4.6065497103400954e+17
19293.0	4.6056944973469e+17
19294.0	4.60483829240081e+17
19295.0	4.6040137628385274e+17
19296.0	4.602748360196096e+17
19297.0	4.6021829197823994e+17
19298.0	4.6014252432315725e+17
19299.0	4.600151772146346e+17
19300.0	4.599748388454398e+17
19301.0	4.5989212430445216e+17
19302.0	4.598061140191914e+17
19303.0	4.597102567664297e+17
19304.0	4.596336024354815e+17
19305.0	4.5955122232033274e+17
19306.0	4.594664590016511e+17
19307.0	4.59373800395025e+17
19308.0	4.592937633579007e+17
19309.0	4.5913401860642125e+17
19310.0	4.590238206088531e+17
19311.0	4.5903255846256634e+17
19312.0	4.589586190346921e+17
19313.0	4.588744250228736e+17
19314.0	4.509985272758284e+17
19315.0	4.515727696461933e+17
19316.0	4.585589888253952e+17
19317.0	4.5853467402567674e+17
19318.0	4.5845035446435834e+17
19319.0	4.583680632684543e+17
19320.0	4.5826541403941536e+17
19321.0	4.5816204737467725e+17
19322.0	4.580998148085076e+17
19323.0	4.5799471177181856e+17
19324.0	4.579410833309696e+17
19325.0	4.577827523395583e+17
19326.0	4.577736864213674e+17
19327.0	4.576858864964948e+17
19328.0	4.5752633768891744e+17
19329.0	4.5752021910814714e+17
19330.0	4.5742863172676256e+17
19331.0	4.5734297460189856e+17
19332.0	4.572640065530539e+17
19333.0	4.57176253534481e+17
19334.0	4.5709138773497165e+17
19335.0	4.5685121294008326e+17
19336.0	4.569205060577962e+17
19337.0	4.5683834215901856e+17
19338.0	4.567207061924521e+17
19339.0	4.5666386120977043e+17
19340.0	4.564988096850601e+17
19341.0	4.5638829956136954e+17
19342.0	4.562836392334676e+17
19343.0	4.562827219391828e+17
19344.0	4.5613957628559366e+17
19345.0	4.5572202185796186e+17
19346.0	4.5588819137440416e+17
19347.0	4.55856182403618e+17
19348.0	4.558545582292991e+17
19349.0	4.557627554004992e+17
19350.0	4.5565018964841805e+17
19351.0	4.555893618944682e+17
19352.0	4.554198746136574e+17
19353.0	4.554239528053418e+17
19354.0	4.553382284318036e+17
19355.0	4.552367079598762e+17
19356.0	4.5516487931549005e+17
19357.0	4.5507821059440634e+17
19358.0	4.549897262290261e+17
19359.0	4.548776315671892e+17
19360.0	4.547508415321429e+17
19361.0	4.5472329949511674e+17
19362.0	4.546431149583018e+17
19363.0	4.5455539116004685e+17
19364.0	4.54467325595921e+17
19365.0	4.543788039711402e+17
19366.0	4.542914806590121e+17
19367.0	4.542027104518143e+17
19368.0	4.5411498672346445e+17
19369.0	4.540166998502057e+17
19370.0	4.53927002701824e+17
19371.0	4.5383975230068045e+17
19372.0	4.537582619372202e+17
19373.0	4.536601865267883e+17
19374.0	4.535198999904255e+17
19375.0	4.534293788710229e+17
19376.0	4.53339735200017e+17
19377.0	4.5324694167661216e+17
19378.0	4.5315612723554976e+17
19379.0	4.5306477732167674e+17
19380.0	4.5297240700354554e+17
19381.0	4.5287922005442554e+17
19382.0	4.5277586031028896e+17
19383.0	4.526755621284521e+17
19384.0	4.525967685626538e+17
19385.0	4.52503790489873e+17
19386.0	4.524091188270421e+17
19387.0	4.522385120165887e+17
19388.0	4.521401031589888e+17
19389.0	4.520424115972778e+17
19390.0	4.5194224728364365e+17
19391.0	4.4824415321456083e+17
19392.0	4.517120421396477e+17
19393.0	4.5164304751656954e+17
19394.0	4.514908705477972e+17
19395.0	4.513134594577749e+17
19396.0	4.5122576536917325e+17
19397.0	4.5113252801850016e+17
19398.0	4.5099783458652166e+17
19399.0	4.506880675501395e+17
19400.0	4.5063002781996365e+17
19401.0	4.5054268004106234e+17
19402.0	4.5042897420724896e+17
19403.0	4.5018551555194874e+17
19404.0	4.500493961265151e+17
19405.0	4.499224509022208e+17
19406.0	4.496299304943615e+17
19407.0	4.494759088007849e+17
19408.0	4.491573634356567e+17
19409.0	4.4913327820417696e+17
19410.0	4.4899695633367034e+17
19411.0	4.488551671878996e+17
19412.0	4.4870740276674554e+17
19413.0	4.485293505773568e+17
19414.0	4.483696914595839e+17
19415.0	4.4818299522908154e+17
19416.0	4.479803736457215e+17
19417.0	4.4780378673643514e+17
19418.0	4.4766619706763936e+17
19419.0	4.4747882380656634e+17
19420.0	4.472108060333396e+17
19421.0	4.469979629311317e+17
19422.0	4.467803047679316e+17
19423.0	4.464813322622293e+17
19424.0	4.462078373571242e+17
19425.0	4.45871786365201e+17
19426.0	4.45532799570193e+17
19427.0	4.450391002098346e+17
19428.0	4.445260787395242e+17
19429.0	4.438769967737513e+17
19430.0	4.4290236481536045e+17
19431.0	4.41142624649217e+17
19432.0	4.4028754804080614e+17
19433.0	4.395108817786198e+17
19434.0	4.387893079091882e+17
19435.0	4.379178568777726e+17
19436.0	4.368307612986022e+17
19437.0	4.362133345839787e+17
19438.0	4.2847155788622586e+17
19439.0	4.340093493968899e+17
19440.0	4.3298973150085094e+17
19441.0	4.317507223551999e+17
19442.0	4.3023807961279155e+17
19443.0	4.275727913801047e+17
19444.0	4.216099732193284e+17
19445.0	4.1697212982012595e+17
19446.0	4.1272685957393056e+17
19447.0	4.082490367716007e+17
19448.0	3.9994231402878426e+17
19449.0	3.837874006218064e+17
19450.0	3.42890664462475e+17
19451.0	3.2150247527765414e+17
19452.0	3.695104714866712e+17
19453.0	3.917754334358213e+17
19454.0	4.0521853399203846e+17
19455.0	4.100114966642687e+17
19456.0	4.142039197286401e+17
19457.0	4.1809372949162656e+17
19458.0	4.022128569483638e+17
19459.0	4.2747533148379066e+17
19460.0	4.296938308501505e+17
19461.0	4.308739950990677e+17
19462.0	4.318920601938602e+17
19463.0	4.328742536435027e+17
19464.0	4.3372594579810976e+17
19465.0	4.345111911596032e+17
19466.0	4.3521225558152525e+17
19467.0	4.3590875037914445e+17
19468.0	4.365006146983253e+17
19469.0	4.369256129669801e+17
19470.0	4.3798952648813235e+17
19471.0	4.392606331742892e+17
19472.0	4.4011541604160864e+17
19473.0	4.406972730310657e+17
19474.0	4.4108535065914016e+17
19475.0	4.412859483510102e+17
19476.0	4.4164553812650656e+17
19477.0	4.418994431852544e+17
19478.0	4.419896035246079e+17
19479.0	4.420943373227348e+17
19480.0	4.4222227925346976e+17
19481.0	4.422612531456682e+17
19482.0	4.42347831898931e+17
19483.0	4.4241949927232845e+17
19484.0	4.4243674729895245e+17
19485.0	4.424412668013226e+17
19486.0	4.423931196866562e+17
19487.0	4.42457738392371e+17
19488.0	4.424976217494868e+17
19489.0	4.424875184401066e+17
19490.0	4.42215815411575e+17
19491.0	4.424609527671466e+17
19492.0	4.4244489067997856e+17
19493.0	4.4241906788816205e+17
19494.0	4.424446696401579e+17
19495.0	4.4245202092687354e+17
19496.0	4.423736159633407e+17
19497.0	4.425358559062698e+17
19498.0	4.422183972853083e+17
19499.0	4.367735634351402e+17
19500.0	4.425426590673578e+17
19501.0	4.4249552928112634e+17
19502.0	4.424429112481109e+17
19503.0	4.4244844094859955e+17
19504.0	4.4247510721495034e+17
19505.0	4.424236347861674e+17
19506.0	4.423686181005993e+17
19507.0	4.423052776090281e+17
19508.0	4.422659168621908e+17
19509.0	4.422790035101012e+17
19510.0	4.421713063662932e+17
19511.0	4.2894990036171814e+17
19512.0	4.412717112754153e+17
19513.0	4.4039216321003245e+17
19514.0	4.408102135442075e+17
19515.0	4.41778497633212e+17
19516.0	4.418181579931647e+17
19517.0	4.41814403252224e+17
19518.0	4.417480124530687e+17
19519.0	4.41675604505395e+17
19520.0	4.415662596991657e+17
19521.0	4.4155718441369594e+17
19522.0	4.414741889242453e+17
19523.0	4.414012620712618e+17
19524.0	4.4130448270076595e+17
19525.0	4.4127136825125536e+17
19526.0	4.412034157729108e+17
19527.0	4.411289305262762e+17
19528.0	4.41053603902259e+17
19529.0	4.4097814389937485e+17
19530.0	4.4091366353578656e+17
19531.0	4.4084082287575034e+17
19532.0	4.4078800477443405e+17
19533.0	4.4074776021783885e+17
19534.0	4.406734407161173e+17
19535.0	4.405969591904938e+17
19536.0	4.4051908879100576e+17
19537.0	4.404500645980842e+17
19538.0	4.403090163761153e+17
19539.0	4.4019958369921734e+17
19540.0	4.402220417504597e+17
19541.0	4.401391796398762e+17
19542.0	4.4007009379068576e+17
19543.0	4.3994517357636256e+17
19544.0	4.399219559366655e+17
19545.0	4.397709775601661e+17
19546.0	4.396126300012543e+17
19547.0	4.396991892510038e+17
19548.0	4.396231786758144e+17
19549.0	4.3953232907250336e+17
19550.0	4.394707922015573e+17
19551.0	4.393949691117568e+17
19552.0	4.393183035959978e+17
19553.0	4.3923825684206925e+17
19554.0	4.391575620681727e+17
19555.0	4.390804364372651e+17
19556.0	4.3900775914536954e+17
19557.0	4.389343903525546e+17
19558.0	4.3885810400187725e+17
19559.0	4.387817267746132e+17
19560.0	4.386816098566142e+17
19561.0	4.3862389672290976e+17
19562.0	4.385305508795732e+17
19563.0	4.384744059961343e+17
19564.0	4.383970047994538e+17
19565.0	4.3831980423031456e+17
19566.0	4.382379814682624e+17
19567.0	4.3816579155449165e+17
19568.0	4.380853371142143e+17
19569.0	4.380077300471123e+17
19570.0	4.37933160075537e+17
19571.0	4.3785550085925536e+17
19572.0	4.3777422146928634e+17
19573.0	4.376922777015636e+17
19574.0	4.376085470205268e+17
19575.0	4.3754667097019725e+17
19576.0	4.374656219174228e+17
19577.0	4.373784762340694e+17
19578.0	4.37306905469474e+17
19579.0	4.3723290137941325e+17
19580.0	4.3715561916115616e+17
19581.0	4.3707896734679034e+17
19582.0	4.3700452068775245e+17
19583.0	4.369269496916649e+17
19584.0	4.368476217016319e+17
19585.0	4.367541524059476e+17
19586.0	4.366720902190421e+17
19587.0	4.3660258151410336e+17
19588.0	4.364581728157696e+17
19589.0	4.3645774877163514e+17
19590.0	4.363593042624511e+17
19591.0	4.363041651032064e+17
19592.0	4.362273130108244e+17
19593.0	4.3614223861459616e+17
19594.0	4.360284542074879e+17
19595.0	4.3598948856408736e+17
19596.0	4.358641092831914e+17
19597.0	4.358368387574442e+17
19598.0	4.356807765349716e+17
19599.0	4.357209889352362e+17
19600.0	4.356444480602112e+17
19601.0	4.355562536610475e+17
19602.0	4.354819191996415e+17
19603.0	4.353052397360467e+17
19604.0	4.3532492863788365e+17
19605.0	4.3520790196387834e+17
19606.0	4.35177162608913e+17
19607.0	4.351004233433087e+17
19608.0	4.350203149331113e+17
19609.0	4.34936297431586e+17
19610.0	4.348397374231893e+17
19611.0	4.3474915185131526e+17
19612.0	4.347123255126698e+17
19613.0	4.346330191233024e+17
19614.0	4.3455108073826976e+17
19615.0	4.344784446903635e+17
19616.0	4.343417834307583e+17
19617.0	4.3428164347275936e+17
19618.0	4.3414335272604986e+17
19619.0	4.340348870459389e+17
19620.0	4.3395676310077414e+17
19621.0	4.3395773596958714e+17
19622.0	4.3393539948325536e+17
19623.0	4.338553481854976e+17
19624.0	4.337713011840341e+17
19625.0	4.337027066975572e+17
19626.0	4.336236070174718e+17
19627.0	4.335468962032298e+17
19628.0	4.334140618964993e+17
19629.0	4.332408784551934e+17
19630.0	4.332261509955586e+17
19631.0	4.308400291359398e+17
19632.0	4.3315516918114976e+17
19633.0	4.330676277652138e+17
19634.0	4.3300435207563936e+17
19635.0	4.3291381054395725e+17
19636.0	4.327857262166015e+17
19637.0	4.326639878711978e+17
19638.0	4.3268629667512314e+17
19639.0	4.326153830880596e+17
19640.0	4.3252430014163635e+17
19641.0	4.322113914317489e+17
19642.0	4.323795800861353e+17
19643.0	4.323010003599359e+17
19644.0	4.3222022666321914e+17
19645.0	4.321045674721278e+17
19646.0	4.320080271769599e+17
19647.0	4.319964818658644e+17
19648.0	4.319204556319402e+17
19649.0	4.3184251267099296e+17
19650.0	4.3176611649945594e+17
19651.0	4.316881952789845e+17
19652.0	4.316106203682133e+17
19653.0	4.315327563999913e+17
19654.0	4.31456019021824e+17
19655.0	4.313777382096895e+17
19656.0	4.313015258884778e+17
