# Flux units: erg / (cm m2 s)
# Wavelength units: Angstrom
wave	flux
19000.0	5.991212610398889e+17
19001.0	5.990011932857684e+17
19002.0	5.98902212395008e+17
19003.0	5.987924573858474e+17
19004.0	5.986828567969791e+17
19005.0	5.985723640796502e+17
19006.0	5.984636218550954e+17
19007.0	5.983539286420137e+17
19008.0	5.982386219821738e+17
19009.0	5.981180862835369e+17
19010.0	5.979831389563562e+17
19011.0	5.979117189769898e+17
19012.0	5.977925736901289e+17
19013.0	5.976962200414889e+17
19014.0	5.975815472108884e+17
19015.0	5.974732950208512e+17
19016.0	5.973642447945727e+17
19017.0	5.972588073320447e+17
19018.0	5.971487192252415e+17
19019.0	5.970396848674132e+17
19020.0	5.969295539088041e+17
19021.0	5.968220884303871e+17
19022.0	5.967122695979005e+17
19023.0	5.965994728095744e+17
19024.0	5.964916292845567e+17
19025.0	5.963843784845993e+17
19026.0	5.962727156962644e+17
19027.0	5.961604868866047e+17
19028.0	5.960568160649215e+17
19029.0	5.95946278818065e+17
19030.0	5.958401340560724e+17
19031.0	5.957308903325696e+17
19032.0	5.956208807990612e+17
19033.0	5.955020980398761e+17
19034.0	5.953990315474943e+17
19035.0	5.952698534155604e+17
19036.0	5.947087626349225e+17
19037.0	5.950592585302015e+17
19038.0	5.94962287829538e+17
19039.0	5.948573284477609e+17
19040.0	5.947495695777792e+17
19041.0	5.946401027872084e+17
19042.0	5.945082059074216e+17
19043.0	5.944233865248768e+17
19044.0	5.943133514760191e+17
19045.0	5.942053970116605e+17
19046.0	5.940910588166143e+17
19047.0	5.93982660874513e+17
19048.0	5.93858342822434e+17
19049.0	5.937327713026045e+17
19050.0	5.936531905358505e+17
19051.0	5.934806381974867e+17
19052.0	5.934168389189631e+17
19053.0	5.933338402138794e+17
19054.0	5.932266443593044e+17
19055.0	5.930874491808426e+17
19056.0	5.930054043303936e+17
19057.0	5.92900644807202e+17
19058.0	5.927767101844138e+17
19059.0	5.92677774172706e+17
19060.0	5.925740644139007e+17
19061.0	5.924672434601984e+17
19062.0	5.92358295015697e+17
19063.0	5.922495810327892e+17
19064.0	5.921307055794858e+17
19065.0	5.920151474711209e+17
19066.0	5.919132491623081e+17
19067.0	5.918152388334931e+17
19068.0	5.917082577272831e+17
19069.0	5.91599971143953e+17
19070.0	5.914887663736147e+17
19071.0	5.913827356966911e+17
19072.0	5.91269564846353e+17
19073.0	5.911665162496681e+17
19074.0	5.910586237911039e+17
19075.0	5.909503431497043e+17
19076.0	5.908406378430463e+17
19077.0	5.907318389254825e+17
19078.0	5.9062209230493e+17
19079.0	5.905173170530985e+17
19080.0	5.904080898271913e+17
19081.0	5.902963011398313e+17
19082.0	5.90190059069986e+17
19083.0	5.90074417914402e+17
19084.0	5.899539772167508e+17
19085.0	5.898672892717738e+17
19086.0	5.897137300002132e+17
19087.0	5.896327730823167e+17
19088.0	5.895259774342484e+17
19089.0	5.894139237367808e+17
19090.0	5.893243563322025e+17
19091.0	5.892172328992767e+17
19092.0	5.890951511102804e+17
19093.0	5.890051735726761e+17
19094.0	5.888977842907817e+17
19095.0	5.887900516351999e+17
19096.0	5.886810657215827e+17
19097.0	5.885740844755625e+17
19098.0	5.884605525655551e+17
19099.0	5.883510761280852e+17
19100.0	5.882491992801279e+17
19101.0	5.881423976901289e+17
19102.0	5.880251331990868e+17
19103.0	5.879277801876138e+17
19104.0	5.878205902050644e+17
19105.0	5.876989697196031e+17
19106.0	5.876037351811754e+17
19107.0	5.874917822868137e+17
19108.0	5.873822406978218e+17
19109.0	5.872605923901439e+17
19110.0	5.871680180191231e+17
19111.0	5.870627613310976e+17
19112.0	5.869552173492905e+17
19113.0	5.86852332540177e+17
19114.0	5.867421840353961e+17
19115.0	5.866319966633983e+17
19116.0	5.865273645072383e+17
19117.0	5.864190782734335e+17
19118.0	5.862942748005716e+17
19119.0	5.855208602424652e+17
19120.0	5.860885131515219e+17
19121.0	5.859888804659199e+17
19122.0	5.858859906935465e+17
19123.0	5.857790691464531e+17
19124.0	5.856686672358058e+17
19125.0	5.855631066005501e+17
19126.0	5.854476174185812e+17
19127.0	5.851908751927977e+17
19128.0	5.852302337026729e+17
19129.0	5.851259800824489e+17
19130.0	5.850275018790228e+17
19131.0	5.849221456461823e+17
19132.0	5.848150026398377e+17
19133.0	5.847035116781567e+17
19134.0	5.846007731104426e+17
19135.0	5.844940845569363e+17
19136.0	5.84386821104162e+17
19137.0	5.842674674302976e+17
19138.0	5.841712889637546e+17
19139.0	5.840668199660202e+17
19140.0	5.83960356786449e+17
19141.0	5.838535530293929e+17
19142.0	5.837439717343231e+17
19143.0	5.836350368514048e+17
19144.0	5.835283008323583e+17
19145.0	5.834261677124266e+17
19146.0	5.832534417997824e+17
19147.0	5.83205318173218e+17
19148.0	5.831009646586538e+17
19149.0	5.829929075736575e+17
19150.0	5.828923278841174e+17
19151.0	5.827853496440148e+17
19152.0	5.826785349817684e+17
19153.0	5.825595522241875e+17
19154.0	5.824547477520384e+17
19155.0	5.823580106741076e+17
19156.0	5.822516321495721e+17
19157.0	5.82138765246464e+17
19158.0	5.82019916636706e+17
19159.0	5.819285304421034e+17
19160.0	5.818239521827497e+17
19161.0	5.81715894538513e+17
19162.0	5.815784033659561e+17
19163.0	5.814965249594707e+17
19164.0	5.813992096967337e+17
19165.0	5.812812437782525e+17
19166.0	5.811755355034963e+17
19167.0	5.810779222354602e+17
19168.0	5.809745313136639e+17
19169.0	5.808685712408575e+17
19170.0	5.807628764577791e+17
19171.0	5.806555263926272e+17
19172.0	5.805504208393556e+17
19173.0	5.804445062747476e+17
19174.0	5.803336990545236e+17
19175.0	5.802317904696662e+17
19176.0	5.801258323542015e+17
19177.0	5.800040480811689e+17
19178.0	5.799122797854719e+17
19179.0	5.79805368094993e+17
19180.0	5.797003121743188e+17
19181.0	5.79583294448162e+17
19182.0	5.794871611402922e+17
19183.0	5.793838899658751e+17
19184.0	5.792776812407465e+17
19185.0	5.79170888388881e+17
19186.0	5.790657902455465e+17
19187.0	5.789532607741951e+17
19188.0	5.788535774074196e+17
19189.0	5.787480645872297e+17
19190.0	5.786417798752937e+17
19191.0	5.785324822549844e+17
19192.0	5.784296832892927e+17
19193.0	5.783213018447872e+17
19194.0	5.78212851683601e+17
19195.0	5.781090607650131e+17
19196.0	5.779987003779754e+17
19197.0	5.778867162360489e+17
19198.0	5.777529332476586e+17
19199.0	5.774225796584788e+17
19200.0	5.773543024710996e+17
19201.0	5.774401976227156e+17
19202.0	5.773596675451561e+17
19203.0	5.772598086467583e+17
19204.0	5.771560471582036e+17
19205.0	5.770523879407615e+17
19206.0	5.769480498752169e+17
19207.0	5.768295495325011e+17
19208.0	5.767182683559251e+17
19209.0	5.766320851954345e+17
19210.0	5.765268991115263e+17
19211.0	5.764229780297043e+17
19212.0	5.763172038344703e+17
19213.0	5.762009417820841e+17
19214.0	5.7609557415471776e+17
19215.0	5.7599920254047565e+17
19216.0	5.758946446934014e+17
19217.0	5.7578448766020256e+17
19218.0	5.756170941060436e+17
19219.0	5.755569015095294e+17
19220.0	5.7546936442770765e+17
19221.0	5.7534342171197434e+17
19222.0	5.752578342824618e+17
19223.0	5.751556014079998e+17
19224.0	5.750470380705109e+17
19225.0	5.749360778980009e+17
19226.0	5.7483994109487776e+17
19227.0	5.7473524546491725e+17
19228.0	5.746328319557631e+17
19229.0	5.7452749543615136e+17
19230.0	5.744216502173694e+17
19231.0	5.7431577165387085e+17
19232.0	5.742111271944192e+17
19233.0	5.7409979121227085e+17
19234.0	5.7399997257919136e+17
19235.0	5.7389288577652026e+17
19236.0	5.737912172456618e+17
19237.0	5.73684878357299e+17
19238.0	5.735717941193386e+17
19239.0	5.7347623032804685e+17
19240.0	5.733710685011966e+17
19241.0	5.732639637329236e+17
19242.0	5.7315948082408096e+17
19243.0	5.730396037709822e+17
19244.0	5.729512381743102e+17
19245.0	5.7284551025623034e+17
19246.0	5.727398685310975e+17
19247.0	5.726350224654335e+17
19248.0	5.7253121316181325e+17
19249.0	5.7242570097076896e+17
19250.0	5.7231684808649363e+17
19251.0	5.7220430610213536e+17
19252.0	5.7208004229638816e+17
19253.0	5.720037757288447e+17
19254.0	5.719014556827647e+17
19255.0	5.7177592708464614e+17
19256.0	5.71689724280832e+17
19257.0	5.715867404861439e+17
19258.0	5.714817302134783e+17
19259.0	5.713686133298516e+17
19260.0	5.7125878890496e+17
19261.0	5.711650838194858e+17
19262.0	5.710548968669183e+17
19263.0	5.7094526482077005e+17
19264.0	5.7080077957638816e+17
19265.0	5.707252173722964e+17
19266.0	5.7061558099203405e+17
19267.0	5.70537186304546e+17
19268.0	5.704318796343977e+17
19269.0	5.7032716526987936e+17
19270.0	5.702195302017706e+17
19271.0	5.7008723793892685e+17
19272.0	5.700087559400105e+17
19273.0	5.698789146886143e+17
19274.0	5.697567670490452e+17
19275.0	5.6969686770428576e+17
19276.0	5.6959020627394554e+17
19277.0	5.694859734155263e+17
19278.0	5.6938106156919456e+17
19279.0	5.692740255176019e+17
19280.0	5.691647192290645e+17
19281.0	5.6906514533362336e+17
19282.0	5.6896208009953274e+17
19283.0	5.6885506900404896e+17
19284.0	5.687470539319977e+17
19285.0	5.686350070852266e+17
19286.0	5.6853611979735034e+17
19287.0	5.6843236173414394e+17
19288.0	5.6817176081858534e+17
19289.0	5.679179034350928e+17
19290.0	5.681167516827647e+17
19291.0	5.679904153316011e+17
19292.0	5.679129718423551e+17
19293.0	5.678081052246015e+17
19294.0	5.67702510056243e+17
19295.0	5.675988214087679e+17
19296.0	5.6748640364571296e+17
19297.0	5.6738578970269e+17
19298.0	5.672803212722175e+17
19299.0	5.671704526673236e+17
19300.0	5.670715616045737e+17
19301.0	5.6696675888005114e+17
19302.0	5.6686016805382816e+17
19303.0	5.6674884647212365e+17
19304.0	5.666486776845652e+17
19305.0	5.6654369383601485e+17
19306.0	5.664390172202324e+17
19307.0	5.6632929800246605e+17
19308.0	5.662250324983807e+17
19309.0	5.661131291667113e+17
19310.0	5.660027636066986e+17
19311.0	5.659051650886313e+17
19312.0	5.6580333787327136e+17
19313.0	5.6569458369495034e+17
19314.0	5.6472395128504256e+17
19315.0	5.6469591236280435e+17
19316.0	5.6536699478125216e+17
19317.0	5.6527496867566925e+17
19318.0	5.651703825170431e+17
19319.0	5.650669943914494e+17
19320.0	5.649581828210687e+17
19321.0	5.6484581280317434e+17
19322.0	5.6473962092516685e+17
19323.0	5.6463586803493536e+17
19324.0	5.645311447924736e+17
19325.0	5.64421584818449e+17
19326.0	5.643192505117353e+17
19327.0	5.6421298761018016e+17
19328.0	5.6409552221197645e+17
19329.0	5.6400135463458125e+17
19330.0	5.638916951856469e+17
19331.0	5.6378218938804896e+17
19332.0	5.6368059957029536e+17
19333.0	5.635722418236073e+17
19334.0	5.634659731898367e+17
19335.0	5.6333422807394976e+17
19336.0	5.63250723745519e+17
19337.0	5.631428184943274e+17
19338.0	5.630134304374782e+17
19339.0	5.62926565073442e+17
19340.0	5.62802528878592e+17
19341.0	5.626901737504767e+17
19342.0	5.625632897630206e+17
19343.0	5.6248543131729914e+17
19344.0	5.623638450853205e+17
19345.0	5.620864008235687e+17
19346.0	5.620509014928042e+17
19347.0	5.62030588338722e+17
19348.0	5.6194174004756474e+17
19349.0	5.618292228096e+17
19350.0	5.6171601148422816e+17
19351.0	5.6160865351980365e+17
19352.0	5.614830880817151e+17
19353.0	5.613891435014825e+17
19354.0	5.612749188322643e+17
19355.0	5.611530861849258e+17
19356.0	5.6105138899298976e+17
19357.0	5.6093937612008096e+17
19358.0	5.608262860799999e+17
19359.0	5.607072955629567e+17
19360.0	5.605862018121726e+17
19361.0	5.60481052078899e+17
19362.0	5.6036319339479034e+17
19363.0	5.60247614734336e+17
19364.0	5.6013261936175776e+17
19365.0	5.600171456987134e+17
19366.0	5.599011813021011e+17
19367.0	5.597846908698623e+17
19368.0	5.596633453909332e+17
19369.0	5.5954024103062176e+17
19370.0	5.594231324278783e+17
19371.0	5.593014443442175e+17
19372.0	5.5918780429107194e+17
19373.0	5.590656104442538e+17
19374.0	5.589457482110292e+17
19375.0	5.588241403084799e+17
19376.0	5.587016287431337e+17
19377.0	5.585768344977407e+17
19378.0	5.5845240830252365e+17
19379.0	5.5832571858124794e+17
19380.0	5.5819600232011085e+17
19381.0	5.580674313136811e+17
19382.0	5.57930271281425e+17
19383.0	5.57799297987379e+17
19384.0	5.5767480615130445e+17
19385.0	5.5754344397537274e+17
19386.0	5.5740931635500365e+17
19387.0	5.5727310143924896e+17
19388.0	5.571320558037673e+17
19389.0	5.569845734495573e+17
19390.0	5.56835485725491e+17
19391.0	5.562775467545936e+17
19392.0	5.565144575421097e+17
19393.0	5.564043842551807e+17
19394.0	5.562557390301866e+17
19395.0	5.560907332932947e+17
19396.0	5.559348151451647e+17
19397.0	5.5577706471533216e+17
19398.0	5.5560687139334816e+17
19399.0	5.553758130580137e+17
19400.0	5.5523985707062605e+17
19401.0	5.55083774505779e+17
19402.0	5.5490791537814176e+17
19403.0	5.547088275658068e+17
19404.0	5.5451315230911136e+17
19405.0	5.5431537675468794e+17
19406.0	5.540986627992234e+17
19407.0	5.538793912270846e+17
19408.0	5.5360053642089805e+17
19409.0	5.534108483933524e+17
19410.0	5.531961026849449e+17
19411.0	5.529126880411648e+17
19412.0	5.526647843323903e+17
19413.0	5.5237446215925754e+17
19414.0	5.521152531234815e+17
19415.0	5.5184250123933005e+17
19416.0	5.515415074286249e+17
19417.0	5.512373230108671e+17
19418.0	5.50929158058803e+17
19419.0	5.50604302922547e+17
19420.0	5.5023975499038714e+17
19421.0	5.498747489703253e+17
19422.0	5.4948606002244256e+17
19423.0	5.4903902516019194e+17
19424.0	5.486064050722132e+17
19425.0	5.480850770624512e+17
19426.0	5.475757242100392e+17
19427.0	5.469492918353919e+17
19428.0	5.4632269043029344e+17
19429.0	5.456466497153705e+17
19430.0	5.4486160218521574e+17
19431.0	5.439969448777044e+17
19432.0	5.432112027708072e+17
19433.0	5.422381828232533e+17
19434.0	5.4122250491658234e+17
19435.0	5.401556585982635e+17
19436.0	5.3896091739531936e+17
19437.0	5.376204082599251e+17
19438.0	5.353786331627519e+17
19439.0	5.344194365227007e+17
19440.0	5.325340557705216e+17
19441.0	5.302992639098878e+17
19442.0	5.277358617526271e+17
19443.0	5.246393634171563e+17
19444.0	5.21107754066466e+17
19445.0	5.1680514859335686e+17
19446.0	5.1126274956984314e+17
19447.0	5.044049190846458e+17
19448.0	4.94764653456043e+17
19449.0	4.803487927894014e+17
19450.0	4.521478719886677e+17
19451.0	4.3039709651271955e+17
19452.0	4.692561808239279e+17
19453.0	4.88333572081801e+17
19454.0	4.995786694372005e+17
19455.0	5.0748348264611834e+17
19456.0	5.1333157673588077e+17
19457.0	5.180239776841725e+17
19458.0	5.191322588326612e+17
19459.0	5.246568147277145e+17
19460.0	5.273861480251389e+17
19461.0	5.296286314004478e+17
19462.0	5.315073213988862e+17
19463.0	5.330852875599871e+17
19464.0	5.344677948904788e+17
19465.0	5.3567828458646176e+17
19466.0	5.367144415319379e+17
19467.0	5.376596696716628e+17
19468.0	5.3845737218594125e+17
19469.0	5.392266868817918e+17
19470.0	5.399607473340415e+17
19471.0	5.406268770484223e+17
19472.0	5.4119423439885645e+17
19473.0	5.4167847043072e+17
19474.0	5.421579639630505e+17
19475.0	5.4248834761140896e+17
19476.0	5.4292644518079136e+17
19477.0	5.4325065837882016e+17
19478.0	5.435255003545599e+17
19479.0	5.4375395046195194e+17
19480.0	5.4398043134361594e+17
19481.0	5.441431934074879e+17
19482.0	5.4431945896318285e+17
19483.0	5.4445968286460576e+17
19484.0	5.445758141945172e+17
19485.0	5.4468416054667936e+17
19486.0	5.447760325115904e+17
19487.0	5.44866096521762e+17
19488.0	5.4493137016804685e+17
19489.0	5.449706005419349e+17
19490.0	5.449437253293395e+17
19491.0	5.451254432006142e+17
19492.0	5.451846576155305e+17
19493.0	5.45215817519377e+17
19494.0	5.45254384214562e+17
19495.0	5.4525629206364154e+17
19496.0	5.452383454756862e+17
19497.0	5.4526862821075616e+17
19498.0	5.451552642127188e+17
19499.0	5.445967200736595e+17
19500.0	5.452456622292991e+17
19501.0	5.4523231413643936e+17
19502.0	5.452086821694122e+17
19503.0	5.4519224511146656e+17
19504.0	5.4515615522269856e+17
19505.0	5.45116130307823e+17
19506.0	5.45073567769122e+17
19507.0	5.4503119795869e+17
19508.0	5.449888858898431e+17
19509.0	5.4493361384106656e+17
19510.0	5.4484761474061645e+17
19511.0	5.434123869661855e+17
19512.0	5.4461479703456403e+17
19513.0	5.444760817543848e+17
19514.0	5.444838176587774e+17
19515.0	5.4454800330260474e+17
19516.0	5.445228458672126e+17
19517.0	5.4445601214955514e+17
19518.0	5.4439286753198074e+17
19519.0	5.4432335218606074e+17
19520.0	5.44244773298722e+17
19521.0	5.441852546569557e+17
19522.0	5.4410749603566925e+17
19523.0	5.440380424858281e+17
19524.0	5.4396105393875616e+17
19525.0	5.438914544970409e+17
19526.0	5.4381544853558605e+17
19527.0	5.4373708362765645e+17
19528.0	5.436573863990613e+17
19529.0	5.435774224826367e+17
19530.0	5.4350009147064314e+17
19531.0	5.43419322807091e+17
19532.0	5.433378855015764e+17
19533.0	5.4325580129457485e+17
19534.0	5.431728578843989e+17
19535.0	5.4309254793789434e+17
19536.0	5.4300690703100576e+17
19537.0	5.4292594424108365e+17
19538.0	5.428151485551957e+17
19539.0	5.427090872598528e+17
19540.0	5.4266703272127136e+17
19541.0	5.4258339487416314e+17
19542.0	5.4250538417520634e+17
19543.0	5.424112251961343e+17
19544.0	5.423306965166762e+17
19545.0	5.4218993525500576e+17
19546.0	5.420770543708841e+17
19547.0	5.4206812029364896e+17
19548.0	5.419822278683305e+17
19549.0	5.418833635093161e+17
19550.0	5.418075916599294e+17
19551.0	5.4172156655479456e+17
19552.0	5.416318972286292e+17
19553.0	5.4153976116237645e+17
19554.0	5.4144955741197645e+17
19555.0	5.413630136112468e+17
19556.0	5.4127469310334285e+17
19557.0	5.411845147983871e+17
19558.0	5.4109356830665376e+17
19559.0	5.4100287689850874e+17
19560.0	5.4090579476916896e+17
19561.0	5.40817617986082e+17
19562.0	5.407254313085611e+17
19563.0	5.4063793106670925e+17
19564.0	5.4054937406996474e+17
19565.0	5.404574011621375e+17
19566.0	5.403626134568958e+17
19567.0	5.4027284130037754e+17
19568.0	5.401782556906836e+17
19569.0	5.4008620658633376e+17
19570.0	5.399959327211519e+17
19571.0	5.3990311843594234e+17
19572.0	5.39806534799633e+17
19573.0	5.3971519173645645e+17
19574.0	5.396142158249982e+17
19575.0	5.3953172518993914e+17
19576.0	5.3943744625377274e+17
19577.0	5.393411889343147e+17
19578.0	5.392484277769556e+17
19579.0	5.391554535489536e+17
19580.0	5.390622196236287e+17
19581.0	5.3897032759596365e+17
19582.0	5.3887817342429856e+17
19583.0	5.3878461409088845e+17
19584.0	5.386910272148821e+17
19585.0	5.3858500674409805e+17
19586.0	5.384881810265428e+17
19587.0	5.3840587731763194e+17
19588.0	5.3827362573953696e+17
19589.0	5.382186152056147e+17
19590.0	5.381179043741694e+17
19591.0	5.3803478508284576e+17
19592.0	5.379415794690729e+17
19593.0	5.3784462645439136e+17
19594.0	5.3772571101538976e+17
19595.0	5.376566387277823e+17
19596.0	5.375602758516735e+17
19597.0	5.374685472620543e+17
19598.0	5.37329986122547e+17
19599.0	5.372800683125418e+17
19600.0	5.371872941528404e+17
19601.0	5.3708607084735155e+17
19602.0	5.369884166848511e+17
19603.0	5.368663699182932e+17
19604.0	5.368017478571349e+17
19605.0	5.366857807342251e+17
19606.0	5.3661962726277114e+17
19607.0	5.365264566714368e+17
19608.0	5.364303187498324e+17
19609.0	5.363325446302378e+17
19610.0	5.3623823885052576e+17
19611.0	5.361408501874687e+17
19612.0	5.360537776248149e+17
19613.0	5.359579962190505e+17
19614.0	5.3586015750717434e+17
19615.0	5.3576908588537165e+17
19616.0	5.356663540285439e+17
19617.0	5.355699692721492e+17
19618.0	5.3542288125242016e+17
19619.0	5.353120080418131e+17
19620.0	5.35231060840721e+17
19621.0	5.351886089617407e+17
19622.0	5.351059384609451e+17
19623.0	5.350111832615593e+17
19624.0	5.3491456683977376e+17
19625.0	5.348221719849642e+17
19626.0	5.347264956465151e+17
19627.0	5.346304814568789e+17
19628.0	5.345283547682131e+17
19629.0	5.344017006286164e+17
19630.0	5.342654773941589e+17
19631.0	5.3399801844203514e+17
19632.0	5.341386511482878e+17
19633.0	5.340551897415679e+17
19634.0	5.3396795192333645e+17
19635.0	5.3386968832846496e+17
19636.0	5.3376969563176954e+17
19637.0	5.3364061718446086e+17
19638.0	5.335896545733289e+17
19639.0	5.334952643482964e+17
19640.0	5.3338531870801914e+17
19641.0	5.331976445755393e+17
19642.0	5.332100418895871e+17
19643.0	5.3311560077366605e+17
19644.0	5.330143007124138e+17
19645.0	5.3290435786833914e+17
19646.0	5.3282275055370234e+17
19647.0	5.3273954744620365e+17
19648.0	5.3264482363419296e+17
19649.0	5.3255003746686285e+17
19650.0	5.3245614629410125e+17
19651.0	5.32360872469026e+17
19652.0	5.322661394295467e+17
19653.0	5.3217222490849274e+17
19654.0	5.320769143133524e+17
19655.0	5.319819896640854e+17
19656.0	5.3188802599976954e+17
19657.0	5.3179332623510176e+17
19658.0	5.316992786148009e+17
19659.0	5.316048293199871e+17
