# Flux units: erg / (cm m2 s)
# Wavelength units: Angstrom
wave	flux
19000.0	4.634447878029311e+17
19001.0	4.633433230453417e+17
19002.0	4.632754362078549e+17
19003.0	4.6319014552535034e+17
19004.0	4.631025065219413e+17
19005.0	4.6301775033357645e+17
19006.0	4.629142766441812e+17
19007.0	4.6285129777152e+17
19008.0	4.6275476726306125e+17
19009.0	4.6266532806437536e+17
19010.0	4.6250280913032506e+17
19011.0	4.625051183742975e+17
19012.0	4.6239836334107296e+17
19013.0	4.623414323052543e+17
19014.0	4.6224905527623674e+17
19015.0	4.6216272559472634e+17
19016.0	4.6207472609088845e+17
19017.0	4.6200276378801485e+17
19018.0	4.619157544195413e+17
19019.0	4.61829057876241e+17
19020.0	4.6174697583629645e+17
19021.0	4.616645599297536e+17
19022.0	4.61579511468305e+17
19023.0	4.6148972134618445e+17
19024.0	4.6140284941107194e+17
19025.0	4.6132541060546554e+17
19026.0	4.6123608213640525e+17
19027.0	4.6114449650264723e+17
19028.0	4.610730993822378e+17
19029.0	4.6098597732679674e+17
19030.0	4.609057846809941e+17
19031.0	4.6082203372748794e+17
19032.0	4.607359756271615e+17
19033.0	4.6063785303080954e+17
19034.0	4.605668849177941e+17
19035.0	4.6048000676113056e+17
19036.0	4.5924794247413715e+17
19037.0	4.603150620513619e+17
19038.0	4.602284346441727e+17
19039.0	4.6014568466131616e+17
19040.0	4.6006366085229216e+17
19041.0	4.59978245668864e+17
19042.0	4.598112617583955e+17
19043.0	4.598118946788693e+17
19044.0	4.5972583916503034e+17
19045.0	4.596427582515882e+17
19046.0	4.5954767037399034e+17
19047.0	4.594732001569449e+17
19048.0	4.593382166189395e+17
19049.0	4.591560027013119e+17
19050.0	4.5921306585770656e+17
19051.0	4.589725026702673e+17
19052.0	4.590337353842688e+17
19053.0	4.5897170155820365e+17
19054.0	4.588873011866282e+17
19055.0	4.587420785836032e+17
19056.0	4.5870772345896954e+17
19057.0	4.586352962174974e+17
19058.0	4.584773032869887e+17
19059.0	4.5843918838824954e+17
19060.0	4.5838063821127674e+17
19061.0	4.5830132539064314e+17
19062.0	4.582166044344318e+17
19063.0	4.5813302915235834e+17
19064.0	4.580279740705449e+17
19065.0	4.579390412641621e+17
19066.0	4.5784676161290234e+17
19067.0	4.5779703618164045e+17
19068.0	4.577151657443328e+17
19069.0	4.576316419123883e+17
19070.0	4.5754289875845114e+17
19071.0	4.574633024727723e+17
19072.0	4.573525815154005e+17
19073.0	4.572961688955562e+17
19074.0	4.572141123010559e+17
19075.0	4.5713060426765645e+17
19076.0	4.570320906922666e+17
19077.0	4.569603345394346e+17
19078.0	4.568718064134825e+17
19079.0	4.567962135909717e+17
19080.0	4.567108041397589e+17
19081.0	4.5662202267784525e+17
19082.0	4.5653891415190163e+17
19083.0	4.564499115103572e+17
19084.0	4.5634793609625594e+17
19085.0	4.562938310426623e+17
19086.0	4.5612307785099936e+17
19087.0	4.5604300446324045e+17
19088.0	4.5600060738983245e+17
19089.0	4.5592336299021645e+17
19090.0	4.558764373267797e+17
19091.0	4.557861392045397e+17
19092.0	4.556471243811499e+17
19093.0	4.556308455882752e+17
19094.0	4.5554731455610874e+17
19095.0	4.554645442308778e+17
19096.0	4.553782951499092e+17
19097.0	4.5529792564428794e+17
19098.0	4.551842794394966e+17
19099.0	4.550958848322219e+17
19100.0	4.550429164350123e+17
19101.0	4.5496468868082336e+17
19102.0	4.54857753432337e+17
19103.0	4.5479910426978976e+17
19104.0	4.547172422909951e+17
19105.0	4.5456919671166304e+17
19106.0	4.5454592922965325e+17
19107.0	4.54448864366865e+17
19108.0	4.543620090691583e+17
19109.0	4.542391663635113e+17
19110.0	4.5421922615296e+17
19111.0	4.5411848854787405e+17
19112.0	4.5402217991809696e+17
19113.0	4.5397021941213856e+17
19114.0	4.5387600276138656e+17
19115.0	4.537839379983018e+17
19116.0	4.5371459895295994e+17
19117.0	4.5363708164396365e+17
19118.0	4.535397353433769e+17
19119.0	4.512382371321139e+17
19120.0	4.5338101547007994e+17
19121.0	4.533030356691626e+17
19122.0	4.5322702747074554e+17
19123.0	4.531444642043221e+17
19124.0	4.5305772040519674e+17
19125.0	4.529785559231146e+17
19126.0	4.528968123635029e+17
19127.0	4.524787415471444e+17
19128.0	4.5272740938820256e+17
19129.0	4.5263698704465914e+17
19130.0	4.5256399308281165e+17
19131.0	4.524834374899027e+17
19132.0	4.5240091476841805e+17
19133.0	4.5230932375197005e+17
19134.0	4.5223488869717325e+17
19135.0	4.5215371192784205e+17
19136.0	4.5207203988111354e+17
19137.0	4.519599016684202e+17
19138.0	4.519051023177045e+17
19139.0	4.5182515923298976e+17
19140.0	4.5174301721449805e+17
19141.0	4.516606627545086e+17
19142.0	4.515739911673173e+17
19143.0	4.514846531911679e+17
19144.0	4.5140796292901536e+17
19145.0	4.51331207794961e+17
19146.0	4.511471009879381e+17
19147.0	4.5113492289617914e+17
19148.0	4.510585826486953e+17
19149.0	4.509733880856576e+17
19150.0	4.509192135464276e+17
19151.0	4.508379164005717e+17
19152.0	4.5075537829997216e+17
19153.0	4.506229229486079e+17
19154.0	4.505638811293012e+17
19155.0	4.505104969367551e+17
19156.0	4.5042834443250336e+17
19157.0	4.5032887245864954e+17
19158.0	4.50189029609745e+17
19159.0	4.50173029458466e+17
19160.0	4.500984722096127e+17
19161.0	4.5001836855296e+17
19162.0	4.498397627154432e+17
19163.0	4.4985401510024525e+17
19164.0	4.4977268810492576e+17
19165.0	4.496331838062591e+17
19166.0	4.495817066938366e+17
19167.0	4.4950905624548685e+17
19168.0	4.4944506430859936e+17
19169.0	4.493608068928853e+17
19170.0	4.4928244925508256e+17
19171.0	4.4919316881080314e+17
19172.0	4.4911872879274656e+17
19173.0	4.490368154337279e+17
19174.0	4.489440920950102e+17
19175.0	4.488731378231979e+17
19176.0	4.487917994333525e+17
19177.0	4.4868490158407674e+17
19178.0	4.48616710869265e+17
19179.0	4.48524757045521e+17
19180.0	4.4846462267992723e+17
19181.0	4.483515801053865e+17
19182.0	4.482964974993408e+17
19183.0	4.4822137283106125e+17
19184.0	4.481349097706836e+17
19185.0	4.480562821595136e+17
19186.0	4.479765491395242e+17
19187.0	4.4788578537963514e+17
19188.0	4.4781080709256525e+17
19189.0	4.477328669977257e+17
19190.0	4.476513072185342e+17
19191.0	4.475616239812608e+17
19192.0	4.4748859171143674e+17
19193.0	4.474000489054208e+17
19194.0	4.473126955341141e+17
19195.0	4.47244452040977e+17
19196.0	4.471603484863146e+17
19197.0	4.4708080476924576e+17
19198.0	4.4700123190176416e+17
19199.0	4.463024811977385e+17
19200.0	4.46433578503373e+17
19201.0	4.467560933578068e+17
19202.0	4.4667633803810125e+17
19203.0	4.4659334408656205e+17
19204.0	4.465089517540693e+17
19205.0	4.4643125164332365e+17
19206.0	4.4634839498533536e+17
19207.0	4.462518711877632e+17
19208.0	4.4614049542963174e+17
19209.0	4.4610621985696416e+17
19210.0	4.4602549362578765e+17
19211.0	4.4594557675547296e+17
19212.0	4.458650337454762e+17
19213.0	4.4576725130717843e+17
19214.0	4.456794243989504e+17
19215.0	4.4562069197946874e+17
19216.0	4.4554200054497274e+17
19217.0	4.4546020777219405e+17
19218.0	4.4523495162729786e+17
19219.0	4.452780231447893e+17
19220.0	4.4521434291459405e+17
19221.0	4.450791667182251e+17
19222.0	4.450563041263615e+17
19223.0	4.449722950134442e+17
19224.0	4.448884232639828e+17
19225.0	4.447863335550974e+17
19226.0	4.447299239411711e+17
19227.0	4.446498201447082e+17
19228.0	4.445725170947413e+17
19229.0	4.4449172270612474e+17
19230.0	4.444095975347541e+17
19231.0	4.443284722854569e+17
19232.0	4.442486627893246e+17
19233.0	4.441580529603925e+17
19234.0	4.44083697946897e+17
19235.0	4.4400267559785805e+17
19236.0	4.4392733121795405e+17
19237.0	4.4384347282036045e+17
19238.0	4.4374923296112634e+17
19239.0	4.4368605996209485e+17
19240.0	4.436043324107433e+17
19241.0	4.435215606175061e+17
19242.0	4.4344204507217914e+17
19243.0	4.433399255837353e+17
19244.0	4.4328346976256e+17
19245.0	4.4320111341513376e+17
19246.0	4.431199144858965e+17
19247.0	4.4304125786412365e+17
19248.0	4.429624427675647e+17
19249.0	4.4288000567978656e+17
19250.0	4.4278878299313485e+17
19251.0	4.4269297495354016e+17
19252.0	4.4259955934494714e+17
19253.0	4.4255573222359034e+17
19254.0	4.424805651928404e+17
19255.0	4.4237143394658976e+17
19256.0	4.4231326426289485e+17
19257.0	4.4223980620130976e+17
19258.0	4.421599369363455e+17
19259.0	4.420687380174164e+17
19260.0	4.419695258107902e+17
19261.0	4.419174970075818e+17
19262.0	4.418299042114218e+17
19263.0	4.417479246523049e+17
19264.0	4.415733000481449e+17
19265.0	4.4155891596219725e+17
19266.0	4.414476517725525e+17
19267.0	4.414393814439253e+17
19268.0	4.413583284065621e+17
19269.0	4.4127886787652256e+17
19270.0	4.411994908131328e+17
19271.0	4.410531398025217e+17
19272.0	4.410334233580885e+17
19273.0	4.4088516009437843e+17
19274.0	4.408037945114623e+17
19275.0	4.4080007877754874e+17
19276.0	4.407168277151743e+17
19277.0	4.406381299892223e+17
19278.0	4.405577238533461e+17
19279.0	4.4047643775249056e+17
19280.0	4.403838712108372e+17
19281.0	4.4031833744779936e+17
19282.0	4.4024134673367034e+17
19283.0	4.4015301797696845e+17
19284.0	4.4007792602426016e+17
19285.0	4.39972088774656e+17
19286.0	4.399167926785365e+17
19287.0	4.398431725071017e+17
19288.0	4.394562470543357e+17
19289.0	4.389095277767324e+17
19290.0	4.396044183229781e+17
19291.0	4.394853469257728e+17
19292.0	4.394449750720511e+17
19293.0	4.3936444499449165e+17
19294.0	4.3928420893764256e+17
19295.0	4.3920666779101856e+17
19296.0	4.390969940115456e+17
19297.0	4.3903727376356685e+17
19298.0	4.389632181534719e+17
19299.0	4.38854739820544e+17
19300.0	4.388056874352638e+17
19301.0	4.387286972803753e+17
19302.0	4.386477249833642e+17
19303.0	4.3855782049655456e+17
19304.0	4.384860211423915e+17
19305.0	4.384090420325034e+17
19306.0	4.383314675411626e+17
19307.0	4.382441018665642e+17
19308.0	4.3816931518928205e+17
19309.0	4.380698347569151e+17
19310.0	4.3798390290513914e+17
19311.0	4.3792895731302394e+17
19312.0	4.378550486433791e+17
19313.0	4.3777741382396576e+17
19314.0	4.3453425857331245e+17
19315.0	4.3460290625754854e+17
19316.0	4.374983143500459e+17
19317.0	4.374587522766165e+17
19318.0	4.373799367606272e+17
19319.0	4.373032869735083e+17
19320.0	4.3721119816308045e+17
19321.0	4.3711938827386874e+17
19322.0	4.3705448023108256e+17
19323.0	4.3697700731180365e+17
19324.0	4.3690749581066234e+17
19325.0	4.3680696393618765e+17
19326.0	4.3675069511106554e+17
19327.0	4.36667936739601e+17
19328.0	4.3653519407841274e+17
19329.0	4.365141802658474e+17
19330.0	4.3642804149507405e+17
19331.0	4.3634869008684365e+17
19332.0	4.362770083829076e+17
19333.0	4.361959230494036e+17
19334.0	4.361168065921023e+17
19335.0	4.3592493675752115e+17
19336.0	4.359592879674708e+17
19337.0	4.358823833064789e+17
19338.0	4.357686266516819e+17
19339.0	4.357214621226323e+17
19340.0	4.3558594381086714e+17
19341.0	4.355062595147093e+17
19342.0	4.3539888295553696e+17
19343.0	4.354031103246334e+17
19344.0	4.352823133208576e+17
19345.0	4.3482762308485037e+17
19346.0	4.3500640011987603e+17
19347.0	4.350235851620351e+17
19348.0	4.350103529018708e+17
19349.0	4.3492665221010765e+17
19350.0	4.348293241547434e+17
19351.0	4.347674570522623e+17
19352.0	4.3462606720423245e+17
19353.0	4.3461753703847245e+17
19354.0	4.3453973437699405e+17
19355.0	4.3444535764363955e+17
19356.0	4.3438256108339194e+17
19357.0	4.343042667795797e+17
19358.0	4.3422556793514656e+17
19359.0	4.3412555566503245e+17
19360.0	4.340185500221438e+17
19361.0	4.339839957379753e+17
19362.0	4.3391292759080954e+17
19363.0	4.3383443112154445e+17
19364.0	4.33755806306577e+17
19365.0	4.336769685607765e+17
19366.0	4.335995157741568e+17
19367.0	4.335214004972202e+17
19368.0	4.334433383481344e+17
19369.0	4.333567871374677e+17
19370.0	4.3327893386472096e+17
19371.0	4.332000410337279e+17
19372.0	4.3313034442397e+17
19373.0	4.330493033403733e+17
19374.0	4.329734065706325e+17
19375.0	4.328955451888981e+17
19376.0	4.32818222146082e+17
19377.0	4.327383157615274e+17
19378.0	4.326609458823167e+17
19379.0	4.3258347785639245e+17
19380.0	4.3250543779730765e+17
19381.0	4.324266668807508e+17
19382.0	4.32338506944785e+17
19383.0	4.322524523397119e+17
19384.0	4.3219082808743245e+17
19385.0	4.321154091887275e+17
19386.0	4.320383193492138e+17
19387.0	4.319604611132074e+17
19388.0	4.318792995831807e+17
19389.0	4.3179256116674554e+17
19390.0	4.3171438290534394e+17
19391.0	4.305641651481242e+17
19392.0	4.315481249589929e+17
19393.0	4.314794648316585e+17
19394.0	4.313994012306089e+17
19395.0	4.313042016447146e+17
19396.0	4.3123845467122336e+17
19397.0	4.31166709563392e+17
19398.0	4.310686807796394e+17
19399.0	4.308390194271572e+17
19400.0	4.3090856245548365e+17
19401.0	4.30851771858944e+17
19402.0	4.3077476303940256e+17
19403.0	4.3069322961442125e+17
19404.0	4.306177609433088e+17
19405.0	4.3053669098891936e+17
19406.0	4.304593827659775e+17
19407.0	4.3036207267621536e+17
19408.0	4.301437531411801e+17
19409.0	4.302235583731029e+17
19410.0	4.3014668831511885e+17
19411.0	4.3006784420795725e+17
19412.0	4.299876141629438e+17
19413.0	4.298885780471807e+17
19414.0	4.298228187004927e+17
19415.0	4.297483284905983e+17
19416.0	4.296413205408427e+17
19417.0	4.2957930258322765e+17
19418.0	4.2951204496124576e+17
19419.0	4.294313779396607e+17
19420.0	4.2935209944241485e+17
19421.0	4.2927193818398714e+17
19422.0	4.291836373893119e+17
19423.0	4.2910822841712634e+17
19424.0	4.29027660800546e+17
19425.0	4.289460678164479e+17
19426.0	4.2886349147777696e+17
19427.0	4.287783589904383e+17
19428.0	4.286957118379349e+17
19429.0	4.2861028595903136e+17
19430.0	4.285081513011882e+17
19431.0	4.2823041399739757e+17
19432.0	4.2834773692907514e+17
19433.0	4.2825529719521274e+17
19434.0	4.281608555899562e+17
19435.0	4.2803908117353805e+17
19436.0	4.2785660546143546e+17
19437.0	4.278548575551487e+17
19438.0	4.2529972726442726e+17
19439.0	4.275453910406486e+17
19440.0	4.274650806048085e+17
19441.0	4.273049412392276e+17
19442.0	4.271200914811562e+17
19443.0	4.268935854336682e+17
19444.0	4.2659174213659296e+17
19445.0	4.2616920900020896e+17
19446.0	4.255012690242218e+17
19447.0	4.243628002814633e+17
19448.0	4.21929415466462e+17
19449.0	4.121830995176111e+17
19450.0	3.5305675425491546e+17
19451.0	3.140934543518366e+17
19452.0	3.727799162503177e+17
19453.0	4.166294560920932e+17
19454.0	4.2231092348627616e+17
19455.0	4.24099707879424e+17
19456.0	4.249148699530581e+17
19457.0	4.2535454395159885e+17
19458.0	4.137296781639868e+17
19459.0	4.253621269736139e+17
19460.0	4.2577352227553274e+17
19461.0	4.257999323398142e+17
19462.0	4.2580127158108154e+17
19463.0	4.2578217617326086e+17
19464.0	4.2574693702915405e+17
19465.0	4.257158548597418e+17
19466.0	4.2565845077633696e+17
19467.0	4.2561457087665485e+17
19468.0	4.255572274708479e+17
19469.0	4.2539588336134803e+17
19470.0	4.254323645786794e+17
19471.0	4.25370108104977e+17
19472.0	4.2529547843447456e+17
19473.0	4.252241075284649e+17
19474.0	4.2512407316834976e+17
19475.0	4.249089745092605e+17
19476.0	4.2501120472733e+17
19477.0	4.249496987544234e+17
19478.0	4.248833566790996e+17
19479.0	4.2476972788066976e+17
19480.0	4.247338480566272e+17
19481.0	4.2465099727066445e+17
19482.0	4.2458848920862714e+17
19483.0	4.245197815458474e+17
19484.0	4.244436850573311e+17
19485.0	4.243597941538815e+17
19486.0	4.242452235943936e+17
19487.0	4.2422109138670925e+17
19488.0	4.241495568329386e+17
19489.0	4.24058780909568e+17
19490.0	4.236989935823526e+17
19491.0	4.239194531910997e+17
19492.0	4.2385103262842874e+17
19493.0	4.2377616968471885e+17
19494.0	4.237001045835775e+17
19495.0	4.2362466296572576e+17
19496.0	4.2345711729814163e+17
19497.0	4.234689498491561e+17
19498.0	4.233014819859115e+17
19499.0	4.21577422274559e+17
19500.0	4.232468796975787e+17
19501.0	4.2318386496361805e+17
19502.0	4.23113488666897e+17
19503.0	4.2303869143394976e+17
19504.0	4.229629968296619e+17
19505.0	4.228861754955093e+17
19506.0	4.228122254420649e+17
19507.0	4.227308361613311e+17
19508.0	4.2266087349288954e+17
19509.0	4.225844457941673e+17
19510.0	4.224633460315476e+17
19511.0	4.173530269395589e+17
19512.0	4.221045751240015e+17
19513.0	4.2174274579988397e+17
19514.0	4.218533904209232e+17
19515.0	4.220325380227074e+17
19516.0	4.2204622221912736e+17
19517.0	4.219631729726804e+17
19518.0	4.2189203065623885e+17
19519.0	4.2181450523825485e+17
19520.0	4.2170730672728736e+17
19521.0	4.216766891469482e+17
19522.0	4.21590390083857e+17
19523.0	4.2151436993167354e+17
19524.0	4.214207961978198e+17
19525.0	4.213716208495274e+17
19526.0	4.212992451979946e+17
19527.0	4.2122038270580045e+17
19528.0	4.211434946822143e+17
19529.0	4.210659256434688e+17
19530.0	4.209969094896298e+17
19531.0	4.2092167150523725e+17
19532.0	4.208460829469354e+17
19533.0	4.2077101629986125e+17
19534.0	4.206950954827774e+17
19535.0	4.206173518910806e+17
19536.0	4.205379304379733e+17
19537.0	4.2046873595630925e+17
19538.0	4.203372821348353e+17
19539.0	4.2020686535502534e+17
19540.0	4.202387503142229e+17
19541.0	4.201594606321664e+17
19542.0	4.2008796725247994e+17
19543.0	4.199765847834623e+17
19544.0	4.1993890756034554e+17
19545.0	4.1977991316985146e+17
19546.0	4.196121392622251e+17
19547.0	4.1971685998810445e+17
19548.0	4.1964131938467834e+17
19549.0	4.1955097561442976e+17
19550.0	4.194908701196287e+17
19551.0	4.194162930876415e+17
19552.0	4.193407723372543e+17
19553.0	4.1926164406599674e+17
19554.0	4.1918200849367034e+17
19555.0	4.1910905004359654e+17
19556.0	4.190378270567082e+17
19557.0	4.1896464162488314e+17
19558.0	4.188899254818134e+17
19559.0	4.1881552027648e+17
19560.0	4.187227255646889e+17
19561.0	4.1866134577042765e+17
19562.0	4.1857574135398394e+17
19563.0	4.185160713677482e+17
19564.0	4.1844084491769165e+17
19565.0	4.1836586166736205e+17
19566.0	4.1828590054714016e+17
19567.0	4.18216488730624e+17
19568.0	4.1813841162185376e+17
19569.0	4.1806294861305165e+17
19570.0	4.1799137519206394e+17
19571.0	4.1791594734551034e+17
19572.0	4.17837252415761e+17
19573.0	4.177597117584725e+17
19574.0	4.1767736869300896e+17
19575.0	4.1761776791278925e+17
19576.0	4.175405776896e+17
19577.0	4.174582018386602e+17
19578.0	4.173854840018261e+17
19579.0	4.1731369184788474e+17
19580.0	4.1724060225590605e+17
19581.0	4.171668634555732e+17
19582.0	4.170956257187157e+17
19583.0	4.170210557471401e+17
19584.0	4.169453579272191e+17
19585.0	4.1685345017091405e+17
19586.0	4.1677451784355834e+17
19587.0	4.1671879882178554e+17
19588.0	4.165578369531905e+17
19589.0	4.165703791105364e+17
19590.0	4.1647213816490656e+17
19591.0	4.164233063301119e+17
19592.0	4.1634917941684915e+17
19593.0	4.162690952637098e+17
19594.0	4.161567004994217e+17
19595.0	4.161207910356308e+17
19596.0	4.160411556031146e+17
19597.0	4.159759890513919e+17
19598.0	4.1578465944316563e+17
19599.0	4.1582827594055674e+17
19600.0	4.1575509092816205e+17
19601.0	4.1566919402891936e+17
19602.0	4.1559904485375994e+17
19603.0	4.154447745078612e+17
19604.0	4.154511875287721e+17
19605.0	4.153329405220181e+17
19606.0	4.1530835588874234e+17
19607.0	4.1523520401134925e+17
19608.0	4.151583695350442e+17
19609.0	4.1507746616442874e+17
19610.0	4.1499251543026336e+17
19611.0	4.149085275684864e+17
19612.0	4.1486481005827405e+17
19613.0	4.1478905589486925e+17
19614.0	4.147104976295253e+17
19615.0	4.146420663014741e+17
19616.0	4.1453913060147194e+17
19617.0	4.1446171975789216e+17
19618.0	4.1430955677013306e+17
19619.0	4.141967671820284e+17
19620.0	4.141278609888595e+17
19621.0	4.1415869094079136e+17
19622.0	4.141241739160234e+17
19623.0	4.1404868895703034e+17
19624.0	4.1396994565297485e+17
19625.0	4.139026454588074e+17
19626.0	4.138272404013055e+17
19627.0	4.137549559059797e+17
19628.0	4.136649562084693e+17
19629.0	4.1349413332145485e+17
19630.0	4.1351298105562464e+17
19631.0	4.1280648025647763e+17
19632.0	4.1338518208075085e+17
19633.0	4.1330347123671034e+17
19634.0	4.132379836110164e+17
19635.0	4.1315267055889056e+17
19636.0	4.1304443437711354e+17
19637.0	4.1292432880435194e+17
19638.0	4.129354163071659e+17
19639.0	4.128675112244564e+17
19640.0	4.1277459047383046e+17
19641.0	4.124129698862428e+17
19642.0	4.1264426701728416e+17
19643.0	4.1256982497198074e+17
19644.0	4.124904200164691e+17
19645.0	4.1237300229352083e+17
19646.0	4.123051307652436e+17
19647.0	4.122790065427796e+17
19648.0	4.122065522480468e+17
19649.0	4.121322655318015e+17
19650.0	4.120598551374506e+17
19651.0	4.1198578862216525e+17
19652.0	4.119119804061013e+17
19653.0	4.118389754691583e+17
19654.0	4.1176509601983136e+17
19655.0	4.1169048396540576e+17
