# Flux units: erg / (cm m2 s)
# Wavelength units: Angstrom
wave	flux
19000.0	6.829453493665791e+17
19001.0	6.82750520800051e+17
19002.0	6.82697890603554e+17
19003.0	6.825694026443434e+17
19004.0	6.82444773724433e+17
19005.0	6.823153065350484e+17
19006.0	6.821896502902783e+17
19007.0	6.820594302233257e+17
19008.0	6.819089727094783e+17
19009.0	6.816992358389076e+17
19010.0	6.815227018477567e+17
19011.0	6.815120071415123e+17
19012.0	6.813191655565993e+17
19013.0	6.81307031085602e+17
19014.0	6.811507491515048e+17
19015.0	6.810389425684479e+17
19016.0	6.809347549386067e+17
19017.0	6.808110363923795e+17
19018.0	6.806854230693204e+17
19019.0	6.805636444585983e+17
19020.0	6.804338423540394e+17
19021.0	6.803218612180308e+17
19022.0	6.801933467648e+17
19023.0	6.800398875972948e+17
19024.0	6.799240383343272e+17
19025.0	6.797946608331433e+17
19026.0	6.796523609609555e+17
19027.0	6.795078328647679e+17
19028.0	6.794187891889491e+17
19029.0	6.792917523890175e+17
19030.0	6.79184761426193e+17
19031.0	6.790555242244776e+17
19032.0	6.78910363836962e+17
19033.0	6.786831775432701e+17
19034.0	6.784995548987392e+17
19035.0	6.776614087382355e+17
19036.0	6.73714705338641e+17
19037.0	6.775836512354301e+17
19038.0	6.780130339498665e+17
19039.0	6.7800187549341e+17
19040.0	6.77915475767023e+17
19041.0	6.778020838768639e+17
19042.0	6.775500383627944e+17
19043.0	6.775685396474538e+17
19044.0	6.774390412105044e+17
19045.0	6.773114474070015e+17
19046.0	6.771628036500136e+17
19047.0	6.770251463131133e+17
19048.0	6.768476420396371e+17
19049.0	6.765591392856742e+17
19050.0	6.765184945924778e+17
19051.0	6.758862502406825e+17
19052.0	6.760005961951913e+17
19053.0	6.762226416003753e+17
19054.0	6.76164026831121e+17
19055.0	6.758674338239835e+17
19056.0	6.759259269584211e+17
19057.0	6.758288325956947e+17
19058.0	6.756202610425853e+17
19059.0	6.75554506379537e+17
19060.0	6.754592464655699e+17
19061.0	6.753411070427133e+17
19062.0	6.752132245312852e+17
19063.0	6.750857335581354e+17
19064.0	6.749162660604588e+17
19065.0	6.747332246765568e+17
19066.0	6.746446337758547e+17
19067.0	6.745875016930644e+17
19068.0	6.744731028903252e+17
19069.0	6.743492853585235e+17
19070.0	6.742106018152447e+17
19071.0	6.740927500517375e+17
19072.0	6.739480507580415e+17
19073.0	6.738510491593385e+17
19074.0	6.737299567367508e+17
19075.0	6.736051418693631e+17
19076.0	6.734757680731476e+17
19077.0	6.733434448423593e+17
19078.0	6.732088451530751e+17
19079.0	6.731035556096682e+17
19080.0	6.729702397269332e+17
19081.0	6.728179446185983e+17
19082.0	6.727186202143401e+17
19083.0	6.725262440573609e+17
19084.0	6.723076977502892e+17
19085.0	6.723302153606484e+17
19086.0	6.718878008038739e+17
19087.0	6.719826107389267e+17
19088.0	6.718427186768552e+17
19089.0	6.71686960331708e+17
19090.0	6.716830238375935e+17
19091.0	6.715713003017556e+17
19092.0	6.713626731042134e+17
19093.0	6.713505572279636e+17
19094.0	6.712326298271743e+17
19095.0	6.711139106815999e+17
19096.0	6.709889296498687e+17
19097.0	6.708675324411904e+17
19098.0	6.707080568242173e+17
19099.0	6.705769707732992e+17
19100.0	6.704777185809748e+17
19101.0	6.703538584769875e+17
19102.0	6.70205624853026e+17
19103.0	6.701141088447146e+17
19104.0	6.699950201809578e+17
19105.0	6.69785409838558e+17
19106.0	6.697257617326079e+17
19107.0	6.695659691660627e+17
19108.0	6.69401105895697e+17
19109.0	6.69213228409378e+17
19110.0	6.691479974051839e+17
19111.0	6.690608079612584e+17
19112.0	6.689597774539433e+17
19113.0	6.688695309915476e+17
19114.0	6.687275142348799e+17
19115.0	6.685891365961727e+17
19116.0	6.684764843715241e+17
19117.0	6.683364383085908e+17
19118.0	6.680130171349674e+17
19119.0	6.656644662427626e+17
19120.0	6.678445267703123e+17
19121.0	6.67824031932962e+17
19122.0	6.677483779435178e+17
19123.0	6.67630470955008e+17
19124.0	6.674488186546857e+17
19125.0	6.673513271612755e+17
19126.0	6.671171036643327e+17
19127.0	6.665502717902847e+17
19128.0	6.668189336687956e+17
19129.0	6.668007714237096e+17
19130.0	6.667557000620714e+17
19131.0	6.666513707346602e+17
19132.0	6.665316397132458e+17
19133.0	6.663795139848874e+17
19134.0	6.662697500278783e+17
19135.0	6.661614305891668e+17
19136.0	6.660330426641066e+17
19137.0	6.658757531183785e+17
19138.0	6.657770689047209e+17
19139.0	6.656712554228393e+17
19140.0	6.655519534787241e+17
19141.0	6.654291432090282e+17
19142.0	6.652840544043005e+17
19143.0	6.65162086490658e+17
19144.0	6.650253011495593e+17
19145.0	6.649288221611348e+17
19146.0	6.64381682334652e+17
19147.0	6.646593211422035e+17
19148.0	6.645305156741801e+17
19149.0	6.644029993254911e+17
19150.0	6.643117236507987e+17
19151.0	6.641842491752447e+17
19152.0	6.640510619877375e+17
19153.0	6.638572484427775e+17
19154.0	6.637690104228521e+17
19155.0	6.636611274014719e+17
19156.0	6.635349966411092e+17
19157.0	6.633681713452372e+17
19158.0	6.631896009495892e+17
19159.0	6.631246808831316e+17
19160.0	6.629909773768019e+17
19161.0	6.6281780281344e+17
19162.0	6.625514832439978e+17
19163.0	6.625253895001427e+17
19164.0	6.625004243036842e+17
19165.0	6.623423184764924e+17
19166.0	6.622526330721619e+17
19167.0	6.621600896690857e+17
19168.0	6.620583101988863e+17
19169.0	6.619459749937151e+17
19170.0	6.618305213934249e+17
19171.0	6.617046671775062e+17
19172.0	6.615792694416724e+17
19173.0	6.614646100328447e+17
19174.0	6.613277027773097e+17
19175.0	6.612164923446612e+17
19176.0	6.610953587479892e+17
19177.0	6.608674014713171e+17
19178.0	6.608404662102697e+17
19179.0	6.607139975987197e+17
19180.0	6.605890817185108e+17
19181.0	6.604280230313981e+17
19182.0	6.603285556712788e+17
19183.0	6.602299416423081e+17
19184.0	6.601052328908116e+17
19185.0	6.599740400948566e+17
19186.0	6.598542048449876e+17
19187.0	6.596730451656703e+17
19188.0	6.595934876773034e+17
19189.0	6.594611685709139e+17
19190.0	6.593256095743999e+17
19191.0	6.591653538867882e+17
19192.0	6.590419596301652e+17
19193.0	6.588731448360959e+17
19194.0	6.586838972803756e+17
19195.0	6.585025358550355e+17
19196.0	6.582328886646099e+17
19197.0	6.57854780547618e+17
19198.0	6.571996654949715e+17
19199.0	6.559082016844457e+17
19200.0	6.559248530014207e+17
19201.0	6.568879947339092e+17
19202.0	6.572686713727657e+17
19203.0	6.573760487707988e+17
19204.0	6.573949194338301e+17
19205.0	6.573485990084608e+17
19206.0	6.572751407371603e+17
19207.0	6.570948474612393e+17
19208.0	6.57018049335569e+17
19209.0	6.569698474852351e+17
19210.0	6.568679486870868e+17
19211.0	6.567630508916736e+17
19212.0	6.566378616826538e+17
19213.0	6.564442816206163e+17
19214.0	6.56346438434816e+17
19215.0	6.562658606120959e+17
19216.0	6.561436654370815e+17
19217.0	6.559694825630377e+17
19218.0	6.556926633224872e+17
19219.0	6.556089116699302e+17
19220.0	6.556247430703785e+17
19221.0	6.554711638059689e+17
19222.0	6.553947295361706e+17
19223.0	6.552946995800746e+17
19224.0	6.551556330269353e+17
19225.0	6.550428884576937e+17
19226.0	6.54935748387362e+17
19227.0	6.548223568467284e+17
19228.0	6.547194804262228e+17
19229.0	6.545980047141546e+17
19230.0	6.544733764233898e+17
19231.0	6.543443766192809e+17
19232.0	6.542274775220223e+17
19233.0	6.540621235879935e+17
19234.0	6.539761596497919e+17
19235.0	6.538331610065578e+17
19236.0	6.537369588421972e+17
19237.0	6.536063514312704e+17
19238.0	6.53438188991283e+17
19239.0	6.533689654291114e+17
19240.0	6.532466883253588e+17
19241.0	6.531103707889664e+17
19242.0	6.529913123941034e+17
19243.0	6.527599909360978e+17
19244.0	6.52757220528401e+17
19245.0	6.526291948513961e+17
19246.0	6.525062707063466e+17
19247.0	6.523774511174995e+17
19248.0	6.522615518724095e+17
19249.0	6.521337756166825e+17
19250.0	6.519908059141459e+17
19251.0	6.5181617019508e+17
19252.0	6.5155029284509e+17
19253.0	6.516318244525396e+17
19254.0	6.515211435507711e+17
19255.0	6.512556211088038e+17
19256.0	6.512623634524842e+17
19257.0	6.511475338947241e+17
19258.0	6.51022832832785e+17
19259.0	6.50826534302515e+17
19260.0	6.506438186063187e+17
19261.0	6.506225110526633e+17
19262.0	6.50463454236945e+17
19263.0	6.503014983882067e+17
19264.0	6.500518021038079e+17
19265.0	6.500184055174484e+17
19266.0	6.499094881807018e+17
19267.0	6.498911820709888e+17
19268.0	6.497673100831401e+17
19269.0	6.496385789941076e+17
19270.0	6.494833919131647e+17
19271.0	6.492802684813311e+17
19272.0	6.492345065275391e+17
19273.0	6.489862351880191e+17
19274.0	6.4873701656494e+17
19275.0	6.488954045289812e+17
19276.0	6.487623328246441e+17
19277.0	6.48639711228723e+17
19278.0	6.485121494417407e+17
19279.0	6.483635018399741e+17
19280.0	6.48230811467776e+17
19281.0	6.481201079167658e+17
19282.0	6.480002834322771e+17
19283.0	6.478617380913151e+17
19284.0	6.476983899433642e+17
19285.0	6.475482737759571e+17
19286.0	6.473784313774079e+17
19287.0	6.470959462612991e+17
19288.0	6.449576269578232e+17
19289.0	6.439796628346185e+17
19290.0	6.466662441506131e+17
19291.0	6.465980688848219e+17
19292.0	6.467106277163007e+17
19293.0	6.466087813469524e+17
19294.0	6.464826268887721e+17
19295.0	6.463711808760489e+17
19296.0	6.462047267061759e+17
19297.0	6.460925382317396e+17
19298.0	6.459739679839572e+17
19299.0	6.458229170459988e+17
19300.0	6.45736916197922e+17
19301.0	6.456100841499305e+17
19302.0	6.454685233840127e+17
19303.0	6.45305179709986e+17
19304.0	6.452102424079017e+17
19305.0	6.45071391302178e+17
19306.0	6.449390476591101e+17
19307.0	6.447775847809023e+17
19308.0	6.446330144620543e+17
19309.0	6.444580991926272e+17
19310.0	6.442872227583316e+17
19311.0	6.441860699171497e+17
19312.0	6.440583839088639e+17
19313.0	6.437738460304724e+17
19314.0	6.367010395695803e+17
19315.0	6.369878478946348e+17
19316.0	6.433343162460842e+17
19317.0	6.434230228396714e+17
19318.0	6.433377950018217e+17
19319.0	6.432346798555135e+17
19320.0	6.430930440814591e+17
19321.0	6.429368958058495e+17
19322.0	6.428221622277459e+17
19323.0	6.426814875784531e+17
19324.0	6.425523283907924e+17
19325.0	6.424183027619156e+17
19326.0	6.422974794738346e+17
19327.0	6.42170991149056e+17
19328.0	6.419799377357482e+17
19329.0	6.419143212051113e+17
19330.0	6.417712679660202e+17
19331.0	6.416126807725396e+17
19332.0	6.415056851959808e+17
19333.0	6.413573283293865e+17
19334.0	6.41229559763217e+17
19335.0	6.40957586271983e+17
19336.0	6.409459112869885e+17
19337.0	6.40808159088913e+17
19338.0	6.405275879735292e+17
19339.0	6.405128812057939e+17
19340.0	6.403124264697856e+17
19341.0	6.401116143790762e+17
19342.0	6.399325378008403e+17
19343.0	6.398720353151657e+17
19344.0	6.395972117943636e+17
19345.0	6.388786244091903e+17
19346.0	6.388831846662141e+17
19347.0	6.391673292587005e+17
19348.0	6.391707880914941e+17
19349.0	6.390229478932479e+17
19350.0	6.388660321299113e+17
19351.0	6.387363443201363e+17
19352.0	6.385069856565929e+17
19353.0	6.384701601568084e+17
19354.0	6.383216892051455e+17
19355.0	6.38097244867789e+17
19356.0	6.380034064034474e+17
19357.0	6.37843027403298e+17
19358.0	6.376789359547731e+17
19359.0	6.374941250639188e+17
19360.0	6.372901487203667e+17
19361.0	6.371921894222506e+17
19362.0	6.37041278713856e+17
19363.0	6.368785312601427e+17
19364.0	6.3671281661597e+17
19365.0	6.365408530180778e+17
19366.0	6.363745370505215e+17
19367.0	6.362004415578111e+17
19368.0	6.360148703095466e+17
19369.0	6.358157174854996e+17
19370.0	6.356436033120938e+17
19371.0	6.354445895991295e+17
19372.0	6.353027463468371e+17
19373.0	6.351049770838697e+17
19374.0	6.349301054352041e+17
19375.0	6.347452314200746e+17
19376.0	6.345534621089792e+17
19377.0	6.343531610942121e+17
19378.0	6.341592878503251e+17
19379.0	6.339504470928042e+17
19380.0	6.337504941353642e+17
19381.0	6.335444634217129e+17
19382.0	6.332823719204182e+17
19383.0	6.330939085597353e+17
19384.0	6.329100692094973e+17
19385.0	6.326985454955177e+17
19386.0	6.324731306661203e+17
19387.0	6.322337553055743e+17
19388.0	6.31977345688098e+17
19389.0	6.316737153378985e+17
19390.0	6.310910165516285e+17
19391.0	6.273742291686723e+17
19392.0	6.29818187334724e+17
19393.0	6.305854169022463e+17
19394.0	6.304489454348969e+17
19395.0	6.302001175112364e+17
19396.0	6.299625995283114e+17
19397.0	6.296942827711146e+17
19398.0	6.293518618897066e+17
19399.0	6.288843792362153e+17
19400.0	6.286920708871508e+17
19401.0	6.285102918489428e+17
19402.0	6.282231739143508e+17
19403.0	6.278983507946153e+17
19404.0	6.275766980793684e+17
19405.0	6.272249145327615e+17
19406.0	6.268714837431635e+17
19407.0	6.264601675038717e+17
19408.0	6.259006874757802e+17
19409.0	6.256641154482175e+17
19410.0	6.253465811200682e+17
19411.0	6.249467065226579e+17
19412.0	6.245182099947519e+17
19413.0	6.240547323423402e+17
19414.0	6.235991326414164e+17
19415.0	6.231071291779753e+17
19416.0	6.225190986623656e+17
19417.0	6.220842598574761e+17
19418.0	6.215556129270441e+17
19419.0	6.210045644286633e+17
19420.0	6.204344796621482e+17
19421.0	6.19832564392482e+17
19422.0	6.191766622087848e+17
19423.0	6.185250675752957e+17
19424.0	6.178193272034644e+17
19425.0	6.170652481770838e+17
19426.0	6.162775868265811e+17
19427.0	6.154391500707156e+17
19428.0	6.145378021801983e+17
19429.0	6.13533315305745e+17
19430.0	6.122670691188736e+17
19431.0	6.109978340709719e+17
19432.0	6.103830176115369e+17
19433.0	6.092894139405654e+17
19434.0	6.079922697841321e+17
19435.0	6.064277819490301e+17
19436.0	6.047728331128831e+17
19437.0	6.029024590211753e+17
19438.0	5.954983861507421e+17
19439.0	5.979433651404795e+17
19440.0	5.978263897068884e+17
19441.0	5.95836599026756e+17
19442.0	5.934085539801772e+17
19443.0	5.906770106340692e+17
19444.0	5.87500531954483e+17
19445.0	5.838346902656342e+17
19446.0	5.794967409306281e+17
19447.0	5.74252042839654e+17
19448.0	5.676467671269377e+17
19449.0	5.5887007185196365e+17
19450.0	5.453974082333345e+17
19451.0	5.357847681783126e+17
19452.0	5.5305514317250554e+17
19453.0	5.6334556611652294e+17
19454.0	5.706189691508049e+17
19455.0	5.7621175714447354e+17
19456.0	5.806571244923565e+17
19457.0	5.840786349009578e+17
19458.0	5.716575348151788e+17
19459.0	5.877044976025636e+17
19460.0	5.926343832589652e+17
19461.0	5.949415212711935e+17
19462.0	5.969039258725034e+17
19463.0	5.986221319432873e+17
19464.0	6.00157745979938e+17
19465.0	6.01579258380288e+17
19466.0	6.028448954843133e+17
19467.0	6.040375097556991e+17
19468.0	6.051059520765951e+17
19469.0	6.060060688689833e+17
19470.0	6.069604570191188e+17
19471.0	6.078100265762815e+17
19472.0	6.08574860706884e+17
19473.0	6.092849128931327e+17
19474.0	6.098923608692051e+17
19475.0	6.102760661450751e+17
19476.0	6.110713514819581e+17
19477.0	6.11684747051008e+17
19478.0	6.122045642724692e+17
19479.0	6.126218789257213e+17
19480.0	6.130604014480041e+17
19481.0	6.13458859139618e+17
19482.0	6.138244798349312e+17
19483.0	6.141658230598314e+17
19484.0	6.144734818293076e+17
19485.0	6.147587618198867e+17
19486.0	6.14986988580591e+17
19487.0	6.152908119386793e+17
19488.0	6.155070706024447e+17
19489.0	6.15531984069154e+17
19490.0	6.155192112250879e+17
19491.0	6.160585618096127e+17
19492.0	6.163088961175551e+17
19493.0	6.16470415479057e+17
19494.0	6.165994593233578e+17
19495.0	6.166875292215976e+17
19496.0	6.166047298857641e+17
19497.0	6.165731409745236e+17
19498.0	6.145206082600952e+17
19499.0	6.111479576483156e+17
19500.0	6.166031910655316e+17
19501.0	6.17166554669602e+17
19502.0	6.173476142448639e+17
19503.0	6.17453388440098e+17
19504.0	6.175232027699882e+17
19505.0	6.175752322722474e+17
19506.0	6.176197717262336e+17
19507.0	6.176293904536916e+17
19508.0	6.176312423088128e+17
19509.0	6.175323112603647e+17
19510.0	6.169617034641407e+17
19511.0	6.062293272668805e+17
19512.0	6.151085612509865e+17
19513.0	6.152895997848227e+17
19514.0	6.157288706408442e+17
19515.0	6.173704954314751e+17
19516.0	6.176407935778815e+17
19517.0	6.177048328404991e+17
19518.0	6.177289245731498e+17
19519.0	6.177185584207188e+17
19520.0	6.176601874803369e+17
19521.0	6.177033270853631e+17
19522.0	6.176426136261972e+17
19523.0	6.176312755137193e+17
19524.0	6.175847336290986e+17
19525.0	6.175835560782505e+17
19526.0	6.175541935035731e+17
19527.0	6.175067162192553e+17
19528.0	6.174594413101055e+17
19529.0	6.174075323241812e+17
19530.0	6.173718886394537e+17
19531.0	6.173254045663231e+17
19532.0	6.172711170605055e+17
19533.0	6.172177076322303e+17
19534.0	6.171600338550783e+17
19535.0	6.170937635722579e+17
19536.0	6.170212454541993e+17
19537.0	6.169625349849087e+17
19538.0	6.167510645385898e+17
19539.0	6.16676447031569e+17
19540.0	6.167403684342442e+17
19541.0	6.166958004589908e+17
19542.0	6.16630894792977e+17
19543.0	6.165028900175871e+17
19544.0	6.164443515147603e+17
19545.0	6.161384852510035e+17
19546.0	6.160206016107859e+17
19547.0	6.162320313024511e+17
19548.0	6.16199094341905e+17
19549.0	6.160626381837652e+17
19550.0	6.160619724778153e+17
19551.0	6.159840626518697e+17
19552.0	6.159011358091944e+17
19553.0	6.158107106694484e+17
19554.0	6.1572413666973e+17
19555.0	6.156384499750227e+17
19556.0	6.15567048450594e+17
19557.0	6.154877929521151e+17
19558.0	6.15401527513361e+17
19559.0	6.153165892922025e+17
19560.0	6.151933018505213e+17
19561.0	6.151271238423892e+17
19562.0	6.150370838096553e+17
19563.0	6.149737786201428e+17
19564.0	6.148832593182719e+17
19565.0	6.147928383029247e+17
19566.0	6.146908162621437e+17
19567.0	6.146113723695104e+17
19568.0	6.145017873694719e+17
19569.0	6.144172366320979e+17
19570.0	6.143360136555177e+17
19571.0	6.142442529095679e+17
19572.0	6.141250767246679e+17
19573.0	6.140459471252138e+17
19574.0	6.138915422120616e+17
19575.0	6.138661961727999e+17
19576.0	6.137659006473556e+17
19577.0	6.136495669422761e+17
19578.0	6.135670959505407e+17
19579.0	6.134618914116947e+17
19580.0	6.133683004112895e+17
19581.0	6.132873521616212e+17
19582.0	6.13197160714513e+17
19583.0	6.130984964237993e+17
19584.0	6.129950279772841e+17
19585.0	6.128145361709736e+17
19586.0	6.126938575164759e+17
19587.0	6.126560255235412e+17
19588.0	6.124451006862676e+17
19589.0	6.124536558780415e+17
19590.0	6.123469730567507e+17
19591.0	6.123036598774441e+17
19592.0	6.122136486455978e+17
19593.0	6.120945987092477e+17
19594.0	6.118349007574353e+17
19595.0	6.118946997884244e+17
19596.0	6.117382463771988e+17
19597.0	6.116883823940948e+17
19598.0	6.114073400486569e+17
19599.0	6.114796166447103e+17
19600.0	6.113918776071508e+17
19601.0	6.112504819570006e+17
19602.0	6.11112549683473e+17
19603.0	6.109339139964927e+17
19604.0	6.109033057135274e+17
19605.0	6.107130832617476e+17
19606.0	6.107699734730068e+17
19607.0	6.106771531060564e+17
19608.0	6.105720804081663e+17
19609.0	6.104515980470953e+17
19610.0	6.103491532903764e+17
19611.0	6.102309563356502e+17
19612.0	6.10169472033314e+17
19613.0	6.10057080344849e+17
19614.0	6.099286216059561e+17
19615.0	6.098362133293737e+17
19616.0	6.096724611301375e+17
19617.0	6.095429136897364e+17
19618.0	6.092116542007976e+17
19619.0	6.090206211997695e+17
19620.0	6.090325504294912e+17
19621.0	6.090950887604223e+17
19622.0	6.090859677570388e+17
19623.0	6.089847808021844e+17
19624.0	6.088606723954004e+17
19625.0	6.087576481955839e+17
19626.0	6.086143995019263e+17
19627.0	6.084535108239359e+17
19628.0	6.082145462954665e+17
19629.0	6.077011688685567e+17
19630.0	6.069277196375379e+17
19631.0	6.060697333006333e+17
19632.0	6.073360330347859e+17
19633.0	6.076238033234602e+17
19634.0	6.077067925214548e+17
19635.0	6.076338916731561e+17
19636.0	6.075321530974207e+17
19637.0	6.07191519898283e+17
19638.0	6.074013342236671e+17
19639.0	6.072990552118612e+17
19640.0	6.070592249790464e+17
19641.0	6.067140568984238e+17
19642.0	6.069772843570516e+17
19643.0	6.068781876335956e+17
19644.0	6.067372066603007e+17
19645.0	6.066104733182633e+17
19646.0	6.065198495782227e+17
19647.0	6.064883917389823e+17
19648.0	6.063842266884777e+17
19649.0	6.062800322079401e+17
19650.0	6.061781045389994e+17
19651.0	6.060682387303082e+17
19652.0	6.059606236550484e+17
19653.0	6.058588074846889e+17
19654.0	6.057475746824191e+17
19655.0	6.056376690278399e+17
19656.0	6.055398905741311e+17
19657.0	6.054296065933312e+17
19658.0	6.053273880494079e+17
19659.0	6.052206714639699e+17
19660.0	6.05117139194129e+17
19661.0	6.050063507783679e+17
19662.0	6.048988431471956e+17
19663.0	6.047778946591402e+17
19664.0	6.046735205924861e+17
19665.0	6.045801482551295e+17
19666.0	6.044690755354621e+17
