# Flux units: erg / (cm m2 s)
# Wavelength units: Angstrom
wave	flux
19000.0	5.6707979103873696e+17
19001.0	5.669345684357119e+17
19002.0	5.668701431573161e+17
19003.0	5.6676226887406925e+17
19004.0	5.666564430189908e+17
19005.0	5.665492331134975e+17
19006.0	5.6644429379447456e+17
19007.0	5.6633048897508685e+17
19008.0	5.662067956645887e+17
19009.0	5.66118582391057e+17
19010.0	5.658003237066064e+17
19011.0	5.659049339824811e+17
19012.0	5.657624188026878e+17
19013.0	5.657023567888383e+17
19014.0	5.655744009469951e+17
19015.0	5.6547644968796154e+17
19016.0	5.653653123760126e+17
19017.0	5.6526679062173005e+17
19018.0	5.6516925872319136e+17
19019.0	5.650654498390016e+17
19020.0	5.649485595497813e+17
19021.0	5.6485220100778656e+17
19022.0	5.6475185710803616e+17
19023.0	5.64631533920802e+17
19024.0	5.645317538054142e+17
19025.0	5.644360031578794e+17
19026.0	5.643187916548777e+17
19027.0	5.6421186836015776e+17
19028.0	5.641194536523092e+17
19029.0	5.6400728398233594e+17
19030.0	5.6391265740827296e+17
19031.0	5.6380955945861114e+17
19032.0	5.637024087627091e+17
19033.0	5.635587451824809e+17
19034.0	5.634864000794623e+17
19035.0	5.6337347920964256e+17
19036.0	5.6190952331891904e+17
19037.0	5.631725082247168e+17
19038.0	5.630625044234239e+17
19039.0	5.6296456323072e+17
19040.0	5.6286100146094074e+17
19041.0	5.627540971104937e+17
19042.0	5.6261372452099405e+17
19043.0	5.6254537924608e+17
19044.0	5.6243689741789856e+17
19045.0	5.62335817277986e+17
19046.0	5.622036284746411e+17
19047.0	5.6212587789243725e+17
19048.0	5.6192615883735014e+17
19049.0	5.618865871869268e+17
19050.0	5.617901423820799e+17
19051.0	5.6146722655218285e+17
19052.0	5.615877151348054e+17
19053.0	5.614924208974505e+17
19054.0	5.613879434412031e+17
19055.0	5.611804401773231e+17
19056.0	5.6116905816446285e+17
19057.0	5.6107335260569594e+17
19058.0	5.609628330448211e+17
19059.0	5.607460605089108e+17
19060.0	5.6058740613666125e+17
19061.0	5.604939209026217e+17
19062.0	5.60385528832546e+17
19063.0	5.602837971075071e+17
19064.0	5.6012870453821434e+17
19065.0	5.600074163814398e+17
19066.0	5.5994539625676794e+17
19067.0	5.5986010200910496e+17
19068.0	5.5975999306028365e+17
19069.0	5.596561000103935e+17
19070.0	5.5953971527461536e+17
19071.0	5.594450802420394e+17
19072.0	5.5934300849875616e+17
19073.0	5.5923527472469325e+17
19074.0	5.5913466546530976e+17
19075.0	5.59030277976883e+17
19076.0	5.5891643736610125e+17
19077.0	5.5881699936610976e+17
19078.0	5.586969088229374e+17
19079.0	5.586120714747903e+17
19080.0	5.585027996494505e+17
19081.0	5.583833933370708e+17
19082.0	5.582762612359167e+17
19083.0	5.581548912902142e+17
19084.0	5.579970453700607e+17
19085.0	5.5798105507539616e+17
19086.0	5.5772891155442323e+17
19087.0	5.5773812623059616e+17
19088.0	5.576453843670356e+17
19089.0	5.574752934559745e+17
19090.0	5.574519224445609e+17
19091.0	5.573524233475414e+17
19092.0	5.572232581480447e+17
19093.0	5.571513420524202e+17
19094.0	5.5704730220189005e+17
19095.0	5.5694467890763085e+17
19096.0	5.568324840019283e+17
19097.0	5.567368656846847e+17
19098.0	5.566311140687871e+17
19099.0	5.5652633322455034e+17
19100.0	5.564204394916522e+17
19101.0	5.563205306111317e+17
19102.0	5.5617282071592934e+17
19103.0	5.5611064484276896e+17
19104.0	5.560097599477077e+17
19105.0	5.5590320225648634e+17
19106.0	5.557936978569898e+17
19107.0	5.5568958789167776e+17
19108.0	5.555942121450153e+17
19109.0	5.553754657696424e+17
19110.0	5.5538617312870394e+17
19111.0	5.5528197396452685e+17
19112.0	5.5517911215418016e+17
19113.0	5.550740697251839e+17
19114.0	5.5496957779858765e+17
19115.0	5.548459620827135e+17
19116.0	5.5475514218905594e+17
19117.0	5.54653773411123e+17
19118.0	5.5452039657117005e+17
19119.0	5.526530544719159e+17
19120.0	5.5433152181917e+17
19121.0	5.5423886475045536e+17
19122.0	5.541430508388351e+17
19123.0	5.540372423202132e+17
19124.0	5.5392816573972474e+17
19125.0	5.538305375819094e+17
19126.0	5.5372590850157216e+17
19127.0	5.529064120341834e+17
19128.0	5.534514460404393e+17
19129.0	5.533817316048894e+17
19130.0	5.533093559533567e+17
19131.0	5.532083987065513e+17
19132.0	5.5310679008433485e+17
19133.0	5.528897120632833e+17
19134.0	5.528654681473024e+17
19135.0	5.5279606101442554e+17
19136.0	5.5269555046099616e+17
19137.0	5.5252361503484576e+17
19138.0	5.524794525788841e+17
19139.0	5.523854724868777e+17
19140.0	5.522822132662271e+17
19141.0	5.521789823571284e+17
19142.0	5.52064560276002e+17
19143.0	5.519454067403435e+17
19144.0	5.518559253889023e+17
19145.0	5.517651641455956e+17
19146.0	5.5141736385959264e+17
19147.0	5.5152130416530765e+17
19148.0	5.5145530112955725e+17
19149.0	5.513512725337428e+17
19150.0	5.512463513900372e+17
19151.0	5.511459721882281e+17
19152.0	5.5104155401147725e+17
19153.0	5.509326005338111e+17
19154.0	5.507866617533779e+17
19155.0	5.507367203853653e+17
19156.0	5.5063258085021e+17
19157.0	5.5052824690906445e+17
19158.0	5.5034682865090534e+17
19159.0	5.5031646133070496e+17
19160.0	5.5021426117181434e+17
19161.0	5.501121643326122e+17
19162.0	5.498352409335126e+17
19163.0	5.499126017949694e+17
19164.0	5.498114980271444e+17
19165.0	5.4970142851508896e+17
19166.0	5.495547073571497e+17
19167.0	5.494862254178303e+17
19168.0	5.493731546715476e+17
19169.0	5.492796114862079e+17
19170.0	5.491950485154473e+17
19171.0	5.4907999945577805e+17
19172.0	5.4898749128485536e+17
19173.0	5.488874177079977e+17
19174.0	5.487597030386347e+17
19175.0	5.486812069887998e+17
19176.0	5.48577819562257e+17
19177.0	5.4841477382362426e+17
19178.0	5.4837257632918176e+17
19179.0	5.4825535273260365e+17
19180.0	5.4815786815979514e+17
19181.0	5.480139065742676e+17
19182.0	5.479523374071807e+17
19183.0	5.478615777716905e+17
19184.0	5.477357025842515e+17
19185.0	5.4765088921354234e+17
19186.0	5.4755416548747936e+17
19187.0	5.4742223190753274e+17
19188.0	5.4734834120349e+17
19189.0	5.4724558802561696e+17
19190.0	5.471431586480126e+17
19191.0	5.470293722136575e+17
19192.0	5.469418815487999e+17
19193.0	5.46834199154961e+17
19194.0	5.4672780825722874e+17
19195.0	5.466328187360596e+17
19196.0	5.465241587897685e+17
19197.0	5.464263347579561e+17
19198.0	5.4632692758609914e+17
19199.0	5.451619497934844e+17
19200.0	5.454675825743193e+17
19201.0	5.4602109326895776e+17
19202.0	5.45919910158882e+17
19203.0	5.4581568051609594e+17
19204.0	5.457035865533097e+17
19205.0	5.4560838137501e+17
19206.0	5.4550345205241165e+17
19207.0	5.453733212542291e+17
19208.0	5.452072122056702e+17
19209.0	5.4519742549633696e+17
19210.0	5.4509788781172045e+17
19211.0	5.450015584900437e+17
19212.0	5.4489817693552634e+17
19213.0	5.447530106759849e+17
19214.0	5.446465805615106e+17
19215.0	5.4459080967017805e+17
19216.0	5.4448833121921696e+17
19217.0	5.4438697334647456e+17
19218.0	5.4395049400948e+17
19219.0	5.441241848217599e+17
19220.0	5.440740795263658e+17
19221.0	5.4384359790783136e+17
19222.0	5.438794623527594e+17
19223.0	5.437677567126185e+17
19224.0	5.436527733637119e+17
19225.0	5.435111501026644e+17
19226.0	5.434617616138239e+17
19227.0	5.4336065903438496e+17
19228.0	5.4326878392374605e+17
19229.0	5.431670357710164e+17
19230.0	5.4305897623934285e+17
19231.0	5.429564376700245e+17
19232.0	5.4285517843333114e+17
19233.0	5.427302215188479e+17
19234.0	5.4264654788034554e+17
19235.0	5.425416953135102e+17
19236.0	5.424551821311998e+17
19237.0	5.4234562271641594e+17
19238.0	5.422138964748971e+17
19239.0	5.4215108900945914e+17
19240.0	5.419965118502227e+17
19241.0	5.419258732696917e+17
19242.0	5.4183695080925856e+17
19243.0	5.416736662749183e+17
19244.0	5.4164144122757114e+17
19245.0	5.4153791091507194e+17
19246.0	5.414315123277823e+17
19247.0	5.4133182008306323e+17
19248.0	5.41235422044706e+17
19249.0	5.4113324865945594e+17
19250.0	5.410236667352404e+17
19251.0	5.40896580302711e+17
19252.0	5.4069607173980154e+17
19253.0	5.407168540966911e+17
19254.0	5.406176221069311e+17
19255.0	5.404391133675517e+17
19256.0	5.4041541582957216e+17
19257.0	5.4031967790475936e+17
19258.0	5.402185687542442e+17
19259.0	5.400845847887871e+17
19260.0	5.3998665701785574e+17
19261.0	5.399092570095615e+17
19262.0	5.39788497125376e+17
19263.0	5.396902857495892e+17
19264.0	5.3938787720014464e+17
19265.0	5.394225791937192e+17
19266.0	5.393217755982506e+17
19267.0	5.3930541697378976e+17
19268.0	5.392006006876841e+17
19269.0	5.390572711138644e+17
19270.0	5.3891242236313594e+17
19271.0	5.386722128254299e+17
19272.0	5.386944410288126e+17
19273.0	5.372038320138903e+17
19274.0	5.3778632541907514e+17
19275.0	5.384051777776298e+17
19276.0	5.3829507037702816e+17
19277.0	5.381941035532287e+17
19278.0	5.3809411225463456e+17
19279.0	5.3798058530788685e+17
19280.0	5.3785245638109856e+17
19281.0	5.377868929783125e+17
19282.0	5.376904959885311e+17
19283.0	5.3757327420948474e+17
19284.0	5.3745807548306765e+17
19285.0	5.373012048784041e+17
19286.0	5.3726919541828256e+17
19287.0	5.3718157277265914e+17
19288.0	5.367862104773973e+17
19289.0	5.3599625442317434e+17
19290.0	5.368753754385065e+17
19291.0	5.366679051698179e+17
19292.0	5.366708471944532e+17
19293.0	5.365657085061802e+17
19294.0	5.364621028360191e+17
19295.0	5.36364432175923e+17
19296.0	5.362589843674453e+17
19297.0	5.361476674693802e+17
19298.0	5.360438810247166e+17
19299.0	5.359532776969556e+17
19300.0	5.358504785914538e+17
19301.0	5.3574529963786234e+17
19302.0	5.35642228531746e+17
19303.0	5.35505186918673e+17
19304.0	5.3542015810054816e+17
19305.0	5.353288915834196e+17
19306.0	5.352292022747136e+17
19307.0	5.3510767937672506e+17
19308.0	5.350156263576915e+17
19309.0	5.348834573374804e+17
19310.0	5.347585015414783e+17
19311.0	5.347002846019582e+17
19312.0	5.346069839872e+17
19313.0	5.344997589822122e+17
19314.0	5.332226085836086e+17
19315.0	5.3324304980377875e+17
19316.0	5.3419938697707514e+17
19317.0	5.3409164124924576e+17
19318.0	5.3398685670004045e+17
19319.0	5.338895820521471e+17
19320.0	5.337828340094292e+17
19321.0	5.336814565632681e+17
19322.0	5.335369790084437e+17
19323.0	5.33451959767313e+17
19324.0	5.333663552110591e+17
19325.0	5.332300472516607e+17
19326.0	5.33157620359714e+17
19327.0	5.3304623949851296e+17
19328.0	5.329489472345427e+17
19329.0	5.328434488147967e+17
19330.0	5.327201285876393e+17
19331.0	5.32614281830946e+17
19332.0	5.325254848501077e+17
19333.0	5.324133971088724e+17
19334.0	5.323088858884778e+17
19335.0	5.322060061824341e+17
19336.0	5.320991542607872e+17
19337.0	5.319910011961343e+17
19338.0	5.317996334896468e+17
19339.0	5.317769845975722e+17
19340.0	5.316259848301225e+17
19341.0	5.3155824577194656e+17
19342.0	5.312899128666791e+17
19343.0	5.313462787200341e+17
19344.0	5.312310704865278e+17
19345.0	5.301940588817041e+17
19346.0	5.308081953046533e+17
19347.0	5.3088237478652576e+17
19348.0	5.3080009876002125e+17
19349.0	5.3067536337469434e+17
19350.0	5.3056801666498554e+17
19351.0	5.3045016259461114e+17
19352.0	5.303273787490303e+17
19353.0	5.302462286834345e+17
19354.0	5.3013413765666125e+17
19355.0	5.2998030107170144e+17
19356.0	5.2990775009826125e+17
19357.0	5.297927093572949e+17
19358.0	5.296688433113771e+17
19359.0	5.294861977299627e+17
19360.0	5.294328784792234e+17
19361.0	5.2931433507498656e+17
19362.0	5.2921850012194125e+17
19363.0	5.2910013882040314e+17
19364.0	5.2897964226860365e+17
19365.0	5.288391100159318e+17
19366.0	5.2865334303348045e+17
19367.0	5.285329070893738e+17
19368.0	5.284118536738133e+17
19369.0	5.282542949236735e+17
19370.0	5.279988782377642e+17
19371.0	5.2802045101124256e+17
19372.0	5.279187959720617e+17
19373.0	5.2778161489838074e+17
19374.0	5.276627710421674e+17
19375.0	5.275360381195605e+17
19376.0	5.274069528215551e+17
19377.0	5.272725432740522e+17
19378.0	5.2714198640448845e+17
19379.0	5.27008758112802e+17
19380.0	5.2687452297844045e+17
19381.0	5.267353052206419e+17
19382.0	5.265632207568896e+17
19383.0	5.264155390334291e+17
19384.0	5.2631770409642656e+17
19385.0	5.2617272602132474e+17
19386.0	5.260281770934271e+17
19387.0	5.2587831377264634e+17
19388.0	5.257266283063978e+17
19389.0	5.255751248729428e+17
19390.0	5.2541967313141754e+17
19391.0	5.240083593210518e+17
19392.0	5.250148224816466e+17
19393.0	5.248109462421502e+17
19394.0	5.2463981738065914e+17
19395.0	5.2446708783295136e+17
19396.0	5.242922963653972e+17
19397.0	5.2411606436413446e+17
19398.0	5.2392262369279994e+17
19399.0	5.234309623447547e+17
19400.0	5.235304397712041e+17
19401.0	5.23347803906594e+17
19402.0	5.230050425176061e+17
19403.0	5.227735153289898e+17
19404.0	5.225649497877162e+17
19405.0	5.2233262749887136e+17
19406.0	5.221051169155753e+17
19407.0	5.2178771988097715e+17
19408.0	5.210935160122034e+17
19409.0	5.211344538173439e+17
19410.0	5.2088666468297376e+17
19411.0	5.204288872994133e+17
19412.0	5.200796757699242e+17
19413.0	5.197518739253927e+17
19414.0	5.191664895961771e+17
19415.0	5.188195945807872e+17
19416.0	5.181034174524073e+17
19417.0	5.176356978906453e+17
19418.0	5.1702026137326944e+17
19419.0	5.161766680701612e+17
19420.0	5.153315885154299e+17
19421.0	5.143160953678511e+17
19422.0	5.1339744101007366e+17
19423.0	5.1279715508770125e+17
19424.0	5.1216947099293005e+17
19425.0	5.115111736519338e+17
19426.0	5.1079663803432954e+17
19427.0	5.1001969634618016e+17
19428.0	5.0925249138524154e+17
19429.0	5.0834741671581e+17
19430.0	5.0738710271317325e+17
19431.0	5.061888927509168e+17
19432.0	5.054207967100927e+17
19433.0	5.04202330706193e+17
19434.0	5.0300778873268915e+17
19435.0	5.0159933012486816e+17
19436.0	4.999103399679315e+17
19437.0	4.9817339360706554e+17
19438.0	4.9390524727732845e+17
19439.0	4.924705705645389e+17
19440.0	4.8773377011220544e+17
19441.0	4.843497623038633e+17
19442.0	4.8109654722478086e+17
19443.0	4.7749154803985043e+17
19444.0	4.7336458303133024e+17
19445.0	4.681442421025456e+17
19446.0	4.595331976484174e+17
19447.0	4.4975212063621075e+17
19448.0	4.3900007203471443e+17
19449.0	4.194627405305172e+17
19450.0	3.758881547922083e+17
19451.0	3.627933660872696e+17
19452.0	4.003379388175714e+17
19453.0	4.307698609466032e+17
19454.0	4.446168990526119e+17
19455.0	4.538326124068861e+17
19456.0	4.638305903007059e+17
19457.0	4.70045371557478e+17
19458.0	4.718327695234433e+17
19459.0	4.7806440314415814e+17
19460.0	4.812761286574079e+17
19461.0	4.841944656117759e+17
19462.0	4.883559848345602e+17
19463.0	4.922614729058985e+17
19464.0	4.9479665704413856e+17
19465.0	4.966987223181994e+17
19466.0	4.981487889110355e+17
19467.0	4.9946053749418656e+17
19468.0	5.0058143706644474e+17
19469.0	5.0133065279733754e+17
19470.0	5.0250817072005114e+17
19471.0	5.0331631474442234e+17
19472.0	5.040575345240745e+17
19473.0	5.047962359737002e+17
19474.0	5.0546092892924576e+17
19475.0	5.057084496980645e+17
19476.0	5.0655962364641274e+17
19477.0	5.0705890010289485e+17
19478.0	5.075157352360619e+17
19479.0	5.079306814357503e+17
19480.0	5.0845473784026445e+17
19481.0	5.092505406843556e+17
19482.0	5.1000034047208115e+17
19483.0	5.106195527019178e+17
19484.0	5.110706431066113e+17
19485.0	5.115846084351315e+17
19486.0	5.1188375724141235e+17
19487.0	5.1224041652660896e+17
19488.0	5.124554731028478e+17
19489.0	5.127623276844373e+17
19490.0	5.122617455411189e+17
19491.0	5.130704029483007e+17
19492.0	5.132698586710016e+17
19493.0	5.1333698640936954e+17
19494.0	5.1339528087360845e+17
19495.0	5.1358227231320723e+17
19496.0	5.135227013824508e+17
19497.0	5.137109402080598e+17
19498.0	5.137129691327148e+17
19499.0	5.116855143017105e+17
19500.0	5.137814463883946e+17
19501.0	5.139346074806954e+17
19502.0	5.1393899332457805e+17
19503.0	5.139370640146432e+17
19504.0	5.1392714266815136e+17
19505.0	5.1391755204253005e+17
19506.0	5.1390550523248634e+17
19507.0	5.13875080450321e+17
19508.0	5.1386278072374605e+17
19509.0	5.138339399204862e+17
19510.0	5.1372334416308896e+17
19511.0	5.114431902755474e+17
19512.0	5.136253490036723e+17
19513.0	5.131034783208776e+17
19514.0	5.133974823239675e+17
19515.0	5.135134531518475e+17
19516.0	5.136805917622272e+17
19517.0	5.13604120093218e+17
19518.0	5.135853216421204e+17
19519.0	5.1353116730545485e+17
19520.0	5.1346505291093325e+17
19521.0	5.1342321242166605e+17
19522.0	5.133488868382036e+17
19523.0	5.133074898965844e+17
19524.0	5.13246114156817e+17
19525.0	5.13171795424051e+17
19526.0	5.131212420371796e+17
19527.0	5.1305167978495994e+17
19528.0	5.129883668359849e+17
19529.0	5.1292054878508365e+17
19530.0	5.1285612252801696e+17
19531.0	5.1278986776412154e+17
19532.0	5.1271963260573005e+17
19533.0	5.1264975920605856e+17
19534.0	5.12579100422963e+17
19535.0	5.124971187666942e+17
19536.0	5.1241750759123616e+17
19537.0	5.123586957595988e+17
19538.0	5.122726245870252e+17
19539.0	5.1195441686337e+17
19540.0	5.121223916781568e+17
19541.0	5.1205784707181216e+17
19542.0	5.119778008072192e+17
19543.0	5.118998074447188e+17
19544.0	5.118234280503978e+17
19545.0	5.116108281479155e+17
19546.0	5.112585208026455e+17
19547.0	5.1158776653632845e+17
19548.0	5.115917608419327e+17
19549.0	5.1146868346497683e+17
19550.0	5.114305170462036e+17
19551.0	5.113499310445908e+17
19552.0	5.1126722377373005e+17
19553.0	5.1117820568316576e+17
19554.0	5.1108379728281594e+17
19555.0	5.110142533457236e+17
19556.0	5.109363039535104e+17
19557.0	5.1085241214129485e+17
19558.0	5.1076840163027616e+17
19559.0	5.1068028258877434e+17
19560.0	5.105904503138985e+17
19561.0	5.105051646645589e+17
19562.0	5.1042874863998285e+17
19563.0	5.103465308443989e+17
19564.0	5.102610876290388e+17
19565.0	5.101749608120319e+17
19566.0	5.1007760689179296e+17
19567.0	5.1000465228649805e+17
19568.0	5.0990775792216723e+17
19569.0	5.098227044974591e+17
19570.0	5.0974545121989965e+17
19571.0	5.0965907742829216e+17
19572.0	5.095570226020352e+17
19573.0	5.0948017701082445e+17
19574.0	5.093572140684627e+17
19575.0	5.093092847080789e+17
19576.0	5.0922223528400205e+17
19577.0	5.091097616667987e+17
19578.0	5.090305592961706e+17
19579.0	5.0894882377564154e+17
19580.0	5.088636006913364e+17
19581.0	5.0877751232211616e+17
19582.0	5.086976208273407e+17
19583.0	5.0860906522869754e+17
19584.0	5.0852044909226656e+17
19585.0	5.083846235477332e+17
19586.0	5.082854874677248e+17
19587.0	5.082459015566677e+17
19588.0	5.0796787218950835e+17
19589.0	5.080680551677951e+17
19590.0	5.07947383923234e+17
19591.0	5.078965788781225e+17
19592.0	5.078092241087145e+17
19593.0	5.0771284927883936e+17
19594.0	5.0752561114426e+17
19595.0	5.075330628146515e+17
19596.0	5.073040544453973e+17
19597.0	5.0735742885123405e+17
19598.0	5.071234940622163e+17
19599.0	5.071816158609407e+17
19600.0	5.070953682479785e+17
19601.0	5.069784845298347e+17
19602.0	5.068998099424596e+17
19603.0	5.0664228268277715e+17
19604.0	5.067200225695062e+17
19605.0	5.0651951889995117e+17
19606.0	5.0655299531789645e+17
19607.0	5.064649226933588e+17
19608.0	5.0637090128745805e+17
19609.0	5.062628677604692e+17
19610.0	5.061976436069715e+17
19611.0	5.0610272441029965e+17
19612.0	5.060185399055699e+17
19613.0	5.059229607351637e+17
19614.0	5.058214850723838e+17
19615.0	5.057474005215913e+17
19616.0	5.056470896869375e+17
19617.0	5.055653289306794e+17
19618.0	5.0526322230121786e+17
19619.0	5.0508292210469466e+17
19620.0	5.050194213208058e+17
19621.0	5.0520209514386765e+17
19622.0	5.051156599057067e+17
19623.0	5.0502637337968634e+17
19624.0	5.049318448125268e+17
19625.0	5.048452154479958e+17
19626.0	5.047502807323988e+17
19627.0	5.0466458837538125e+17
19628.0	5.045448619677013e+17
19629.0	5.044466645729278e+17
19630.0	5.0438383648549536e+17
19631.0	5.031300433969143e+17
19632.0	5.0420999537732256e+17
19633.0	5.0410289284601165e+17
19634.0	5.0403117395258016e+17
19635.0	5.0392534746835616e+17
19636.0	5.0384608267250336e+17
19637.0	5.0360902284738586e+17
19638.0	5.0366369923508896e+17
19639.0	5.0357551217595725e+17
19640.0	5.034641645196628e+17
19641.0	5.03036271622009e+17
19642.0	5.0330311694745594e+17
19643.0	5.032071286226943e+17
19644.0	5.031009523335166e+17
19645.0	5.0292200214364134e+17
19646.0	5.029453488280915e+17
19647.0	5.028553772324181e+17
19648.0	5.027629364499796e+17
19649.0	5.0267083128176634e+17
19650.0	5.0258345896618656e+17
19651.0	5.0249024734057805e+17
19652.0	5.0239884115312634e+17
19653.0	5.0231109344733856e+17
19654.0	5.022174485501268e+17
19655.0	5.021239462592511e+17
19656.0	5.020369329760938e+17
