# Flux units: erg / (cm m2 s)
# Wavelength units: Angstrom
wave	flux
19000.0	5.165829428259498e+17
19001.0	5.164751377487189e+17
19002.0	5.1639216372012365e+17
19003.0	5.16296266621474e+17
19004.0	5.162008332730367e+17
19005.0	5.1610453324158285e+17
19006.0	5.160103228123817e+17
19007.0	5.159137990847146e+17
19008.0	5.158109157436074e+17
19009.0	5.157082001746602e+17
19010.0	5.155671237809492e+17
19011.0	5.155277447888894e+17
19012.0	5.1541886282410656e+17
19013.0	5.1534095474578765e+17
19014.0	5.15239325012241e+17
19015.0	5.151449761710079e+17
19016.0	5.150471401155242e+17
19017.0	5.149594930730324e+17
19018.0	5.1486293879685114e+17
19019.0	5.1476806070435834e+17
19020.0	5.146711780840789e+17
19021.0	5.1457805733505696e+17
19022.0	5.144821356298239e+17
19023.0	5.143831080424789e+17
19024.0	5.14289566814481e+17
19025.0	5.1419638937245005e+17
19026.0	5.140976174978389e+17
19027.0	5.139975038653781e+17
19028.0	5.1391097020088314e+17
19029.0	5.138134710179156e+17
19030.0	5.137218665097898e+17
19031.0	5.1362667845823136e+17
19032.0	5.13530513063936e+17
19033.0	5.1342482429269325e+17
19034.0	5.133394353236651e+17
19035.0	5.132406874963968e+17
19036.0	5.123854531122517e+17
19037.0	5.1305375757325645e+17
19038.0	5.1295743747904845e+17
19039.0	5.128652026369366e+17
19040.0	5.127700893837993e+17
19041.0	5.126737127363925e+17
19042.0	5.125631880724479e+17
19043.0	5.124847907984725e+17
19044.0	5.1238829852808525e+17
19045.0	5.122946432849236e+17
19046.0	5.1219177839875405e+17
19047.0	5.1210094116863994e+17
19048.0	5.119805366119081e+17
19049.0	5.1189553561599994e+17
19050.0	5.1181308524625914e+17
19051.0	5.116206375763966e+17
19052.0	5.116067716967083e+17
19053.0	5.115345297735679e+17
19054.0	5.114393076782419e+17
19055.0	5.1131152883602765e+17
19056.0	5.112454886806868e+17
19057.0	5.111538399925588e+17
19058.0	5.110530161945258e+17
19059.0	5.1096210465532576e+17
19060.0	5.108670638238378e+17
19061.0	5.107753459296938e+17
19062.0	5.106798214949545e+17
19063.0	5.1058522987342496e+17
19064.0	5.1047435176946336e+17
19065.0	5.103751625616042e+17
19066.0	5.1029258258786976e+17
19067.0	5.1020452177728845e+17
19068.0	5.101114551347881e+17
19069.0	5.10016876445696e+17
19070.0	5.0991847982148256e+17
19071.0	5.098268711889578e+17
19072.0	5.097306683255466e+17
19073.0	5.096375019285162e+17
19074.0	5.095435064573951e+17
19075.0	5.094488466085204e+17
19076.0	5.09351670456866e+17
19077.0	5.092571513967958e+17
19078.0	5.09160339939874e+17
19079.0	5.0907001273712634e+17
19080.0	5.089736536358911e+17
19081.0	5.0887607902535674e+17
19082.0	5.0878123896122003e+17
19083.0	5.0868054546623136e+17
19084.0	5.0857166720641696e+17
19085.0	5.085012342166868e+17
19086.0	5.0836347076389536e+17
19087.0	5.0829016369725434e+17
19088.0	5.0820699008969376e+17
19089.0	5.080956512414378e+17
19090.0	5.0802756405602976e+17
19091.0	5.079321251151872e+17
19092.0	5.0782899207318176e+17
19093.0	5.0774752848336205e+17
19094.0	5.07653062201617e+17
19095.0	5.0755868127395834e+17
19096.0	5.0746238837282125e+17
19097.0	5.073696883823956e+17
19098.0	5.0727331537005216e+17
19099.0	5.071780368613375e+17
19100.0	5.0708424614215674e+17
19101.0	5.069921181848917e+17
19102.0	5.068831041694377e+17
19103.0	5.0680408963372365e+17
19104.0	5.0671029576881485e+17
19105.0	5.066109511619925e+17
19106.0	5.065185034589524e+17
19107.0	5.064238761159338e+17
19108.0	5.063315820642302e+17
19109.0	5.0619178430409376e+17
19110.0	5.06143402168593e+17
19111.0	5.060496225643178e+17
19112.0	5.059553246139732e+17
19113.0	5.058624619544575e+17
19114.0	5.057676237777579e+17
19115.0	5.056677588675242e+17
19116.0	5.055781724487679e+17
19117.0	5.054840203203924e+17
19118.0	5.05379344683281e+17
19119.0	5.042268887755421e+17
19120.0	5.051977153817257e+17
19121.0	5.051062899004755e+17
19122.0	5.050169028509694e+17
19123.0	5.049229463169706e+17
19124.0	5.048261963066026e+17
19125.0	5.0473460438138874e+17
19126.0	5.046405682255188e+17
19127.0	5.043121379344383e+17
19128.0	5.044452660521641e+17
19129.0	5.0435071497557325e+17
19130.0	5.042630849899178e+17
19131.0	5.041714163788457e+17
19132.0	5.040776153836202e+17
19133.0	5.0397294233299616e+17
19134.0	5.03886856130833e+17
19135.0	5.037960869882538e+17
19136.0	5.037032004911103e+17
19137.0	5.0358853583940256e+17
19138.0	5.035134310241621e+17
19139.0	5.0342190963316045e+17
19140.0	5.0332843376639994e+17
19141.0	5.032346911419049e+17
19142.0	5.031380064228693e+17
19143.0	5.0304013709257376e+17
19144.0	5.0294882262056954e+17
19145.0	5.028601342022996e+17
19146.0	5.02692607688704e+17
19147.0	5.026578095057578e+17
19148.0	5.025772866284202e+17
19149.0	5.02482739466513e+17
19150.0	5.0239128560380576e+17
19151.0	5.022981247292757e+17
19152.0	5.0220395498482336e+17
19153.0	5.021058610495487e+17
19154.0	5.0200134535522976e+17
19155.0	5.019248567691946e+17
19156.0	5.018310545156777e+17
19157.0	5.0173569198107296e+17
19158.0	5.016091301860692e+17
19159.0	5.015485798154238e+17
19160.0	5.0145589485458765e+17
19161.0	5.013632594564436e+17
19162.0	5.011960101164373e+17
19163.0	5.0117480539313485e+17
19164.0	5.0108398095564794e+17
19165.0	5.009839414225579e+17
19166.0	5.0087881063355725e+17
19167.0	5.0079717703461536e+17
19168.0	5.0070943862620154e+17
19169.0	5.006149369025877e+17
19170.0	5.0052416587257165e+17
19171.0	5.0042616428189005e+17
19172.0	5.0033741266943994e+17
19173.0	5.0024429744291834e+17
19174.0	5.001436739928062e+17
19175.0	5.0005766517555194e+17
19176.0	4.9996440811165005e+17
19177.0	4.99852651860241e+17
19178.0	4.9977649770004474e+17
19179.0	4.996785802750634e+17
19180.0	4.995906257900885e+17
19181.0	4.994813834646869e+17
19182.0	4.994022102444714e+17
19183.0	4.9931270435635194e+17
19184.0	4.992181460096341e+17
19185.0	4.991251154381483e+17
19186.0	4.990330950647808e+17
19187.0	4.989326855940777e+17
19188.0	4.9884664790603085e+17
19189.0	4.987540276772864e+17
19190.0	4.9866059480214176e+17
19191.0	4.9856399620614816e+17
19192.0	4.9847487416674976e+17
19193.0	4.9838051428051616e+17
19194.0	4.9828666484107936e+17
19195.0	4.9819570485766816e+17
19196.0	4.981006282347861e+17
19197.0	4.980085232762879e+17
19198.0	4.9791565201844896e+17
19199.0	4.9738950636120736e+17
19200.0	4.9742809577553926e+17
19201.0	4.976370049701204e+17
19202.0	4.9754489973200205e+17
19203.0	4.9745084505128954e+17
19204.0	4.973558422481577e+17
19205.0	4.9726478404812794e+17
19206.0	4.9717120667921056e+17
19207.0	4.9706465108514125e+17
19208.0	4.9695792233622176e+17
19209.0	4.968932396673706e+17
19210.0	4.9680020937550496e+17
19211.0	4.9670884897587194e+17
19212.0	4.966160394442068e+17
19213.0	4.9651070131677856e+17
19214.0	4.964123020361727e+17
19215.0	4.963356057621845e+17
19216.0	4.962442971622058e+17
19217.0	4.961507845253802e+17
19218.0	4.9595316576802106e+17
19219.0	4.959486741577728e+17
19220.0	4.9586983494396576e+17
19221.0	4.957390094292309e+17
19222.0	4.9568533373255674e+17
19223.0	4.955916108911956e+17
19224.0	4.954957228102996e+17
19225.0	4.953891797292371e+17
19226.0	4.953130876447402e+17
19227.0	4.9522012809680205e+17
19228.0	4.9512997474795514e+17
19229.0	4.95037043511569e+17
19230.0	4.9494371367649274e+17
19231.0	4.948498578756948e+17
19232.0	4.9475722471451296e+17
19233.0	4.9465720971810125e+17
19234.0	4.94569679696691e+17
19235.0	4.9447638425490765e+17
19236.0	4.9438682810504525e+17
19237.0	4.9429190744036685e+17
19238.0	4.941890866642942e+17
19239.0	4.941082175471615e+17
19240.0	4.940129888108543e+17
19241.0	4.9391918900401485e+17
19242.0	4.9382715213305165e+17
19243.0	4.937182203958613e+17
19244.0	4.936437494797653e+17
19245.0	4.9355021111787514e+17
19246.0	4.9345558747982496e+17
19247.0	4.9336375249469434e+17
19248.0	4.9327195043485005e+17
19249.0	4.9317847694486176e+17
19250.0	4.9308267470738765e+17
19251.0	4.929753865781247e+17
19252.0	4.928692114074283e+17
19253.0	4.9280352643973114e+17
19254.0	4.9271340007423994e+17
19255.0	4.926005344993279e+17
19256.0	4.9252169626419194e+17
19257.0	4.924345273024511e+17
19258.0	4.9234131225149434e+17
19259.0	4.9224042141450234e+17
19260.0	4.9213715464410445e+17
19261.0	4.9205996302281376e+17
19262.0	4.9196163189964794e+17
19263.0	4.9186593354110285e+17
19264.0	4.9170910697663123e+17
19265.0	4.916608298385407e+17
19266.0	4.9155750232064e+17
19267.0	4.9150215344619514e+17
19268.0	4.914079278475947e+17
19269.0	4.9131484659493536e+17
19270.0	4.9122144993061536e+17
19271.0	4.910832688649558e+17
19272.0	4.910303833751551e+17
19273.0	4.908428991048361e+17
19274.0	4.9077005984290106e+17
19275.0	4.9075411708368205e+17
19276.0	4.9065796853650765e+17
19277.0	4.905650005999615e+17
19278.0	4.90471452381457e+17
19279.0	4.903760825767253e+17
19280.0	4.9027335987746125e+17
19281.0	4.901891732056746e+17
19282.0	4.9009759449251834e+17
19283.0	4.89996725256192e+17
19284.0	4.899053547902293e+17
19285.0	4.8979363419040416e+17
19286.0	4.897167505009321e+17
19287.0	4.8962682888738125e+17
19288.0	4.892990331944956e+17
19289.0	4.889586041181518e+17
19290.0	4.893440129105919e+17
19291.0	4.892193412786858e+17
19292.0	4.891550284076373e+17
19293.0	4.8905960463619405e+17
19294.0	4.8896462021809485e+17
19295.0	4.8887106626737485e+17
19296.0	4.8877324139670176e+17
19297.0	4.886780643901439e+17
19298.0	4.885826016815785e+17
19299.0	4.884885432958975e+17
19300.0	4.883946648458581e+17
19301.0	4.8829985337289376e+17
19302.0	4.882027001501012e+17
19303.0	4.881005900988415e+17
19304.0	4.8800948296526496e+17
19305.0	4.8791573866304845e+17
19306.0	4.878211125084159e+17
19307.0	4.877199642809685e+17
19308.0	4.8762623556758176e+17
19309.0	4.8751583302778874e+17
19310.0	4.874134012734122e+17
19311.0	4.8733507753956685e+17
19312.0	4.8724299019714554e+17
19313.0	4.871475122492757e+17
19314.0	4.857427423221088e+17
19315.0	4.857255871993182e+17
19316.0	4.8685163912451405e+17
19317.0	4.867579053080575e+17
19318.0	4.8665999585225376e+17
19319.0	4.865642512864598e+17
19320.0	4.8646520146930336e+17
19321.0	4.863662948876287e+17
19322.0	4.862598144415062e+17
19323.0	4.8616416173096954e+17
19324.0	4.860716906097322e+17
19325.0	4.8595816729804794e+17
19326.0	4.858744234748585e+17
19327.0	4.857729614435668e+17
19328.0	4.856708060938238e+17
19329.0	4.8557555142273696e+17
19330.0	4.8547048816203085e+17
19331.0	4.8536915804159994e+17
19332.0	4.85273314140706e+17
19333.0	4.851714061150889e+17
19334.0	4.8507103942628685e+17
19335.0	4.8496107204553376e+17
19336.0	4.8486708852817914e+17
19337.0	4.84764544995601e+17
19338.0	4.846361866403839e+17
19339.0	4.845588299732309e+17
19340.0	4.8443325740482554e+17
19341.0	4.843398335474345e+17
19342.0	4.841977526179155e+17
19343.0	4.841418854673065e+17
19344.0	4.840337035318613e+17
19345.0	4.836754194431996e+17
19346.0	4.836959897780222e+17
19347.0	4.837056192009557e+17
19348.0	4.8361183113816736e+17
19349.0	4.8349961099673594e+17
19350.0	4.8339041683592525e+17
19351.0	4.832817488505514e+17
19352.0	4.831630081043114e+17
19353.0	4.8306640405572256e+17
19354.0	4.829559139248809e+17
19355.0	4.828322516522325e+17
19356.0	4.827315422887936e+17
19357.0	4.8261864448764576e+17
19358.0	4.8250382954004474e+17
19359.0	4.823815347503103e+17
19360.0	4.822653099573246e+17
19361.0	4.821528688459776e+17
19362.0	4.8204016531101005e+17
19363.0	4.8192144546638496e+17
19364.0	4.818016096572756e+17
19365.0	4.8168117378307405e+17
19366.0	4.815593118455125e+17
19367.0	4.814363647716011e+17
19368.0	4.8131227656738125e+17
19369.0	4.8118001597153274e+17
19370.0	4.810493551531349e+17
19371.0	4.809251376245419e+17
19372.0	4.808014829715455e+17
19373.0	4.806677317200553e+17
19374.0	4.8053645133305165e+17
19375.0	4.804020512227327e+17
19376.0	4.8026599911587834e+17
19377.0	4.80126263501346e+17
19378.0	4.799863418694314e+17
19379.0	4.798443384646314e+17
19380.0	4.796997493413205e+17
19381.0	4.7955247586344954e+17
19382.0	4.793954935504896e+17
19383.0	4.7923800246845434e+17
19384.0	4.790963293650943e+17
19385.0	4.789402666532863e+17
19386.0	4.787809007872682e+17
19387.0	4.7861790642885965e+17
19388.0	4.7845185554131616e+17
19389.0	4.782826450146644e+17
19390.0	4.78109711414067e+17
19391.0	4.7725498628833184e+17
19392.0	4.777311838666751e+17
19393.0	4.775687357464575e+17
19394.0	4.7737883548712954e+17
19395.0	4.771842321547264e+17
19396.0	4.7698780555837434e+17
19397.0	4.767867355878741e+17
19398.0	4.765749035925503e+17
19399.0	4.7626753332128416e+17
19400.0	4.761208443196757e+17
19401.0	4.7590804749462176e+17
19402.0	4.7568011132927994e+17
19403.0	4.754422012488361e+17
19404.0	4.75202300411904e+17
19405.0	4.7495169655002445e+17
19406.0	4.7469734584647674e+17
19407.0	4.744337653672617e+17
19408.0	4.7406097632679264e+17
19409.0	4.7388431357050874e+17
19410.0	4.7360139056906234e+17
19411.0	4.7330773434367994e+17
19412.0	4.73006755282944e+17
19413.0	4.726981569194666e+17
19414.0	4.7237858164299085e+17
19415.0	4.7205685042435405e+17
19416.0	4.717055181848575e+17
19417.0	4.713766168734378e+17
19418.0	4.7103505778169165e+17
19419.0	4.7067713971595936e+17
19420.0	4.703151382855679e+17
19421.0	4.699464445635242e+17
19422.0	4.695645221464745e+17
19423.0	4.6918340985924256e+17
19424.0	4.687913191910058e+17
19425.0	4.683907595239423e+17
19426.0	4.6794489004905805e+17
19427.0	4.675068063208789e+17
19428.0	4.670814009950207e+17
19429.0	4.6665166463085216e+17
19430.0	4.661770664804352e+17
19431.0	4.655736376262656e+17
19432.0	4.652166935478271e+17
19433.0	4.645980027398826e+17
19434.0	4.6395681662129466e+17
19435.0	4.6315215666544646e+17
19436.0	4.6203451487901005e+17
19437.0	4.6052874702028794e+17
19438.0	4.566329519155882e+17
19439.0	4.543529379779923e+17
19440.0	4.5257000198253216e+17
19441.0	4.506020541890558e+17
19442.0	4.483793878515713e+17
19443.0	4.459639759787349e+17
19444.0	4.4337081935899296e+17
19445.0	4.399200775875247e+17
19446.0	4.316878259705165e+17
19447.0	4.230967552114684e+17
19448.0	4.152499790763356e+17
19449.0	3.9847325989164243e+17
19450.0	3.5144757310477754e+17
19451.0	3.3015750057437677e+17
19452.0	3.800751475960506e+17
19453.0	4.092220104420013e+17
19454.0	4.1899198429265875e+17
19455.0	4.263276892389374e+17
19456.0	4.3613678448148397e+17
19457.0	4.409803192751442e+17
19458.0	4.398530418442282e+17
19459.0	4.456970248170169e+17
19460.0	4.481257015257768e+17
19461.0	4.5004208734207994e+17
19462.0	4.51736856620783e+17
19463.0	4.540677464173228e+17
19464.0	4.572819168602787e+17
19465.0	4.591199292402347e+17
19466.0	4.601876403541332e+17
19467.0	4.609327523779927e+17
19468.0	4.614961000437076e+17
19469.0	4.618719802862249e+17
19470.0	4.622951012543146e+17
19471.0	4.625998268770985e+17
19472.0	4.6293109650227194e+17
19473.0	4.631879390418261e+17
19474.0	4.634493179308714e+17
19475.0	4.635920521232383e+17
19476.0	4.6397512287081805e+17
19477.0	4.642307849235114e+17
19478.0	4.644572020517546e+17
19479.0	4.6466996846810445e+17
19480.0	4.648776679555071e+17
19481.0	4.6507449678561274e+17
19482.0	4.6526904321529165e+17
19483.0	4.654585472527017e+17
19484.0	4.6563675973440845e+17
19485.0	4.6580057953184416e+17
19486.0	4.6596048205905914e+17
19487.0	4.6612177723501216e+17
19488.0	4.6626801702666234e+17
19489.0	4.663826277815636e+17
19490.0	4.663464884699134e+17
19491.0	4.666485577001642e+17
19492.0	4.667667840849236e+17
19493.0	4.668722277690026e+17
19494.0	4.6696911744969376e+17
19495.0	4.6705883843570336e+17
19496.0	4.6708346291486694e+17
19497.0	4.6721339665066656e+17
19498.0	4.671700389418324e+17
19499.0	4.6627866468679654e+17
19500.0	4.6740297590592845e+17
19501.0	4.674529123805866e+17
19502.0	4.674969154529962e+17
19503.0	4.6753696399578445e+17
19504.0	4.675705564561408e+17
19505.0	4.67606237679889e+17
19506.0	4.6763582339153914e+17
19507.0	4.676514496206164e+17
19508.0	4.6766878733544096e+17
19509.0	4.676783584575487e+17
19510.0	4.6765686866138445e+17
19511.0	4.6551948147206765e+17
19512.0	4.674943657355945e+17
19513.0	4.673386129828518e+17
19514.0	4.674316884333905e+17
19515.0	4.675951829625514e+17
19516.0	4.676395189927936e+17
19517.0	4.676162510913534e+17
19518.0	4.6760388747154765e+17
19519.0	4.6757957721565856e+17
19520.0	4.675488460395861e+17
19521.0	4.6752768647495674e+17
19522.0	4.6749259385186976e+17
19523.0	4.6746359401458336e+17
19524.0	4.6742779786690554e+17
19525.0	4.673918526117203e+17
19526.0	4.6735481830550176e+17
19527.0	4.6731358997490336e+17
19528.0	4.672707558550187e+17
19529.0	4.672266433112747e+17
19530.0	4.6718364379600205e+17
19531.0	4.6713691491532794e+17
19532.0	4.670887550779391e+17
19533.0	4.67039249707827e+17
19534.0	4.6698800412098554e+17
19535.0	4.669346222353066e+17
19536.0	4.6687802031254176e+17
19537.0	4.6682874835544723e+17
19538.0	4.6675190744787635e+17
19539.0	4.6664631619420166e+17
19540.0	4.66655907029538e+17
19541.0	4.665996376451753e+17
19542.0	4.6654029579332256e+17
19543.0	4.664777117444778e+17
19544.0	4.664195004672681e+17
19545.0	4.662888025991849e+17
19546.0	4.6618036243442336e+17
19547.0	4.6623254642687994e+17
19548.0	4.6616793841664e+17
19549.0	4.660924575121406e+17
19550.0	4.66038332395793e+17
19551.0	4.659727515866453e+17
19552.0	4.659060787904511e+17
19553.0	4.658355742878379e+17
19554.0	4.6576629969496736e+17
19555.0	4.657009891388074e+17
19556.0	4.656343786280277e+17
19557.0	4.6556489704625485e+17
19558.0	4.654951841486164e+17
19559.0	4.6542519484634445e+17
19560.0	4.6535084507572896e+17
19561.0	4.6528079908044794e+17
19562.0	4.6521184416344736e+17
19563.0	4.6514136168093e+17
19564.0	4.6506932290191354e+17
19565.0	4.6499692432151885e+17
19566.0	4.6492034940272634e+17
19567.0	4.648509140282026e+17
19568.0	4.6477485158345376e+17
19569.0	4.6470126958018554e+17
19570.0	4.6463007140959565e+17
19571.0	4.64554838388463e+17
19572.0	4.644773978352299e+17
19573.0	4.6440299269980154e+17
19574.0	4.643211228217344e+17
19575.0	4.642560414842879e+17
19576.0	4.641802382475263e+17
19577.0	4.6410333924884474e+17
19578.0	4.6402761088040954e+17
19579.0	4.639538435588095e+17
19580.0	4.6387729268735994e+17
19581.0	4.6380212649547085e+17
19582.0	4.637275556850346e+17
19583.0	4.636506315904341e+17
19584.0	4.6357223333778765e+17
19585.0	4.6348308130911565e+17
19586.0	4.6340164770856954e+17
19587.0	4.633383203591508e+17
19588.0	4.632012340767403e+17
19589.0	4.631827592161962e+17
19590.0	4.630917790302206e+17
19591.0	4.6302824028788045e+17
19592.0	4.6295054849583776e+17
19593.0	4.628698332397568e+17
19594.0	4.627652595242323e+17
19595.0	4.6270887207021216e+17
19596.0	4.6261830369498445e+17
19597.0	4.625550863761408e+17
19598.0	4.6241229954525856e+17
19599.0	4.62398771097327e+17
19600.0	4.6232060821503994e+17
19601.0	4.622327894157994e+17
19602.0	4.6215421919668896e+17
19603.0	4.6202343912024736e+17
19604.0	4.6199566122352634e+17
19605.0	4.618867418595328e+17
19606.0	4.6184258548531194e+17
19607.0	4.617638139396096e+17
19608.0	4.616815241418068e+17
19609.0	4.61597426389265e+17
19610.0	4.615220982972415e+17
19611.0	4.6144007155220474e+17
19612.0	4.613637152964608e+17
19613.0	4.612823008499028e+17
19614.0	4.6119855765585914e+17
19615.0	4.611226989144747e+17
19616.0	4.610350285236906e+17
19617.0	4.609580596898474e+17
19618.0	4.608017107167914e+17
19619.0	4.6070519642630803e+17
19620.0	4.6062982394456723e+17
19621.0	4.6063690330057376e+17
19622.0	4.605592984704341e+17
19623.0	4.6047859404963834e+17
19624.0	4.603967087225513e+17
19625.0	4.603170103754752e+17
19626.0	4.60235620885026e+17
19627.0	4.6015516840209056e+17
19628.0	4.600631520133119e+17
19629.0	4.599745045594111e+17
19630.0	4.598728904146944e+17
19631.0	4.593401683684011e+17
19632.0	4.597494939211092e+17
19633.0	4.596641275314176e+17
19634.0	4.595880281068885e+17
19635.0	4.59502115758626e+17
19636.0	4.5942155135767885e+17
19637.0	4.5930150834995194e+17
19638.0	4.592614581294421e+17
19639.0	4.5918035070593696e+17
19640.0	4.590783565572779e+17
19641.0	4.588633319975596e+17
19642.0	4.5893706870074016e+17
19643.0	4.5885532157597005e+17
19644.0	4.5876738177105914e+17
19645.0	4.5865746591034016e+17
19646.0	4.5860934843542176e+17
19647.0	4.585315294161578e+17
19648.0	4.584504147225258e+17
19649.0	4.583680318111744e+17
19650.0	4.5828739519829325e+17
19651.0	4.5820547030493856e+17
19652.0	4.581236617336149e+17
19653.0	4.5804298205921274e+17
19654.0	4.579608352172713e+17
19655.0	4.578788027400191e+17
