# Flux units: erg / (cm m2 s)
# Wavelength units: Angstrom
wave	flux
19000.0	5.1776813625507834e+17
19001.0	5.1766049098082976e+17
19002.0	5.1757735491229005e+17
19003.0	5.174811271626751e+17
19004.0	5.17385547363123e+17
19005.0	5.172890461448874e+17
19006.0	5.1719464354665805e+17
19007.0	5.1709730933964794e+17
19008.0	5.1699475028814496e+17
19009.0	5.168941791270228e+17
19010.0	5.167475912081406e+17
19011.0	5.1671095857643514e+17
19012.0	5.1659442508267514e+17
19013.0	5.1652375993821856e+17
19014.0	5.1642190650845856e+17
19015.0	5.1632726099012256e+17
19016.0	5.162292257051988e+17
19017.0	5.161414579366571e+17
19018.0	5.1604415336939514e+17
19019.0	5.159491414086998e+17
19020.0	5.1585237902513485e+17
19021.0	5.1575904632395085e+17
19022.0	5.156629819424768e+17
19023.0	5.1556366355005434e+17
19024.0	5.154695840530432e+17
19025.0	5.1537544262014285e+17
19026.0	5.15276760293922e+17
19027.0	5.151711858873683e+17
19028.0	5.1509044686356474e+17
19029.0	5.149926981894143e+17
19030.0	5.149008527884287e+17
19031.0	5.148054995511978e+17
19032.0	5.14709103190562e+17
19033.0	5.146028061753343e+17
19034.0	5.1451701063843834e+17
19035.0	5.1441851838409376e+17
19036.0	5.1311536434926906e+17
19037.0	5.142310425722879e+17
19038.0	5.1413458672244045e+17
19039.0	5.1404172476197536e+17
19040.0	5.13946932023569e+17
19041.0	5.1385046645691725e+17
19042.0	5.137361484644351e+17
19043.0	5.136610144288766e+17
19044.0	5.135641814411946e+17
19045.0	5.134698327397717e+17
19046.0	5.1336728291573754e+17
19047.0	5.132771018145791e+17
19048.0	5.13154169910067e+17
19049.0	5.130637568638975e+17
19050.0	5.12987557335313e+17
19051.0	5.1273270289585466e+17
19052.0	5.1277330410810016e+17
19053.0	5.1270853154133325e+17
19054.0	5.1261324499353594e+17
19055.0	5.124840000323584e+17
19056.0	5.1241841083460256e+17
19057.0	5.123269918545236e+17
19058.0	5.1222244351453856e+17
19059.0	5.1213355740474016e+17
19060.0	5.120394806340266e+17
19061.0	5.119476306193066e+17
19062.0	5.1185186641018874e+17
19063.0	5.117570811516245e+17
19064.0	5.1164592384682656e+17
19065.0	5.115464288043007e+17
19066.0	5.1146232392144205e+17
19067.0	5.113755950820009e+17
19068.0	5.1128221260840954e+17
19069.0	5.111874409813332e+17
19070.0	5.1108872279381325e+17
19071.0	5.10996441534737e+17
19072.0	5.108990671323135e+17
19073.0	5.108071391734441e+17
19074.0	5.1071293168025594e+17
19075.0	5.106180547761493e+17
19076.0	5.105205604166315e+17
19077.0	5.104260871443796e+17
19078.0	5.103278694072319e+17
19079.0	5.102381803678378e+17
19080.0	5.101418880958464e+17
19081.0	5.1004378828854605e+17
19082.0	5.099487559854762e+17
19083.0	5.098480968138751e+17
19084.0	5.0973880639378765e+17
19085.0	5.0966822779180365e+17
19086.0	5.095273506275327e+17
19087.0	5.0944358792997536e+17
19088.0	5.093717052489727e+17
19089.0	5.09255715127296e+17
19090.0	5.091933483433983e+17
19091.0	5.090976278948522e+17
19092.0	5.0898918731066016e+17
19093.0	5.0891278827301536e+17
19094.0	5.0881812031515296e+17
19095.0	5.0872351939624954e+17
19096.0	5.08626908357154e+17
19097.0	5.0853416991894176e+17
19098.0	5.084360545927168e+17
19099.0	5.083403098871125e+17
19100.0	5.082473813071189e+17
19101.0	5.081553363271679e+17
19102.0	5.08045983551761e+17
19103.0	5.079671856518485e+17
19104.0	5.078731743821823e+17
19105.0	5.0777006252141216e+17
19106.0	5.0767904591489696e+17
19107.0	5.075852698058751e+17
19108.0	5.0749238205044045e+17
19109.0	5.073245796914515e+17
19110.0	5.073047555932159e+17
19111.0	5.072097265756841e+17
19112.0	5.071153398459049e+17
19113.0	5.0702336707788794e+17
19114.0	5.06927768543778e+17
19115.0	5.06827089449233e+17
19116.0	5.0673845660549114e+17
19117.0	5.066437587981653e+17
19118.0	5.065382863831039e+17
19119.0	5.053808173034139e+17
19120.0	5.063536916387156e+17
19121.0	5.0626311389620896e+17
19122.0	5.06175874470161e+17
19123.0	5.0608169913330336e+17
19124.0	5.059828954518869e+17
19125.0	5.0589277118354765e+17
19126.0	5.057986489046356e+17
19127.0	5.054690664382462e+17
19128.0	5.055983664147114e+17
19129.0	5.055078370465108e+17
19130.0	5.0542058000438605e+17
19131.0	5.0532847399731194e+17
19132.0	5.052344239303338e+17
19133.0	5.051286865051647e+17
19134.0	5.050403899047935e+17
19135.0	5.04952129794867e+17
19136.0	5.048591452209151e+17
19137.0	5.0474393635826336e+17
19138.0	5.0466896492189005e+17
19139.0	5.045772173879978e+17
19140.0	5.044835046828715e+17
19141.0	5.0438958729570976e+17
19142.0	5.042925901709311e+17
19143.0	5.0419432035450874e+17
19144.0	5.0410319448637434e+17
19145.0	5.0401416758777165e+17
19146.0	5.038449606262784e+17
19147.0	5.0381243428809376e+17
19148.0	5.0372931115199155e+17
19149.0	5.036344299137706e+17
19150.0	5.0354417646086816e+17
19151.0	5.034508136306005e+17
19152.0	5.033561174310911e+17
19153.0	5.0325574256339616e+17
19154.0	5.03153014411537e+17
19155.0	5.03076679127313e+17
19156.0	5.029826294098603e+17
19157.0	5.028859448306346e+17
19158.0	5.0273996291877536e+17
19159.0	5.026993425525417e+17
19160.0	5.026061833557332e+17
19161.0	5.025133511049215e+17
19162.0	5.023016216603307e+17
19163.0	5.023245622662485e+17
19164.0	5.0223381647196154e+17
19165.0	5.021301102783146e+17
19166.0	5.020269362719402e+17
19167.0	5.0194214303389e+17
19168.0	5.018583893540862e+17
19169.0	5.017628447167828e+17
19170.0	5.0167270702667085e+17
19171.0	5.015715997635924e+17
19172.0	5.0148529419933005e+17
19173.0	5.013920165134335e+17
19174.0	5.0129086884522656e+17
19175.0	5.012051814514687e+17
19176.0	5.011116748264788e+17
19177.0	5.009996438481578e+17
19178.0	5.009224847327232e+17
19179.0	5.0082106289684474e+17
19180.0	5.007367311720447e+17
19181.0	5.0062687633844896e+17
19182.0	5.005487879050581e+17
19183.0	5.004584596537343e+17
19184.0	5.00363729899793e+17
19185.0	5.0027042509073056e+17
19186.0	5.001782204476074e+17
19187.0	5.0007753198578336e+17
19188.0	4.9999137769608525e+17
19189.0	4.9989831433912314e+17
19190.0	4.9980447084161696e+17
19191.0	4.997074137382911e+17
19192.0	4.996187475498324e+17
19193.0	4.99523713569041e+17
19194.0	4.9942942834141856e+17
19195.0	4.9933886367115936e+17
19196.0	4.9924344143762765e+17
19197.0	4.9915102232575994e+17
19198.0	4.990573751216811e+17
19199.0	4.982724016209918e+17
19200.0	4.9840019011010566e+17
19201.0	4.987781728174079e+17
19202.0	4.9868634768889165e+17
19203.0	4.985913819354453e+17
19204.0	4.984965805987156e+17
19205.0	4.984058572439551e+17
19206.0	4.983121934024703e+17
19207.0	4.9820607310725114e+17
19208.0	4.9809706580268365e+17
19209.0	4.980333992738815e+17
19210.0	4.979401320737451e+17
19211.0	4.9784860404176205e+17
19212.0	4.977551065743359e+17
19213.0	4.976475237952171e+17
19214.0	4.975487789738667e+17
19215.0	4.9747350554760525e+17
19216.0	4.9738296737136634e+17
19217.0	4.9728922789259936e+17
19218.0	4.970908691202046e+17
19219.0	4.9708647908201805e+17
19220.0	4.9700745685674656e+17
19221.0	4.9687572117804365e+17
19222.0	4.9682341722849274e+17
19223.0	4.967287551426559e+17
19224.0	4.966327091462143e+17
19225.0	4.9652583869972474e+17
19226.0	4.964495299095209e+17
19227.0	4.963563737186303e+17
19228.0	4.9626610971006285e+17
19229.0	4.9617293534385485e+17
19230.0	4.960787984547839e+17
19231.0	4.959852680620714e+17
19232.0	4.958925675823104e+17
19233.0	4.957921757975892e+17
19234.0	4.9570441306221216e+17
19235.0	4.956103275533653e+17
19236.0	4.9552118782798496e+17
19237.0	4.954260565393407e+17
19238.0	4.953224369580715e+17
19239.0	4.952420166314666e+17
19240.0	4.95146451931409e+17
19241.0	4.950524867990868e+17
19242.0	4.949604753036627e+17
19243.0	4.948502112458068e+17
19244.0	4.947763850641408e+17
19245.0	4.946826095143593e+17
19246.0	4.945877623199061e+17
19247.0	4.944957594927103e+17
19248.0	4.944037198255445e+17
19249.0	4.9430960922077856e+17
19250.0	4.942134527044266e+17
19251.0	4.9410689151795194e+17
19252.0	4.939990569407828e+17
19253.0	4.9393413226059085e+17
19254.0	4.938438506359466e+17
19255.0	4.9372990852300794e+17
19256.0	4.936524415456596e+17
19257.0	4.935643100610559e+17
19258.0	4.934708773956265e+17
19259.0	4.9336945045667834e+17
19260.0	4.932576114376703e+17
19261.0	4.9318891985305594e+17
19262.0	4.9309025514291194e+17
19263.0	4.9299521158512634e+17
19264.0	4.9283657965240294e+17
19265.0	4.927892311332181e+17
19266.0	4.926843956931243e+17
19267.0	4.926297614581759e+17
19268.0	4.9253530796905805e+17
19269.0	4.9244202608885754e+17
19270.0	4.9234857811421856e+17
19271.0	4.922090955560278e+17
19272.0	4.9215689226977274e+17
19273.0	4.919688847600297e+17
19274.0	4.9189607548736826e+17
19275.0	4.918799840400724e+17
19276.0	4.917836264068436e+17
19277.0	4.916904501531989e+17
19278.0	4.9159676240418125e+17
19279.0	4.915010962019669e+17
19280.0	4.913979304443903e+17
19281.0	4.913138127689044e+17
19282.0	4.9122191654693536e+17
19283.0	4.911169995276288e+17
19284.0	4.910280604996949e+17
19285.0	4.909170625784489e+17
19286.0	4.908401827337556e+17
19287.0	4.907500509855742e+17
19288.0	4.90306486630263e+17
19289.0	4.8978117822600416e+17
19290.0	4.904664925470719e+17
19291.0	4.903414409112234e+17
19292.0	4.9027726092970656e+17
19293.0	4.901815248923306e+17
19294.0	4.900862969948842e+17
19295.0	4.8999255954336416e+17
19296.0	4.8989303695824205e+17
19297.0	4.8979858046320634e+17
19298.0	4.897033190113279e+17
19299.0	4.8960740967929165e+17
19300.0	4.8951500112308896e+17
19301.0	4.8941994204637856e+17
19302.0	4.8932288494305274e+17
19303.0	4.8921995099067725e+17
19304.0	4.891289252965035e+17
19305.0	4.890349698809856e+17
19306.0	4.8893993485161805e+17
19307.0	4.888382873621845e+17
19308.0	4.8874458591177376e+17
19309.0	4.886244462952447e+17
19310.0	4.885190054772736e+17
19311.0	4.884518708183039e+17
19312.0	4.8836052978237434e+17
19313.0	4.882647845874347e+17
19314.0	4.861058185429005e+17
19315.0	4.8615188765955616e+17
19316.0	4.879656102658047e+17
19317.0	4.878742343472468e+17
19318.0	4.8777613747595936e+17
19319.0	4.876802942741162e+17
19320.0	4.8758015820212896e+17
19321.0	4.874804793092778e+17
19322.0	4.8737467512477005e+17
19323.0	4.8727498931131725e+17
19324.0	4.871861539525972e+17
19325.0	4.870632135895722e+17
19326.0	4.8698865724948474e+17
19327.0	4.868869601973589e+17
19328.0	4.867819509033642e+17
19329.0	4.8668916947353594e+17
19330.0	4.865836981769556e+17
19331.0	4.8648226180082336e+17
19332.0	4.8638636078749e+17
19333.0	4.862835513360383e+17
19334.0	4.861833285118634e+17
19335.0	4.860676527532713e+17
19336.0	4.8597847451019936e+17
19337.0	4.858762007412736e+17
19338.0	4.8574746846385485e+17
19339.0	4.856697305344682e+17
19340.0	4.855432540935509e+17
19341.0	4.854495324405759e+17
19342.0	4.8530569934056083e+17
19343.0	4.852520735561044e+17
19344.0	4.851413737100628e+17
19345.0	4.847747728758096e+17
19346.0	4.848127857131518e+17
19347.0	4.848120822584661e+17
19348.0	4.847200950201002e+17
19349.0	4.8460806502045e+17
19350.0	4.844975558754303e+17
19351.0	4.843896268565162e+17
19352.0	4.8426782440816634e+17
19353.0	4.841738898942634e+17
19354.0	4.840630644987221e+17
19355.0	4.839390245989035e+17
19356.0	4.838380929373524e+17
19357.0	4.8372491202068474e+17
19358.0	4.836095531417598e+17
19359.0	4.834864035528702e+17
19360.0	4.833686941859839e+17
19361.0	4.832577986057557e+17
19362.0	4.831449349881855e+17
19363.0	4.830259132934825e+17
19364.0	4.829057485810345e+17
19365.0	4.82785001349666e+17
19366.0	4.826628091805696e+17
19367.0	4.825395407530666e+17
19368.0	4.8241512560285005e+17
19369.0	4.8228256448512e+17
19370.0	4.821510786471251e+17
19371.0	4.820268321778345e+17
19372.0	4.819030045097983e+17
19373.0	4.817688192177493e+17
19374.0	4.816371993018366e+17
19375.0	4.815024166709929e+17
19376.0	4.8136599308861434e+17
19377.0	4.8122585244412576e+17
19378.0	4.810855543035221e+17
19379.0	4.8094313111879674e+17
19380.0	4.8079817702113274e+17
19381.0	4.8065041882152954e+17
19382.0	4.804928122563242e+17
19383.0	4.8033504288221856e+17
19384.0	4.8019314412530336e+17
19385.0	4.800364554835283e+17
19386.0	4.798765939206826e+17
19387.0	4.797131044945919e+17
19388.0	4.795465313462955e+17
19389.0	4.793768040813909e+17
19390.0	4.7920321281392634e+17
19391.0	4.779390471416474e+17
19392.0	4.7882374630167866e+17
19393.0	4.786606389067775e+17
19394.0	4.7847015298280096e+17
19395.0	4.782732502630398e+17
19396.0	4.780768823170389e+17
19397.0	4.7787623694991366e+17
19398.0	4.77662534504721e+17
19399.0	4.7734868634064205e+17
19400.0	4.772095920351913e+17
19401.0	4.7699476985064096e+17
19402.0	4.76765933867281e+17
19403.0	4.765271682886314e+17
19404.0	4.7628646899602765e+17
19405.0	4.7603485172039674e+17
19406.0	4.7577961545946445e+17
19407.0	4.7551413258376525e+17
19408.0	4.751403425027414e+17
19409.0	4.749640650631849e+17
19410.0	4.746795314490025e+17
19411.0	4.7438472053172896e+17
19412.0	4.740825122603007e+17
19413.0	4.737717487970987e+17
19414.0	4.734518329431381e+17
19415.0	4.7312883874966176e+17
19416.0	4.727743001744724e+17
19417.0	4.7244099043983354e+17
19418.0	4.7210278343584416e+17
19419.0	4.717429264132777e+17
19420.0	4.713798857042602e+17
19421.0	4.710096914699605e+17
19422.0	4.706262282054313e+17
19423.0	4.702436165943295e+17
19424.0	4.6984993691402234e+17
19425.0	4.694478424113151e+17
19426.0	4.690020952702974e+17
19427.0	4.685608231720277e+17
19428.0	4.681340324675583e+17
19429.0	4.677026326424235e+17
19430.0	4.672246115205121e+17
19431.0	4.6655196504610157e+17
19432.0	4.662687083178667e+17
19433.0	4.656447996559359e+17
19434.0	4.650086111204692e+17
19435.0	4.6420503734954656e+17
19436.0	4.630670736708946e+17
19437.0	4.616043864173222e+17
19438.0	4.57040212472628e+17
19439.0	4.554142697652222e+17
19440.0	4.536067703177215e+17
19441.0	4.516365499105278e+17
19442.0	4.49406925921758e+17
19443.0	4.469848112016045e+17
19444.0	4.4438146459019923e+17
19445.0	4.409555790331906e+17
19446.0	4.327886139250011e+17
19447.0	4.240755852487335e+17
19448.0	4.162148234166277e+17
19449.0	3.99530272384612e+17
19450.0	3.5251390638981306e+17
19451.0	3.3086863922517274e+17
19452.0	3.8125238659754854e+17
19453.0	4.1020886152642643e+17
19454.0	4.199526629201232e+17
19455.0	4.273249250705412e+17
19456.0	4.371856707201706e+17
19457.0	4.4198910188584954e+17
19458.0	4.386713865202424e+17
19459.0	4.467003974047081e+17
19460.0	4.491554015499604e+17
19461.0	4.5107604570330445e+17
19462.0	4.5277462557709664e+17
19463.0	4.551702683669852e+17
19464.0	4.583774873802063e+17
19465.0	4.6018612977554765e+17
19466.0	4.612350936787622e+17
19467.0	4.619882628907005e+17
19468.0	4.6254244970714445e+17
19469.0	4.6291870568939514e+17
19470.0	4.633371040109909e+17
19471.0	4.636445457951402e+17
19472.0	4.639737855169876e+17
19473.0	4.6423171759691085e+17
19474.0	4.6449241435231565e+17
19475.0	4.646372934418431e+17
19476.0	4.650241641589419e+17
19477.0	4.6527883859285325e+17
19478.0	4.655065102374228e+17
19479.0	4.657185711019349e+17
19480.0	4.659290291131732e+17
19481.0	4.661271601348607e+17
19482.0	4.663227738750975e+17
19483.0	4.665135280947198e+17
19484.0	4.6669230519965e+17
19485.0	4.668574943674366e+17
19486.0	4.670165468490411e+17
19487.0	4.67180526379554e+17
19488.0	4.673277844084053e+17
19489.0	4.6744862104835405e+17
19490.0	4.6740163995019923e+17
19491.0	4.6771067368243194e+17
19492.0	4.6782962617111885e+17
19493.0	4.679357248656724e+17
19494.0	4.6803322971095034e+17
19495.0	4.6812351259388576e+17
19496.0	4.6814816328744934e+17
19497.0	4.682790552119979e+17
19498.0	4.682100648531285e+17
19499.0	4.666868131779918e+17
19500.0	4.684693301624832e+17
19501.0	4.685201490487978e+17
19502.0	4.685643126931455e+17
19503.0	4.68605066018816e+17
19504.0	4.686388880474111e+17
19505.0	4.686712859699881e+17
19506.0	4.687046532661247e+17
19507.0	4.687203170342229e+17
19508.0	4.6873794212877645e+17
19509.0	4.687476538299732e+17
19510.0	4.687257694197076e+17
19511.0	4.6531741647284755e+17
19512.0	4.684726953923921e+17
19513.0	4.6823299665100717e+17
19514.0	4.683753254638928e+17
19515.0	4.6865857764829875e+17
19516.0	4.687097032081407e+17
19517.0	4.686860492210174e+17
19518.0	4.6867355809437005e+17
19519.0	4.686490247015082e+17
19520.0	4.6861712415348045e+17
19521.0	4.685980588048383e+17
19522.0	4.685626344123051e+17
19523.0	4.685334207354197e+17
19524.0	4.684965716077226e+17
19525.0	4.684621948125183e+17
19526.0	4.684251591781034e+17
19527.0	4.683838485692415e+17
19528.0	4.68340895261218e+17
19529.0	4.682966171822762e+17
19530.0	4.6825380913698125e+17
19531.0	4.682070238429183e+17
19532.0	4.6815880297840634e+17
19533.0	4.6810922672455674e+17
19534.0	4.6805782657761274e+17
19535.0	4.680039728327338e+17
19536.0	4.679477471390378e+17
19537.0	4.678984116382378e+17
19538.0	4.678221979888298e+17
19539.0	4.6771272253003104e+17
19540.0	4.677251366911998e+17
19541.0	4.676684842270719e+17
19542.0	4.676092275894953e+17
19543.0	4.6754444621469005e+17
19544.0	4.674881434856106e+17
19545.0	4.673603559052627e+17
19546.0	4.672456264515584e+17
19547.0	4.6730114072139085e+17
19548.0	4.672366625248596e+17
19549.0	4.671604811715924e+17
19550.0	4.6710656122661536e+17
19551.0	4.6704083634312525e+17
19552.0	4.6697402639319034e+17
19553.0	4.669035647423829e+17
19554.0	4.668337791434751e+17
19555.0	4.667682811718314e+17
19556.0	4.6670163431041696e+17
19557.0	4.666321469964287e+17
19558.0	4.665623035860308e+17
19559.0	4.6649219810153805e+17
19560.0	4.664169034241363e+17
19561.0	4.6634744428189005e+17
19562.0	4.6627671384610125e+17
19563.0	4.662077285903019e+17
19564.0	4.661355514691584e+17
19565.0	4.660630010549589e+17
19566.0	4.6598618209757856e+17
19567.0	4.659167409209344e+17
19568.0	4.6584046722307405e+17
19569.0	4.657666864797013e+17
19570.0	4.6569536779277645e+17
19571.0	4.6562007898740045e+17
19572.0	4.655448045125632e+17
19573.0	4.6547219761506976e+17
19574.0	4.653897464064681e+17
19575.0	4.6532500382897485e+17
19576.0	4.652485826314238e+17
19577.0	4.651688019361792e+17
19578.0	4.6509162038121805e+17
19579.0	4.650176250292906e+17
19580.0	4.649410527668906e+17
19581.0	4.6486551964330656e+17
19582.0	4.6479087906761376e+17
19583.0	4.6471378531341645e+17
19584.0	4.6463520439883085e+17
19585.0	4.645455570228564e+17
19586.0	4.6446408574347936e+17
19587.0	4.6439911492594336e+17
19588.0	4.642632479976107e+17
19589.0	4.642449006439081e+17
19590.0	4.6415340050404685e+17
19591.0	4.6408998311690234e+17
19592.0	4.640121373239978e+17
19593.0	4.639310390580564e+17
19594.0	4.638252860440574e+17
19595.0	4.6377086236317005e+17
19596.0	4.636691331547136e+17
19597.0	4.636157984549546e+17
19598.0	4.634724349072724e+17
19599.0	4.634591428782762e+17
19600.0	4.633808190046207e+17
19601.0	4.6329276840017914e+17
19602.0	4.632150104080383e+17
19603.0	4.630774124904446e+17
19604.0	4.630553452784297e+17
19605.0	4.629449734968661e+17
19606.0	4.6290161096458234e+17
19607.0	4.6282276853514234e+17
19608.0	4.6274035430632096e+17
19609.0	4.6265586305815885e+17
19610.0	4.625795796434943e+17
19611.0	4.624968985870336e+17
19612.0	4.624217930727423e+17
19613.0	4.6234013934114125e+17
19614.0	4.622562074034175e+17
19615.0	4.621801687263913e+17
19616.0	4.620877094890155e+17
19617.0	4.6201380081937056e+17
19618.0	4.6185887371537056e+17
19619.0	4.617609048402601e+17
19620.0	4.616845334850217e+17
19621.0	4.616912387091113e+17
19622.0	4.616155112494421e+17
19623.0	4.6153433371115514e+17
19624.0	4.61451742482705e+17
19625.0	4.613726323168597e+17
19626.0	4.6129108085637114e+17
19627.0	4.6121043410725536e+17
19628.0	4.6111102805387936e+17
19629.0	4.6102434612073805e+17
19630.0	4.6092009424814086e+17
19631.0	4.6009414456442874e+17
19632.0	4.608035403421012e+17
19633.0	4.60717410029841e+17
19634.0	4.606420365694292e+17
19635.0	4.6055560895092045e+17
19636.0	4.6047301618455885e+17
19637.0	4.6035258527361696e+17
19638.0	4.603145693604521e+17
19639.0	4.602335920302761e+17
19640.0	4.601357786939392e+17
19641.0	4.599105323357527e+17
19642.0	4.59989446627601e+17
19643.0	4.5990748978763085e+17
19644.0	4.5981978080925e+17
19645.0	4.5970901385434445e+17
19646.0	4.596587314195114e+17
19647.0	4.5958307351538336e+17
19648.0	4.5950132275554976e+17
19649.0	4.594192713340245e+17
19650.0	4.5933843709951994e+17
19651.0	4.592563068250793e+17
19652.0	4.591743504045397e+17
19653.0	4.5909306045890554e+17
19654.0	4.590111224933034e+17
19655.0	4.5892893258984096e+17
19656.0	4.588478125834239e+17
