# Flux units: erg / (cm m2 s)
# Wavelength units: Angstrom
wave	flux
19000.0	5.719640404306602e+17
19001.0	5.7184949356898976e+17
19002.0	5.717514842188457e+17
19003.0	5.7164499943860896e+17
19004.0	5.7153862860363085e+17
19005.0	5.7143183078850554e+17
19006.0	5.7132624722438816e+17
19007.0	5.7121772869604685e+17
19008.0	5.711086157649236e+17
19009.0	5.709969493415252e+17
19010.0	5.7086317620974925e+17
19011.0	5.70791073747217e+17
19012.0	5.706732693094399e+17
19013.0	5.7058142125206176e+17
19014.0	5.704707750232063e+17
19015.0	5.703659345499477e+17
19016.0	5.7025831646877005e+17
19017.0	5.701565861418324e+17
19018.0	5.700494730548563e+17
19019.0	5.6994369564398925e+17
19020.0	5.6983613474515616e+17
19021.0	5.6973232523182074e+17
19022.0	5.696294174938452e+17
19023.0	5.6952003766517754e+17
19024.0	5.6941561487469216e+17
19025.0	5.6931034553384954e+17
19026.0	5.692018458798762e+17
19027.0	5.6908929431852365e+17
19028.0	5.6899254360910496e+17
19029.0	5.6888618137245005e+17
19030.0	5.687813745934335e+17
19031.0	5.6867538802660685e+17
19032.0	5.685689311384917e+17
19033.0	5.684557482644821e+17
19034.0	5.6835621449454925e+17
19035.0	5.682472060015955e+17
19036.0	5.674019425965396e+17
19037.0	5.680381577658367e+17
19038.0	5.679313946935294e+17
19039.0	5.678274407563262e+17
19040.0	5.677215167545343e+17
19041.0	5.6761467378073594e+17
19042.0	5.675014034554879e+17
19043.0	5.674038326897322e+17
19044.0	5.672969710512811e+17
19045.0	5.67192093528337e+17
19046.0	5.6708184205339296e+17
19047.0	5.669779099265706e+17
19048.0	5.668569919171243e+17
19049.0	5.667615001280511e+17
19050.0	5.666594967519231e+17
19051.0	5.664559247392766e+17
19052.0	5.6642707142301005e+17
19053.0	5.6634502643275085e+17
19054.0	5.6623970766902605e+17
19055.0	5.661129746765141e+17
19056.0	5.6602615328276474e+17
19057.0	5.65922207174929e+17
19058.0	5.6581551897094816e+17
19059.0	5.6571108702289914e+17
19060.0	5.6560407557789005e+17
19061.0	5.6550037707380045e+17
19062.0	5.6539434436962963e+17
19063.0	5.652889034817535e+17
19064.0	5.65173021643025e+17
19065.0	5.65063819862562e+17
19066.0	5.6496766551326714e+17
19067.0	5.648665741186388e+17
19068.0	5.647614067692884e+17
19069.0	5.6465591561966925e+17
19070.0	5.64548512776192e+17
19071.0	5.6444509361274874e+17
19072.0	5.643393164115966e+17
19073.0	5.6423378478694394e+17
19074.0	5.641288319762432e+17
19075.0	5.6402344442593274e+17
19076.0	5.639164206077268e+17
19077.0	5.638112125736276e+17
19078.0	5.637045042369876e+17
19079.0	5.6360178104838816e+17
19080.0	5.6349520790814726e+17
19081.0	5.6338821072377165e+17
19082.0	5.632825850768042e+17
19083.0	5.63172458242594e+17
19084.0	5.630573921959935e+17
19085.0	5.629704092516351e+17
19086.0	5.6283557461142176e+17
19087.0	5.627387118441813e+17
19088.0	5.626476419700051e+17
19089.0	5.6252586839244794e+17
19090.0	5.624423248472745e+17
19091.0	5.623369084960767e+17
19092.0	5.622258695405567e+17
19093.0	5.621293040795647e+17
19094.0	5.61983508394803e+17
19095.0	5.6184727341629434e+17
19096.0	5.61741238055731e+17
19097.0	5.6163731410780154e+17
19098.0	5.615323073303892e+17
19099.0	5.614272693054121e+17
19100.0	5.613209767641087e+17
19101.0	5.612172451250175e+17
19102.0	5.611041568325631e+17
19103.0	5.610081248870399e+17
19104.0	5.609032672870399e+17
19105.0	5.607975848771583e+17
19106.0	5.6068996826398714e+17
19107.0	5.605872886961491e+17
19108.0	5.604836108839594e+17
19109.0	5.603260304632489e+17
19110.0	5.6027192694756685e+17
19111.0	5.6016943290777594e+17
19112.0	5.600646921191424e+17
19113.0	5.5996001732089165e+17
19114.0	5.598553395866283e+17
19115.0	5.5974592746181965e+17
19116.0	5.596444092967594e+17
19117.0	5.595396174774271e+17
19118.0	5.594263657469268e+17
19119.0	5.5884519096101485e+17
19120.0	5.592212106641407e+17
19121.0	5.591186670616575e+17
19122.0	5.590186788388862e+17
19123.0	5.589140877869055e+17
19124.0	5.5880658358108154e+17
19125.0	5.5870443459269965e+17
19126.0	5.586001108576937e+17
19127.0	5.583455716900864e+17
19128.0	5.583754926664362e+17
19129.0	5.5828118863435085e+17
19130.0	5.5818081334722554e+17
19131.0	5.58078091137297e+17
19132.0	5.579736335340883e+17
19133.0	5.5785579470301856e+17
19134.0	5.5775738857171616e+17
19135.0	5.576603506223785e+17
19136.0	5.5755672069515936e+17
19137.0	5.574389269528575e+17
19138.0	5.5734604926375245e+17
19139.0	5.572437416607743e+17
19140.0	5.571396535058431e+17
19141.0	5.5703535332884474e+17
19142.0	5.5692918389036365e+17
19143.0	5.5682261068021754e+17
19144.0	5.567195525065386e+17
19145.0	5.566185765251754e+17
19146.0	5.564672632335018e+17
19147.0	5.563999954053802e+17
19148.0	5.563056145476266e+17
19149.0	5.5620099846963194e+17
19150.0	5.5609729150702925e+17
19151.0	5.559939140070059e+17
19152.0	5.558886740262911e+17
19153.0	5.55783777559074e+17
19154.0	5.556709865029631e+17
19155.0	5.555778317101738e+17
19156.0	5.5547360500340045e+17
19157.0	5.5536879403008e+17
19158.0	5.552283112701951e+17
19159.0	5.551603299909631e+17
19160.0	5.5505639667575456e+17
19161.0	5.549524501484884e+17
19162.0	5.547672484184064e+17
19163.0	5.54742593949969e+17
19164.0	5.546424023034537e+17
19165.0	5.545361373047466e+17
19166.0	5.5442247047796045e+17
19167.0	5.5432303352654496e+17
19168.0	5.542248269742078e+17
19169.0	5.541202473167529e+17
19170.0	5.540193586468179e+17
19171.0	5.539104013942784e+17
19172.0	5.538118480429055e+17
19173.0	5.5370804202482336e+17
19174.0	5.535996134643028e+17
19175.0	5.5350059091012256e+17
19176.0	5.533971717466794e+17
19177.0	5.5328089263745696e+17
19178.0	5.5318739803613856e+17
19179.0	5.530788114901674e+17
19180.0	5.5298042381380256e+17
19181.0	5.5286882841395194e+17
19182.0	5.5277240513986554e+17
19183.0	5.526713758908415e+17
19184.0	5.525660770500607e+17
19185.0	5.524637858048683e+17
19186.0	5.5236057202251085e+17
19187.0	5.5225168789067085e+17
19188.0	5.5215324526892365e+17
19189.0	5.520495325042004e+17
19190.0	5.5194552809553894e+17
19191.0	5.518399220219904e+17
19192.0	5.5173947808808954e+17
19193.0	5.516354809495551e+17
19194.0	5.5153146451722234e+17
19195.0	5.514290303860735e+17
19196.0	5.5132463905286816e+17
19197.0	5.5122118060277754e+17
19198.0	5.511177718551892e+17
19199.0	5.5053160738542906e+17
19200.0	5.505682995762518e+17
19201.0	5.508077070931284e+17
19202.0	5.507049546842111e+17
19203.0	5.5060040983947936e+17
19204.0	5.5049625988846925e+17
19205.0	5.5039393033530003e+17
19206.0	5.502901315174399e+17
19207.0	5.501778744661332e+17
19208.0	5.5006739209475405e+17
19209.0	5.499806209627477e+17
19210.0	5.498775992096084e+17
19211.0	5.49774986121489e+17
19212.0	5.4967167943529805e+17
19213.0	5.495585922613247e+17
19214.0	5.494510630993919e+17
19215.0	5.4935972485966496e+17
19216.0	5.4925817034397e+17
19217.0	5.491551087449428e+17
19218.0	5.4898227629697683e+17
19219.0	5.489365713158143e+17
19220.0	5.4884313214921376e+17
19221.0	5.4871575994477216e+17
19222.0	5.4863713876486816e+17
19223.0	5.485335601479679e+17
19224.0	5.484279828753066e+17
19225.0	5.4831598810781e+17
19226.0	5.4822378234620576e+17
19227.0	5.481203493415594e+17
19228.0	5.4801901873179296e+17
19229.0	5.479157410562047e+17
19230.0	5.4781216439664634e+17
19231.0	5.47708220945203e+17
19232.0	5.4760486958967456e+17
19233.0	5.4749699565595296e+17
19234.0	5.473974998444713e+17
19235.0	5.47294414967057e+17
19236.0	5.471928257085439e+17
19237.0	5.4708820837225805e+17
19238.0	5.469782511277398e+17
19239.0	5.4688299009529165e+17
19240.0	5.467760529593683e+17
19241.0	5.4667344993757856e+17
19242.0	5.465713909170175e+17
19243.0	5.464571415713108e+17
19244.0	5.4636662758222496e+17
19245.0	5.4626294005323085e+17
19246.0	5.4615850908385274e+17
19247.0	5.460566106352298e+17
19248.0	5.459533874855935e+17
19249.0	5.458497182717268e+17
19250.0	5.4574505605638816e+17
19251.0	5.456318083803817e+17
19252.0	5.455190399036073e+17
19253.0	5.454344231758506e+17
19254.0	5.4533247243823776e+17
19255.0	5.452161285270185e+17
19256.0	5.451218290387625e+17
19257.0	5.450227515391999e+17
19258.0	5.449192291259732e+17
19259.0	5.448105185684138e+17
19260.0	5.446969501679615e+17
19261.0	5.446075441042772e+17
19262.0	5.4450043695923194e+17
19263.0	5.44395207184657e+17
19264.0	5.442520680322387e+17
19265.0	5.4417679838085114e+17
19266.0	5.440715186940586e+17
19267.0	5.439870842787157e+17
19268.0	5.4388338675329696e+17
19269.0	5.437796602871807e+17
19270.0	5.436755122935124e+17
19271.0	5.435434440065024e+17
19272.0	5.434653048220329e+17
19273.0	5.432397490640211e+17
19274.0	5.431763980866899e+17
19275.0	5.4315658936756896e+17
19276.0	5.430509976944638e+17
19277.0	5.4294744039860896e+17
19278.0	5.428434962481151e+17
19279.0	5.427387216254292e+17
19280.0	5.426292622447957e+17
19281.0	5.4253066548237645e+17
19282.0	5.4242806756365645e+17
19283.0	5.423159290014377e+17
19284.0	5.4221279281370445e+17
19285.0	5.4209965404979194e+17
19286.0	5.420077472721578e+17
19287.0	5.4190614682883405e+17
19288.0	5.4156774877429715e+17
19289.0	5.4123967388057536e+17
19290.0	5.4159254794622285e+17
19291.0	5.414671935515306e+17
19292.0	5.413829760516094e+17
19293.0	5.412776623210494e+17
19294.0	5.411725662748671e+17
19295.0	5.410684955262975e+17
19296.0	5.409629944501589e+17
19297.0	5.408571714611881e+17
19298.0	5.407509134529876e+17
19299.0	5.4064740481105914e+17
19300.0	5.405418766117545e+17
19301.0	5.4043642439925754e+17
19302.0	5.4032958589938336e+17
19303.0	5.4021965493917005e+17
19304.0	5.401166264751446e+17
19305.0	5.400123280457728e+17
19306.0	5.399071192427177e+17
19307.0	5.3979745049640954e+17
19308.0	5.3969278150027936e+17
19309.0	5.3957008538555725e+17
19310.0	5.39457905369634e+17
19311.0	5.393714087548244e+17
19312.0	5.392688005600596e+17
19313.0	5.391625112343892e+17
19314.0	5.382004061241352e+17
19315.0	5.3813685619698394e+17
19316.0	5.388397714953557e+17
19317.0	5.3873394815685965e+17
19318.0	5.3862613818627405e+17
19319.0	5.38519810412817e+17
19320.0	5.384117531880106e+17
19321.0	5.383038259866281e+17
19322.0	5.3818798720942074e+17
19323.0	5.380802324638377e+17
19324.0	5.3797904578860365e+17
19325.0	5.3785327427037856e+17
19326.0	5.377613844796757e+17
19327.0	5.3765112321802234e+17
19328.0	5.375422763455828e+17
19329.0	5.374336133933738e+17
19330.0	5.3732071419412474e+17
19331.0	5.3721009348061856e+17
19332.0	5.371030240144042e+17
19333.0	5.369923965201065e+17
19334.0	5.3688202082385914e+17
19335.0	5.3676993427101005e+17
19336.0	5.3665967874157216e+17
19337.0	5.3654780987310074e+17
19338.0	5.364188664124756e+17
19339.0	5.3632385298377376e+17
19340.0	5.3620242956069536e+17
19341.0	5.360940176375807e+17
19342.0	5.3595322736530765e+17
19343.0	5.35871591878929e+17
19344.0	5.3575741852002976e+17
19345.0	5.35485431956548e+17
19346.0	5.3544413560831974e+17
19347.0	5.354077042333012e+17
19348.0	5.352990653983402e+17
19349.0	5.3518051248701434e+17
19350.0	5.3506446448394234e+17
19351.0	5.349476904468479e+17
19352.0	5.348258801691306e+17
19353.0	5.347146715540138e+17
19354.0	5.345966018964138e+17
19355.0	5.3446977984484685e+17
19356.0	5.3435817221160954e+17
19357.0	5.342383215127209e+17
19358.0	5.3411645223512723e+17
19359.0	5.3398908282688845e+17
19360.0	5.338704933552126e+17
19361.0	5.3374923819362976e+17
19362.0	5.336292711727104e+17
19363.0	5.3350526000387405e+17
19364.0	5.333805757191508e+17
19365.0	5.3325553659630925e+17
19366.0	5.330610953737555e+17
19367.0	5.329055554120362e+17
19368.0	5.3277780816691194e+17
19369.0	5.3264320763876685e+17
19370.0	5.325057019259562e+17
19371.0	5.3238459258634234e+17
19372.0	5.322570735113557e+17
19373.0	5.321227076545194e+17
19374.0	5.319908219595434e+17
19375.0	5.3185580228061856e+17
19376.0	5.317201154976426e+17
19377.0	5.3158264774328314e+17
19378.0	5.31443939942946e+17
19379.0	5.3130481963281056e+17
19380.0	5.31163663966754e+17
19381.0	5.3102073243238394e+17
19382.0	5.3087163030787405e+17
19383.0	5.3072267099941536e+17
19384.0	5.305847196418046e+17
19385.0	5.304367404722858e+17
19386.0	5.3028694845467296e+17
19387.0	5.3013495988005536e+17
19388.0	5.298760449348949e+17
19389.0	5.2968916198795936e+17
19390.0	5.2953053564764154e+17
19391.0	5.2871766114740826e+17
19392.0	5.2917878292916883e+17
19393.0	5.290414341532329e+17
19394.0	5.2887256014957216e+17
19395.0	5.2870106065141754e+17
19396.0	5.285282619675987e+17
19397.0	5.282899992859989e+17
19398.0	5.2799239223596365e+17
19399.0	5.277505245500757e+17
19400.0	5.2761463497250125e+17
19401.0	5.274311520681983e+17
19402.0	5.2723695418518176e+17
19403.0	5.2685846200975366e+17
19404.0	5.266019627040768e+17
19405.0	5.263694055342079e+17
19406.0	5.2614785645499725e+17
19407.0	5.256602488318635e+17
19408.0	5.2534214540656634e+17
19409.0	5.251255061796181e+17
19410.0	5.24577409212962e+17
19411.0	5.243157574145364e+17
19412.0	5.2368446356193254e+17
19413.0	5.2331004671208045e+17
19414.0	5.225837692802388e+17
19415.0	5.2197745355653126e+17
19416.0	5.212202925555717e+17
19417.0	5.2034721084866554e+17
19418.0	5.196562651152384e+17
19419.0	5.192258031364778e+17
19420.0	5.187751497782612e+17
19421.0	5.1829987145154554e+17
19422.0	5.177972015235071e+17
19423.0	5.172709166153727e+17
19424.0	5.1665120505364474e+17
19425.0	5.16065195074082e+17
19426.0	5.1544672579529376e+17
19427.0	5.1479458716057594e+17
19428.0	5.140383684799145e+17
19429.0	5.1327312889992525e+17
19430.0	5.12440583533363e+17
19431.0	5.114322457985024e+17
19432.0	5.10513272533811e+17
19433.0	5.0934911032360934e+17
19434.0	5.078806296177324e+17
19435.0	5.059622743659859e+17
19436.0	5.031887263935143e+17
19437.0	4.9916787874420154e+17
19438.0	4.9548029161635866e+17
19439.0	4.941161772176725e+17
19440.0	4.916463017481556e+17
19441.0	4.889170492609875e+17
19442.0	4.85932784348911e+17
19443.0	4.827550931659433e+17
19444.0	4.791387237122046e+17
19445.0	4.738617515704322e+17
19446.0	4.638469792639637e+17
19447.0	4.5544789417219366e+17
19448.0	4.452718792583856e+17
19449.0	4.2437059847127046e+17
19450.0	3.7436993949750483e+17
19451.0	3.565537889441085e+17
19452.0	4.038340797355369e+17
19453.0	4.3645999181550995e+17
19454.0	4.505954485796858e+17
19455.0	4.590447621395798e+17
19456.0	4.684680329341598e+17
19457.0	4.7597182454333395e+17
19458.0	4.7781970353411616e+17
19459.0	4.8289093597702906e+17
19460.0	4.859407921840125e+17
19461.0	4.8861538247420576e+17
19462.0	4.910682710824277e+17
19463.0	4.9330298709606374e+17
19464.0	4.953621070348293e+17
19465.0	4.988735705841665e+17
19466.0	5.0205323798336864e+17
19467.0	5.041545260564469e+17
19468.0	5.055699321793195e+17
19469.0	5.0665254838162765e+17
19470.0	5.075917807637845e+17
19471.0	5.083147137275222e+17
19472.0	5.090408842745172e+17
19473.0	5.0958514429187405e+17
19474.0	5.102019953382741e+17
19475.0	5.10619000381986e+17
19476.0	5.1112303877160954e+17
19477.0	5.1153715589720723e+17
19478.0	5.119427490785963e+17
19479.0	5.123266458943488e+17
19480.0	5.1264314171282765e+17
19481.0	5.129365424351913e+17
19482.0	5.1320625547618976e+17
19483.0	5.134542778837674e+17
19484.0	5.137862315999233e+17
19485.0	5.143308068891307e+17
19486.0	5.149620820071764e+17
19487.0	5.155878655928998e+17
19488.0	5.158982776433318e+17
19489.0	5.1628417437313696e+17
19490.0	5.164700744548354e+17
19491.0	5.1684605962485754e+17
19492.0	5.169962532470786e+17
19493.0	5.1729255342189216e+17
19494.0	5.173357505587881e+17
19495.0	5.174649453980333e+17
19496.0	5.176349470403241e+17
19497.0	5.1768797387816954e+17
19498.0	5.175877590930772e+17
19499.0	5.1680283354726406e+17
19500.0	5.1796157210296314e+17
19501.0	5.179601831591935e+17
19502.0	5.1795422780675405e+17
19503.0	5.179462881290921e+17
19504.0	5.179338070687743e+17
19505.0	5.180098690940927e+17
19506.0	5.1806976669122554e+17
19507.0	5.1804548083220474e+17
19508.0	5.1802217699956045e+17
19509.0	5.179943059193856e+17
19510.0	5.1794638900210336e+17
19511.0	5.1638959827408186e+17
19512.0	5.177036918226943e+17
19513.0	5.175475035613862e+17
19514.0	5.175888670184786e+17
19515.0	5.177745516527616e+17
19516.0	5.178610539997865e+17
19517.0	5.1781236637914445e+17
19518.0	5.177705890141525e+17
19519.0	5.1772100416197965e+17
19520.0	5.176685071346346e+17
19521.0	5.1761974779139405e+17
19522.0	5.175641441828862e+17
19523.0	5.175122367348735e+17
19524.0	5.174562498368853e+17
19525.0	5.173982240877226e+17
19526.0	5.1734119134003194e+17
19527.0	5.172814730493951e+17
19528.0	5.172205285539838e+17
19529.0	5.1715932820602874e+17
19530.0	5.170971661041662e+17
19531.0	5.1703349531115514e+17
19532.0	5.1696885109009056e+17
19533.0	5.1690328398233594e+17
19534.0	5.1683648249091405e+17
19535.0	5.167686223571626e+17
19536.0	5.166979161784319e+17
19537.0	5.166323400529237e+17
19538.0	5.1654948185702406e+17
19539.0	5.164485442535424e+17
19540.0	5.1641871834808314e+17
19541.0	5.163488873108821e+17
19542.0	5.162874118864896e+17
19543.0	5.1629236165454496e+17
19544.0	5.1621897119115936e+17
19545.0	5.160999383116458e+17
19546.0	5.159972705577642e+17
19547.0	5.1599429819432954e+17
19548.0	5.1591765497828685e+17
19549.0	5.1583416246381216e+17
19550.0	5.157643759561385e+17
19551.0	5.1568696916705274e+17
19552.0	5.1560880677410125e+17
19553.0	5.1552803237833376e+17
19554.0	5.1544830159530656e+17
19555.0	5.153708260895402e+17
19556.0	5.1529231997337594e+17
19557.0	5.152118057642666e+17
19558.0	5.1513140773737805e+17
19559.0	5.1505035274267296e+17
19560.0	5.149673040554666e+17
19561.0	5.14885548052753e+17
19562.0	5.148060351638185e+17
19563.0	5.147238489653247e+17
19564.0	5.1464137902216525e+17
19565.0	5.145586117028521e+17
19566.0	5.1447304699248634e+17
19567.0	5.1439202785908045e+17
19568.0	5.143066702774271e+17
19569.0	5.142239709058388e+17
19570.0	5.1414067908881056e+17
19571.0	5.1405578665547085e+17
19572.0	5.1396952897617914e+17
19573.0	5.138848322071209e+17
19574.0	5.137950937448447e+17
19575.0	5.137166327174485e+17
19576.0	5.136313859353258e+17
19577.0	5.1354290045146445e+17
19578.0	5.134561377779711e+17
19579.0	5.133716891019945e+17
19580.0	5.132854015033343e+17
19581.0	5.132002098064041e+17
19582.0	5.13115088364066e+17
19583.0	5.130284522187434e+17
19584.0	5.1294061153921696e+17
19585.0	5.1284606584531616e+17
19586.0	5.1275602874859514e+17
19587.0	5.1267717541396474e+17
19588.0	5.1255295564840954e+17
19589.0	5.125034798481407e+17
19590.0	5.124090892735828e+17
19591.0	5.1232946306853536e+17
19592.0	5.1224212123156474e+17
19593.0	5.1215266497604256e+17
19594.0	5.1204823610381645e+17
19595.0	5.1197336484140365e+17
19596.0	5.118530856943615e+17
19597.0	5.117977922546346e+17
19598.0	5.1167772198393165e+17
19599.0	5.11623798264081e+17
19600.0	5.115358193123327e+17
19601.0	5.11441408954641e+17
19602.0	5.113527301832702e+17
19603.0	5.112290067436885e+17
19604.0	5.1117439543760205e+17
19605.0	5.110672533400234e+17
19606.0	5.110014194745343e+17
19607.0	5.109129527951359e+17
19608.0	5.1082200525482656e+17
19609.0	5.107300106065237e+17
19610.0	5.106445747311957e+17
19611.0	5.105544669604521e+17
19612.0	5.104658708168703e+17
19613.0	5.103754386167125e+17
19614.0	5.1028343348264934e+17
19615.0	5.101966477404842e+17
19616.0	5.101014441700009e+17
19617.0	5.10016400601907e+17
19618.0	5.098770246489428e+17
19619.0	5.0977762733370003e+17
19620.0	5.096909281340074e+17
19621.0	5.096573449710249e+17
19622.0	5.095678312535381e+17
19623.0	5.0947777765922125e+17
19624.0	5.0938690009388365e+17
19625.0	5.092989093980842e+17
19626.0	5.0921132366233594e+17
19627.0	5.0912095081157965e+17
19628.0	5.090187222712319e+17
19629.0	5.0893198860834125e+17
19630.0	5.0879927845300896e+17
19631.0	5.082267625979904e+17
19632.0	5.086691266833066e+17
19633.0	5.0857560195290445e+17
19634.0	5.0848861837940045e+17
19635.0	5.083951820090025e+17
19636.0	5.083072655523839e+17
19637.0	5.081884437162667e+17
19638.0	5.0812578389032954e+17
19639.0	5.080348282410325e+17
19640.0	5.079314731106303e+17
19641.0	5.0777691978902195e+17
19642.0	5.077637918971219e+17
19643.0	5.0767281667440634e+17
19644.0	5.0757765875193165e+17
19645.0	5.074692971604649e+17
19646.0	5.074014864495957e+17
19647.0	5.073113775603711e+17
19648.0	5.0722075591748256e+17
19649.0	5.0712983116622496e+17
19650.0	5.070393555550207e+17
19651.0	5.069481828504917e+17
19652.0	5.068576608922281e+17
19653.0	5.067670110076928e+17
19654.0	5.0667643032917325e+17
19655.0	5.065852651044862e+17
