# Flux units: erg / (cm m2 s)
# Wavelength units: Angstrom
wave	flux
19000.0	6.090247123937962e+17
19001.0	6.08905050858018e+17
19002.0	6.088036657922047e+17
19003.0	6.086928737413801e+17
19004.0	6.085825898304852e+17
19005.0	6.084708778988884e+17
19006.0	6.08360554701346e+17
19007.0	6.082498232582144e+17
19008.0	6.081355367929172e+17
19009.0	6.080134302575274e+17
19010.0	6.078965259872938e+17
19011.0	6.078013633112746e+17
19012.0	6.076814806657705e+17
19013.0	6.075861782495231e+17
19014.0	6.074720926913876e+17
19015.0	6.073627875912361e+17
19016.0	6.072547574196905e+17
19017.0	6.071456936318292e+17
19018.0	6.070347973525503e+17
19019.0	6.069247289589759e+17
19020.0	6.068137878705492e+17
19021.0	6.067049514838697e+17
19022.0	6.065941082625363e+17
19023.0	6.064801804801363e+17
19024.0	6.063703492744534e+17
19025.0	6.062611369383251e+17
19026.0	6.0614790624925e+17
19027.0	6.060347971949907e+17
19028.0	6.059298127871999e+17
19029.0	6.058195877363712e+17
19030.0	6.057112413143039e+17
19031.0	6.056005551696553e+17
19032.0	6.054879421617491e+17
19033.0	6.053658236026879e+17
19034.0	6.05248355897617e+17
19035.0	6.050478133608447e+17
19036.0	6.044226868827476e+17
19037.0	6.048499972614825e+17
19038.0	6.048095601164287e+17
19039.0	6.047136637867348e+17
19040.0	6.046081620115455e+17
19041.0	6.044996790648831e+17
19042.0	6.043461436309501e+17
19043.0	6.042820478850388e+17
19044.0	6.041713383221929e+17
19045.0	6.040607619284991e+17
19046.0	6.039486743969791e+17
19047.0	6.038364806097578e+17
19048.0	6.037156591392083e+17
19049.0	6.035328903151613e+17
19050.0	6.034906590565716e+17
19051.0	6.033141903567529e+17
19052.0	6.032356369847636e+17
19053.0	6.031717536104447e+17
19054.0	6.030707751824041e+17
19055.0	6.02931491574033e+17
19056.0	6.028494789498195e+17
19057.0	6.027458119729151e+17
19058.0	6.025965844387156e+17
19059.0	6.025124330689876e+17
19060.0	6.024176487191892e+17
19061.0	6.023086895792127e+17
19062.0	6.021989462441983e+17
19063.0	6.020887971102719e+17
19064.0	6.019740359196672e+17
19065.0	6.018576874646186e+17
19066.0	6.017418867856724e+17
19067.0	6.016509740580863e+17
19068.0	6.015428740513791e+17
19069.0	6.014335440650239e+17
19070.0	6.013222280757247e+17
19071.0	6.012137079395668e+17
19072.0	6.010910460783273e+17
19073.0	6.00996208181248e+17
19074.0	6.008869775998975e+17
19075.0	6.007775721160704e+17
19076.0	6.006676664614911e+17
19077.0	6.00557506002944e+17
19078.0	6.004474342539263e+17
19079.0	6.003401840831146e+17
19080.0	6.00230068293905e+17
19081.0	6.001176087276201e+17
19082.0	6.000112218843817e+17
19083.0	5.998947106903379e+17
19084.0	5.99774327943987e+17
19085.0	5.99682207256849e+17
19086.0	5.995199345983487e+17
19087.0	5.994265905026388e+17
19088.0	5.993254166200319e+17
19089.0	5.992284271149055e+17
19090.0	5.991339755831295e+17
19091.0	5.990246367188308e+17
19092.0	5.98884810157807e+17
19093.0	5.988123137103188e+17
19094.0	5.987041427499689e+17
19095.0	5.985956110095699e+17
19096.0	5.984865289764863e+17
19097.0	5.983780305108991e+17
19098.0	5.982530082351786e+17
19099.0	5.98140494422562e+17
19100.0	5.980491452077395e+17
19101.0	5.979405625764521e+17
19102.0	5.978284326125567e+17
19103.0	5.977247102009343e+17
19104.0	5.976163337196884e+17
19105.0	5.974708208708268e+17
19106.0	5.973966392218963e+17
19107.0	5.972770127085567e+17
19108.0	5.971598323133098e+17
19109.0	5.970546344853504e+17
19110.0	5.969527930093568e+17
19111.0	5.968406939435007e+17
19112.0	5.967329704454826e+17
19113.0	5.966378315371862e+17
19114.0	5.965217932509183e+17
19115.0	5.964156894532948e+17
19116.0	5.963092568921428e+17
19117.0	5.961981720089939e+17
19118.0	5.960568548622335e+17
19119.0	5.955417958689446e+17
19120.0	5.95854090183202e+17
19121.0	5.957621574707882e+17
19122.0	5.956607464701951e+17
19123.0	5.955537027290452e+17
19124.0	5.954385313355092e+17
19125.0	5.953335477665791e+17
19126.0	5.952108959017641e+17
19127.0	5.950443914002431e+17
19128.0	5.949905387039401e+17
19129.0	5.948940165141844e+17
19130.0	5.947953014024874e+17
19131.0	5.946895201468415e+17
19132.0	5.945817702946132e+17
19133.0	5.944706448665257e+17
19134.0	5.943650573178195e+17
19135.0	5.942577140334591e+17
19136.0	5.941489611833344e+17
19137.0	5.940365464961023e+17
19138.0	5.939319218896895e+17
19139.0	5.938261922239828e+17
19140.0	5.937188226553171e+17
19141.0	5.936110059738452e+17
19142.0	5.935007937855487e+17
19143.0	5.933927607478954e+17
19144.0	5.932833685460307e+17
19145.0	5.931790036369407e+17
19146.0	5.93017982349039e+17
19147.0	5.929600159492778e+17
19148.0	5.92842693087505e+17
19149.0	5.927325046669311e+17
19150.0	5.926401456035156e+17
19151.0	5.925317870878719e+17
19152.0	5.924227912477354e+17
19153.0	5.922866953803092e+17
19154.0	5.922013697452714e+17
19155.0	5.920975650553855e+17
19156.0	5.919898458215764e+17
19157.0	5.918708443294378e+17
19158.0	5.917492304150527e+17
19159.0	5.916624069940564e+17
19160.0	5.91554095943953e+17
19161.0	5.91441207300369e+17
19162.0	5.913166339549865e+17
19163.0	5.912204310216704e+17
19164.0	5.911242159947775e+17
19165.0	5.909905624006655e+17
19166.0	5.909081246138367e+17
19167.0	5.908050771356329e+17
19168.0	5.907004458882388e+17
19169.0	5.905943481723562e+17
19170.0	5.904876219400192e+17
19171.0	5.903802181178707e+17
19172.0	5.902726744156842e+17
19173.0	5.901660458407252e+17
19174.0	5.900573161291776e+17
19175.0	5.899514328820393e+17
19176.0	5.898444659665578e+17
19177.0	5.897246177143465e+17
19178.0	5.896292913905663e+17
19179.0	5.895216377277097e+17
19180.0	5.894143128982868e+17
19181.0	5.893018794764969e+17
19182.0	5.891984180903935e+17
19183.0	5.890944062018899e+17
19184.0	5.889873477806761e+17
19185.0	5.888794862201513e+17
19186.0	5.887727103552169e+17
19187.0	5.886598311488169e+17
19188.0	5.885573485035519e+17
19189.0	5.884495929890131e+17
19190.0	5.883412103561215e+17
19191.0	5.882299516190719e+17
19192.0	5.881232447504383e+17
19193.0	5.880084101595136e+17
19194.0	5.878927959173802e+17
19195.0	5.877839642842451e+17
19196.0	5.876599950584489e+17
19197.0	5.875224986430121e+17
19198.0	5.873490935327402e+17
19199.0	5.870961222658729e+17
19200.0	5.870063886969514e+17
19201.0	5.870357653924521e+17
19202.0	5.869922312432297e+17
19203.0	5.869128641063593e+17
19204.0	5.868227333368489e+17
19205.0	5.867246825330004e+17
19206.0	5.866239271021225e+17
19207.0	5.865086507810815e+17
19208.0	5.864067988892329e+17
19209.0	5.863106808206675e+17
19210.0	5.862059593957373e+17
19211.0	5.861014000806569e+17
19212.0	5.859948078563328e+17
19213.0	5.858796869342547e+17
19214.0	5.857765947168084e+17
19215.0	5.856742533496831e+17
19216.0	5.855678942587561e+17
19217.0	5.85455168913408e+17
19218.0	5.853283590952276e+17
19219.0	5.852285354289833e+17
19220.0	5.851386038889129e+17
19221.0	5.850280495852202e+17
19222.0	5.849278935902889e+17
19223.0	5.848244424802304e+17
19224.0	5.847158977374889e+17
19225.0	5.8461051172509e+17
19226.0	5.845067137460906e+17
19227.0	5.844014439159124e+17
19228.0	5.842978119614463e+17
19229.0	5.841916624459092e+17
19230.0	5.840850573590527e+17
19231.0	5.839780898843305e+17
19232.0	5.838726331280041e+17
19233.0	5.837618751209471e+17
19234.0	5.836600736306516e+17
19235.0	5.835515565004116e+17
19236.0	5.83448315175458e+17
19237.0	5.833414891885908e+17
19238.0	5.832295755109716e+17
19239.0	5.831301001816746e+17
19240.0	5.830243073916927e+17
19241.0	5.829165327930708e+17
19242.0	5.828108292019539e+17
19243.0	5.826925989025107e+17
19244.0	5.826002297028608e+17
19245.0	5.824935475806208e+17
19246.0	5.82387543048192e+17
19247.0	5.822814735040512e+17
19248.0	5.821760282121555e+17
19249.0	5.820683301595818e+17
19250.0	5.819563123933183e+17
19251.0	5.818446736523263e+17
19252.0	5.817256814575615e+17
19253.0	5.816442349944831e+17
19254.0	5.815400188433748e+17
19255.0	5.814168857520809e+17
19256.0	5.813268471174484e+17
19257.0	5.812219805695999e+17
19258.0	5.811156260924074e+17
19259.0	5.810008823780692e+17
19260.0	5.808843390276948e+17
19261.0	5.807941445047635e+17
19262.0	5.806838401116841e+17
19263.0	5.805728468740777e+17
19264.0	5.804509132139178e+17
19265.0	5.803563414454271e+17
19266.0	5.802501983611561e+17
19267.0	5.801607871944019e+17
19268.0	5.80055123099648e+17
19269.0	5.799490162262015e+17
19270.0	5.798391904731135e+17
19271.0	5.797231563112447e+17
19272.0	5.796280984229204e+17
19273.0	5.795087701945002e+17
19274.0	5.793862000487081e+17
19275.0	5.79314603139618e+17
19276.0	5.792074144153599e+17
19277.0	5.791019630417238e+17
19278.0	5.789949996914003e+17
19279.0	5.788872671057235e+17
19280.0	5.787804966234793e+17
19281.0	5.786759393356458e+17
19282.0	5.785710062381737e+17
19283.0	5.784632804332884e+17
19284.0	5.783536820114774e+17
19285.0	5.782440586335572e+17
19286.0	5.781325250297855e+17
19287.0	5.780069807729321e+17
19288.0	5.776342223508819e+17
19289.0	5.774113587068925e+17
19290.0	5.776824770494464e+17
19291.0	5.775841233469441e+17
19292.0	5.775071239645866e+17
19293.0	5.774040587304959e+17
19294.0	5.772981755532628e+17
19295.0	5.771943884095487e+17
19296.0	5.770700661631658e+17
19297.0	5.769778659939668e+17
19298.0	5.768743082087764e+17
19299.0	5.767502872532308e+17
19300.0	5.766639718323542e+17
19301.0	5.765582646760788e+17
19302.0	5.7645060220518394e+17
19303.0	5.7634020358007456e+17
19304.0	5.762379578430804e+17
19305.0	5.761303835224745e+17
19306.0	5.7602380870451194e+17
19307.0	5.7591346173924685e+17
19308.0	5.7580522094373536e+17
19309.0	5.756925985685503e+17
19310.0	5.7558110662819834e+17
19311.0	5.754767673742677e+17
19312.0	5.7536772420840096e+17
19313.0	5.752304005283839e+17
19314.0	5.736543784970923e+17
19315.0	5.736441109108064e+17
19316.0	5.7488748884350285e+17
19317.0	5.748363833464147e+17
19318.0	5.747380304827732e+17
19319.0	5.746361458054484e+17
19320.0	5.745231213363198e+17
19321.0	5.744068926286506e+17
19322.0	5.7431417124727456e+17
19323.0	5.742070184542207e+17
19324.0	5.7410005566313805e+17
19325.0	5.739928302387198e+17
19326.0	5.738877087470932e+17
19327.0	5.737812020865706e+17
19328.0	5.7364276132358816e+17
19329.0	5.7356792641181005e+17
19330.0	5.7345947583119354e+17
19331.0	5.7334886853946016e+17
19332.0	5.73245229314867e+17
19333.0	5.731357855929685e+17
19334.0	5.7302801994219514e+17
19335.0	5.728542500672853e+17
19336.0	5.7280977485605536e+17
19337.0	5.727017997697022e+17
19338.0	5.7257561476300794e+17
19339.0	5.724824101978111e+17
19340.0	5.72362949009954e+17
19341.0	5.722304835223552e+17
19342.0	5.721309254953641e+17
19343.0	5.7203738811214496e+17
19344.0	5.7189457772325536e+17
19345.0	5.71716301558033e+17
19346.0	5.716339676501332e+17
19347.0	5.715591541992105e+17
19348.0	5.714904816287742e+17
19349.0	5.713802158232916e+17
19350.0	5.7125902686180685e+17
19351.0	5.71159123993122e+17
19352.0	5.7101373844138643e+17
19353.0	5.7094043053588474e+17
19354.0	5.7082784569972045e+17
19355.0	5.707060880605183e+17
19356.0	5.706019101474815e+17
19357.0	5.704890707869696e+17
19358.0	5.7037512811479034e+17
19359.0	5.7025268701375136e+17
19360.0	5.701200409613652e+17
19361.0	5.700327135248383e+17
19362.0	5.699193802151252e+17
19363.0	5.6980465041189536e+17
19364.0	5.6968920869546656e+17
19365.0	5.695731358760958e+17
19366.0	5.694565144417621e+17
19367.0	5.6933585654906874e+17
19368.0	5.6921770335491405e+17
19369.0	5.690971973659305e+17
19370.0	5.689783128948736e+17
19371.0	5.688561553287849e+17
19372.0	5.687406834832724e+17
19373.0	5.686180045651968e+17
19374.0	5.684970718057813e+17
19375.0	5.6837474255284896e+17
19376.0	5.6824829770902176e+17
19377.0	5.6811951090565114e+17
19378.0	5.679943756633428e+17
19379.0	5.678684761489407e+17
19380.0	5.6774160823965005e+17
19381.0	5.676129537665705e+17
19382.0	5.6747685929724576e+17
19383.0	5.673475400968873e+17
19384.0	5.6721354173098656e+17
19385.0	5.670819074146303e+17
19386.0	5.669476004877652e+17
19387.0	5.668109137128106e+17
19388.0	5.6667029680510285e+17
19389.0	5.665216794722303e+17
19390.0	5.663319474743977e+17
19391.0	5.657065390691666e+17
19392.0	5.659359507906558e+17
19393.0	5.659262695680681e+17
19394.0	5.6579258095151776e+17
19395.0	5.6563477375877114e+17
19396.0	5.654887781455189e+17
19397.0	5.653335473040042e+17
19398.0	5.651583768810836e+17
19399.0	5.649682229362687e+17
19400.0	5.6481799527028045e+17
19401.0	5.6466895487194445e+17
19402.0	5.6449482498594125e+17
19403.0	5.643169195971924e+17
19404.0	5.64137723760913e+17
19405.0	5.639507344883711e+17
19406.0	5.637578304083285e+17
19407.0	5.635445226471423e+17
19408.0	5.633221111491242e+17
19409.0	5.6312490049754445e+17
19410.0	5.6291641220136954e+17
19411.0	5.6269178191653536e+17
19412.0	5.624560456040447e+17
19413.0	5.6220051860794016e+17
19414.0	5.6195639844099405e+17
19415.0	5.61683158339857e+17
19416.0	5.6139707297300474e+17
19417.0	5.611252201379156e+17
19418.0	5.608347217341099e+17
19419.0	5.6052879486266016e+17
19420.0	5.6019640025524896e+17
19421.0	5.5983956425004365e+17
19422.0	5.594743945123156e+17
19423.0	5.5909555050468685e+17
19424.0	5.5868642012692474e+17
19425.0	5.5825033463507616e+17
19426.0	5.577869188486485e+17
19427.0	5.572895215801684e+17
19428.0	5.567603344233811e+17
19429.0	5.5619284383389e+17
19430.0	5.555533615114922e+17
19431.0	5.548843075982677e+17
19432.0	5.542440247230462e+17
19433.0	5.534937776128e+17
19434.0	5.5265646835575456e+17
19435.0	5.5172230381131085e+17
19436.0	5.5070799296812365e+17
19437.0	5.4959074188110496e+17
19438.0	5.47520802455552e+17
19439.0	5.4685402038708896e+17
19440.0	5.4565776573945165e+17
19441.0	5.440089599508478e+17
19442.0	5.4216179021687456e+17
19443.0	5.4000179349203616e+17
19444.0	5.3747124867345043e+17
19445.0	5.345007996589398e+17
19446.0	5.3092275558809594e+17
19447.0	5.264198460943016e+17
19448.0	5.205111415854424e+17
19449.0	5.1199878428098554e+17
19450.0	4.964572373625507e+17
19451.0	4.834528085759325e+17
19452.0	5.057418121008467e+17
19453.0	5.1646200727033197e+17
19454.0	5.232109781603665e+17
19455.0	5.280944890751658e+17
19456.0	5.3188016272834566e+17
19457.0	5.348300671330985e+17
19458.0	5.3321506386958086e+17
19459.0	5.389741870546953e+17
19460.0	5.4135011130299725e+17
19461.0	5.4296033788340896e+17
19462.0	5.443552316227583e+17
19463.0	5.4556507064238054e+17
19464.0	5.46621324595473e+17
19465.0	5.4753390916621645e+17
19466.0	5.4835874358449485e+17
19467.0	5.491026555480745e+17
19468.0	5.4976507533066234e+17
19469.0	5.503290308908372e+17
19470.0	5.50882146062609e+17
19471.0	5.5134991176171514e+17
19472.0	5.517635283670356e+17
19473.0	5.521321145750868e+17
19474.0	5.5244618301003085e+17
19475.0	5.52736762503714e+17
19476.0	5.530434056224767e+17
19477.0	5.5329900615871136e+17
19478.0	5.5352107477237754e+17
19479.0	5.5369173121542816e+17
19480.0	5.538765344167251e+17
19481.0	5.54032121983795e+17
19482.0	5.5417665979678714e+17
19483.0	5.542937693782015e+17
19484.0	5.543883700174846e+17
19485.0	5.544699330822143e+17
19486.0	5.5452109268582394e+17
19487.0	5.546138653076138e+17
19488.0	5.5467010295507616e+17
19489.0	5.546876416469673e+17
19490.0	5.546947319780692e+17
19491.0	5.5477141189427194e+17
19492.0	5.5480130602707616e+17
19493.0	5.548163135264085e+17
19494.0	5.548232980212393e+17
19495.0	5.548150739697664e+17
19496.0	5.5477782358698656e+17
19497.0	5.5474591087547725e+17
19498.0	5.5442819577282534e+17
19499.0	5.539074299396096e+17
19500.0	5.546413471563775e+17
19501.0	5.5468036173332474e+17
19502.0	5.5466080802788685e+17
19503.0	5.546297474591402e+17
19504.0	5.545911130259456e+17
19505.0	5.5454754720972794e+17
19506.0	5.5450209682281805e+17
19507.0	5.544495448500905e+17
19508.0	5.5439350118918803e+17
19509.0	5.5432043851066016e+17
19510.0	5.5416395972389536e+17
19511.0	5.519487872794614e+17
19512.0	5.537831608909823e+17
19513.0	5.5377288966963174e+17
19514.0	5.537720753455103e+17
19515.0	5.5393441413420365e+17
19516.0	5.5390095735958176e+17
19517.0	5.538441371931988e+17
19518.0	5.53774241284096e+17
19519.0	5.537092684393129e+17
19520.0	5.5362171583856634e+17
19521.0	5.5357518471932576e+17
19522.0	5.534941026014547e+17
19523.0	5.5341909362606074e+17
19524.0	5.5333096298031776e+17
19525.0	5.5327136136123725e+17
19526.0	5.531952216713898e+17
19527.0	5.5312109175220896e+17
19528.0	5.5303889534757536e+17
19529.0	5.529569814992213e+17
19530.0	5.5288018819700045e+17
19531.0	5.527980763075924e+17
19532.0	5.5271522817802234e+17
19533.0	5.526317053247487e+17
19534.0	5.5254734319124474e+17
19535.0	5.5246069089785165e+17
19536.0	5.523747603043669e+17
19537.0	5.5229180892501325e+17
19538.0	5.521698465338709e+17
19539.0	5.52097751900706e+17
19540.0	5.520286534686036e+17
19541.0	5.51939691441903e+17
19542.0	5.5185495489686176e+17
19543.0	5.517436839264255e+17
19544.0	5.516734772893013e+17
19545.0	5.515539861820756e+17
19546.0	5.5145942014580045e+17
19547.0	5.514073824646485e+17
19548.0	5.5132329030451194e+17
19549.0	5.5122601565661856e+17
19550.0	5.5114686305839776e+17
19551.0	5.510570704895999e+17
19552.0	5.5097108173509965e+17
19553.0	5.508788374558037e+17
19554.0	5.507874351830355e+17
19555.0	5.506934460732757e+17
19556.0	5.5060434801131514e+17
19557.0	5.505140465336319e+17
19558.0	5.5042229865021434e+17
19559.0	5.503303792197631e+17
19560.0	5.50226914058786e+17
19561.0	5.5014320490850976e+17
19562.0	5.500436525438292e+17
19563.0	5.4996012200099834e+17
19564.0	5.4986708129327776e+17
19565.0	5.4977381744858445e+17
19566.0	5.496789900372651e+17
19567.0	5.4958685515939834e+17
19568.0	5.494914266344105e+17
19569.0	5.4939845778909856e+17
19570.0	5.4930588698323616e+17
19571.0	5.492121088469675e+17
19572.0	5.491152272752639e+17
19573.0	5.490217128908117e+17
19574.0	5.489223943585791e+17
19575.0	5.488377159046484e+17
19576.0	5.487411147221674e+17
19577.0	5.486418739942741e+17
19578.0	5.485527220355071e+17
19579.0	5.484569703393962e+17
19580.0	5.483627315986431e+17
19581.0	5.482698511832404e+17
19582.0	5.4817567682505363e+17
19583.0	5.480808264149674e+17
19584.0	5.4798523703842125e+17
19585.0	5.4788037426544634e+17
19586.0	5.4778262950597965e+17
19587.0	5.476948958511103e+17
19588.0	5.475847432219306e+17
19589.0	5.4750279316275194e+17
19590.0	5.4740592354481485e+17
19591.0	5.47318702084369e+17
19592.0	5.4722482957626016e+17
19593.0	5.4712549384738125e+17
19594.0	5.470104617746431e+17
19595.0	5.4693706152454816e+17
19596.0	5.4683822883252896e+17
19597.0	5.4674524195170976e+17
19598.0	5.4662253891638605e+17
19599.0	5.465534847341909e+17
19600.0	5.4646029296162125e+17
19601.0	5.463597922648064e+17
19602.0	5.462595982415189e+17
19603.0	5.4615421586418336e+17
19604.0	5.4606849575485434e+17
19605.0	5.459622908745045e+17
19606.0	5.458858724731562e+17
19607.0	5.4579203456805536e+17
19608.0	5.4569546337484794e+17
19609.0	5.455979780330836e+17
19610.0	5.4549365150187514e+17
19611.0	5.453921833888426e+17
19612.0	5.4531391229351245e+17
19613.0	5.452170688200704e+17
19614.0	5.451182734573567e+17
19615.0	5.450239060213758e+17
19616.0	5.449120249894228e+17
19617.0	5.4480888929102496e+17
19618.0	5.446950585368575e+17
19619.0	5.445860660521642e+17
19620.0	5.4450391641402016e+17
19621.0	5.4441784510163616e+17
19622.0	5.443514463333034e+17
19623.0	5.4425497384605005e+17
19624.0	5.4415509977825274e+17
19625.0	5.440627147101524e+17
19626.0	5.439633191425364e+17
19627.0	5.4386089885259085e+17
19628.0	5.437503358107647e+17
19629.0	5.4356370165596154e+17
19630.0	5.4343066818969574e+17
19631.0	5.432453538425513e+17
19632.0	5.433139625896617e+17
19633.0	5.432640256256681e+17
19634.0	5.431893797371902e+17
19635.0	5.4309499594342394e+17
19636.0	5.429814836068351e+17
19637.0	5.4285950304037536e+17
19638.0	5.428176303947775e+17
19639.0	5.4272331217196365e+17
19640.0	5.4260768632558925e+17
19641.0	5.424709597746518e+17
19642.0	5.4243391274571085e+17
19643.0	5.4233969287932576e+17
19644.0	5.4224029577379834e+17
19645.0	5.4214142652142925e+17
19646.0	5.420272126175913e+17
19647.0	5.4196151730394445e+17
19648.0	5.4186643732561914e+17
19649.0	5.417709045721771e+17
19650.0	5.4167582005002234e+17
19651.0	5.4157966283461965e+17
19652.0	5.4148395308154854e+17
19653.0	5.41388603199761e+17
19654.0	5.4129261389632845e+17
19655.0	5.4119687394426874e+17
19656.0	5.411018192715775e+17
19657.0	5.4100584667545594e+17
19658.0	5.4091067246510074e+17
19659.0	5.4081519381818016e+17
