# Flux units: erg / (cm m2 s)
# Wavelength units: Angstrom
wave	flux
19000.0	7.82754405871343e+17
19001.0	7.825894061462867e+17
19002.0	7.824582538952701e+17
19003.0	7.823091496037033e+17
19004.0	7.821604290909523e+17
19005.0	7.820115068321791e+17
19006.0	7.818631092808361e+17
19007.0	7.817020709360979e+17
19008.0	7.815523288307028e+17
19009.0	7.814128678032726e+17
19010.0	7.81187958597222e+17
19011.0	7.811166459221331e+17
19012.0	7.809480568515241e+17
19013.0	7.808227562138281e+17
19014.0	7.806630442478249e+17
19015.0	7.805198062496426e+17
19016.0	7.803703798355284e+17
19017.0	7.801501318993238e+17
19018.0	7.800783077987668e+17
19019.0	7.799303628128255e+17
19020.0	7.797686428936873e+17
19021.0	7.796266206844244e+17
19022.0	7.794870120174931e+17
19023.0	7.793310396929364e+17
19024.0	7.791868898530644e+17
19025.0	7.790396851617791e+17
19026.0	7.788887755019604e+17
19027.0	7.787397402765994e+17
19028.0	7.78596759249442e+17
19029.0	7.784454755975167e+17
19030.0	7.783021091138216e+17
19031.0	7.78154910294562e+17
19032.0	7.780062129902931e+17
19033.0	7.778417526527315e+17
19034.0	7.777058112055977e+17
19035.0	7.775547011978579e+17
19036.0	7.766524412559354e+17
19037.0	7.772626299999572e+17
19038.0	7.771125600397993e+17
19039.0	7.769677526728701e+17
19040.0	7.76820436692719e+17
19041.0	7.76671140581649e+17
19042.0	7.765082817691647e+17
19043.0	7.763757070898515e+17
19044.0	7.762257956743849e+17
19045.0	7.760797476323325e+17
19046.0	7.759206699849044e+17
19047.0	7.757834176779603e+17
19048.0	7.755992457893202e+17
19049.0	7.754745941502634e+17
19050.0	7.753307525917353e+17
19051.0	7.750880210889382e+17
19052.0	7.750359310488915e+17
19053.0	7.748915197640701e+17
19054.0	7.747462717156008e+17
19055.0	7.74554699816414e+17
19056.0	7.744469187865257e+17
19057.0	7.743020034861738e+17
19058.0	7.741485716515497e+17
19059.0	7.74007153422063e+17
19060.0	7.73856194409267e+17
19061.0	7.737123773175123e+17
19062.0	7.735637553709053e+17
19063.0	7.734164269476518e+17
19064.0	7.732458715873276e+17
19065.0	7.730878184685565e+17
19066.0	7.729615309111293e+17
19067.0	7.728231922794496e+17
19068.0	7.726776510491305e+17
19069.0	7.725303977039187e+17
19070.0	7.723773106410836e+17
19071.0	7.722338771883347e+17
19072.0	7.720874561328468e+17
19073.0	7.719385579214163e+17
19074.0	7.717927428030463e+17
19075.0	7.716451698518696e+17
19076.0	7.714935937171455e+17
19077.0	7.713487435683155e+17
19078.0	7.711830884133548e+17
19079.0	7.710542697332735e+17
19080.0	7.709049697075199e+17
19081.0	7.707507938033663e+17
19082.0	7.705981671353002e+17
19083.0	7.704429694986921e+17
19084.0	7.702720046344872e+17
19085.0	7.701678421704703e+17
19086.0	7.699504947352915e+17
19087.0	7.698558655048361e+17
19088.0	7.697147681396054e+17
19089.0	7.69536743702528e+17
19090.0	7.694274269981353e+17
19091.0	7.692804000055293e+17
19092.0	7.691234643891539e+17
19093.0	7.689912185432744e+17
19094.0	7.68841542428262e+17
19095.0	7.686942742631764e+17
19096.0	7.685454529473194e+17
19097.0	7.684030201156948e+17
19098.0	7.682556216475647e+17
19099.0	7.681065370692262e+17
19100.0	7.67960402764322e+17
19101.0	7.678149963109715e+17
19102.0	7.676539274876244e+17
19103.0	7.675200704697684e+17
19104.0	7.673745061707775e+17
19105.0	7.672266203245225e+17
19106.0	7.670762740995411e+17
19107.0	7.669302204650836e+17
19108.0	7.667866918016339e+17
19109.0	7.665517292683261e+17
19110.0	7.664923133171028e+17
19111.0	7.663459578325672e+17
19112.0	7.661994713459369e+17
19113.0	7.660524313509888e+17
19114.0	7.65905036517922e+17
19115.0	7.657497677179562e+17
19116.0	7.656081446666239e+17
19117.0	7.654621125629268e+17
19118.0	7.652996359913471e+17
19119.0	7.648374741620047e+17
19120.0	7.650175361919657e+17
19121.0	7.648757463471442e+17
19122.0	7.647322880081919e+17
19123.0	7.645788728109738e+17
19124.0	7.644346199310336e+17
19125.0	7.642903860652713e+17
19126.0	7.641415409816915e+17
19127.0	7.637213736424783e+17
19128.0	7.637692586131455e+17
19129.0	7.636895893465769e+17
19130.0	7.635577503481855e+17
19131.0	7.634109381039442e+17
19132.0	7.632661689051817e+17
19133.0	7.629819846765226e+17
19134.0	7.629334993611434e+17
19135.0	7.628274262518442e+17
19136.0	7.626822998381906e+17
19137.0	7.625085956740434e+17
19138.0	7.623721805501782e+17
19139.0	7.622429313946964e+17
19140.0	7.620972435035475e+17
19141.0	7.619511135327572e+17
19142.0	7.618002690244607e+17
19143.0	7.616480205428051e+17
19144.0	7.615039643757225e+17
19145.0	7.613652148420607e+17
19146.0	7.611173309164204e+17
19147.0	7.610591876568403e+17
19148.0	7.609269900454569e+17
19149.0	7.607804332343293e+17
19150.0	7.60632781709858e+17
19151.0	7.604887975449939e+17
19152.0	7.603355302668969e+17
19153.0	7.601938195546111e+17
19154.0	7.600299999668905e+17
19155.0	7.59905741893359e+17
19156.0	7.597595262189568e+17
19157.0	7.59611804369988e+17
19158.0	7.594055427599016e+17
19159.0	7.593185600252586e+17
19160.0	7.591647595113128e+17
19161.0	7.590205663302995e+17
19162.0	7.587473550999553e+17
19163.0	7.587371577682602e+17
19164.0	7.585930823073792e+17
19165.0	7.584441146103123e+17
19166.0	7.582837098850986e+17
19167.0	7.581426422994262e+17
19168.0	7.579737044025343e+17
19169.0	7.578446279125672e+17
19170.0	7.577182921206442e+17
19171.0	7.575661668117161e+17
19172.0	7.574256173623977e+17
19173.0	7.572813052029612e+17
19174.0	7.571259519576748e+17
19175.0	7.569900770601641e+17
19176.0	7.568433583489024e+17
19177.0	7.566729686635862e+17
19178.0	7.565514799491753e+17
19179.0	7.563988018309802e+17
19180.0	7.562324314073769e+17
19181.0	7.560998754626217e+17
19182.0	7.55934784581359e+17
19183.0	7.55820525728563e+17
19184.0	7.556448851940692e+17
19185.0	7.555285414925654e+17
19186.0	7.553868201547092e+17
19187.0	7.552253778984957e+17
19188.0	7.550946031348393e+17
19189.0	7.549467927860563e+17
19190.0	7.548008820375552e+17
19191.0	7.546524212920319e+17
19192.0	7.545109767782397e+17
19193.0	7.5433490003613e+17
19194.0	7.542056905867264e+17
19195.0	7.540739897207464e+17
19196.0	7.539285432816978e+17
19197.0	7.537843724703062e+17
19198.0	7.536385944016211e+17
19199.0	7.526655382432424e+17
19200.0	7.528118543013208e+17
19201.0	7.532030573150207e+17
19202.0	7.530593393486505e+17
19203.0	7.529127411537238e+17
19204.0	7.527640298684416e+17
19205.0	7.526209181188093e+17
19206.0	7.524747785011199e+17
19207.0	7.523174740656127e+17
19208.0	7.521507405550931e+17
19209.0	7.520364940055892e+17
19210.0	7.518912628741459e+17
19211.0	7.517458200701612e+17
19212.0	7.516034923757565e+17
19213.0	7.514372898641236e+17
19214.0	7.512875920785407e+17
19215.0	7.511648678619817e+17
19216.0	7.510079172859219e+17
19217.0	7.508747410036051e+17
19218.0	7.505937213773137e+17
19219.0	7.505559780939091e+17
19220.0	7.504355945786026e+17
19221.0	7.502380614549503e+17
19222.0	7.501494107854164e+17
19223.0	7.499993086689279e+17
19224.0	7.498270189638995e+17
19225.0	7.496806508964521e+17
19226.0	7.495613025353725e+17
19227.0	7.494154268792147e+17
19228.0	7.492752445713066e+17
19229.0	7.491297167627603e+17
19230.0	7.489776458399743e+17
19231.0	7.488310220597929e+17
19232.0	7.486724632477696e+17
19233.0	7.485342361845757e+17
19234.0	7.483970119794688e+17
19235.0	7.482491278109353e+17
19236.0	7.481105679996244e+17
19237.0	7.479615941509119e+17
19238.0	7.4780290056192e+17
19239.0	7.476739280906921e+17
19240.0	7.474577501672786e+17
19241.0	7.473581330705068e+17
19242.0	7.472278406518102e+17
19243.0	7.470558165860352e+17
19244.0	7.469434757884586e+17
19245.0	7.467969867852457e+17
19246.0	7.466495129594536e+17
19247.0	7.465012875143849e+17
19248.0	7.463608164985513e+17
19249.0	7.462141802752681e+17
19250.0	7.460647330294442e+17
19251.0	7.459056872587261e+17
19252.0	7.45708965732898e+17
19253.0	7.456258416181249e+17
19254.0	7.454728784270676e+17
19255.0	7.452992461253289e+17
19256.0	7.451855276386985e+17
19257.0	7.450434994175999e+17
19258.0	7.448963172357459e+17
19259.0	7.447363758413139e+17
19260.0	7.44594115535394e+17
19261.0	7.444554547811667e+17
19262.0	7.442998592449194e+17
19263.0	7.441557664475817e+17
19264.0	7.439299216321193e+17
19265.0	7.438392233033725e+17
19266.0	7.437035227490986e+17
19267.0	7.435765488637267e+17
19268.0	7.434277240526164e+17
19269.0	7.432807012543145e+17
19270.0	7.431335832453119e+17
19271.0	7.429324841243991e+17
19272.0	7.428328516485119e+17
19273.0	7.409728421014163e+17
19274.0	7.417132227406493e+17
19275.0	7.423963750378156e+17
19276.0	7.422452152576681e+17
19277.0	7.420970945303892e+17
19278.0	7.419503733025449e+17
19279.0	7.417867901337597e+17
19280.0	7.416383074380458e+17
19281.0	7.415042306386602e+17
19282.0	7.413584194349738e+17
19283.0	7.411967962644479e+17
19284.0	7.410262985058986e+17
19285.0	7.408698260804947e+17
19286.0	7.407566592846505e+17
19287.0	7.406139582971901e+17
19288.0	7.402906635818323e+17
19289.0	7.397896163601055e+17
19290.0	7.401654363444563e+17
19291.0	7.399678224105472e+17
19292.0	7.398650435076096e+17
19293.0	7.397137530049876e+17
19294.0	7.395626508266153e+17
19295.0	7.394142727088808e+17
19296.0	7.392619888552617e+17
19297.0	7.391067031382698e+17
19298.0	7.389554926070441e+17
19299.0	7.388094753232212e+17
19300.0	7.386579689537535e+17
19301.0	7.385039841700522e+17
19302.0	7.383511612085587e+17
19303.0	7.381824946831357e+17
19304.0	7.380349745801897e+17
19305.0	7.378922878533632e+17
19306.0	7.377402230822228e+17
19307.0	7.375778590578004e+17
19308.0	7.374290875143506e+17
19309.0	7.372555699967318e+17
19310.0	7.370842047163048e+17
19311.0	7.369645020763476e+17
19312.0	7.368102475988991e+17
19313.0	7.366150449703596e+17
19314.0	7.363061961370277e+17
19315.0	7.361621121477294e+17
19316.0	7.361935747405139e+17
19317.0	7.360358373130241e+17
19318.0	7.358777223981738e+17
19319.0	7.357231603384319e+17
19320.0	7.355542334865407e+17
19321.0	7.354067743408125e+17
19322.0	7.352182020680361e+17
19323.0	7.35071432605696e+17
19324.0	7.349253262628178e+17
19325.0	7.347495759773693e+17
19326.0	7.346044003505492e+17
19327.0	7.344396364851881e+17
19328.0	7.342791108242089e+17
19329.0	7.341165639281322e+17
19330.0	7.339459190893225e+17
19331.0	7.337818774831101e+17
19332.0	7.3362449643165e+17
19333.0	7.334561602775722e+17
19334.0	7.332785336003242e+17
19335.0	7.331262902916436e+17
19336.0	7.329585758732287e+17
19337.0	7.327886421087572e+17
19338.0	7.325858479297875e+17
19339.0	7.324514842400084e+17
19340.0	7.322730530952531e+17
19341.0	7.321083837415423e+17
19342.0	7.318624514255529e+17
19343.0	7.317624045524308e+17
19344.0	7.315850684006399e+17
19345.0	7.310708210051744e+17
19346.0	7.311461061055831e+17
19347.0	7.310453070539434e+17
19348.0	7.308773483872255e+17
19349.0	7.306907937144832e+17
19350.0	7.305103321071612e+17
19351.0	7.303220930019327e+17
19352.0	7.301312661509459e+17
19353.0	7.299585373022889e+17
19354.0	7.297708867977216e+17
19355.0	7.295664195108864e+17
19356.0	7.293919037489151e+17
19357.0	7.291967356534783e+17
19358.0	7.289871050386089e+17
19359.0	7.287114917303638e+17
19360.0	7.286005291810816e+17
19361.0	7.283958923045544e+17
19362.0	7.282046208573437e+17
19363.0	7.279987922392404e+17
19364.0	7.277896271921151e+17
19365.0	7.275768711217152e+17
19366.0	7.273631612665855e+17
19367.0	7.271441222686036e+17
19368.0	7.26923872654677e+17
19369.0	7.26667060453922e+17
19370.0	7.262622933407059e+17
19371.0	7.262391013561684e+17
19372.0	7.26017027220002e+17
19373.0	7.25776422089523e+17
19374.0	7.255376281993215e+17
19375.0	7.252923264270335e+17
19376.0	7.25044202447394e+17
19377.0	7.247911982552404e+17
19378.0	7.245349636101459e+17
19379.0	7.242717833374377e+17
19380.0	7.240041123632467e+17
19381.0	7.237233169924093e+17
19382.0	7.234251446201002e+17
19383.0	7.231376210264063e+17
19384.0	7.22865175536162e+17
19385.0	7.225630897384106e+17
19386.0	7.22254128357922e+17
19387.0	7.219381138358271e+17
19388.0	7.216136722579455e+17
19389.0	7.212762898541225e+17
19390.0	7.20926280917538e+17
19391.0	7.199352892162036e+17
19392.0	7.202156794172755e+17
19393.0	7.198469960411817e+17
19394.0	7.194669495965011e+17
19395.0	7.190641335336957e+17
19396.0	7.186545969375914e+17
19397.0	7.182396403220479e+17
19398.0	7.17803142320401e+17
19399.0	7.172359951045971e+17
19400.0	7.168687073132543e+17
19401.0	7.163906726996649e+17
19402.0	7.158671726695764e+17
19403.0	7.153404996485119e+17
19404.0	7.147946585183572e+17
19405.0	7.142112318106281e+17
19406.0	7.136169273152851e+17
19407.0	7.129848413683711e+17
19408.0	7.122086835956397e+17
19409.0	7.116081937601876e+17
19410.0	7.108903695286271e+17
19411.0	7.101246308264617e+17
19412.0	7.093146054470314e+17
19413.0	7.084972572322474e+17
19414.0	7.076551601072808e+17
19415.0	7.067483629071017e+17
19416.0	7.057896068087807e+17
19417.0	7.04792922038818e+17
19418.0	7.037598546176681e+17
19419.0	7.026190565681833e+17
19420.0	7.01431319643204e+17
19421.0	7.001581604743849e+17
19422.0	6.987940945898153e+17
19423.0	6.973122172070568e+17
19424.0	6.957224113646252e+17
19425.0	6.939871821518166e+17
19426.0	6.921740340953087e+17
19427.0	6.9040854283933e+17
19428.0	6.88568865530402e+17
19429.0	6.865724342883668e+17
19430.0	6.844050825718444e+17
19431.0	6.819955434935639e+17
19432.0	6.79589221446451e+17
19433.0	6.768023357270698e+17
19434.0	6.737455086567423e+17
19435.0	6.70302525229192e+17
19436.0	6.6674495075997e+17
19437.0	6.633059475871059e+17
19438.0	6.589244996146514e+17
19439.0	6.552534170031447e+17
19440.0	6.505821580733098e+17
19441.0	6.453015286382588e+17
19442.0	6.395199392230061e+17
19443.0	6.336236280436052e+17
19444.0	6.270240870629373e+17
19445.0	6.194864140757679e+17
19446.0	6.113074035556351e+17
19447.0	6.02062259259528e+17
19448.0	5.913761663680516e+17
19449.0	5.770486011833002e+17
19450.0	5.439755174368547e+17
19451.0	5.3009906740319616e+17
19452.0	5.633816283927899e+17
19453.0	5.849264006976859e+17
19454.0	5.964479330953892e+17
19455.0	6.061374611739988e+17
19456.0	6.144820259061765e+17
19457.0	6.22178311811891e+17
19458.0	6.287997018308609e+17
19459.0	6.34928017231053e+17
19460.0	6.404480112612691e+17
19461.0	6.458084936034988e+17
19462.0	6.504957685530625e+17
19463.0	6.54674777813811e+17
19464.0	6.584225330014889e+17
19465.0	6.618155448620372e+17
19466.0	6.649533626843135e+17
19467.0	6.682792314972842e+17
19468.0	6.712391751783766e+17
19469.0	6.736946049755817e+17
19470.0	6.762596396957693e+17
19471.0	6.784038779311447e+17
19472.0	6.803510557409279e+17
19473.0	6.821541322249555e+17
19474.0	6.83814923866385e+17
19475.0	6.852418262269948e+17
19476.0	6.8681658269696e+17
19477.0	6.883435247304703e+17
19478.0	6.897118514686632e+17
19479.0	6.909739258609663e+17
19480.0	6.921139831264596e+17
19481.0	6.931582208879273e+17
19482.0	6.941173084760746e+17
19483.0	6.94994908287249e+17
19484.0	6.958015984959487e+17
19485.0	6.965516923742889e+17
19486.0	6.972431163282772e+17
19487.0	6.978928552618665e+17
19488.0	6.98488892633907e+17
19489.0	6.990253725668691e+17
19490.0	6.993798610201253e+17
19491.0	7.000801999672659e+17
19492.0	7.005502579933183e+17
19493.0	7.009765378315603e+17
19494.0	7.013904071436969e+17
19495.0	7.017332790525951e+17
19496.0	7.0203855629626e+17
19497.0	7.023916633554943e+17
19498.0	7.026646204110166e+17
19499.0	7.018938744089247e+17
19500.0	7.031892507361279e+17
19501.0	7.034191633274196e+17
19502.0	7.036158990439764e+17
19503.0	7.038026478430889e+17
19504.0	7.039687692648445e+17
19505.0	7.041236568025769e+17
19506.0	7.042596819959807e+17
19507.0	7.043841107776852e+17
19508.0	7.045046975769257e+17
19509.0	7.046012712867155e+17
19510.0	7.046615781081087e+17
19511.0	7.040956989702139e+17
19512.0	7.047088639923534e+17
19513.0	7.045653633608355e+17
19514.0	7.047646801821692e+17
19515.0	7.049200504143876e+17
19516.0	7.050411215159293e+17
19517.0	7.050611985306964e+17
19518.0	7.050950845923327e+17
19519.0	7.05107038638353e+17
19520.0	7.051085006329172e+17
19521.0	7.051149851667114e+17
19522.0	7.051085134954493e+17
19523.0	7.051118798438397e+17
19524.0	7.050961804241578e+17
19525.0	7.050633409811795e+17
19526.0	7.050488477035177e+17
19527.0	7.05018865000994e+17
19528.0	7.049873329225727e+17
19529.0	7.049512666617172e+17
19530.0	7.04915031789841e+17
19531.0	7.048721837588479e+17
19532.0	7.048239396159487e+17
19533.0	7.047739802823338e+17
19534.0	7.047200036443476e+17
19535.0	7.046589085734228e+17
19536.0	7.045970572694867e+17
19537.0	7.045410465338708e+17
19538.0	7.044753141006335e+17
19539.0	7.04323158313097e+17
19540.0	7.043428179946152e+17
19541.0	7.04276407062801e+17
19542.0	7.042014844900692e+17
19543.0	7.041253271142399e+17
19544.0	7.040484294437545e+17
19545.0	7.039142899395238e+17
19546.0	7.037357237381802e+17
19547.0	7.037999496473258e+17
19548.0	7.037211938302633e+17
19549.0	7.03615756996881e+17
19550.0	7.03547051151633e+17
19551.0	7.034587597941417e+17
19552.0	7.033680724404905e+17
19553.0	7.032734090963625e+17
19554.0	7.03176479150353e+17
19555.0	7.030869754292905e+17
19556.0	7.029938014126079e+17
19557.0	7.02899162325538e+17
19558.0	7.028021295491753e+17
19559.0	7.026965169744553e+17
19560.0	7.025995014646442e+17
19561.0	7.024988297800361e+17
19562.0	7.024015383549268e+17
19563.0	7.022981665871188e+17
19564.0	7.021974884013396e+17
19565.0	7.020923710341119e+17
19566.0	7.019839990267901e+17
19567.0	7.018820141055997e+17
19568.0	7.017714820317183e+17
19569.0	7.016665422932649e+17
19570.0	7.015632947467604e+17
19571.0	7.014548159944019e+17
19572.0	7.013394218134185e+17
19573.0	7.012347122024447e+17
19574.0	7.011080055641428e+17
19575.0	7.01014914245154e+17
19576.0	7.009050501141843e+17
19577.0	7.007748375969791e+17
19578.0	7.006747043211945e+17
19579.0	7.005640641041748e+17
19580.0	7.004520740902228e+17
19581.0	7.003404031229951e+17
19582.0	7.002294084872874e+17
19583.0	7.001150856713555e+17
19584.0	6.999999201498452e+17
19585.0	6.998648272803155e+17
19586.0	6.997395504802474e+17
19587.0	6.996397830875817e+17
19588.0	6.994529599793834e+17
19589.0	6.994065016313171e+17
19590.0	6.992901576501929e+17
19591.0	6.991855942107135e+17
19592.0	6.990692568006655e+17
19593.0	6.989475206223188e+17
19594.0	6.987889160923816e+17
19595.0	6.987108735866195e+17
19596.0	6.983930543254188e+17
19597.0	6.984742465437693e+17
19598.0	6.98318331331652e+17
19599.0	6.982405240564393e+17
19600.0	6.981221983365801e+17
19601.0	6.979913173172224e+17
19602.0	6.978758465901908e+17
19603.0	6.976873756797609e+17
19604.0	6.976324850330281e+17
19605.0	6.97468508508433e+17
19606.0	6.973976912505513e+17
19607.0	6.972801840491178e+17
19608.0	6.971574629782867e+17
19609.0	6.970284563234813e+17
19610.0	6.969172594524159e+17
19611.0	6.967939772536147e+17
19612.0	6.966742788778665e+17
19613.0	6.965494175236095e+17
19614.0	6.964224709711187e+17
19615.0	6.963074840570537e+17
19616.0	6.961797730227539e+17
19617.0	6.960621985726464e+17
19618.0	6.958599839066792e+17
19619.0	6.957071487817042e+17
19620.0	6.955904161284093e+17
19621.0	6.955695413570217e+17
19622.0	6.954477639346858e+17
19623.0	6.953249735879337e+17
19624.0	6.951997419465385e+17
19625.0	6.950778406524243e+17
19626.0	6.949524649366867e+17
19627.0	6.948308045354323e+17
19628.0	6.94686749696546e+17
19629.0	6.94567716327697e+17
19630.0	6.944454898352127e+17
19631.0	6.934867298222075e+17
19632.0	6.942096719435091e+17
19633.0	6.940780244150953e+17
19634.0	6.939623436233385e+17
19635.0	6.938306872868863e+17
19636.0	6.937119875749203e+17
19637.0	6.935144329904128e+17
19638.0	6.934628324955476e+17
19639.0	6.933372201511593e+17
19640.0	6.932039892729855e+17
19641.0	6.930079786117805e+17
19642.0	6.92963946668578e+17
19643.0	6.928348073339562e+17
19644.0	6.927060271016617e+17
19645.0	6.925489854393002e+17
19646.0	6.924665993822207e+17
19647.0	6.923417822079657e+17
19648.0	6.922158311036244e+17
19649.0	6.920901982770516e+17
19650.0	6.919662693165737e+17
19651.0	6.918398632001535e+17
19652.0	6.917143025156095e+17
19653.0	6.915900229812223e+17
19654.0	6.914630551076861e+17
19655.0	6.913367765680127e+17
19656.0	6.912129428881407e+17
19657.0	6.910872532287487e+17
19658.0	6.909629667737597e+17
19659.0	6.908374583782058e+17
19660.0	6.907127047476563e+17
19661.0	6.90586287865856e+17
19662.0	6.904615974993919e+17
19663.0	6.903281840291839e+17
19664.0	6.902055262224383e+17
19665.0	6.900847571107839e+17
