# Flux units: erg / (cm m2 s)
# Wavelength units: Angstrom
wave	flux
19000.0	5.7250174642858656e+17
19001.0	5.7239012236765856e+17
19002.0	5.722969349991081e+17
19003.0	5.7219403844594323e+17
19004.0	5.720916077401428e+17
19005.0	5.7198699788369914e+17
19006.0	5.7188449755245216e+17
19007.0	5.7178220183333536e+17
19008.0	5.716771097018367e+17
19009.0	5.7156757831898445e+17
19010.0	5.7146502870466554e+17
19011.0	5.713670871624361e+17
19012.0	5.7125789817460045e+17
19013.0	5.711674866663424e+17
19014.0	5.7106236496500045e+17
19015.0	5.7096092712086176e+17
19016.0	5.7086242186417485e+17
19017.0	5.7076056682659834e+17
19018.0	5.706574943922857e+17
19019.0	5.7055547836334074e+17
19020.0	5.7045262599017805e+17
19021.0	5.7035158702434976e+17
19022.0	5.702487305966932e+17
19023.0	5.701422207205375e+17
19024.0	5.700387974326954e+17
19025.0	5.699393002231124e+17
19026.0	5.6983536907496096e+17
19027.0	5.697337309528063e+17
19028.0	5.6963190240925005e+17
19029.0	5.6952874504028154e+17
19030.0	5.6942756381764256e+17
19031.0	5.6932369635300685e+17
19032.0	5.692168410759167e+17
19033.0	5.690988423719593e+17
19034.0	5.6897908534586016e+17
19035.0	5.687949166029481e+17
19036.0	5.685209786395306e+17
19037.0	5.686056569536511e+17
19038.0	5.685737527705599e+17
19039.0	5.684945815076863e+17
19040.0	5.684011264726356e+17
19041.0	5.683026905617747e+17
19042.0	5.681057589712211e+17
19043.0	5.6810347985633274e+17
19044.0	5.68001103606579e+17
19045.0	5.678980491378687e+17
19046.0	5.6779504975435085e+17
19047.0	5.676915602664106e+17
19048.0	5.6757232368353274e+17
19049.0	5.672874741683537e+17
19050.0	5.673667969854122e+17
19051.0	5.672445627334655e+17
19052.0	5.6715395003842554e+17
19053.0	5.670712255010133e+17
19054.0	5.6697848077134496e+17
19055.0	5.6683486395760646e+17
19056.0	5.667716508330666e+17
19057.0	5.6668138297972045e+17
19058.0	5.664836509062483e+17
19059.0	5.664435874037758e+17
19060.0	5.663788525857449e+17
19061.0	5.662774062830932e+17
19062.0	5.6617594334303565e+17
19063.0	5.66074347233826e+17
19064.0	5.6597037225519776e+17
19065.0	5.6586231635858765e+17
19066.0	5.6573187567124474e+17
19067.0	5.6566857055163725e+17
19068.0	5.6556881734970003e+17
19069.0	5.6546765150617574e+17
19070.0	5.653644395413503e+17
19071.0	5.6526406558242125e+17
19072.0	5.6512837348666016e+17
19073.0	5.6506269096564045e+17
19074.0	5.6496118139890336e+17
19075.0	5.64860066725888e+17
19076.0	5.6475851752297805e+17
19077.0	5.6465670240119456e+17
19078.0	5.645541063000063e+17
19079.0	5.64454746174259e+17
19080.0	5.643527557305684e+17
19081.0	5.6424848861866643e+17
19082.0	5.641509404322473e+17
19083.0	5.6404321854204576e+17
19084.0	5.639314925595306e+17
19085.0	5.6384595224603296e+17
19086.0	5.636660190511103e+17
19087.0	5.635615311091027e+17
19088.0	5.634875131778388e+17
19089.0	5.634285138608128e+17
19090.0	5.633397465197225e+17
19091.0	5.63234104864495e+17
19092.0	5.630606638230188e+17
19093.0	5.6304029872947194e+17
19094.0	5.6293974888939514e+17
19095.0	5.6283877898977274e+17
19096.0	5.6273830171115514e+17
19097.0	5.626376512077823e+17
19098.0	5.624968214391466e+17
19099.0	5.623872675468628e+17
19100.0	5.623322540070228e+17
19101.0	5.622322037784575e+17
19102.0	5.6213039445879456e+17
19103.0	5.620318248894464e+17
19104.0	5.6193180290252794e+17
19105.0	5.617427813498882e+17
19106.0	5.617287101590186e+17
19107.0	5.6160561236978323e+17
19108.0	5.614918464875179e+17
19109.0	5.6142353826228896e+17
19110.0	5.6132389935513594e+17
19111.0	5.61199083299362e+17
19112.0	5.610941146901161e+17
19113.0	5.61024524825395e+17
19114.0	5.6090556275971405e+17
19115.0	5.6081661373535565e+17
19116.0	5.6071705165387085e+17
19117.0	5.6060794878907725e+17
19118.0	5.604450100051968e+17
19119.0	5.60065172157235e+17
19120.0	5.6027229947166714e+17
19121.0	5.602078479089662e+17
19122.0	5.6011595105785165e+17
19123.0	5.600179233925802e+17
19124.0	5.599108693753855e+17
19125.0	5.59813217100322e+17
19126.0	5.5970363328866963e+17
19127.0	5.595871645270015e+17
19128.0	5.595018367249066e+17
19129.0	5.5940715898033485e+17
19130.0	5.5931714586105165e+17
19131.0	5.592203314681173e+17
19132.0	5.591213825938772e+17
19133.0	5.5901918026792954e+17
19134.0	5.5892173120689485e+17
19135.0	5.58821974020369e+17
19136.0	5.587218338938879e+17
19137.0	5.5862069552305485e+17
19138.0	5.585216322841257e+17
19139.0	5.58422783234321e+17
19140.0	5.583233760624639e+17
19141.0	5.582236109067603e+17
19142.0	5.58121663594496e+17
19143.0	5.580227707142143e+17
19144.0	5.5792099131392e+17
19145.0	5.578233693077502e+17
19146.0	5.576751302311935e+17
19147.0	5.57622667247616e+17
19148.0	5.574933361633962e+17
19149.0	5.573878204071934e+17
19150.0	5.573249525437779e+17
19151.0	5.5722455048301216e+17
19152.0	5.571235132648105e+17
19153.0	5.5695719757687443e+17
19154.0	5.5691796888070816e+17
19155.0	5.5682356509409274e+17
19156.0	5.567240916522324e+17
19157.0	5.566028697654613e+17
19158.0	5.564764634393259e+17
19159.0	5.564228068966398e+17
19160.0	5.5632172934321485e+17
19161.0	5.5622102704018765e+17
19162.0	5.561184318477652e+17
19163.0	5.560209481138175e+17
19164.0	5.559235909779455e+17
19165.0	5.55753895310131e+17
19166.0	5.557244222854485e+17
19167.0	5.556275163168768e+17
19168.0	5.55529937162513e+17
19169.0	5.554314362399402e+17
19170.0	5.5533259823513594e+17
19171.0	5.552330505540949e+17
19172.0	5.551335577485311e+17
19173.0	5.5503479013812896e+17
19174.0	5.5493484078257485e+17
19175.0	5.548359627221674e+17
19176.0	5.547368351006719e+17
19177.0	5.5462603682829645e+17
19178.0	5.5453771569124685e+17
19179.0	5.544385497617749e+17
19180.0	5.5433795273577805e+17
19181.0	5.542364312851796e+17
19182.0	5.5413747737777485e+17
19183.0	5.540407974122836e+17
19184.0	5.539417210312021e+17
19185.0	5.538413360272724e+17
19186.0	5.537422623724884e+17
19187.0	5.536371625514324e+17
19188.0	5.5354165755030176e+17
19189.0	5.534406020169726e+17
19190.0	5.5333974571308365e+17
19191.0	5.53235572134161e+17
19192.0	5.531347227508734e+17
19193.0	5.5302130415697914e+17
19194.0	5.5290964745038496e+17
19195.0	5.5281745315321165e+17
19196.0	5.5270607124343443e+17
19197.0	5.52592324235537e+17
19198.0	5.524725472864938e+17
19199.0	5.523414092262058e+17
19200.0	5.52247635284241e+17
19201.0	5.521772263418537e+17
19202.0	5.520997174913706e+17
19203.0	5.5201438297838925e+17
19204.0	5.519289159254016e+17
19205.0	5.518380217226581e+17
19206.0	5.5174594968944634e+17
19207.0	5.5164273108363936e+17
19208.0	5.5155333277941754e+17
19209.0	5.5146079014529696e+17
19210.0	5.5136548723971405e+17
19211.0	5.512700431258964e+17
19212.0	5.511723366045011e+17
19213.0	5.510676908168532e+17
19214.0	5.509748090033492e+17
19215.0	5.508779692348757e+17
19216.0	5.507789937268052e+17
19217.0	5.50677392864051e+17
19218.0	5.505739251165866e+17
19219.0	5.5046905793959245e+17
19220.0	5.503827087545684e+17
19221.0	5.5028638768168954e+17
19222.0	5.5019091910109856e+17
19223.0	5.500934067759785e+17
19224.0	5.499939425615871e+17
19225.0	5.4989914031609165e+17
19226.0	5.4980125406877005e+17
19227.0	5.4970388120425805e+17
19228.0	5.4960831734306125e+17
19229.0	5.4951029981402445e+17
19230.0	5.4941227200894285e+17
19231.0	5.493135636780372e+17
19232.0	5.492164559634431e+17
19233.0	5.4911453220918605e+17
19234.0	5.4902058560170656e+17
19235.0	5.4891982527747405e+17
19236.0	5.4882477864386554e+17
19237.0	5.487262031325866e+17
19238.0	5.4862403044638714e+17
19239.0	5.48531081454114e+17
19240.0	5.4843307685751456e+17
19241.0	5.483340913530196e+17
19242.0	5.4823650653634554e+17
19243.0	5.4812731587078816e+17
19244.0	5.480422030267732e+17
19245.0	5.479437883670526e+17
19246.0	5.4784622619962016e+17
19247.0	5.477478767613268e+17
19248.0	5.476507856841385e+17
19249.0	5.4754994091458554e+17
19250.0	5.4743924540265805e+17
19251.0	5.473366937610921e+17
19252.0	5.4723501768048634e+17
19253.0	5.47160400732706e+17
19254.0	5.470639219539967e+17
19255.0	5.469502341556905e+17
19256.0	5.4686740881517216e+17
19257.0	5.4676993144258554e+17
19258.0	5.466715569083732e+17
19259.0	5.465647993585662e+17
19260.0	5.464626587587924e+17
19261.0	5.463734630394538e+17
19262.0	5.462710453359955e+17
19263.0	5.461715508527104e+17
19264.0	5.4606971846437536e+17
19265.0	5.4597418529150285e+17
19266.0	5.4587637300374176e+17
19267.0	5.4578975992709114e+17
19268.0	5.456934947782655e+17
19269.0	5.455959600136191e+17
19270.0	5.454963050283007e+17
19271.0	5.453961212810579e+17
19272.0	5.4530218830506643e+17
19273.0	5.451941024890879e+17
19274.0	5.4507939477585894e+17
19275.0	5.4501300621366605e+17
19276.0	5.4491415457737376e+17
19277.0	5.448170617525589e+17
19278.0	5.447170953401683e+17
19279.0	5.446196306203989e+17
19280.0	5.445224325185534e+17
19281.0	5.4442463386228045e+17
19282.0	5.4432776214719136e+17
19283.0	5.44228461650466e+17
19284.0	5.4412666680115194e+17
19285.0	5.440235337591466e+17
19286.0	5.4391335470585165e+17
19287.0	5.4378461564764154e+17
19288.0	5.4355339695008403e+17
19289.0	5.4342471842966176e+17
19290.0	5.4348526768182605e+17
19291.0	5.434082079014912e+17
19292.0	5.433445644413609e+17
19293.0	5.4325333972746234e+17
19294.0	5.4315734986478925e+17
19295.0	5.4306371580286285e+17
19296.0	5.429227968353621e+17
19297.0	5.4286189721900365e+17
19298.0	5.4277144789210445e+17
19299.0	5.426268724002816e+17
19300.0	5.425784838335145e+17
19301.0	5.4248209711977805e+17
19302.0	5.423836879126526e+17
19303.0	5.4228284139547296e+17
19304.0	5.4218882152748365e+17
19305.0	5.420895571017726e+17
19306.0	5.419915478215338e+17
19307.0	5.418897008230399e+17
19308.0	5.4179108658435405e+17
19309.0	5.416902158101162e+17
19310.0	5.415869184212991e+17
19311.0	5.414796624483668e+17
19312.0	5.4135981181938336e+17
19313.0	5.41166940664627e+17
19314.0	5.3965689517506586e+17
19315.0	5.3961829101076506e+17
19316.0	5.4082217446823245e+17
19317.0	5.408748501030228e+17
19318.0	5.4080390387029325e+17
19319.0	5.4071837495132154e+17
19320.0	5.406086158876671e+17
19321.0	5.4049145870090234e+17
19322.0	5.404346852311039e+17
19323.0	5.403380042170367e+17
19324.0	5.4024121687736314e+17
19325.0	5.4014519311073274e+17
19326.0	5.4004907154691405e+17
19327.0	5.399519907457706e+17
19328.0	5.397768638737066e+17
19329.0	5.3975846493006496e+17
19330.0	5.3966120363403936e+17
19331.0	5.395609665492308e+17
19332.0	5.3946708928757754e+17
19333.0	5.393682713455274e+17
19334.0	5.392706796781568e+17
19335.0	5.3901534044706144e+17
19336.0	5.390753134717611e+17
19337.0	5.389787408804522e+17
19338.0	5.3886485546052256e+17
19339.0	5.3878042516957856e+17
19340.0	5.386740462955179e+17
19341.0	5.3851796240247475e+17
19342.0	5.384593467943594e+17
19343.0	5.38378331435827e+17
19344.0	5.382112200884224e+17
19345.0	5.381169417814016e+17
19346.0	5.380477641468586e+17
19347.0	5.379038159831038e+17
19348.0	5.3789161594115405e+17
19349.0	5.3779567424307194e+17
19350.0	5.376706133797545e+17
19351.0	5.3760176709522765e+17
19352.0	5.374236071821311e+17
19353.0	5.3740924057245e+17
19354.0	5.373112412187305e+17
19355.0	5.3720491106850125e+17
19356.0	5.3711393346901325e+17
19357.0	5.3701495083062605e+17
19358.0	5.3691520594739194e+17
19359.0	5.367977934673235e+17
19360.0	5.366529856809642e+17
19361.0	5.366173217237674e+17
19362.0	5.3651811979318605e+17
19363.0	5.364185210814464e+17
19364.0	5.363186715503273e+17
19365.0	5.362185738562218e+17
19366.0	5.3611804372937376e+17
19367.0	5.360177813389311e+17
19368.0	5.359169578205183e+17
19369.0	5.358144072974335e+17
19370.0	5.3571325781169485e+17
19371.0	5.3560834365849594e+17
19372.0	5.355104438495915e+17
19373.0	5.3540809409385805e+17
19374.0	5.3530679703852365e+17
19375.0	5.352046854493524e+17
19376.0	5.351018481756841e+17
19377.0	5.349979916861439e+17
19378.0	5.3489395651925325e+17
19379.0	5.3478981656466765e+17
19380.0	5.3468483698032634e+17
19381.0	5.34579555406097e+17
19382.0	5.344674759835647e+17
19383.0	5.343644713571668e+17
19384.0	5.342599569910442e+17
19385.0	5.3415222538403834e+17
19386.0	5.3404363639138976e+17
19387.0	5.3393232928003405e+17
19388.0	5.338168600210089e+17
19389.0	5.336910480277504e+17
19390.0	5.3352924513129805e+17
19391.0	5.332388761916756e+17
19392.0	5.3324483790547616e+17
19393.0	5.332307271483392e+17
19394.0	5.3314408960491514e+17
19395.0	5.330168975458304e+17
19396.0	5.329229413613567e+17
19397.0	5.328120896116053e+17
19398.0	5.326684381249535e+17
19399.0	5.325367819283115e+17
19400.0	5.3242637456506874e+17
19401.0	5.3233015135928314e+17
19402.0	5.3220943803187194e+17
19403.0	5.320833682986324e+17
19404.0	5.319565158383615e+17
19405.0	5.3182447292689056e+17
19406.0	5.316917527751338e+17
19407.0	5.315275415093246e+17
19408.0	5.314085519709524e+17
19409.0	5.3127471711300256e+17
19410.0	5.311384248123391e+17
19411.0	5.3099326973760845e+17
19412.0	5.3084188933707085e+17
19413.0	5.306592166324906e+17
19414.0	5.305264035069951e+17
19415.0	5.3036199517880314e+17
19416.0	5.301836332400639e+17
19417.0	5.300189067739135e+17
19418.0	5.298376341979135e+17
19419.0	5.296498389898581e+17
19420.0	5.294559148550825e+17
19421.0	5.2925405320970234e+17
19422.0	5.2903757979757216e+17
19423.0	5.2881576032556365e+17
19424.0	5.285804560962901e+17
19425.0	5.283371503932757e+17
19426.0	5.280756575589715e+17
19427.0	5.277947620840788e+17
19428.0	5.2749430416561485e+17
19429.0	5.27174107013666e+17
19430.0	5.26826774392559e+17
19431.0	5.264560685230762e+17
19432.0	5.2609200370483194e+17
19433.0	5.256908933256532e+17
19434.0	5.2523090113986554e+17
19435.0	5.247186464582313e+17
19436.0	5.241495353993897e+17
19437.0	5.2347110358166176e+17
19438.0	5.2248995059903136e+17
19439.0	5.219972542365696e+17
19440.0	5.2140945944084474e+17
19441.0	5.2056980004536314e+17
19442.0	5.196150021117269e+17
19443.0	5.184746692105556e+17
19444.0	5.171440281539923e+17
19445.0	5.156428240475477e+17
19446.0	5.1378107085837645e+17
19447.0	5.115404866639188e+17
19448.0	5.086408690281132e+17
19449.0	5.046462018049363e+17
19450.0	4.975814068142075e+17
19451.0	4.913505571788118e+17
19452.0	5.0168698814245536e+17
19453.0	5.0650729299312646e+17
19454.0	5.0964573940176186e+17
19455.0	5.1196551359365114e+17
19456.0	5.1375540059941555e+17
19457.0	5.149822413002067e+17
19458.0	5.123048668310205e+17
19459.0	5.1620435250380864e+17
19460.0	5.182833852503381e+17
19461.0	5.191645325339306e+17
19462.0	5.198622075387902e+17
19463.0	5.204517226982058e+17
19464.0	5.2093184558585165e+17
19465.0	5.2135812766105594e+17
19466.0	5.2172978927261005e+17
19467.0	5.220577039439188e+17
19468.0	5.2234114200589645e+17
19469.0	5.2252839013690003e+17
19470.0	5.227792591486975e+17
19471.0	5.2296634097554765e+17
19472.0	5.2312067675258874e+17
19473.0	5.2325178706056525e+17
19474.0	5.2330714404399763e+17
19475.0	5.234409693948585e+17
19476.0	5.235394819216724e+17
19477.0	5.236050607734783e+17
19478.0	5.236608661979135e+17
19479.0	5.2364902365047443e+17
19480.0	5.2373132687005e+17
19481.0	5.2375006583193594e+17
19482.0	5.237621222888788e+17
19483.0	5.2376523439254176e+17
19484.0	5.2376067644238496e+17
19485.0	5.23749904491042e+17
19486.0	5.236762792165377e+17
19487.0	5.2370705715909965e+17
19488.0	5.236769404485632e+17
19489.0	5.2363173619739296e+17
19490.0	5.235884818781525e+17
19491.0	5.235648022358698e+17
19492.0	5.2353134105722874e+17
19493.0	5.234845329042089e+17
19494.0	5.234299961169236e+17
19495.0	5.2336604248801274e+17
19496.0	5.232842740421972e+17
19497.0	5.2318371972819616e+17
19498.0	5.2294606368276474e+17
19499.0	5.2273846171293005e+17
19500.0	5.2296486954379936e+17
19501.0	5.2298080657080314e+17
19502.0	5.229419143277225e+17
19503.0	5.228860139023019e+17
19504.0	5.2282083966102176e+17
19505.0	5.2275046469249696e+17
19506.0	5.226789522287274e+17
19507.0	5.225982137641643e+17
19508.0	5.225088780948821e+17
19509.0	5.2238898908801696e+17
19510.0	5.220974330904575e+17
19511.0	5.2031834767578406e+17
19512.0	5.217396902068223e+17
19513.0	5.2188405780097696e+17
19514.0	5.218755876836693e+17
19515.0	5.219296403084628e+17
19516.0	5.2188298266105165e+17
19517.0	5.2182785867120634e+17
19518.0	5.2174076164177914e+17
19519.0	5.2166379448565754e+17
19520.0	5.21544114844467e+17
19521.0	5.215251723889322e+17
19522.0	5.214321019016533e+17
19523.0	5.213465090894506e+17
19524.0	5.212348842595669e+17
19525.0	5.211950376026111e+17
19526.0	5.211135684902911e+17
19527.0	5.210312113739093e+17
19528.0	5.209441994189481e+17
19529.0	5.208564357748051e+17
19530.0	5.207798660988926e+17
19531.0	5.2069433738963616e+17
19532.0	5.2060830130940576e+17
19533.0	5.2052234722781856e+17
19534.0	5.2043646528826003e+17
19535.0	5.203478565617662e+17
19536.0	5.2025871956268365e+17
19537.0	5.2017151991261856e+17
19538.0	5.200245800916309e+17
19539.0	5.199902688673791e+17
19540.0	5.199077197916841e+17
19541.0	5.198103070812842e+17
19542.0	5.1973058321885856e+17
19543.0	5.195877722008234e+17
19544.0	5.1955075921565005e+17
19545.0	5.19453544546304e+17
19546.0	5.193660168317609e+17
19547.0	5.192913740890111e+17
19548.0	5.1920884780236794e+17
19549.0	5.1911503716024314e+17
19550.0	5.1903575390945274e+17
19551.0	5.1894818040709114e+17
19552.0	5.188598953410559e+17
19553.0	5.18770995040529e+17
19554.0	5.18683148488977e+17
19555.0	5.1858675918875296e+17
19556.0	5.185017202343934e+17
19557.0	5.1841713223761914e+17
19558.0	5.183290222837759e+17
19559.0	5.182403449804115e+17
19560.0	5.181279912503977e+17
19561.0	5.180601858523135e+17
19562.0	5.1795134527133e+17
19563.0	5.1788415552716794e+17
19564.0	5.1779429452130976e+17
19565.0	5.1770552948708685e+17
19566.0	5.1761496244005536e+17
19567.0	5.175267456712703e+17
19568.0	5.1743555066702496e+17
19569.0	5.1734690195483296e+17
19570.0	5.172578214390442e+17
19571.0	5.1716855252910074e+17
19572.0	5.170768713351167e+17
19573.0	5.169820079226878e+17
19574.0	5.168901794387285e+17
19575.0	5.1681108101693434e+17
19576.0	5.1671685667662496e+17
19577.0	5.166182163633494e+17
19578.0	5.165411842654207e+17
19579.0	5.1644979317746336e+17
19580.0	5.1636047903894176e+17
19581.0	5.1627242277218976e+17
19582.0	5.161832042637993e+17
19583.0	5.160934006500009e+17
19584.0	5.1600269833666554e+17
19585.0	5.159038662038868e+17
19586.0	5.1581158403604474e+17
19587.0	5.1572956029692576e+17
19588.0	5.156353214862677e+17
19589.0	5.155478541697024e+17
19590.0	5.1545669425780045e+17
19591.0	5.1537296476514976e+17
19592.0	5.152850381722964e+17
19593.0	5.1518818812777805e+17
19594.0	5.15080411292194e+17
19595.0	5.150143888927402e+17
19596.0	5.149235139837951e+17
19597.0	5.1483253400753485e+17
19598.0	5.147253538815998e+17
19599.0	5.1465150372249594e+17
19600.0	5.1456535942922234e+17
19601.0	5.144721015264596e+17
19602.0	5.143811160276991e+17
19603.0	5.1428893515229856e+17
19604.0	5.1420003254490445e+17
19605.0	5.141013313443157e+17
19606.0	5.140266404369749e+17
19607.0	5.139387894814036e+17
19608.0	5.138483277114025e+17
19609.0	5.137576581136382e+17
19610.0	5.136426934293846e+17
19611.0	5.1353943854284794e+17
19612.0	5.1349056196881056e+17
19613.0	5.133992672799402e+17
19614.0	5.1330646970204154e+17
19615.0	5.1321750739572045e+17
19616.0	5.130968520196096e+17
19617.0	5.1298779431348896e+17
19618.0	5.1292173661197645e+17
19619.0	5.1282228505040205e+17
19620.0	5.127333410592083e+17
19621.0	5.1261126898701645e+17
19622.0	5.1258534720962534e+17
19623.0	5.124936117693098e+17
19624.0	5.1239637612844365e+17
19625.0	5.123152046019925e+17
19626.0	5.122215353079125e+17
19627.0	5.121259838199124e+17
19628.0	5.1202531164596896e+17
19629.0	5.117758581418665e+17
19630.0	5.118061817014954e+17
19631.0	5.1169754300634445e+17
19632.0	5.1164461088986445e+17
19633.0	5.1157080078636365e+17
19634.0	5.1149778333641376e+17
19635.0	5.114069080779433e+17
19636.0	5.1126556192058003e+17
19637.0	5.11154681090321e+17
19638.0	5.111519538839551e+17
19639.0	5.110649884857685e+17
19640.0	5.109544981452117e+17
19641.0	5.1084838595898016e+17
19642.0	5.107910927450111e+17
19643.0	5.1070632642041165e+17
19644.0	5.106198080651262e+17
19645.0	5.105322503613098e+17
19646.0	5.1037721280730426e+17
19647.0	5.1035757878094496e+17
19648.0	5.102705926209535e+17
19649.0	5.1018186505584634e+17
19650.0	5.1009339851625805e+17
19651.0	5.1000391674538656e+17
19652.0	5.0991486754706765e+17
19653.0	5.09826140471296e+17
19654.0	5.0973673328913056e+17
