# Flux units: erg / (cm m2 s)
# Wavelength units: Angstrom
wave	flux
19000.0	6.647476615730516e+17
19001.0	6.646208414788266e+17
19002.0	6.64497466516002e+17
19003.0	6.643723446255615e+17
19004.0	6.642472153251837e+17
19005.0	6.641221946572799e+17
19006.0	6.639971205119999e+17
19007.0	6.638715317955242e+17
19008.0	6.637458580744874e+17
19009.0	6.636215638600362e+17
19010.0	6.634882883824298e+17
19011.0	6.633713897745066e+17
19012.0	6.632449386392234e+17
19013.0	6.631218706295465e+17
19014.0	6.629956022960127e+17
19015.0	6.628710836163924e+17
19016.0	6.627459183848106e+17
19017.0	6.626200176121172e+17
19018.0	6.624966273400831e+17
19019.0	6.623720567909034e+17
19020.0	6.622459625908906e+17
19021.0	6.621216851536554e+17
19022.0	6.619973523516073e+17
19023.0	6.618716827549695e+17
19024.0	6.617470587983188e+17
19025.0	6.616226646895273e+17
19026.0	6.614973212000255e+17
19027.0	6.613723791054164e+17
19028.0	6.612482664344233e+17
19029.0	6.611234591167827e+17
19030.0	6.609986828369919e+17
19031.0	6.608739163439101e+17
19032.0	6.607491622939305e+17
19033.0	6.606228729189716e+17
19034.0	6.604996817365673e+17
19035.0	6.603743590088703e+17
19036.0	6.601979288966483e+17
19037.0	6.60125624897809e+17
19038.0	6.60000534115123e+17
19039.0	6.598763316860244e+17
19040.0	6.597517074497535e+17
19041.0	6.596270967750655e+17
19042.0	6.595010925428736e+17
19043.0	6.593779323284137e+17
19044.0	6.592533326987264e+17
19045.0	6.591288324740436e+17
19046.0	6.590034537523882e+17
19047.0	6.588797777783465e+17
19048.0	6.587516698929833e+17
19049.0	6.586297346250067e+17
19050.0	6.585056580949332e+17
19051.0	6.583730675471699e+17
19052.0	6.582571136363178e+17
19053.0	6.581331175669759e+17
19054.0	6.580087578514772e+17
19055.0	6.578799774793727e+17
19056.0	6.577596618418857e+17
19057.0	6.576355692336468e+17
19058.0	6.575112023878314e+17
19059.0	6.573871347357012e+17
19060.0	6.572624312270847e+17
19061.0	6.571386146040489e+17
19062.0	6.570143066882045e+17
19063.0	6.56890144104994e+17
19064.0	6.567639890176682e+17
19065.0	6.566386516099071e+17
19066.0	6.565165398316371e+17
19067.0	6.563935162116778e+17
19068.0	6.562693889305257e+17
19069.0	6.561453218376361e+17
19070.0	6.560210722925225e+17
19071.0	6.558971924054015e+17
19072.0	6.55773155861026e+17
19073.0	6.556490478037673e+17
19074.0	6.555251475742719e+17
19075.0	6.554011775096148e+17
19076.0	6.552768184232618e+17
19077.0	6.551531305653588e+17
19078.0	6.550286501937151e+17
19079.0	6.549054742506154e+17
19080.0	6.547815620673535e+17
19081.0	6.546569483867476e+17
19082.0	6.545328274669565e+17
19083.0	6.544081570933417e+17
19084.0	6.542820652701012e+17
19085.0	6.541625389307219e+17
19086.0	6.540320723085993e+17
19087.0	6.539135372230655e+17
19088.0	6.537902067198633e+17
19089.0	6.53663769146163e+17
19090.0	6.535435846505811e+17
19091.0	6.534199343316992e+17
19092.0	6.532954516531882e+17
19093.0	6.531731034559827e+17
19094.0	6.530488887934975e+17
19095.0	6.529251539593897e+17
19096.0	6.528020266702163e+17
19097.0	6.526788663858516e+17
19098.0	6.525553932064084e+17
19099.0	6.524318598387027e+17
19100.0	6.523084422337876e+17
19101.0	6.521850130246314e+17
19102.0	6.520600283578365e+17
19103.0	6.519381965493588e+17
19104.0	6.518148227749203e+17
19105.0	6.516914643096916e+17
19106.0	6.515678474054314e+17
19107.0	6.514445594045098e+17
19108.0	6.513215215938217e+17
19109.0	6.511931109496147e+17
19110.0	6.510749769793535e+17
19111.0	6.509517746121385e+17
19112.0	6.508285672117588e+17
19113.0	6.507053798741332e+17
19114.0	6.505822116205908e+17
19115.0	6.504586222589268e+17
19116.0	6.503355379613695e+17
19117.0	6.502125889301161e+17
19118.0	6.500881351223978e+17
19119.0	6.499169548806825e+17
19120.0	6.498432240495274e+17
19121.0	6.49720343175714e+17
19122.0	6.495976313323519e+17
19123.0	6.494744872659626e+17
19124.0	6.493516676289876e+17
19125.0	6.492287160112467e+17
19126.0	6.491056400323923e+17
19127.0	6.489540399901353e+17
19128.0	6.488576798403242e+17
19129.0	6.487355943463593e+17
19130.0	6.486143473636694e+17
19131.0	6.484915164719785e+17
19132.0	6.483686922911743e+17
19133.0	6.482374586706602e+17
19134.0	6.48122266095889e+17
19135.0	6.480004968524457e+17
19136.0	6.47877804302882e+17
19137.0	6.477523394581843e+17
19138.0	6.476318167618902e+17
19139.0	6.475097788732756e+17
19140.0	6.473871583259305e+17
19141.0	6.472645501517824e+17
19142.0	6.471415257628671e+17
19143.0	6.470183960969215e+17
19144.0	6.468967858175999e+17
19145.0	6.467743055697236e+17
19146.0	6.466418885962409e+17
19147.0	6.46527819186176e+17
19148.0	6.464067992551423e+17
19149.0	6.462843548685651e+17
19150.0	6.461617546635946e+17
19151.0	6.460395295692116e+17
19152.0	6.459168721119914e+17
19153.0	6.457943622942719e+17
19154.0	6.456702108958719e+17
19155.0	6.455500581371901e+17
19156.0	6.454276989648895e+17
19157.0	6.453053766325588e+17
19158.0	6.451795452755965e+17
19159.0	6.450605395192489e+17
19160.0	6.449383258193919e+17
19161.0	6.448164099151188e+17
19162.0	6.446861561539241e+17
19163.0	6.445720025781588e+17
19164.0	6.444498681506474e+17
19165.0	6.443275498029055e+17
19166.0	6.442036739702783e+17
19167.0	6.440827148566527e+17
19168.0	6.439591737294847e+17
19169.0	6.438380740367699e+17
19170.0	6.437171953139711e+17
19171.0	6.435947261110953e+17
19172.0	6.434731449122815e+17
19173.0	6.433511206551551e+17
19174.0	6.432281791037439e+17
19175.0	6.431071654641664e+17
19176.0	6.429852027934036e+17
19177.0	6.428606847429289e+17
19178.0	6.427412265609898e+17
19179.0	6.426187636495699e+17
19180.0	6.424966960513023e+17
19181.0	6.423737754015059e+17
19182.0	6.422525524661588e+17
19183.0	6.421318217323859e+17
19184.0	6.42008142123281e+17
19185.0	6.418880924046676e+17
19186.0	6.417664008257536e+17
19187.0	6.416435232374783e+17
19188.0	6.415228887629823e+17
19189.0	6.414012703047679e+17
19190.0	6.412794994535082e+17
19191.0	6.41157687288354e+17
19192.0	6.410360256987133e+17
19193.0	6.409138715579731e+17
19194.0	6.407924853942953e+17
19195.0	6.4067095494656e+17
19196.0	6.405491141902335e+17
19197.0	6.404274611290111e+17
19198.0	6.403059408175104e+17
19199.0	6.401353005924351e+17
19200.0	6.40031804882944e+17
19201.0	6.399411116572671e+17
19202.0	6.398195739394047e+17
19203.0	6.396980011991039e+17
19204.0	6.395759874277376e+17
19205.0	6.394548729151488e+17
19206.0	6.393331168837631e+17
19207.0	6.392106794876927e+17
19208.0	6.390864519626751e+17
19209.0	6.389687360946176e+17
19210.0	6.388472000544765e+17
19211.0	6.387256231198719e+17
19212.0	6.386042194100223e+17
19213.0	6.384810660462591e+17
19214.0	6.383581166654804e+17
19215.0	6.382312556767914e+17
19216.0	6.381094848954367e+17
19217.0	6.379884924370944e+17
19218.0	6.378531537813503e+17
19219.0	6.377428375044095e+17
19220.0	6.376237624721407e+17
19221.0	6.374971802648575e+17
19222.0	6.373813470101503e+17
19223.0	6.372598611618474e+17
19224.0	6.371372613763071e+17
19225.0	6.37014430065186e+17
19226.0	6.368953400732329e+17
19227.0	6.367738637320191e+17
19228.0	6.36652886303266e+17
19229.0	6.365314752533844e+17
19230.0	6.364099811562836e+17
19231.0	6.362886772708691e+17
19232.0	6.361665216621225e+17
19233.0	6.360445796133544e+17
19234.0	6.359239875013289e+17
19235.0	6.358026283909119e+17
19236.0	6.356816157999103e+17
19237.0	6.355599268773887e+17
19238.0	6.35437209162001e+17
19239.0	6.353174012450132e+17
19240.0	6.351916657278976e+17
19241.0	6.350730124328959e+17
19242.0	6.34952604660531e+17
19243.0	6.348285528768511e+17
19244.0	6.347101397057535e+17
19245.0	6.345887290753023e+17
19246.0	6.344669931765759e+17
19247.0	6.343457029226495e+17
19248.0	6.342242996322304e+17
19249.0	6.341027717709823e+17
19250.0	6.339811669442559e+17
19251.0	6.338583052943359e+17
19252.0	6.337322972872703e+17
19253.0	6.336164533370879e+17
19254.0	6.334944111143594e+17
19255.0	6.33369794847266e+17
19256.0	6.332516038344703e+17
19257.0	6.331302231932927e+17
19258.0	6.330085153964031e+17
19259.0	6.328854881413802e+17
19260.0	6.327644202554708e+17
19261.0	6.326434683420671e+17
19262.0	6.325208366798163e+17
19263.0	6.323990777823231e+17
19264.0	6.322694791015082e+17
19265.0	6.321530082426879e+17
19266.0	6.320318226366464e+17
19267.0	6.319125666201599e+17
19268.0	6.317906403000319e+17
19269.0	6.316686785380352e+17
19270.0	6.315466677026815e+17
19271.0	6.314191442236756e+17
19272.0	6.31301965156625e+17
19273.0	6.31065324971622e+17
19274.0	6.310028992577533e+17
19275.0	6.309360949002239e+17
19276.0	6.30813509235507e+17
19277.0	6.306915700528468e+17
19278.0	6.305690608642729e+17
19279.0	6.304217562087423e+17
19280.0	6.302981518174889e+17
19281.0	6.301769765573972e+17
19282.0	6.300544501022719e+17
19283.0	6.299310942934356e+17
19284.0	6.298079339391657e+17
19285.0	6.296829343825919e+17
19286.0	6.295630774621524e+17
19287.0	6.29440741638144e+17
19288.0	6.293061217462953e+17
19289.0	6.291572559009108e+17
19290.0	6.290716797960191e+17
19291.0	6.289439125580457e+17
19292.0	6.288252306019667e+17
19293.0	6.287017307886934e+17
19294.0	6.285784362866004e+17
19295.0	6.284548974662995e+17
19296.0	6.283312643440639e+17
19297.0	6.282074965846698e+17
19298.0	6.28083363291682e+17
19299.0	6.279597416338771e+17
19300.0	6.278356653135188e+17
19301.0	6.277113503372628e+17
19302.0	6.275870538159444e+17
19303.0	6.274610424534356e+17
19304.0	6.273371448803327e+17
19305.0	6.272131507683327e+17
19306.0	6.27088718770995e+17
19307.0	6.269626880447827e+17
19308.0	6.268380228441428e+17
19309.0	6.26703495995938e+17
19310.0	6.265770872231252e+17
19311.0	6.264533442800297e+17
19312.0	6.263263390072832e+17
19313.0	6.261971970162687e+17
19314.0	6.26045785158451e+17
19315.0	6.259218801754112e+17
19316.0	6.258195985072127e+17
19317.0	6.256930214729043e+17
19318.0	6.255657626544809e+17
19319.0	6.25438996177442e+17
19320.0	6.253112650104831e+17
19321.0	6.251840522594985e+17
19322.0	6.250539745891668e+17
19323.0	6.24927340372514e+17
19324.0	6.247997746009428e+17
19325.0	6.246698182159018e+17
19326.0	6.245422353874943e+17
19327.0	6.244127506519379e+17
19328.0	6.242835275710463e+17
19329.0	6.241536991122772e+17
19330.0	6.240228157860522e+17
19331.0	6.238922721984511e+17
19332.0	6.237621585270099e+17
19333.0	6.236309472062121e+17
19334.0	6.234988530543273e+17
19335.0	6.233673191915519e+17
19336.0	6.232348334314836e+17
19337.0	6.231018745539242e+17
19338.0	6.229344162676735e+17
19339.0	6.227910485955924e+17
19340.0	6.22655812210961e+17
19341.0	6.225220099287721e+17
19342.0	6.223801241741993e+17
19343.0	6.222511533107881e+17
19344.0	6.221148389900288e+17
19345.0	6.219411364336979e+17
19346.0	6.218313014531412e+17
19347.0	6.217009410168148e+17
19348.0	6.215633078670676e+17
19349.0	6.214232889273001e+17
19350.0	6.212829883400191e+17
19351.0	6.211418629428564e+17
19352.0	6.209992473094825e+17
19353.0	6.208413328124585e+17
19354.0	6.206814652377769e+17
19355.0	6.205307058039465e+17
19356.0	6.20386801680384e+17
19357.0	6.202404734588244e+17
19358.0	6.200888790788778e+17
19359.0	6.198978856441172e+17
19360.0	6.197537939652607e+17
19361.0	6.196029277164884e+17
19362.0	6.194519104028671e+17
19363.0	6.192986709469866e+17
19364.0	6.191383539526314e+17
19365.0	6.189799595573247e+17
19366.0	6.188225982190932e+17
19367.0	6.186636806542675e+17
19368.0	6.185031289886036e+17
19369.0	6.183388064339283e+17
19370.0	6.181313666438484e+17
19371.0	6.179588561087145e+17
19372.0	6.177918680039423e+17
19373.0	6.176214831420756e+17
19374.0	6.174495804314964e+17
19375.0	6.172749782668627e+17
19376.0	6.170980293192362e+17
19377.0	6.169106284456617e+17
19378.0	6.166740306930345e+17
19379.0	6.164889280883369e+17
19380.0	6.163008331972608e+17
19381.0	6.161095674123604e+17
19382.0	6.159133844351657e+17
19383.0	6.15663131496721e+17
19384.0	6.154404424755881e+17
19385.0	6.152345844274516e+17
19386.0	6.150247192111786e+17
19387.0	6.147641823985663e+17
19388.0	6.144863213628074e+17
19389.0	6.142410419601407e+17
19390.0	6.139948962239827e+17
19391.0	6.136282887487485e+17
19392.0	6.134338650024618e+17
19393.0	6.131632596931924e+17
19394.0	6.128746255876095e+17
19395.0	6.126148782129151e+17
19396.0	6.123474326126591e+17
19397.0	6.120698551817556e+17
19398.0	6.117831610116777e+17
19399.0	6.114530889302015e+17
19400.0	6.111318159392767e+17
19401.0	6.108200703098879e+17
19402.0	6.104967194607615e+17
19403.0	6.101615126424234e+17
19404.0	6.098146848757076e+17
19405.0	6.094148071325696e+17
19406.0	6.090042619461632e+17
19407.0	6.086144819899049e+17
19408.0	6.081965418960212e+17
19409.0	6.077206093277866e+17
19410.0	6.072457384077993e+17
19411.0	6.067830412454569e+17
19412.0	6.061970764944724e+17
19413.0	6.056538095484927e+17
19414.0	6.050207578630825e+17
19415.0	6.044110968324096e+17
19416.0	6.03658511118063e+17
19417.0	6.02943327690206e+17
19418.0	6.021228743622657e+17
19419.0	6.01206767904358e+17
19420.0	6.0017661748183e+17
19421.0	5.990218602293932e+17
19422.0	5.978547636841132e+17
19423.0	5.968664870955689e+17
19424.0	5.958764454739968e+17
19425.0	5.948616919220223e+17
19426.0	5.937820615049215e+17
19427.0	5.925906975555584e+17
19428.0	5.913320932507647e+17
19429.0	5.899813235195903e+17
19430.0	5.885175977563478e+17
19431.0	5.868956396377427e+17
19432.0	5.851310833620305e+17
19433.0	5.831134713741312e+17
19434.0	5.808287665269418e+17
19435.0	5.780746867660114e+17
19436.0	5.7473939712682675e+17
19437.0	5.711455642976253e+17
19438.0	5.681854345991508e+17
19439.0	5.650523863995735e+17
19440.0	5.615017596551166e+17
19441.0	5.574557637978791e+17
19442.0	5.5268917721606816e+17
19443.0	5.466797776743087e+17
19444.0	5.393929978161831e+17
19445.0	5.325435292352514e+17
19446.0	5.2430155347394554e+17
19447.0	5.135681328250872e+17
19448.0	5.011533021052935e+17
19449.0	4.8395482216529926e+17
19450.0	4.533418450747381e+17
19451.0	4.4407931769541875e+17
19452.0	4.697960301111983e+17
19453.0	4.934884871110662e+17
19454.0	5.072344746470051e+17
19455.0	5.187262552386216e+17
19456.0	5.278549527931565e+17
19457.0	5.350330371932156e+17
19458.0	5.417377625101655e+17
19459.0	5.4843661873752774e+17
19460.0	5.534929226738344e+17
19461.0	5.576227061148329e+17
19462.0	5.611888352864939e+17
19463.0	5.643334053789693e+17
19464.0	5.6711249255901856e+17
19465.0	5.700438428308813e+17
19466.0	5.734625114587133e+17
19467.0	5.762465917479591e+17
19468.0	5.78518042734319e+17
19469.0	5.803919788386984e+17
19470.0	5.820715053875199e+17
19471.0	5.835341578982739e+17
19472.0	5.84809443369506e+17
19473.0	5.860235440117076e+17
19474.0	5.870627644069204e+17
19475.0	5.880817174358698e+17
19476.0	5.889775932975786e+17
19477.0	5.897943513737898e+17
19478.0	5.905574069796863e+17
19479.0	5.912956499918848e+17
19480.0	5.921534992449539e+17
19481.0	5.931177328246785e+17
19482.0	5.939505289407146e+17
19483.0	5.946678093108566e+17
19484.0	5.95287952536371e+17
19485.0	5.95877451338001e+17
19486.0	5.963400179176788e+17
19487.0	5.967648947612329e+17
19488.0	5.971927002076499e+17
19489.0	5.975148528140287e+17
19490.0	5.978358083660457e+17
19491.0	5.981503650179753e+17
19492.0	5.983720337746601e+17
19493.0	5.986403596195156e+17
19494.0	5.988499777912831e+17
19495.0	5.990156268645033e+17
19496.0	5.991609641817428e+17
19497.0	5.993551749272916e+17
19498.0	5.994962438411604e+17
19499.0	5.995298405657257e+17
19500.0	5.997056014068393e+17
19501.0	5.99792490189073e+17
19502.0	5.998688602860201e+17
19503.0	5.999661341649578e+17
19504.0	6.000460320909994e+17
19505.0	6.000950016387753e+17
19506.0	6.001377917883732e+17
19507.0	6.001727775965183e+17
19508.0	6.001990865081684e+17
19509.0	6.002609733937834e+17
19510.0	6.002849175568383e+17
19511.0	6.002303461665449e+17
19512.0	6.00372977808179e+17
19513.0	6.00363619197474e+17
19514.0	6.00367310184994e+17
19515.0	6.004169190146048e+17
19516.0	6.004686159784618e+17
19517.0	6.0044536198813e+17
19518.0	6.004202116131497e+17
19519.0	6.003901618716671e+17
19520.0	6.004229065932799e+17
19521.0	6.003893825000788e+17
19522.0	6.003487599667882e+17
19523.0	6.003060084047871e+17
19524.0	6.002599340452522e+17
19525.0	6.00214658490914e+17
19526.0	6.002174071581354e+17
19527.0	6.001635985020244e+17
19528.0	6.001075333103615e+17
19529.0	6.000491652360873e+17
19530.0	5.999886943475027e+17
19531.0	5.999262286479359e+17
19532.0	5.998618720862208e+17
19533.0	5.997957212012544e+17
19534.0	5.997609030254591e+17
19535.0	5.997052074917887e+17
19536.0	5.996334114231636e+17
19537.0	5.995615463582377e+17
19538.0	5.994870423770452e+17
19539.0	5.994023054125737e+17
19540.0	5.993350899433472e+17
19541.0	5.992631964969641e+17
19542.0	5.991863946663254e+17
19543.0	5.991063340711935e+17
19544.0	5.990251993148074e+17
19545.0	5.989373977821183e+17
19546.0	5.988434394305876e+17
19547.0	5.987810173517823e+17
19548.0	5.987278396588031e+17
19549.0	5.986402514763775e+17
19550.0	5.985554153865215e+17
19551.0	5.984680163672063e+17
19552.0	5.983798258827263e+17
19553.0	5.982970936557567e+17
19554.0	5.982134612612438e+17
19555.0	5.981239648103082e+17
19556.0	5.980331382057642e+17
19557.0	5.979416332424534e+17
19558.0	5.978496515964927e+17
19559.0	5.977567274205181e+17
19560.0	5.9766349510301e+17
19561.0	5.975700918676137e+17
19562.0	5.974793342593706e+17
19563.0	5.974028669244756e+17
19564.0	5.973078651699199e+17
19565.0	5.972123549958143e+17
19566.0	5.971160802699945e+17
19567.0	5.970200016278868e+17
19568.0	5.969228443506003e+17
19569.0	5.968261058046633e+17
19570.0	5.967287769104383e+17
19571.0	5.966309385480874e+17
19572.0	5.965322321745238e+17
19573.0	5.964340796588031e+17
19574.0	5.963337666570922e+17
19575.0	5.962399444107263e+17
19576.0	5.961475490665811e+17
19577.0	5.960703326988969e+17
19578.0	5.959755494675795e+17
19579.0	5.958756269555711e+17
19580.0	5.957753419158867e+17
19581.0	5.956747420237823e+17
19582.0	5.955741855427242e+17
19583.0	5.954730972938237e+17
19584.0	5.953717887041535e+17
19585.0	5.952683334696959e+17
19586.0	5.951660492849152e+17
19587.0	5.950661096461652e+17
19588.0	5.949563775658665e+17
19589.0	5.948619089073492e+17
19590.0	5.947585396561238e+17
19591.0	5.946573065639252e+17
19592.0	5.945545206704809e+17
19593.0	5.94451264176128e+17
19594.0	5.943443385046356e+17
19595.0	5.942450173160105e+17
19596.0	5.941324312215551e+17
19597.0	5.940382633645398e+17
19598.0	5.939300810096637e+17
19599.0	5.938312775379625e+17
19600.0	5.937274369168726e+17
19601.0	5.936223145164799e+17
19602.0	5.935187129008127e+17
19603.0	5.934079295881215e+17
19604.0	5.933101718263124e+17
19605.0	5.932013526362793e+17
19606.0	5.931019421089791e+17
19607.0	5.929975500767231e+17
19608.0	5.928928176067924e+17
19609.0	5.927873574251178e+17
19610.0	5.92683339874304e+17
19611.0	5.925783214227455e+17
19612.0	5.924734401249279e+17
19613.0	5.923683314958333e+17
19614.0	5.922625199013887e+17
19615.0	5.921580553076735e+17
19616.0	5.920523940790271e+17
19617.0	5.919474578358271e+17
19618.0	5.918336871301119e+17
19619.0	5.917247760848211e+17
19620.0	5.916202619284137e+17
19621.0	5.915255515381759e+17
19622.0	5.914199351186771e+17
19623.0	5.91314266619904e+17
19624.0	5.912085490477738e+17
19625.0	5.911027742932991e+17
19626.0	5.90996975002146e+17
19627.0	5.908911224433321e+17
19628.0	5.907841459508563e+17
19629.0	5.906777998622719e+17
19630.0	5.905727183563434e+17
19631.0	5.904155058459988e+17
19632.0	5.903612293152768e+17
19633.0	5.902547871771306e+17
19634.0	5.901490547152212e+17
19635.0	5.900422000672768e+17
19636.0	5.899367509306025e+17
19637.0	5.898237340112211e+17
19638.0	5.897241743065087e+17
19639.0	5.89617853174033e+17
19640.0	5.895106692732244e+17
19641.0	5.893944164483071e+17
19642.0	5.892991456291498e+17
19643.0	5.891925268409001e+17
19644.0	5.890853611154089e+17
19645.0	5.889755338943145e+17
19646.0	5.888736283153748e+17
19647.0	5.887672056807423e+17
19648.0	5.886607648008874e+17
19649.0	5.885542607967572e+17
19650.0	5.884478348066815e+17
19651.0	5.88341350306065e+17
19652.0	5.882348504962388e+17
19653.0	5.881283066462205e+17
19654.0	5.880218206775978e+17
19655.0	5.879152209734314e+17
19656.0	5.878086198012586e+17
19657.0	5.877021901761193e+17
19658.0	5.875956391957844e+17
19659.0	5.874890452238336e+17
19660.0	5.873891862555306e+17
19661.0	5.872840256869716e+17
19662.0	5.871774386356223e+17
19663.0	5.870701393914537e+17
19664.0	5.869640543982934e+17
19665.0	5.868576548323327e+17
