# Flux units: erg / (cm m2 s)
# Wavelength units: Angstrom
wave	flux
19000.0	8.802181682211497e+17
19001.0	8.800427038474237e+17
19002.0	8.799164716548095e+17
19003.0	8.797638065389565e+17
19004.0	8.796117508554752e+17
19005.0	8.794602317632851e+17
19006.0	8.793083712547497e+17
19007.0	8.791131603774124e+17
19008.0	8.789878781946536e+17
19009.0	8.78831297696017e+17
19010.0	8.785941444777298e+17
19011.0	8.785338491207679e+17
19012.0	8.78311073137732e+17
19013.0	8.782335261889875e+17
19014.0	8.780628800918868e+17
19015.0	8.779161385915732e+17
19016.0	8.777606214888105e+17
19017.0	8.776018494663336e+17
19018.0	8.774550215633574e+17
19019.0	8.773904850660013e+17
19020.0	8.773142858869417e+17
19021.0	8.77165320147217e+17
19022.0	8.770113153706665e+17
19023.0	8.768440888896169e+17
19024.0	8.766938887662249e+17
19025.0	8.765337253533012e+17
19026.0	8.763730295433898e+17
19027.0	8.761769711370236e+17
19028.0	8.760839372799999e+17
19029.0	8.759228456676009e+17
19030.0	8.757718661027156e+17
19031.0	8.756153984308566e+17
19032.0	8.754569860000425e+17
19033.0	8.752754944114688e+17
19034.0	8.751327530188797e+17
19035.0	8.749553747842387e+17
19036.0	8.707105698261665e+17
19037.0	8.746483590015658e+17
19038.0	8.744953809906345e+17
19039.0	8.743429343980201e+17
19040.0	8.741851444019199e+17
19041.0	8.740232175637846e+17
19042.0	8.738422699764394e+17
19043.0	8.737060515654314e+17
19044.0	8.735420867149824e+17
19045.0	8.733824818435412e+17
19046.0	8.73209983541794e+17
19047.0	8.730592662607188e+17
19048.0	8.728540293190995e+17
19049.0	8.727226551894016e+17
19050.0	8.725653406875648e+17
19051.0	8.717356079513588e+17
19052.0	8.721278918372009e+17
19053.0	8.720837460885501e+17
19054.0	8.719334949344595e+17
19055.0	8.7170811428864e+17
19056.0	8.71603678495812e+17
19057.0	8.71445478856021e+17
19058.0	8.712719677696681e+17
19059.0	8.711227516299945e+17
19060.0	8.709559600982696e+17
19061.0	8.707992147634858e+17
19062.0	8.706353275076607e+17
19063.0	8.704726847018323e+17
19064.0	8.702775382769663e+17
19065.0	8.700991778761385e+17
19066.0	8.699664083014995e+17
19067.0	8.69816190841651e+17
19068.0	8.696563494114643e+17
19069.0	8.694929793133226e+17
19070.0	8.693214859668137e+17
19071.0	8.691610664217256e+17
19072.0	8.690003641805482e+17
19073.0	8.688345005686781e+17
19074.0	8.686726072849748e+17
19075.0	8.685081164688041e+17
19076.0	8.683385580945408e+17
19077.0	8.681760036487165e+17
19078.0	8.680023196172285e+17
19079.0	8.678478011782484e+17
19080.0	8.676791410840915e+17
19081.0	8.675069649048915e+17
19082.0	8.673412458566995e+17
19083.0	8.671520753363625e+17
19084.0	8.669532931489792e+17
19085.0	8.668493473906688e+17
19086.0	8.665710904126122e+17
19087.0	8.664176991229268e+17
19088.0	8.663051666456575e+17
19089.0	8.660816379248639e+17
19090.0	8.660040042938367e+17
19091.0	8.65845602348783e+17
19092.0	8.656525234361683e+17
19093.0	8.655227814499667e+17
19094.0	8.653577270591488e+17
19095.0	8.651912573703507e+17
19096.0	8.650233842674345e+17
19097.0	8.648601123160061e+17
19098.0	8.646927386148861e+17
19099.0	8.645252516675583e+17
19100.0	8.643519170215933e+17
19101.0	8.641894025614676e+17
19102.0	8.640046662593194e+17
19103.0	8.638551751131136e+17
19104.0	8.63689006854963e+17
19105.0	8.635181061636095e+17
19106.0	8.633320141225981e+17
19107.0	8.631755214247251e+17
19108.0	8.630056048569004e+17
19109.0	8.624175714052772e+17
19110.0	8.62633502703616e+17
19111.0	8.625065383253331e+17
19112.0	8.623427778772991e+17
19113.0	8.621752829607935e+17
19114.0	8.620052085473276e+17
19115.0	8.618176992509952e+17
19116.0	8.616622179396266e+17
19117.0	8.614905302570323e+17
19118.0	8.612929827329362e+17
19119.0	8.606962526715896e+17
19120.0	8.6094900129082e+17
19121.0	8.607945225579178e+17
19122.0	8.606530987360253e+17
19123.0	8.604823479211348e+17
19124.0	8.602855320234666e+17
19125.0	8.601399926106792e+17
19126.0	8.59963080642833e+17
19127.0	8.594003247235071e+17
19128.0	8.593553426306385e+17
19129.0	8.594246733572777e+17
19130.0	8.592725326692352e+17
19131.0	8.590971615488681e+17
19132.0	8.589337559389524e+17
19133.0	8.586657464844285e+17
19134.0	8.584721804733102e+17
19135.0	8.584204544988502e+17
19136.0	8.582513401615698e+17
19137.0	8.580420381005139e+17
19138.0	8.577506585433428e+17
19139.0	8.575684606339753e+17
19140.0	8.573983186922153e+17
19141.0	8.572267188103849e+17
19142.0	8.570467852659369e+17
19143.0	8.568696185640275e+17
19144.0	8.566994991316991e+17
19145.0	8.565345529539241e+17
19146.0	8.562117629531476e+17
19147.0	8.561710046642175e+17
19148.0	8.56016480772642e+17
19149.0	8.558421517970089e+17
19150.0	8.556705625407485e+17
19151.0	8.554972579539628e+17
19152.0	8.553187830486356e+17
19153.0	8.551460920885245e+17
19154.0	8.549466878858579e+17
19155.0	8.547990047642962e+17
19156.0	8.546205018969428e+17
19157.0	8.544132673481386e+17
19158.0	8.540318177689597e+17
19159.0	8.540750729270612e+17
19160.0	8.539115665140392e+17
19161.0	8.537109665153021e+17
19162.0	8.529124076639576e+17
19163.0	8.533370584345256e+17
19164.0	8.532228718635689e+17
19165.0	8.530422051547817e+17
19166.0	8.52844508033843e+17
19167.0	8.526386808138408e+17
19168.0	8.525055266215254e+17
19169.0	8.523352173270358e+17
19170.0	8.521722108750505e+17
19171.0	8.519733448015872e+17
19172.0	8.518154558199123e+17
19173.0	8.516446532752724e+17
19174.0	8.514570621900114e+17
19175.0	8.512937593405439e+17
19176.0	8.511142222976339e+17
19177.0	8.508989191662249e+17
19178.0	8.507397654620841e+17
19179.0	8.505441133439656e+17
19180.0	8.503850301041321e+17
19181.0	8.502019804714323e+17
19182.0	8.500378500857855e+17
19183.0	8.498669626763944e+17
19184.0	8.496730145641812e+17
19185.0	8.495071818503507e+17
19186.0	8.491964376110419e+17
19187.0	8.489188543780178e+17
19188.0	8.487582253973501e+17
19189.0	8.485691565189798e+17
19190.0	8.483841229804883e+17
19191.0	8.482024611031722e+17
19192.0	8.480310006120445e+17
19193.0	8.478313908884819e+17
19194.0	8.47652286697745e+17
19195.0	8.474749004939263e+17
19196.0	8.472758003782996e+17
19197.0	8.470607319881043e+17
19198.0	8.467352028271955e+17
19199.0	8.428862260816545e+17
19200.0	8.435840731228851e+17
19201.0	8.462093194537641e+17
19202.0	8.461529064843948e+17
19203.0	8.459935034987859e+17
19204.0	8.458252895387647e+17
19205.0	8.456519323833684e+17
19206.0	8.454695202848767e+17
19207.0	8.452672762587817e+17
19208.0	8.450659499464019e+17
19209.0	8.449176197835433e+17
19210.0	8.447353400852479e+17
19211.0	8.44552804254788e+17
19212.0	8.442543810630999e+17
19213.0	8.438709762392063e+17
19214.0	8.436597871607808e+17
19215.0	8.435275031467348e+17
19216.0	8.433550112762537e+17
19217.0	8.431672206819328e+17
19218.0	8.427930238932305e+17
19219.0	8.427476357917353e+17
19220.0	8.425949657825279e+17
19221.0	8.42337162747358e+17
19222.0	8.422215558452564e+17
19223.0	8.420283449518761e+17
19224.0	8.418277980809897e+17
19225.0	8.416165788035753e+17
19226.0	8.41453024855108e+17
19227.0	8.41260467434291e+17
19228.0	8.410767004357972e+17
19229.0	8.408835706322944e+17
19230.0	8.406625692592808e+17
19231.0	8.403281924937046e+17
19232.0	8.401392395179347e+17
19233.0	8.399302128828416e+17
19234.0	8.397474656594601e+17
19235.0	8.395482120323068e+17
19236.0	8.393611895548586e+17
19237.0	8.391596593993042e+17
19238.0	8.389393187689812e+17
19239.0	8.38767916159249e+17
19240.0	8.385439299796991e+17
19241.0	8.383556188722515e+17
19242.0	8.381665885814783e+17
19243.0	8.379246194633385e+17
19244.0	8.377716529168381e+17
19245.0	8.375688683847679e+17
19246.0	8.373644191334397e+17
19247.0	8.371639912409772e+17
19248.0	8.369628103311357e+17
19249.0	8.367582496511318e+17
19250.0	8.365509280006143e+17
19251.0	8.363195061589331e+17
19252.0	8.360694410554026e+17
19253.0	8.359346467504127e+17
19254.0	8.357292588138493e+17
19255.0	8.35477124100915e+17
19256.0	8.3530220596538e+17
19257.0	8.351079227282774e+17
19258.0	8.348995235610621e+17
19259.0	8.346705295223464e+17
19260.0	8.344143467468114e+17
19261.0	8.342633466298367e+17
19262.0	8.340396936178345e+17
19263.0	8.338278025527293e+17
19264.0	8.335137520833875e+17
19265.0	8.333723162378239e+17
19266.0	8.331706662649855e+17
19267.0	8.329804541591552e+17
19268.0	8.327605189782186e+17
19269.0	8.325425348476927e+17
19270.0	8.323223197668691e+17
19271.0	8.320299412662954e+17
19272.0	8.318694692924076e+17
19273.0	8.3092351071464e+17
19274.0	8.309950030457509e+17
19275.0	8.312102840871592e+17
19276.0	8.309828194314921e+17
19277.0	8.307302947880957e+17
19278.0	8.305011876429824e+17
19279.0	8.30260424946483e+17
19280.0	8.300262317883391e+17
19281.0	8.298125170398547e+17
19282.0	8.295818539477673e+17
19283.0	8.293102390695251e+17
19284.0	8.290149574115327e+17
19285.0	8.288468839606952e+17
19286.0	8.286429999617362e+17
19287.0	8.284162487571795e+17
19288.0	8.270981056779592e+17
19289.0	8.254208190272813e+17
19290.0	8.2770399330304e+17
19291.0	8.27401790624017e+17
19292.0	8.272273555324925e+17
19293.0	8.26984151191825e+17
19294.0	8.267395694417236e+17
19295.0	8.264982698743123e+17
19296.0	8.262509347034451e+17
19297.0	8.259979519022419e+17
19298.0	8.257496746906964e+17
19299.0	8.255079551336445e+17
19300.0	8.252564926278313e+17
19301.0	8.250025532456957e+17
19302.0	8.247464518396588e+17
19303.0	8.244749443355987e+17
19304.0	8.242256813228031e+17
19305.0	8.239696803004415e+17
19306.0	8.237064579448831e+17
19307.0	8.234302076616703e+17
19308.0	8.231656625624404e+17
19309.0	8.227885188557481e+17
19310.0	8.224243256218961e+17
19311.0	8.222857049931773e+17
19312.0	8.220377627667114e+17
19313.0	8.217606476180137e+17
19314.0	8.201102986051584e+17
19315.0	8.199033178117477e+17
19316.0	8.209124989512361e+17
19317.0	8.206413743871315e+17
19318.0	8.203553550106624e+17
19319.0	8.200719821002067e+17
19320.0	8.197812754492073e+17
19321.0	8.194890794008575e+17
19322.0	8.191590519887186e+17
19323.0	8.188430736774483e+17
19324.0	8.185832399000914e+17
19325.0	8.18218094699042e+17
19326.0	8.179833239852372e+17
19327.0	8.17675478848853e+17
19328.0	8.17291569729809e+17
19329.0	8.169808665946792e+17
19330.0	8.166583208422057e+17
19331.0	8.163388739813375e+17
19332.0	8.160263973546662e+17
19333.0	8.156994948388178e+17
19334.0	8.153760046688937e+17
19335.0	8.150474501565098e+17
19336.0	8.147111475063466e+17
19337.0	8.143744250063528e+17
19338.0	8.139877112960339e+17
19339.0	8.135799069474815e+17
19340.0	8.131995671811411e+17
19341.0	8.128520728696148e+17
19342.0	8.124136691160402e+17
19343.0	8.121368236610902e+17
19344.0	8.117688902265513e+17
19345.0	8.110250490068984e+17
19346.0	8.108648790228991e+17
19347.0	8.10495672337476e+17
19348.0	8.100869708272979e+17
19349.0	8.096874198903464e+17
19350.0	8.092946339463165e+17
19351.0	8.088934287758675e+17
19352.0	8.084816255778815e+17
19353.0	8.07875642043051e+17
19354.0	8.074374004692306e+17
19355.0	8.069952025482582e+17
19356.0	8.065883802260819e+17
19357.0	8.061420521739603e+17
19358.0	8.05407484420642e+17
19359.0	8.049354408110761e+17
19360.0	8.045059719036927e+17
19361.0	8.040479943120212e+17
19362.0	8.033022532124671e+17
19363.0	8.027478617139881e+17
19364.0	8.022646587391999e+17
19365.0	8.017734205964285e+17
19366.0	8.008779413061627e+17
19367.0	8.003330334086483e+17
19368.0	7.998063213805564e+17
19369.0	7.990796656224932e+17
19370.0	7.981597869473791e+17
19371.0	7.976679157443241e+17
19372.0	7.967795272045914e+17
19373.0	7.959622321176575e+17
19374.0	7.953537519932753e+17
19375.0	7.944627347434153e+17
19376.0	7.938656937443327e+17
19377.0	7.932530493751296e+17
19378.0	7.926298416513021e+17
19379.0	7.919951420937555e+17
19380.0	7.913491408442708e+17
19381.0	7.906898138715474e+17
19382.0	7.899834771395926e+17
19383.0	7.892767926998358e+17
19384.0	7.886006767670612e+17
19385.0	7.878902314347178e+17
19386.0	7.871672993797459e+17
19387.0	7.86428394156851e+17
19388.0	7.856714675475796e+17
19389.0	7.848938834318676e+17
19390.0	7.840322412696915e+17
19391.0	7.806895079292891e+17
19392.0	7.823620906680316e+17
19393.0	7.81569561408307e+17
19394.0	7.807087992111105e+17
19395.0	7.797238956818432e+17
19396.0	7.788293349441535e+17
19397.0	7.779217682290003e+17
19398.0	7.769802751868925e+17
19399.0	7.757876335127208e+17
19400.0	7.748810769257814e+17
19401.0	7.738732561388884e+17
19402.0	7.727097402709332e+17
19403.0	7.715419783692287e+17
19404.0	7.704190426720936e+17
19405.0	7.690183433868628e+17
19406.0	7.678282071102807e+17
19407.0	7.6636116526039e+17
19408.0	7.649379119442602e+17
19409.0	7.634144406274047e+17
19410.0	7.619772694921215e+17
19411.0	7.601820125888511e+17
19412.0	7.585004853570216e+17
19413.0	7.567543801042257e+17
19414.0	7.54688960390758e+17
19415.0	7.527330943598592e+17
19416.0	7.507882755664557e+17
19417.0	7.489523534878035e+17
19418.0	7.472620570847914e+17
19419.0	7.454072543466835e+17
19420.0	7.43526056014643e+17
19421.0	7.415609279818412e+17
19422.0	7.394432177405951e+17
19423.0	7.372727737734482e+17
19424.0	7.349716998859433e+17
19425.0	7.325801673042602e+17
19426.0	7.300938015091369e+17
19427.0	7.275035874033663e+17
19428.0	7.24767022007364e+17
19429.0	7.218616962733395e+17
19430.0	7.187226559512577e+17
19431.0	7.151458315141124e+17
19432.0	7.11975912026931e+17
19433.0	7.083839784484864e+17
19434.0	7.046265677632852e+17
19435.0	7.00560638755908e+17
19436.0	6.962382748953257e+17
19437.0	6.919386010309972e+17
19438.0	6.861937849663489e+17
19439.0	6.824486435291137e+17
19440.0	6.773173353709567e+17
19441.0	6.71791741036134e+17
19442.0	6.659314714411009e+17
19443.0	6.59690408186129e+17
19444.0	6.530889411810642e+17
19445.0	6.461012280606723e+17
19446.0	6.38723379307042e+17
19447.0	6.30934522525559e+17
19448.0	6.226177890975747e+17
19449.0	6.131799817540947e+17
19450.0	5.991613346785938e+17
19451.0	5.892977207541773e+17
19452.0	6.070703913347756e+17
19453.0	6.178223838025048e+17
19454.0	6.263057236535974e+17
19455.0	6.340968275334484e+17
19456.0	6.414358817013763e+17
19457.0	6.483734879185574e+17
19458.0	6.545042951547569e+17
19459.0	6.610837987568301e+17
19460.0	6.668756092715005e+17
19461.0	6.723250126061567e+17
19462.0	6.773842122899456e+17
19463.0	6.821540329597608e+17
19464.0	6.866101174534144e+17
19465.0	6.90789121191663e+17
19466.0	6.948437148128595e+17
19467.0	6.98745756983842e+17
19468.0	7.023704940041559e+17
19469.0	7.057196150598312e+17
19470.0	7.090090067798698e+17
19471.0	7.121060389104298e+17
19472.0	7.150192567866708e+17
19473.0	7.177715807420415e+17
19474.0	7.202987976600233e+17
19475.0	7.225720410821971e+17
19476.0	7.249276242842964e+17
19477.0	7.270380781000022e+17
19478.0	7.291338595412649e+17
19479.0	7.310616862304936e+17
19480.0	7.329157510507178e+17
19481.0	7.346609729830911e+17
19482.0	7.362952401955497e+17
19483.0	7.37876113498658e+17
19484.0	7.393676780459347e+17
19485.0	7.4079755318941e+17
19486.0	7.42398248493602e+17
19487.0	7.441647903528274e+17
19488.0	7.457872673767423e+17
19489.0	7.472740502776494e+17
19490.0	7.487124696378022e+17
19491.0	7.502084314933933e+17
19492.0	7.515154839939753e+17
19493.0	7.527967137027412e+17
19494.0	7.538854609289215e+17
19495.0	7.55043187678686e+17
19496.0	7.559799846382249e+17
19497.0	7.570195730836136e+17
19498.0	7.577083428121261e+17
19499.0	7.550713004206744e+17
19500.0	7.597188446857898e+17
19501.0	7.604615770712744e+17
19502.0	7.611551643773609e+17
19503.0	7.619217620729856e+17
19504.0	7.626143747626323e+17
19505.0	7.632397751287807e+17
19506.0	7.638424604027561e+17
19507.0	7.644741887153491e+17
19508.0	7.650878103573844e+17
19509.0	7.656293626718889e+17
19510.0	7.661220094017533e+17
19511.0	7.636003050575173e+17
19512.0	7.66538439476291e+17
19513.0	7.665113947439085e+17
19514.0	7.67297344538759e+17
19515.0	7.684819002938708e+17
19516.0	7.690212668167508e+17
19517.0	7.694261312378195e+17
19518.0	7.69832037524002e+17
19519.0	7.702130065757523e+17
19520.0	7.706136101431976e+17
19521.0	7.709785927450621e+17
19522.0	7.71315787244066e+17
19523.0	7.716558492489044e+17
19524.0	7.719772545701203e+17
19525.0	7.722825797686611e+17
19526.0	7.725858359170386e+17
19527.0	7.730461723852799e+17
19528.0	7.734666927450793e+17
19529.0	7.737468054230356e+17
19530.0	7.74544512970479e+17
19531.0	7.74790435499759e+17
19532.0	7.751545251343014e+17
19533.0	7.757301839910228e+17
19534.0	7.75946332274688e+17
19535.0	7.761519441870847e+17
19536.0	7.766269035369811e+17
19537.0	7.769441646062249e+17
19538.0	7.771025018191871e+17
19539.0	7.77191802466031e+17
19540.0	7.777182607387305e+17
19541.0	7.779478316340564e+17
19542.0	7.780934968759638e+17
19543.0	7.782339108492628e+17
19544.0	7.785080792197806e+17
19545.0	7.786835395390121e+17
19546.0	7.78724554379537e+17
19547.0	7.790055907830442e+17
19548.0	7.791144041709567e+17
19549.0	7.793218021578066e+17
19550.0	7.795325509741225e+17
19551.0	7.79623833289796e+17
19552.0	7.797103471012522e+17
19553.0	7.797880208577876e+17
19554.0	7.798609031812434e+17
19555.0	7.800386296829267e+17
19556.0	7.801712405730642e+17
19557.0	7.802310085662036e+17
19558.0	7.802869131859284e+17
19559.0	7.803378274227538e+17
19560.0	7.803808981712893e+17
19561.0	7.804251189979817e+17
19562.0	7.804700838942036e+17
19563.0	7.805586979334824e+17
19564.0	7.806599418609664e+17
19565.0	7.806875539428691e+17
19566.0	7.807061430981972e+17
19567.0	7.807339362342225e+17
19568.0	7.807438658295126e+17
19569.0	7.807616486998015e+17
19570.0	7.807781179140778e+17
19571.0	7.80785459204369e+17
19572.0	7.807826375562579e+17
19573.0	7.80789248897843e+17
19574.0	7.807706014416893e+17
19575.0	7.808527960986964e+17
19576.0	7.80864129667345e+17
19577.0	7.808501336943273e+17
19578.0	7.808359712074409e+17
19579.0	7.808244238690985e+17
19580.0	7.808091212305747e+17
19581.0	7.807950040421715e+17
19582.0	7.807784730318163e+17
19583.0	7.807561856188415e+17
19584.0	7.807289768891731e+17
19585.0	7.806785711418024e+17
19586.0	7.806385544058199e+17
19587.0	7.806250273559894e+17
19588.0	7.80512381772322e+17
19589.0	7.80568764682513e+17
19590.0	7.805257178415103e+17
19591.0	7.805029030647126e+17
19592.0	7.804645409816573e+17
19593.0	7.804440841027583e+17
19594.0	7.80367381607219e+17
19595.0	7.803725151556948e+17
19596.0	7.797460755808259e+17
19597.0	7.802696072080042e+17
19598.0	7.801786930124115e+17
19599.0	7.801779819380735e+17
19600.0	7.801238387862186e+17
19601.0	7.800503425564671e+17
19602.0	7.79994626400802e+17
19603.0	7.79805114464119e+17
19604.0	7.798617586794493e+17
19605.0	7.797503625789437e+17
19606.0	7.797558831218689e+17
19607.0	7.796933043858089e+17
19608.0	7.796221550089556e+17
19609.0	7.795453403856893e+17
19610.0	7.794895971068585e+17
19611.0	7.794174770282493e+17
19612.0	7.793485894997331e+17
19613.0	7.792733582262271e+17
19614.0	7.791922550669311e+17
19615.0	7.791277160529919e+17
19616.0	7.790236246125224e+17
19617.0	7.789759827716778e+17
19618.0	7.787820410907304e+17
19619.0	7.786751414239228e+17
19620.0	7.786010062618624e+17
19621.0	7.786586934607871e+17
19622.0	7.785795645603837e+17
19623.0	7.784972123373565e+17
19624.0	7.784110613331967e+17
19625.0	7.783288679344809e+17
19626.0	7.782404473924268e+17
19627.0	7.781518020356777e+17
19628.0	7.779688752960855e+17
19629.0	7.779374141014015e+17
19630.0	7.774648325024426e+17
19631.0	7.737610037013165e+17
19632.0	7.776913477074944e+17
19633.0	7.77625835754837e+17
19634.0	7.775545229399379e+17
19635.0	7.774537642934271e+17
19636.0	7.773698994645672e+17
19637.0	7.771725433405439e+17
19638.0	7.771823283721558e+17
19639.0	7.770819068078761e+17
19640.0	7.769709855025834e+17
19641.0	7.767844073417389e+17
19642.0	7.767918845274794e+17
19643.0	7.766901730749097e+17
19644.0	7.765809099177981e+17
19645.0	7.764373809747283e+17
19646.0	7.76394741540454e+17
19647.0	7.762931819216896e+17
19648.0	7.761895587053567e+17
19649.0	7.760859265411752e+17
19650.0	7.759841204371455e+17
19651.0	7.758781481309523e+17
19652.0	7.757724474758484e+17
19653.0	7.756674460112212e+17
19654.0	7.755606938441042e+17
19655.0	7.754529150511785e+17
19656.0	7.75348255282517e+17
19657.0	7.752402102910975e+17
19658.0	7.75133527609617e+17
19659.0	7.750251302966611e+17
19660.0	7.749163261362177e+17
19661.0	7.74806623555857e+17
19662.0	7.746962518441984e+17
19663.0	7.745716576671058e+17
19664.0	7.744560502057641e+17
19665.0	7.743628754201254e+17
19666.0	7.742470669118122e+17
