# Flux units: erg / (cm m2 s)
# Wavelength units: Angstrom
wave	flux
19000.0	6.415604325373268e+17
19001.0	6.414389129248765e+17
19002.0	6.413187973556906e+17
19003.0	6.411979184231764e+17
19004.0	6.410770278165161e+17
19005.0	6.409564473087316e+17
19006.0	6.408356946247679e+17
19007.0	6.407067325693951e+17
19008.0	6.40593715929634e+17
19009.0	6.404733674367658e+17
19010.0	6.403494398743892e+17
19011.0	6.402319117713407e+17
19012.0	6.401032131881642e+17
19013.0	6.399909008419498e+17
19014.0	6.398697518661632e+17
19015.0	6.3974933018269e+17
19016.0	6.396286867603455e+17
19017.0	6.395065044478634e+17
19018.0	6.393872292074836e+17
19019.0	6.392674283509075e+17
19020.0	6.391462978999636e+17
19021.0	6.390260981650772e+17
19022.0	6.389059623234217e+17
19023.0	6.387851753160703e+17
19024.0	6.386648261940563e+17
19025.0	6.385439634096127e+17
19026.0	6.384231509568169e+17
19027.0	6.382980066268499e+17
19028.0	6.381835014285993e+17
19029.0	6.380630720555689e+17
19030.0	6.379428331039401e+17
19031.0	6.378225312377514e+17
19032.0	6.377022458691584e+17
19033.0	6.375813540042067e+17
19034.0	6.374617051212457e+17
19035.0	6.373412175872e+17
19036.0	6.367067193562447e+17
19037.0	6.371010912365226e+17
19038.0	6.369807790243839e+17
19039.0	6.368608197629268e+17
19040.0	6.367406965041833e+17
19041.0	6.366205934480041e+17
19042.0	6.364999459711658e+17
19043.0	6.363804825463466e+17
19044.0	6.362604121358335e+17
19045.0	6.36140103279138e+17
19046.0	6.360198879554217e+17
19047.0	6.359004408184831e+17
19048.0	6.357790370387284e+17
19049.0	6.356601025855487e+17
19050.0	6.355403496139434e+17
19051.0	6.353557000639826e+17
19052.0	6.352968102881962e+17
19053.0	6.351790287093759e+17
19054.0	6.3506121504413e+17
19055.0	6.349396277635753e+17
19056.0	6.348214698158761e+17
19057.0	6.347016783964841e+17
19058.0	6.345800428115284e+17
19059.0	6.344624102004052e+17
19060.0	6.343425405572436e+17
19061.0	6.342230380554921e+17
19062.0	6.341033604415487e+17
19063.0	6.339837495170388e+17
19064.0	6.338633483157503e+17
19065.0	6.337432788839082e+17
19066.0	6.336245461767507e+17
19067.0	6.335054625461588e+17
19068.0	6.333859411001343e+17
19069.0	6.332664548862634e+17
19070.0	6.331467542735529e+17
19071.0	6.330272453405353e+17
19072.0	6.329080526580393e+17
19073.0	6.327886615849641e+17
19074.0	6.326693189561002e+17
19075.0	6.32549960388881e+17
19076.0	6.324304596347561e+17
19077.0	6.323112490565631e+17
19078.0	6.32191538307618e+17
19079.0	6.320727478588755e+17
19080.0	6.319534843625471e+17
19081.0	6.318339421547178e+17
19082.0	6.317145346539519e+17
19083.0	6.315950841615699e+17
19084.0	6.314749978127018e+17
19085.0	6.31357607842065e+17
19086.0	6.312352878865065e+17
19087.0	6.31106327089425e+17
19088.0	6.309997616387411e+17
19089.0	6.308731223889235e+17
19090.0	6.307620263908691e+17
19091.0	6.306430897007273e+17
19092.0	6.305208062356137e+17
19093.0	6.304053701814952e+17
19094.0	6.302854184697855e+17
19095.0	6.301662081013075e+17
19096.0	6.300470344329897e+17
19097.0	6.299296325784916e+17
19098.0	6.298109753688063e+17
19099.0	6.296921325611689e+17
19100.0	6.2957256980125e+17
19101.0	6.294543391522815e+17
19102.0	6.293352956471978e+17
19103.0	6.292171916662099e+17
19104.0	6.290984979660799e+17
19105.0	6.289798225111721e+17
19106.0	6.288587026158931e+17
19107.0	6.287424414023679e+17
19108.0	6.28623933509905e+17
19109.0	6.284519652982781e+17
19110.0	6.28386623005218e+17
19111.0	6.282681036483242e+17
19112.0	6.28149786386978e+17
19113.0	6.280313145655296e+17
19114.0	6.279128546978474e+17
19115.0	6.277934295110996e+17
19116.0	6.276758387032064e+17
19117.0	6.275574979537577e+17
19118.0	6.274363587646804e+17
19119.0	6.273030605679274e+17
19120.0	6.271990967042047e+17
19121.0	6.270821152587776e+17
19122.0	6.269659942049108e+17
19123.0	6.268475719461545e+17
19124.0	6.267271374700544e+17
19125.0	6.266106085201236e+17
19126.0	6.264903118269097e+17
19127.0	6.263633536701779e+17
19128.0	6.262079768668841e+17
19129.0	6.261380497801215e+17
19130.0	6.260206096875519e+17
19131.0	6.259009821955412e+17
19132.0	6.257844798794409e+17
19133.0	6.25656456159778e+17
19134.0	6.255244984625834e+17
19135.0	6.254303578685439e+17
19136.0	6.253125488170324e+17
19137.0	6.251934451935914e+17
19138.0	6.250679366582271e+17
19139.0	6.249587488587775e+17
19140.0	6.248409591709696e+17
19141.0	6.247231298469887e+17
19142.0	6.24604949389858e+17
19143.0	6.244870395352404e+17
19144.0	6.243693217797459e+17
19145.0	6.242517669030569e+17
19146.0	6.241285734137855e+17
19147.0	6.240159734781267e+17
19148.0	6.238985256959999e+17
19149.0	6.237809878761471e+17
19150.0	6.236631273046015e+17
19151.0	6.235459615894185e+17
19152.0	6.234275900817408e+17
19153.0	6.233106391848276e+17
19154.0	6.231923647053823e+17
19155.0	6.230755504029695e+17
19156.0	6.229581686112255e+17
19157.0	6.228402385540436e+17
19158.0	6.226861197623295e+17
19159.0	6.226055902440106e+17
19160.0	6.22487376302353e+17
19161.0	6.223660241824425e+17
19162.0	6.22171382681873e+17
19163.0	6.221359522775039e+17
19164.0	6.220189307764735e+17
19165.0	6.219004848898047e+17
19166.0	6.217821646225405e+17
19167.0	6.216592849371133e+17
19168.0	6.215484986884096e+17
19169.0	6.214308614635519e+17
19170.0	6.213153675979434e+17
19171.0	6.211943666111828e+17
19172.0	6.210807159324671e+17
19173.0	6.209637326695082e+17
19174.0	6.2084642518685e+17
19175.0	6.207297099399168e+17
19176.0	6.206126215397376e+17
19177.0	6.204945189568511e+17
19178.0	6.203778236328617e+17
19179.0	6.202557907774121e+17
19180.0	6.201290630277801e+17
19181.0	6.200266521051136e+17
19182.0	6.199092652802047e+17
19183.0	6.197918514020351e+17
19184.0	6.196747230860628e+17
19185.0	6.195591527443114e+17
19186.0	6.1944077746176e+17
19187.0	6.19323338138146e+17
19188.0	6.192065364885503e+17
19189.0	6.190880720071338e+17
19190.0	6.189708594555561e+17
19191.0	6.188554951939412e+17
19192.0	6.187387161935871e+17
19193.0	6.186097667211261e+17
19194.0	6.185004782583807e+17
19195.0	6.183881894002687e+17
19196.0	6.182729383149567e+17
19197.0	6.181561923796991e+17
19198.0	6.180392363098111e+17
19199.0	6.174292203012093e+17
19200.0	6.174975492183382e+17
19201.0	6.176894620445353e+17
19202.0	6.175732229210111e+17
19203.0	6.17455704744482e+17
19204.0	6.173398590466729e+17
19205.0	6.172237238020778e+17
19206.0	6.171071393475242e+17
19207.0	6.169901941828266e+17
19208.0	6.168727060654761e+17
19209.0	6.167575513093459e+17
19210.0	6.166413498646527e+17
19211.0	6.165248481077929e+17
19212.0	6.164085295022079e+17
19213.0	6.162871764735316e+17
19214.0	6.161683883316564e+17
19215.0	6.16057648849442e+17
19216.0	6.159425772803411e+17
19217.0	6.158266938337961e+17
19218.0	6.157046660814163e+17
19219.0	6.155929219235839e+17
19220.0	6.154772214185983e+17
19221.0	6.153586595594239e+17
19222.0	6.152452636147712e+17
19223.0	6.151289843657385e+17
19224.0	6.150118268993535e+17
19225.0	6.148953583474003e+17
19226.0	6.147801984182954e+17
19227.0	6.146639651667965e+17
19228.0	6.145479552619859e+17
19229.0	6.144317784937812e+17
19230.0	6.143137107236179e+17
19231.0	6.141980634862932e+17
19232.0	6.140825740247039e+17
19233.0	6.139665766329001e+17
19234.0	6.138508835378516e+17
19235.0	6.137347928926889e+17
19236.0	6.136188509356031e+17
19237.0	6.135027120559443e+17
19238.0	6.133853773802152e+17
19239.0	6.132707046195199e+17
19240.0	6.13152075162146e+17
19241.0	6.130377366874794e+17
19242.0	6.129222286311423e+17
19243.0	6.128051823138131e+17
19244.0	6.126903908543146e+17
19245.0	6.125743968878591e+17
19246.0	6.124582632510804e+17
19247.0	6.12342267187473e+17
19248.0	6.122262375694335e+17
19249.0	6.121101400036691e+17
19250.0	6.119942800452266e+17
19251.0	6.118777181700095e+17
19252.0	6.117597809825107e+17
19253.0	6.116462343924394e+17
19254.0	6.115299210297344e+17
19255.0	6.114128218641747e+17
19256.0	6.112967879819263e+17
19257.0	6.111822441261737e+17
19258.0	6.11066271900194e+17
19259.0	6.109497451872255e+17
19260.0	6.108283987995306e+17
19261.0	6.107183013254484e+17
19262.0	6.106019270055252e+17
19263.0	6.10485929054481e+17
19264.0	6.103668078149631e+17
19265.0	6.102529223950336e+17
19266.0	6.101372110547625e+17
19267.0	6.100221462664531e+17
19268.0	6.099061038557866e+17
19269.0	6.097900614451199e+17
19270.0	6.096737491309908e+17
19271.0	6.095554812226218e+17
19272.0	6.09441587134464e+17
19273.0	6.092581579871571e+17
19274.0	6.091767244565161e+17
19275.0	6.090934815031296e+17
19276.0	6.089771995977044e+17
19277.0	6.088609763426304e+17
19278.0	6.087448998881962e+17
19279.0	6.086271352264019e+17
19280.0	6.085120385613823e+17
19281.0	6.083962162118655e+17
19282.0	6.082800503488512e+17
19283.0	6.0815576151709e+17
19284.0	6.080301753871018e+17
19285.0	6.079296636452864e+17
19286.0	6.078145562847916e+17
19287.0	6.076983760912383e+17
19288.0	6.074687760454995e+17
19289.0	6.071046618742775e+17
19290.0	6.07349000704273e+17
19291.0	6.07230609203746e+17
19292.0	6.071159133743786e+17
19293.0	6.069992495076692e+17
19294.0	6.068826431029247e+17
19295.0	6.067659563073533e+17
19296.0	6.066492395225087e+17
19297.0	6.065322169729021e+17
19298.0	6.064154888634367e+17
19299.0	6.062987356580521e+17
19300.0	6.061817928701268e+17
19301.0	6.06064738373905e+17
19302.0	6.05947682829107e+17
19303.0	6.058297697588564e+17
19304.0	6.057129131638783e+17
19305.0	6.05596033220608e+17
19306.0	6.054784907870208e+17
19307.0	6.053604531459411e+17
19308.0	6.052433546095273e+17
19309.0	6.051109267308543e+17
19310.0	6.049813712513705e+17
19311.0	6.048854744323412e+17
19312.0	6.047688248262655e+17
19313.0	6.046496484316502e+17
19314.0	6.043411604482726e+17
19315.0	6.042389590310913e+17
19316.0	6.04296038195746e+17
19317.0	6.041786761871359e+17
19318.0	6.040600244300457e+17
19319.0	6.039394476971348e+17
19320.0	6.038204241149951e+17
19321.0	6.037020133206697e+17
19322.0	6.03581608554223e+17
19323.0	6.034557473477972e+17
19324.0	6.03344615907874e+17
19325.0	6.032138660304212e+17
19326.0	6.031059656725844e+17
19327.0	6.02986264011298e+17
19328.0	6.028665541012138e+17
19329.0	6.027465514287104e+17
19330.0	6.026260680889684e+17
19331.0	6.025056720606547e+17
19332.0	6.023852122090153e+17
19333.0	6.022643708854272e+17
19334.0	6.02143124881408e+17
19335.0	6.020223666749439e+17
19336.0	6.019006590877696e+17
19337.0	6.017791081578495e+17
19338.0	6.016557358514175e+17
19339.0	6.015348864188415e+17
19340.0	6.01412089221393e+17
19341.0	6.012895986974719e+17
19342.0	6.01163026276898e+17
19343.0	6.010430986824361e+17
19344.0	6.009193496575999e+17
19345.0	6.007806552790355e+17
19346.0	6.00667091771938e+17
19347.0	6.005454305318228e+17
19348.0	6.004207105955156e+17
19349.0	6.002947115362986e+17
19350.0	6.001685701503657e+17
19351.0	6.000385649715882e+17
19352.0	5.999082947827027e+17
19353.0	5.997813367657811e+17
19354.0	5.996512653170006e+17
19355.0	5.995216578980521e+17
19356.0	5.993931321202004e+17
19357.0	5.992634055131135e+17
19358.0	5.991330877887828e+17
19359.0	5.989993960964095e+17
19360.0	5.988709521074857e+17
19361.0	5.987385626765993e+17
19362.0	5.986059032024404e+17
19363.0	5.984707852369919e+17
19364.0	5.983318603115178e+17
19365.0	5.981963563302911e+17
19366.0	5.980598897562964e+17
19367.0	5.979224508727295e+17
19368.0	5.977839974569299e+17
19369.0	5.976431887297193e+17
19370.0	5.974943948865535e+17
19371.0	5.973601666727935e+17
19372.0	5.972174953250815e+17
19373.0	5.970729762466473e+17
19374.0	5.969273523885395e+17
19375.0	5.967801080610815e+17
19376.0	5.966312195664554e+17
19377.0	5.964809167525204e+17
19378.0	5.963287996923903e+17
19379.0	5.961748267925503e+17
19380.0	5.960184866974378e+17
19381.0	5.958542965429588e+17
19382.0	5.956935380981075e+17
19383.0	5.955310035053225e+17
19384.0	5.953669291835391e+17
19385.0	5.951994395798186e+17
19386.0	5.950292517104298e+17
19387.0	5.948560890309289e+17
19388.0	5.946798048804863e+17
19389.0	5.945001817844393e+17
19390.0	5.943073973818708e+17
19391.0	5.936483091349496e+17
19392.0	5.939138441598292e+17
19393.0	5.93719430549777e+17
19394.0	5.935194349502464e+17
19395.0	5.933138180745897e+17
19396.0	5.930936557720916e+17
19397.0	5.928793803150676e+17
19398.0	5.926574197047295e+17
19399.0	5.924247717980841e+17
19400.0	5.921853765844992e+17
19401.0	5.919402388794025e+17
19402.0	5.91688993219106e+17
19403.0	5.914084547493887e+17
19404.0	5.911333710419284e+17
19405.0	5.908547731368618e+17
19406.0	5.90550872953105e+17
19407.0	5.902487934468096e+17
19408.0	5.899158474282324e+17
19409.0	5.89570864386321e+17
19410.0	5.892078778537299e+17
19411.0	5.888390952124415e+17
19412.0	5.884493553117865e+17
19413.0	5.880196582342655e+17
19414.0	5.876054098269524e+17
19415.0	5.871605442587306e+17
19416.0	5.866650234519551e+17
19417.0	5.861597099939156e+17
19418.0	5.856183547417942e+17
19419.0	5.850412023633238e+17
19420.0	5.84429523313186e+17
19421.0	5.837605472742057e+17
19422.0	5.830362034165075e+17
19423.0	5.822275567747071e+17
19424.0	5.813636475912191e+17
19425.0	5.804367245126312e+17
19426.0	5.793611529934166e+17
19427.0	5.782714644955136e+17
19428.0	5.772273426366464e+17
19429.0	5.761012984709119e+17
19430.0	5.7484449834598394e+17
19431.0	5.734075624412503e+17
19432.0	5.7201143942130336e+17
19433.0	5.703255490647383e+17
19434.0	5.684473240748032e+17
19435.0	5.6625035945355904e+17
19436.0	5.636233346678783e+17
19437.0	5.60724498920243e+17
19438.0	5.5752818803343334e+17
19439.0	5.5531229081326944e+17
19440.0	5.521132476170238e+17
19441.0	5.48425775413111e+17
19442.0	5.4395655918277965e+17
19443.0	5.383451553999528e+17
19444.0	5.327795211206653e+17
19445.0	5.267470444483927e+17
19446.0	5.19212202336802e+17
19447.0	5.100180191139152e+17
19448.0	4.995848440119299e+17
19449.0	4.8492939533352966e+17
19450.0	4.548875190796274e+17
19451.0	4.443586396771664e+17
19452.0	4.7161925372477466e+17
19453.0	4.9308978167589645e+17
19454.0	5.048139885051899e+17
19455.0	5.1407504648000845e+17
19456.0	5.2242216120920774e+17
19457.0	5.288726467619497e+17
19458.0	5.339549950192303e+17
19459.0	5.398550555568809e+17
19460.0	5.4462831891141965e+17
19461.0	5.484474786294443e+17
19462.0	5.516427289165824e+17
19463.0	5.544173547552766e+17
19464.0	5.568693638878547e+17
19465.0	5.5940920510163616e+17
19466.0	5.619956194476029e+17
19467.0	5.6415439919513574e+17
19468.0	5.659658968629248e+17
19469.0	5.6749810931903136e+17
19470.0	5.6886501551636474e+17
19471.0	5.700693039338837e+17
19472.0	5.7114254223168826e+17
19473.0	5.7208795904518816e+17
19474.0	5.7296115854213114e+17
19475.0	5.737682240711338e+17
19476.0	5.7466433649158835e+17
19477.0	5.754324691626667e+17
19478.0	5.7610102507219616e+17
19479.0	5.767060084053332e+17
19480.0	5.772422338838525e+17
19481.0	5.77709107454498e+17
19482.0	5.781236435211603e+17
19483.0	5.78508235612706e+17
19484.0	5.788311250184873e+17
19485.0	5.791388242629972e+17
19486.0	5.794009723174912e+17
19487.0	5.796578909137577e+17
19488.0	5.798596539929939e+17
19489.0	5.800498925928448e+17
19490.0	5.802282222354431e+17
19491.0	5.803997399089151e+17
19492.0	5.805349690933248e+17
19493.0	5.806661678312105e+17
19494.0	5.807854079792468e+17
19495.0	5.808785576689663e+17
19496.0	5.809526527055188e+17
19497.0	5.810279076768425e+17
19498.0	5.810600244412415e+17
19499.0	5.803554465207628e+17
19500.0	5.811779564557652e+17
19501.0	5.812041456899412e+17
19502.0	5.812224853540864e+17
19503.0	5.812418406689449e+17
19504.0	5.812444196066644e+17
19505.0	5.812421286778195e+17
19506.0	5.812332076029268e+17
19507.0	5.812243244864852e+17
19508.0	5.812090355493545e+17
19509.0	5.811851440248147e+17
19510.0	5.811555419553791e+17
19511.0	5.805672739023526e+17
19512.0	5.810002256898726e+17
19513.0	5.808492703820453e+17
19514.0	5.808850872915283e+17
19515.0	5.809707066676564e+17
19516.0	5.809326450365779e+17
19517.0	5.808799784894463e+17
19518.0	5.808259724913322e+17
19519.0	5.807685733012819e+17
19520.0	5.807092135537321e+17
19521.0	5.806476799683242e+17
19522.0	5.805837547907754e+17
19523.0	5.805182982029311e+17
19524.0	5.804532205704532e+17
19525.0	5.803872478735018e+17
19526.0	5.803167595189588e+17
19527.0	5.802443778555903e+17
19528.0	5.801704799513257e+17
19529.0	5.800952808341503e+17
19530.0	5.800187315006122e+17
19531.0	5.799409186329939e+17
19532.0	5.798619132548435e+17
19533.0	5.797817968754688e+17
19534.0	5.797006184983209e+17
19535.0	5.796184343969791e+17
19536.0	5.795350059155455e+17
19537.0	5.794512389537791e+17
19538.0	5.793661010837501e+17
19539.0	5.792777946966698e+17
19540.0	5.791951869007188e+17
19541.0	5.791081453060095e+17
19542.0	5.790201739739135e+17
19543.0	5.78931538264064e+17
19544.0	5.788422529963348e+17
19545.0	5.787500717015037e+17
19546.0	5.786553285257898e+17
19547.0	5.785706360908457e+17
19548.0	5.784825808726697e+17
19549.0	5.783911481911977e+17
19550.0	5.782994212093951e+17
19551.0	5.782064141260116e+17
19552.0	5.78112942313745e+17
19553.0	5.780189295760726e+17
19554.0	5.779244958700884e+17
19555.0	5.778299824723284e+17
19556.0	5.777350394380288e+17
19557.0	5.776396083964586e+17
19558.0	5.775438814467411e+17
19559.0	5.774475954662058e+17
19560.0	5.77351254680098e+17
19561.0	5.772546725117951e+17
19562.0	5.771578157563903e+17
19563.0	5.770605193680212e+17
19564.0	5.769631099431594e+17
19565.0	5.76865371824674e+17
19566.0	5.767672637685759e+17
19567.0	5.766692884621993e+17
19568.0	5.765728609938089e+17
19569.0	5.764743812524714e+17
19570.0	5.763755949075113e+17
19571.0	5.7627654725741216e+17
19572.0	5.7617709723374925e+17
19573.0	5.7607782232227834e+17
19574.0	5.759776130596862e+17
19575.0	5.7587858176737274e+17
19576.0	5.757787174862847e+17
19577.0	5.756777783448915e+17
19578.0	5.7557817704666445e+17
19579.0	5.754779436668245e+17
19580.0	5.7537748302561274e+17
19581.0	5.75276941783859e+17
19582.0	5.751763325943807e+17
19583.0	5.7507548621701114e+17
19584.0	5.749743239386453e+17
19585.0	5.748725585193642e+17
19586.0	5.747691594186751e+17
19587.0	5.746654209987924e+17
19588.0	5.745708884470441e+17
19589.0	5.744689632247806e+17
19590.0	5.743715177289043e+17
19591.0	5.742707190966954e+17
19592.0	5.7416893955659085e+17
19593.0	5.7406687417466874e+17
19594.0	5.739625658886826e+17
19595.0	5.7386320247739725e+17
19596.0	5.736466546862763e+17
19597.0	5.736587790909439e+17
19598.0	5.735552545805652e+17
19599.0	5.7345491361682765e+17
19600.0	5.733526407566677e+17
19601.0	5.732498437483177e+17
19602.0	5.7314763848635725e+17
19603.0	5.730348530925567e+17
19604.0	5.7294234163609594e+17
19605.0	5.728383416314538e+17
19606.0	5.727377218164053e+17
19607.0	5.726352398002858e+17
19608.0	5.725325115785215e+17
19609.0	5.7242926682821965e+17
19610.0	5.723271147640147e+17
19611.0	5.72224292659746e+17
19612.0	5.7212151165965645e+17
19613.0	5.720186173434537e+17
19614.0	5.7191547640217594e+17
19615.0	5.7181284318139725e+17
19616.0	5.71706021318929e+17
19617.0	5.716068287556266e+17
19618.0	5.715006298172074e+17
19619.0	5.7139626651593363e+17
19620.0	5.71293589254963e+17
19621.0	5.71194832200226e+17
19622.0	5.7109174893062816e+17
19623.0	5.7098865188973216e+17
19624.0	5.7088553576475296e+17
19625.0	5.7078225382495565e+17
19626.0	5.706792184403285e+17
19627.0	5.705760536614228e+17
19628.0	5.704617439177386e+17
19629.0	5.7036902917734394e+17
19630.0	5.702603775497556e+17
19631.0	5.696417147038375e+17
19632.0	5.7005972085800954e+17
19633.0	5.6995632448361805e+17
19634.0	5.6985351195634336e+17
19635.0	5.69749964796723e+17
19636.0	5.6964699896763725e+17
19637.0	5.695409115277993e+17
19638.0	5.6944039349452794e+17
19639.0	5.693367769191764e+17
19640.0	5.6923342220820474e+17
19641.0	5.6912650010187085e+17
19642.0	5.6902728964287136e+17
19643.0	5.689237279429972e+17
19644.0	5.6882026327135565e+17
19645.0	5.6871560280364365e+17
19646.0	5.6861408722507085e+17
19647.0	5.685107888575828e+17
19648.0	5.684074850374996e+17
19649.0	5.68304166048017e+17
19650.0	5.6820088606556154e+17
19651.0	5.680975884670292e+17
19652.0	5.6799429464337043e+17
19653.0	5.6789079075498656e+17
19654.0	5.6778771447589536e+17
19655.0	5.676844024070143e+17
19656.0	5.6758109865683616e+17
19657.0	5.6747787019441485e+17
19658.0	5.673744603982507e+17
19659.0	5.6727133162045434e+17
19660.0	5.6716808141755725e+17
19661.0	5.6706482995636896e+17
19662.0	5.669615822700543e+17
19663.0	5.6685797597074765e+17
