# Flux units: erg / (cm m2 s)
# Wavelength units: Angstrom
wave	flux
19000.0	7.535248069885952e+17
19001.0	7.533849009455105e+17
19002.0	7.532563593691135e+17
19003.0	7.531217893195775e+17
19004.0	7.529871123152893e+17
19005.0	7.528525493960703e+17
19006.0	7.527176781955071e+17
19007.0	7.525811605908136e+17
19008.0	7.524441140843862e+17
19009.0	7.523078296829951e+17
19010.0	7.521511146870099e+17
19011.0	7.520394550444032e+17
19012.0	7.518957366586025e+17
19013.0	7.517701164149416e+17
19014.0	7.516300193912147e+17
19015.0	7.514956282986496e+17
19016.0	7.513590456822441e+17
19017.0	7.512251602829311e+17
19018.0	7.510884311455059e+17
19019.0	7.509524210515968e+17
19020.0	7.508147621767848e+17
19021.0	7.5068002547357e+17
19022.0	7.505436968921769e+17
19023.0	7.504042968219648e+17
19024.0	7.502683658605906e+17
19025.0	7.501322008570536e+17
19026.0	7.499934746716841e+17
19027.0	7.498521102690985e+17
19028.0	7.497215768177321e+17
19029.0	7.495832776125097e+17
19030.0	7.494468385811113e+17
19031.0	7.493093190970026e+17
19032.0	7.49171693916433e+17
19033.0	7.490287340006057e+17
19034.0	7.488959826012841e+17
19035.0	7.487543557750784e+17
19036.0	7.48191741203797e+17
19037.0	7.484810325568169e+17
19038.0	7.483427031526058e+17
19039.0	7.482061898820266e+17
19040.0	7.480680144087721e+17
19041.0	7.479297212153855e+17
19042.0	7.477866339325268e+17
19043.0	7.476529463645526e+17
19044.0	7.475143053235539e+17
19045.0	7.473758186329427e+17
19046.0	7.472343599983272e+17
19047.0	7.47097552986658e+17
19048.0	7.469482595319805e+17
19049.0	7.468169515324756e+17
19050.0	7.46679116776516e+17
19051.0	7.464712950251517e+17
19052.0	7.463918231704915e+17
19053.0	7.462645330345983e+17
19054.0	7.461254866840233e+17
19055.0	7.45971451568674e+17
19056.0	7.45845731360768e+17
19057.0	7.457098152192681e+17
19058.0	7.456034055869778e+17
19059.0	7.45464452489762e+17
19060.0	7.453235662378323e+17
19061.0	7.451851923739987e+17
19062.0	7.450451783974911e+17
19063.0	7.449054613777066e+17
19064.0	7.447592616416595e+17
19065.0	7.446152672706557e+17
19066.0	7.444821483104938e+17
19067.0	7.443457649235284e+17
19068.0	7.442057274589183e+17
19069.0	7.440656484706986e+17
19070.0	7.439240649856339e+17
19071.0	7.437852542151338e+17
19072.0	7.4364497166336e+17
19073.0	7.435043485341012e+17
19074.0	7.433642737401853e+17
19075.0	7.432238415915689e+17
19076.0	7.430821963104256e+17
19077.0	7.42942123893282e+17
19078.0	7.428008053484202e+17
19079.0	7.426616335881555e+17
19080.0	7.42520623744068e+17
19081.0	7.423778099298303e+17
19082.0	7.422369464669527e+17
19083.0	7.420917075061417e+17
19084.0	7.419435308548093e+17
19085.0	7.418167430567254e+17
19086.0	7.416529089287508e+17
19087.0	7.415233351341396e+17
19088.0	7.413877750890493e+17
19089.0	7.412356236356266e+17
19090.0	7.411091090265428e+17
19091.0	7.40968636752418e+17
19092.0	7.408237460586496e+17
19093.0	7.406878798293674e+17
19094.0	7.405458293784575e+17
19095.0	7.404043493528916e+17
19096.0	7.402631432153769e+17
19097.0	7.40122535605043e+17
19098.0	7.399812527117651e+17
19099.0	7.398397441649321e+17
19100.0	7.396982146465791e+17
19101.0	7.3955649009309e+17
19102.0	7.394098112277161e+17
19103.0	7.392733056466943e+17
19104.0	7.391315704676351e+17
19105.0	7.389896666775548e+17
19106.0	7.388457917044054e+17
19107.0	7.387050393905833e+17
19108.0	7.385636281516032e+17
19109.0	7.383848595051859e+17
19110.0	7.38277429678353e+17
19111.0	7.381381264965632e+17
19112.0	7.379962449362943e+17
19113.0	7.378541859569663e+17
19114.0	7.377120363806719e+17
19115.0	7.375677763704148e+17
19116.0	7.374261965204138e+17
19117.0	7.372839539703808e+17
19118.0	7.371364879739561e+17
19119.0	7.368235903789734e+17
19120.0	7.368542167673513e+17
19121.0	7.367128625709055e+17
19122.0	7.365732379656191e+17
19123.0	7.364306362433536e+17
19124.0	7.362855249291944e+17
19125.0	7.36145093899059e+17
19126.0	7.360019197941076e+17
19127.0	7.357644138348544e+17
19128.0	7.357064233877501e+17
19129.0	7.355691731779583e+17
19130.0	7.354310509723647e+17
19131.0	7.352884071672489e+17
19132.0	7.351452264912212e+17
19133.0	7.349938603513172e+17
19134.0	7.34854687612382e+17
19135.0	7.347162199359487e+17
19136.0	7.345730895915689e+17
19137.0	7.344209846949203e+17
19138.0	7.342855995523071e+17
19139.0	7.341432134172671e+17
19140.0	7.339999459191466e+17
19141.0	7.338565089711444e+17
19142.0	7.337115643106646e+17
19143.0	7.335665282143572e+17
19144.0	7.334243329201492e+17
19145.0	7.332821630713855e+17
19146.0	7.331049664501076e+17
19147.0	7.329897880660649e+17
19148.0	7.328505705878867e+17
19149.0	7.327067337829033e+17
19150.0	7.325624746115071e+17
19151.0	7.324188979931817e+17
19152.0	7.322745710138708e+17
19153.0	7.321294043348991e+17
19154.0	7.31979320393728e+17
19155.0	7.318419828026026e+17
19156.0	7.31697312309794e+17
19157.0	7.315509538892458e+17
19158.0	7.313852362391551e+17
19159.0	7.312620198909267e+17
19160.0	7.311187565871101e+17
19161.0	7.309729862079828e+17
19162.0	7.307720405985961e+17
19163.0	7.306813463243433e+17
19164.0	7.30540302086963e+17
19165.0	7.303945405158739e+17
19166.0	7.302435613704191e+17
19167.0	7.3010001229469e+17
19168.0	7.299587780553385e+17
19169.0	7.29813431161105e+17
19170.0	7.296696758654292e+17
19171.0	7.295216570597375e+17
19172.0	7.293788521933484e+17
19173.0	7.292336140713981e+17
19174.0	7.290851006174548e+17
19175.0	7.289425689400659e+17
19176.0	7.2879681058461e+17
19177.0	7.286422211220819e+17
19178.0	7.285031310109353e+17
19179.0	7.283548604071935e+17
19180.0	7.282120331711827e+17
19181.0	7.280607556709033e+17
19182.0	7.279192872495786e+17
19183.0	7.277739562937002e+17
19184.0	7.276263964846761e+17
19185.0	7.274805787099135e+17
19186.0	7.27334133047842e+17
19187.0	7.271836566596266e+17
19188.0	7.270403293227689e+17
19189.0	7.268931482593961e+17
19190.0	7.267456294147411e+17
19191.0	7.265967222554623e+17
19192.0	7.264516906330794e+17
19193.0	7.26303750820113e+17
19194.0	7.261555266333353e+17
19195.0	7.260083547974314e+17
19196.0	7.25859243655168e+17
19197.0	7.257097060919976e+17
19198.0	7.25554443723298e+17
19199.0	7.250629940477951e+17
19200.0	7.250091605753855e+17
19201.0	7.251109211013117e+17
19202.0	7.249690863774377e+17
19203.0	7.248212409363114e+17
19204.0	7.246726094826153e+17
19205.0	7.245253884335444e+17
19206.0	7.243757948065106e+17
19207.0	7.242219011790163e+17
19208.0	7.24066932831027e+17
19209.0	7.239287361066323e+17
19210.0	7.237791174535849e+17
19211.0	7.236292811161597e+17
19212.0	7.234792483454975e+17
19213.0	7.23322603254579e+17
19214.0	7.231699658211328e+17
19215.0	7.230268725264383e+17
19216.0	7.228775997636607e+17
19217.0	7.227267107957417e+17
19218.0	7.225310139383807e+17
19219.0	7.224151518827859e+17
19220.0	7.222720940998655e+17
19221.0	7.22104527880192e+17
19222.0	7.219697741201408e+17
19223.0	7.218183959565651e+17
19224.0	7.216636050276352e+17
19225.0	7.215062836751017e+17
19226.0	7.213606944899072e+17
19227.0	7.212078249716394e+17
19228.0	7.210564821800275e+17
19229.0	7.209035229036543e+17
19230.0	7.207501985830228e+17
19231.0	7.205962371476138e+17
19232.0	7.204428957701462e+17
19233.0	7.202855365290668e+17
19234.0	7.201343722749951e+17
19235.0	7.199801022786216e+17
19236.0	7.198269021093887e+17
19237.0	7.196712872793427e+17
19238.0	7.195116578013183e+17
19239.0	7.193620446008662e+17
19240.0	7.192042319555242e+17
19241.0	7.190486780826964e+17
19242.0	7.18893773627938e+17
19243.0	7.187284652021075e+17
19244.0	7.185820189807956e+17
19245.0	7.184251525704361e+17
19246.0	7.182671566340093e+17
19247.0	7.181105165762557e+17
19248.0	7.179528770158591e+17
19249.0	7.177947114897407e+17
19250.0	7.176352822198271e+17
19251.0	7.174711417678505e+17
19252.0	7.173017987011923e+17
19253.0	7.171581763649535e+17
19254.0	7.169995226218496e+17
19255.0	7.168287691505663e+17
19256.0	7.166776919982079e+17
19257.0	7.16518882087185e+17
19258.0	7.163577837638995e+17
19259.0	7.161920333982377e+17
19260.0	7.160270048722943e+17
19261.0	7.158723748648275e+17
19262.0	7.157069210364586e+17
19263.0	7.155433431804585e+17
19264.0	7.153547068746408e+17
19265.0	7.152091548789417e+17
19266.0	7.150465064807081e+17
19267.0	7.148908206271145e+17
19268.0	7.147257296060415e+17
19269.0	7.145601653276671e+17
19270.0	7.143938775318527e+17
19271.0	7.142097538777088e+17
19272.0	7.140584261855913e+17
19273.0	7.138187379299667e+17
19274.0	7.136743112660306e+17
19275.0	7.135578213231274e+17
19276.0	7.13388545225523e+17
19277.0	7.132199480459263e+17
19278.0	7.130514999039316e+17
19279.0	7.12880557409348e+17
19280.0	7.127069157403305e+17
19281.0	7.125389057632936e+17
19282.0	7.123681506142889e+17
19283.0	7.121917797116585e+17
19284.0	7.1201888155293e+17
19285.0	7.118398374805504e+17
19286.0	7.116738135064575e+17
19287.0	7.115012871028735e+17
19288.0	7.112114816679933e+17
19289.0	7.108743663015247e+17
19290.0	7.109738342208851e+17
19291.0	7.10782052606498e+17
19292.0	7.106193254951594e+17
19293.0	7.104404498939904e+17
19294.0	7.102616585983316e+17
19295.0	7.100817372173654e+17
19296.0	7.099010456223744e+17
19297.0	7.097194946144938e+17
19298.0	7.095363342521684e+17
19299.0	7.093543649323689e+17
19300.0	7.091704343560191e+17
19301.0	7.089854986846207e+17
19302.0	7.087995247831721e+17
19303.0	7.086096958969172e+17
19304.0	7.084246992683007e+17
19305.0	7.082374771419817e+17
19306.0	7.0804885747357e+17
19307.0	7.078384956517033e+17
19308.0	7.076443066466304e+17
19309.0	7.074429164410195e+17
19310.0	7.072437173398185e+17
19311.0	7.070621899598505e+17
19312.0	7.06868602278161e+17
19313.0	7.066718846670164e+17
19314.0	7.062075629109245e+17
19315.0	7.060270663510702e+17
19316.0	7.060739562930175e+17
19317.0	7.05874836324352e+17
19318.0	7.056721805574143e+17
19319.0	7.054706826980012e+17
19320.0	7.052670070161407e+17
19321.0	7.050624983455062e+17
19322.0	7.0485175973533e+17
19323.0	7.046455330777769e+17
19324.0	7.044423317716991e+17
19325.0	7.042253205798913e+17
19326.0	7.040248601116671e+17
19327.0	7.038146667610111e+17
19328.0	7.036044902574761e+17
19329.0	7.033925012553728e+17
19330.0	7.031773382137172e+17
19331.0	7.029627837655721e+17
19332.0	7.027500574048255e+17
19333.0	7.02534082765346e+17
19334.0	7.02316772589568e+17
19335.0	7.020987259639124e+17
19336.0	7.018793312889514e+17
19337.0	7.016587991886505e+17
19338.0	7.014255062679551e+17
19339.0	7.012109625152852e+17
19340.0	7.009787465520468e+17
19341.0	7.007501293016404e+17
19342.0	7.004992814011731e+17
19343.0	7.002854153781247e+17
19344.0	7.000500339736575e+17
19345.0	6.997113713983484e+17
19346.0	6.995308008090281e+17
19347.0	6.992865544634368e+17
19348.0	6.990433701156179e+17
19349.0	6.987976349319167e+17
19350.0	6.985514105525587e+17
19351.0	6.983033153039017e+17
19352.0	6.980510277085866e+17
19353.0	6.978034980618239e+17
19354.0	6.975498996766036e+17
19355.0	6.972895352498858e+17
19356.0	6.970360276713471e+17
19357.0	6.967759492961619e+17
19358.0	6.965128215221587e+17
19359.0	6.962445284627796e+17
19360.0	6.959791623984468e+17
19361.0	6.957098280331946e+17
19362.0	6.954341694963711e+17
19363.0	6.950783546643795e+17
19364.0	6.947993964685994e+17
19365.0	6.945176349398355e+17
19366.0	6.942329361399807e+17
19367.0	6.939452560987475e+17
19368.0	6.936544331956223e+17
19369.0	6.933575446997674e+17
19370.0	6.930552496761513e+17
19371.0	6.927588647064916e+17
19372.0	6.923264171442175e+17
19373.0	6.920130548902569e+17
19374.0	6.91701081649971e+17
19375.0	6.913836870620499e+17
19376.0	6.910621675858602e+17
19377.0	6.907357272823124e+17
19378.0	6.902802922078205e+17
19379.0	6.898735118286847e+17
19380.0	6.895296165795155e+17
19381.0	6.891801215150761e+17
19382.0	6.888199224470186e+17
19383.0	6.88196904026112e+17
19384.0	6.878288864957779e+17
19385.0	6.874500945674239e+17
19386.0	6.869307840877907e+17
19387.0	6.863284322609833e+17
19388.0	6.859162241728511e+17
19389.0	6.852507212972028e+17
19390.0	6.846356463288319e+17
19391.0	6.837674038001661e+17
19392.0	6.832082479917737e+17
19393.0	6.826377843397966e+17
19394.0	6.816303620816896e+17
19395.0	6.809236052202839e+17
19396.0	6.798711047498408e+17
19397.0	6.788546837523109e+17
19398.0	6.779204593691306e+17
19399.0	6.76840390018116e+17
19400.0	6.76252996267759e+17
19401.0	6.756279724102995e+17
19402.0	6.749716745639252e+17
19403.0	6.742979193951572e+17
19404.0	6.736093811922259e+17
19405.0	6.729023991666004e+17
19406.0	6.721710097170431e+17
19407.0	6.714115477908137e+17
19408.0	6.706225384609108e+17
19409.0	6.698794901045247e+17
19410.0	6.690863639953408e+17
19411.0	6.682716946825215e+17
19412.0	6.674333218198868e+17
19413.0	6.665151602229245e+17
19414.0	6.656168966138537e+17
19415.0	6.647055859231402e+17
19416.0	6.637227153031168e+17
19417.0	6.626706619454804e+17
19418.0	6.616790529824084e+17
19419.0	6.605090160203091e+17
19420.0	6.594097745057107e+17
19421.0	6.581062104077652e+17
19422.0	6.568775060378962e+17
19423.0	6.553577282950484e+17
19424.0	6.537517021003777e+17
19425.0	6.519750151285414e+17
19426.0	6.499682122814808e+17
19427.0	6.477006921269253e+17
19428.0	6.449178109192886e+17
19429.0	6.418869863667036e+17
19430.0	6.39019622788847e+17
19431.0	6.368294346249556e+17
19432.0	6.346587218728275e+17
19433.0	6.323084611725996e+17
19434.0	6.298758046285824e+17
19435.0	6.27158374765909e+17
19436.0	6.242357099189588e+17
19437.0	6.210164659060735e+17
19438.0	6.169886703921834e+17
19439.0	6.132329759462743e+17
19440.0	6.085866123777363e+17
19441.0	6.031906547520842e+17
19442.0	5.970079770476545e+17
19443.0	5.90193349431569e+17
19444.0	5.830358403994962e+17
19445.0	5.7490567919042586e+17
19446.0	5.651895454531583e+17
19447.0	5.534488998182904e+17
19448.0	5.390062771153584e+17
19449.0	5.207036804814164e+17
19450.0	4.966137227902963e+17
19451.0	4.860761007106736e+17
19452.0	5.0930615065422566e+17
19453.0	5.3038589586090726e+17
19454.0	5.462668313886713e+17
19455.0	5.59012959485952e+17
19456.0	5.6943529993175066e+17
19457.0	5.780359512500902e+17
19458.0	5.850467291977048e+17
19459.0	5.920805403754499e+17
19460.0	5.984112782693713e+17
19461.0	6.039408231492265e+17
19462.0	6.087139341107197e+17
19463.0	6.127843733929981e+17
19464.0	6.164571807023104e+17
19465.0	6.196618426580992e+17
19466.0	6.224950754366803e+17
19467.0	6.250329333039104e+17
19468.0	6.273551030725289e+17
19469.0	6.294819996783955e+17
19470.0	6.315414195098963e+17
19471.0	6.334635304113492e+17
19472.0	6.3558320610345e+17
19473.0	6.385623890569896e+17
19474.0	6.411276386653527e+17
19475.0	6.432865201247565e+17
19476.0	6.452348263421268e+17
19477.0	6.468871468176726e+17
19478.0	6.483253190634152e+17
19479.0	6.495688903535274e+17
19480.0	6.506734372432553e+17
19481.0	6.517267285497172e+17
19482.0	6.526294593721684e+17
19483.0	6.535461599532371e+17
19484.0	6.543543458507434e+17
19485.0	6.55111151174724e+17
19486.0	6.559016187243178e+17
19487.0	6.565768057585663e+17
19488.0	6.572212873418067e+17
19489.0	6.578784306899626e+17
19490.0	6.58441278534451e+17
19491.0	6.590687174022484e+17
19492.0	6.596186117679786e+17
19493.0	6.601461224614569e+17
19494.0	6.606549309631146e+17
19495.0	6.611493657946794e+17
19496.0	6.616298628142419e+17
19497.0	6.621010910511104e+17
19498.0	6.625079230900905e+17
19499.0	6.624548695485094e+17
19500.0	6.633691261785428e+17
19501.0	6.637555166478336e+17
19502.0	6.641088292279635e+17
19503.0	6.647102578185559e+17
19504.0	6.65224733663778e+17
19505.0	6.663156754197166e+17
19506.0	6.66798280496469e+17
19507.0	6.675590612516864e+17
19508.0	6.680299504489814e+17
19509.0	6.686163502891008e+17
19510.0	6.6897162783075e+17
19511.0	6.689759476842492e+17
19512.0	6.696102110341801e+17
19513.0	6.700779456255313e+17
19514.0	6.703086786226857e+17
19515.0	6.705718403006468e+17
19516.0	6.71020607480354e+17
19517.0	6.711406413305171e+17
19518.0	6.712587482475178e+17
19519.0	6.714816435585023e+17
19520.0	6.717117057466368e+17
19521.0	6.718047744862889e+17
19522.0	6.7188920170141e+17
19523.0	6.719716724834303e+17
19524.0	6.721836784724652e+17
19525.0	6.722955198682452e+17
19526.0	6.723593849274365e+17
19527.0	6.724181032959999e+17
19528.0	6.724718275067901e+17
19529.0	6.725221878857727e+17
19530.0	6.726068807401472e+17
19531.0	6.727360900497405e+17
19532.0	6.727741414047743e+17
19533.0	6.728086740882772e+17
19534.0	6.728396359510697e+17
19535.0	6.728669308736852e+17
19536.0	6.728901330643626e+17
19537.0	6.729139119718399e+17
19538.0	6.729275884787027e+17
19539.0	6.729206740986538e+17
19540.0	6.730294191194111e+17
19541.0	6.730490158863699e+17
19542.0	6.730553318091434e+17
19543.0	6.73059448029184e+17
19544.0	6.730609803482452e+17
19545.0	6.730367243386879e+17
19546.0	6.730115541805738e+17
19547.0	6.730520452923391e+17
19548.0	6.730445771243519e+17
19549.0	6.73029453512704e+17
19550.0	6.730232106407252e+17
19551.0	6.730097653798228e+17
19552.0	6.729943466988884e+17
19553.0	6.729758640089769e+17
19554.0	6.729559285519699e+17
19555.0	6.72936014066483e+17
19556.0	6.729202864750591e+17
19557.0	6.729325518782463e+17
19558.0	6.729059857858557e+17
19559.0	6.728776027209727e+17
19560.0	6.728461083912874e+17
19561.0	6.728151511422291e+17
19562.0	6.727828243830099e+17
19563.0	6.727476366890324e+17
19564.0	6.727088624457044e+17
19565.0	6.726670450251091e+17
19566.0	6.726230424420351e+17
19567.0	6.72579983577361e+17
19568.0	6.725332937736191e+17
19569.0	6.724882303112534e+17
19570.0	6.724413588941481e+17
19571.0	6.72392770818321e+17
19572.0	6.723417606018388e+17
19573.0	6.722919333887999e+17
19574.0	6.722361473979732e+17
19575.0	6.721889479862954e+17
19576.0	6.721353895903231e+17
19577.0	6.72080423166498e+17
19578.0	6.720233365919059e+17
19579.0	6.719675947111763e+17
19580.0	6.719103144995498e+17
19581.0	6.718523295749459e+17
19582.0	6.717938377687037e+17
19583.0	6.717334927092394e+17
19584.0	6.716719798856361e+17
19585.0	6.716037079411369e+17
19586.0	6.71538708881954e+17
19587.0	6.714805308096511e+17
19588.0	6.713931962428074e+17
19589.0	6.713504682388138e+17
19590.0	6.712805102540116e+17
19591.0	6.712170937057279e+17
19592.0	6.711480913231871e+17
19593.0	6.710760170323968e+17
19594.0	6.709920109953023e+17
19595.0	6.709304871266985e+17
19596.0	6.708324445716479e+17
19597.0	6.707824863565139e+17
19598.0	6.706916214439936e+17
19599.0	6.706317418124627e+17
19600.0	6.705544331700905e+17
19601.0	6.704724756310697e+17
19602.0	6.703943704204628e+17
19603.0	6.702916444356607e+17
19604.0	6.702523534540799e+17
19605.0	6.701579108002473e+17
19606.0	6.700924438664531e+17
19607.0	6.700098710230358e+17
19608.0	6.699258334587561e+17
19609.0	6.698391350280191e+17
19610.0	6.697572514485588e+17
19611.0	6.696714358489087e+17
19612.0	6.695855818713769e+17
19613.0	6.694987488034815e+17
19614.0	6.694088642396159e+17
19615.0	6.693230911422463e+17
19616.0	6.692312914591743e+17
19617.0	6.691450694314665e+17
19618.0	6.690253596611923e+17
19619.0	6.689272627899049e+17
19620.0	6.688384962177705e+17
19621.0	6.687822172564137e+17
19622.0	6.686902844740948e+17
19623.0	6.685977188412074e+17
19624.0	6.68504598721331e+17
19625.0	6.684109445966505e+17
19626.0	6.683167677917865e+17
19627.0	6.682218420939434e+17
19628.0	6.681184206236329e+17
19629.0	6.680252782040403e+17
19630.0	6.679037250371583e+17
19631.0	6.674628808977066e+17
19632.0	6.677406398021631e+17
19633.0	6.676443005539667e+17
19634.0	6.675495900239188e+17
19635.0	6.674497262321663e+17
19636.0	6.673540896697002e+17
19637.0	6.672330643559763e+17
19638.0	6.671562821686611e+17
19639.0	6.670565269394771e+17
19640.0	6.669528728251049e+17
19641.0	6.66820878986991e+17
19642.0	6.667572797767679e+17
19643.0	6.666563719528447e+17
19644.0	6.665517318275071e+17
19645.0	6.664392324153341e+17
19646.0	6.663521288148308e+17
19647.0	6.662500563025919e+17
19648.0	6.66147615740177e+17
19649.0	6.660447131052714e+17
19650.0	6.659417953009663e+17
19651.0	6.658384226243923e+17
19652.0	6.65734752571665e+17
19653.0	6.656306881844564e+17
19654.0	6.655265510260733e+17
19655.0	6.654217689235455e+17
19656.0	6.653168481293652e+17
19657.0	6.652121659910826e+17
19658.0	6.651068397475156e+17
19659.0	6.650011702700714e+17
19660.0	6.648954213105661e+17
19661.0	6.647893414204758e+17
19662.0	6.646860815007743e+17
19663.0	6.646064749390506e+17
19664.0	6.645007971429033e+17
19665.0	6.643951050162173e+17
