# Flux units: erg / (cm m2 s)
# Wavelength units: Angstrom
wave	flux
19000.0	5.071217904757419e+17
19001.0	5.070144604034388e+17
19002.0	5.069342959992832e+17
19003.0	5.0683982922820256e+17
19004.0	5.0674573239473485e+17
19005.0	5.0665068387368954e+17
19006.0	5.0655811355716256e+17
19007.0	5.064634423137621e+17
19008.0	5.063605846278143e+17
19009.0	5.062616131742378e+17
19010.0	5.061094706686633e+17
19011.0	5.060828043324074e+17
19012.0	5.0597736812817056e+17
19013.0	5.058987031177898e+17
19014.0	5.0579793349618336e+17
19015.0	5.05704765002001e+17
19016.0	5.0560818402208403e+17
19017.0	5.055233394737152e+17
19018.0	5.05427922133538e+17
19019.0	5.0533419335024634e+17
19020.0	5.052390537428991e+17
19021.0	5.051476229488639e+17
19022.0	5.0505318707582285e+17
19023.0	5.0495522204549114e+17
19024.0	5.0486300111448736e+17
19025.0	5.0477184791347194e+17
19026.0	5.0467465379621536e+17
19027.0	5.0457922799752525e+17
19028.0	5.0449107896674976e+17
19029.0	5.0439482367453856e+17
19030.0	5.043045739965098e+17
19031.0	5.042115165115732e+17
19032.0	5.0411668064174074e+17
19033.0	5.0401107317009056e+17
19034.0	5.039281528285866e+17
19035.0	5.038317453530453e+17
19036.0	5.0319697819729894e+17
19037.0	5.0364785406334285e+17
19038.0	5.0355271851048954e+17
19039.0	5.03461818994961e+17
19040.0	5.033688428795221e+17
19041.0	5.032740852334591e+17
19042.0	5.0316326864595616e+17
19043.0	5.0308825205090976e+17
19044.0	5.0299315962948256e+17
19045.0	5.0290117623589536e+17
19046.0	5.027985523823955e+17
19047.0	5.027114008969215e+17
19048.0	5.025875022752425e+17
19049.0	5.025067359884628e+17
19050.0	5.0242691894258336e+17
19051.0	5.022615724883966e+17
19052.0	5.022336878466388e+17
19053.0	5.021538354987008e+17
19054.0	5.020603690691242e+17
19055.0	5.01930253090816e+17
19056.0	5.018690650461525e+17
19057.0	5.0177947380394656e+17
19058.0	5.016797991753044e+17
19059.0	5.015908806295551e+17
19060.0	5.0149719253101216e+17
19061.0	5.014075154453845e+17
19062.0	5.0131352857258656e+17
19063.0	5.01220624249651e+17
19064.0	5.0110960144220154e+17
19065.0	5.010115282687315e+17
19066.0	5.009318471183019e+17
19067.0	5.008464183033855e+17
19068.0	5.0075502602704205e+17
19069.0	5.0066212841499296e+17
19070.0	5.0056484635716256e+17
19071.0	5.00475282797363e+17
19072.0	5.003806552446293e+17
19073.0	5.002892016615424e+17
19074.0	5.001969357116757e+17
19075.0	5.0010392820886176e+17
19076.0	5.000080018199892e+17
19077.0	4.9991544457570976e+17
19078.0	4.998186762502142e+17
19079.0	4.9973152105977165e+17
19080.0	4.9963697718340256e+17
19081.0	4.9954024996208634e+17
19082.0	4.994471641655978e+17
19083.0	4.9934801039960736e+17
19084.0	4.992391097002667e+17
19085.0	4.991727979637419e+17
19086.0	4.990317670083241e+17
19087.0	4.9897046935251616e+17
19088.0	4.988834187400532e+17
19089.0	4.987742207344639e+17
19090.0	4.985443060460202e+17
19091.0	4.9840886840470176e+17
19092.0	4.9830778532877645e+17
19093.0	4.982277857607679e+17
19094.0	4.981351198840148e+17
19095.0	4.9804249972517536e+17
19096.0	4.979475596967935e+17
19097.0	4.9785698537963514e+17
19098.0	4.977621557313535e+17
19099.0	4.9766851328081914e+17
19100.0	4.9757658986577914e+17
19101.0	4.9748669474624845e+17
19102.0	4.9737661244156576e+17
19103.0	4.973018278614356e+17
19104.0	4.9720983789677216e+17
19105.0	4.971114518282239e+17
19106.0	4.970225887171924e+17
19107.0	4.969284222582783e+17
19108.0	4.968380816337578e+17
19109.0	4.967145354035198e+17
19110.0	4.966545700683774e+17
19111.0	4.9656149720432614e+17
19112.0	4.9646892220415994e+17
19113.0	4.9637786211669325e+17
19114.0	4.9628485062929056e+17
19115.0	4.9618658724413434e+17
19116.0	4.960987604058111e+17
19117.0	4.960060815966208e+17
19118.0	4.959046644443819e+17
19119.0	4.945782473315651e+17
19120.0	4.957270414721023e+17
19121.0	4.9563736284856314e+17
19122.0	4.955484561866751e+17
19123.0	4.954562981003264e+17
19124.0	4.9536213401818445e+17
19125.0	4.952717795524607e+17
19126.0	4.9517924195150496e+17
19127.0	4.948255897725609e+17
19128.0	4.9499136984787616e+17
19129.0	4.9489358552214176e+17
19130.0	4.9480914600372896e+17
19131.0	4.947191671379285e+17
19132.0	4.946271412420607e+17
19133.0	4.9452467858964474e+17
19134.0	4.944413548959061e+17
19135.0	4.9435115422132896e+17
19136.0	4.9426006784955725e+17
19137.0	4.941445659448661e+17
19138.0	4.940740406105427e+17
19139.0	4.9398426999193594e+17
19140.0	4.938925997730474e+17
19141.0	4.9380073179272525e+17
19142.0	4.937054325921108e+17
19143.0	4.9360865378085536e+17
19144.0	4.9352005050695674e+17
19145.0	4.934330254797481e+17
19146.0	4.932580546357931e+17
19147.0	4.9323455604763296e+17
19148.0	4.9315612074530125e+17
19149.0	4.9306327010945696e+17
19150.0	4.9297371724513274e+17
19151.0	4.928824915525632e+17
19152.0	4.9279045230482765e+17
19153.0	4.9269320016636576e+17
19154.0	4.92589598900224e+17
19155.0	4.9251668372138656e+17
19156.0	4.9242471717492045e+17
19157.0	4.9233144710867616e+17
19158.0	4.922161605115903e+17
19159.0	4.9214753701451085e+17
19160.0	4.920571726222676e+17
19161.0	4.9196701270234445e+17
19162.0	4.9182292451874125e+17
19163.0	4.917831118356478e+17
19164.0	4.9169273968394234e+17
19165.0	4.915944088403966e+17
19166.0	4.9148969797113165e+17
19167.0	4.914136665642325e+17
19168.0	4.913258502116692e+17
19169.0	4.912334873733802e+17
19170.0	4.911441837905236e+17
19171.0	4.910494999642111e+17
19172.0	4.909616341887658e+17
19173.0	4.9087020220634445e+17
19174.0	4.90769852923904e+17
19175.0	4.906871077644971e+17
19176.0	4.90595767357713e+17
19177.0	4.9048369513540256e+17
19178.0	4.904125484848468e+17
19179.0	4.903098822688766e+17
19180.0	4.9011055726865056e+17
19181.0	4.899999613714432e+17
19182.0	4.8992652344251725e+17
19183.0	4.8983861348706976e+17
19184.0	4.8974610587538765e+17
19185.0	4.896548274743978e+17
19186.0	4.895649606664191e+17
19187.0	4.894658857533439e+17
19188.0	4.893825728948906e+17
19189.0	4.892923398542676e+17
19190.0	4.892010934697984e+17
19191.0	4.8910586025956685e+17
19192.0	4.890190087367338e+17
19193.0	4.889266336650581e+17
19194.0	4.8883454100985165e+17
19195.0	4.8874591452747085e+17
19196.0	4.886526197148329e+17
19197.0	4.8856278688071674e+17
19198.0	4.884723481793876e+17
19199.0	4.8807710437321363e+17
19200.0	4.8808603984855046e+17
19201.0	4.881998570411349e+17
19202.0	4.8810962260241056e+17
19203.0	4.8801798265241594e+17
19204.0	4.879241557923157e+17
19205.0	4.8783563409762976e+17
19206.0	4.8774374262920525e+17
19207.0	4.8763916276203514e+17
19208.0	4.8752983871761056e+17
19209.0	4.874724024778751e+17
19210.0	4.8738144850629965e+17
19211.0	4.87292420559121e+17
19212.0	4.8720123016861005e+17
19213.0	4.870982667862014e+17
19214.0	4.8700261673205754e+17
19215.0	4.869282815716009e+17
19216.0	4.868385667372372e+17
19217.0	4.867470682750975e+17
19218.0	4.865404600057854e+17
19219.0	4.8654766120632314e+17
19220.0	4.864724866957311e+17
19221.0	4.8633871754854406e+17
19222.0	4.8629331001344e+17
19223.0	4.862007798224213e+17
19224.0	4.8610691919817376e+17
19225.0	4.8600093032447994e+17
19226.0	4.859284351352832e+17
19227.0	4.8583815071443616e+17
19228.0	4.8575058713859405e+17
19229.0	4.856598509213013e+17
19230.0	4.855680687844011e+17
19231.0	4.8547696214015994e+17
19232.0	4.853868472390996e+17
19233.0	4.8528816638088525e+17
19234.0	4.8520338733356365e+17
19235.0	4.851117387153407e+17
19236.0	4.8502541882053965e+17
19237.0	4.849322691308202e+17
19238.0	4.848311878724266e+17
19239.0	4.8475394640882336e+17
19240.0	4.8466108934171296e+17
19241.0	4.845693429263017e+17
19242.0	4.8447991491242656e+17
19243.0	4.8437056542255763e+17
19244.0	4.843011440989525e+17
19245.0	4.842098989028693e+17
19246.0	4.84117495030306e+17
19247.0	4.8402823541773645e+17
19248.0	4.8393893386212685e+17
19249.0	4.8384793256482125e+17
19250.0	4.837541656133632e+17
19251.0	4.836493178000725e+17
19252.0	4.835416528825002e+17
19253.0	4.834820549683882e+17
19254.0	4.8339513340067834e+17
19255.0	4.832816430142804e+17
19256.0	4.8320885876763296e+17
19257.0	4.8312339346227194e+17
19258.0	4.830329472111955e+17
19259.0	4.8293359589348685e+17
19260.0	4.828383479332863e+17
19261.0	4.827593388501674e+17
19262.0	4.8266294381772794e+17
19263.0	4.8257062019618125e+17
19264.0	4.8240727505414803e+17
19265.0	4.8236805181057696e+17
19266.0	4.82262831333376e+17
19267.0	4.822174759474516e+17
19268.0	4.821258547320149e+17
19269.0	4.820355492697429e+17
19270.0	4.8194508169762125e+17
19271.0	4.8180345738799795e+17
19272.0	4.817589047918591e+17
19273.0	4.815761660269908e+17
19274.0	4.815025094350163e+17
19275.0	4.8149158138565965e+17
19276.0	4.8139800143025485e+17
19277.0	4.813080238926507e+17
19278.0	4.812174953633109e+17
19279.0	4.81124814107443e+17
19280.0	4.810237988394324e+17
19281.0	4.8094398018573645e+17
19282.0	4.8085555502994765e+17
19283.0	4.807597922888362e+17
19284.0	4.8067005550428154e+17
19285.0	4.8055850687092045e+17
19286.0	4.804864706783913e+17
19287.0	4.80400242848563e+17
19288.0	4.8015392577508666e+17
19289.0	4.7986613884900634e+17
19290.0	4.8012696143353165e+17
19291.0	4.800023218181462e+17
19292.0	4.79944595542289e+17
19293.0	4.798522933815977e+17
19294.0	4.797606044281514e+17
19295.0	4.796706029131093e+17
19296.0	4.795759139138217e+17
19297.0	4.7948444278456314e+17
19298.0	4.7939201255778976e+17
19299.0	4.7929373316437325e+17
19300.0	4.7898174894899194e+17
19301.0	4.7875689573690016e+17
19302.0	4.7866157843087354e+17
19303.0	4.785616746534228e+17
19304.0	4.784751495872511e+17
19305.0	4.783852932650325e+17
19306.0	4.782945443949226e+17
19307.0	4.78196736790801e+17
19308.0	4.7810736204458656e+17
19309.0	4.7800595467905696e+17
19310.0	4.7790833700700154e+17
19311.0	4.7782852017083725e+17
19312.0	4.77739919413521e+17
19313.0	4.7764883010573645e+17
19314.0	4.7654190148048256e+17
19315.0	4.7652233610089914e+17
19316.0	4.7736594792884896e+17
19317.0	4.772758360337066e+17
19318.0	4.7718233409235616e+17
19319.0	4.7709138662195194e+17
19320.0	4.7699663722468685e+17
19321.0	4.7690228817373856e+17
19322.0	4.768003601552724e+17
19323.0	4.7671164482355194e+17
19324.0	4.766224104467114e+17
19325.0	4.765183296318123e+17
19326.0	4.764347350559402e+17
19327.0	4.7633803705494176e+17
19328.0	4.762409489836714e+17
19329.0	4.7615120443965434e+17
19330.0	4.760507587581268e+17
19331.0	4.7595492771976525e+17
19332.0	4.7586533081524896e+17
19333.0	4.757687533305855e+17
19334.0	4.75674211062033e+17
19335.0	4.754909331892906e+17
19336.0	4.754032707676842e+17
19337.0	4.7530679310745594e+17
19338.0	4.7518213909162656e+17
19339.0	4.7511380031788365e+17
19340.0	4.748357149567657e+17
19341.0	4.746353050299049e+17
19342.0	4.744943346821801e+17
19343.0	4.744500666695679e+17
19344.0	4.743470068880725e+17
19345.0	4.7395797925014125e+17
19346.0	4.7402077532105363e+17
19347.0	4.7403855979915936e+17
19348.0	4.7395219530492576e+17
19349.0	4.7384712358570656e+17
19350.0	4.7374511154135034e+17
19351.0	4.7364356569388365e+17
19352.0	4.735315668019881e+17
19353.0	4.7344391269908474e+17
19354.0	4.733411440022868e+17
19355.0	4.73224259375377e+17
19356.0	4.731328645824511e+17
19357.0	4.7302839740224845e+17
19358.0	4.726460777846102e+17
19359.0	4.724875483327146e+17
19360.0	4.723781511675902e+17
19361.0	4.7227319353344e+17
19362.0	4.721687221589334e+17
19363.0	4.7205779973515936e+17
19364.0	4.719459001084585e+17
19365.0	4.7183362537117e+17
19366.0	4.717200843735039e+17
19367.0	4.716056841726634e+17
19368.0	4.714171832030548e+17
19369.0	4.711805232349183e+17
19370.0	4.7105829184907936e+17
19371.0	4.7094081680397645e+17
19372.0	4.708259025911807e+17
19373.0	4.707000908076373e+17
19374.0	4.7057727291828896e+17
19375.0	4.7045134683996154e+17
19376.0	4.7032400784042656e+17
19377.0	4.701929628936874e+17
19378.0	4.700620762819242e+17
19379.0	4.6992923959842125e+17
19380.0	4.6979401600641696e+17
19381.0	4.6965609128263674e+17
19382.0	4.6950790743108256e+17
19383.0	4.6935987653181434e+17
19384.0	4.6922922703803725e+17
19385.0	4.690832467339946e+17
19386.0	4.6893406037387936e+17
19387.0	4.687813210188458e+17
19388.0	4.6862550129704954e+17
19389.0	4.6846630900531194e+17
19390.0	4.683037249896447e+17
19391.0	4.67655267695547e+17
19392.0	4.679591788543998e+17
19393.0	4.677937782237866e+17
19394.0	4.6761406425115296e+17
19395.0	4.674298799893161e+17
19396.0	4.672437910940329e+17
19397.0	4.67052503428847e+17
19398.0	4.6685025793474554e+17
19399.0	4.6654071669172896e+17
19400.0	4.664302118109183e+17
19401.0	4.6622416438995616e+17
19402.0	4.660028398458195e+17
19403.0	4.6577015321176736e+17
19404.0	4.6553475649809056e+17
19405.0	4.65287103189265e+17
19406.0	4.650339651289087e+17
19407.0	4.647708155445246e+17
19408.0	4.643850178002946e+17
19409.0	4.642171220481366e+17
19410.0	4.639285475715755e+17
19411.0	4.636268765904895e+17
19412.0	4.633131895575893e+17
19413.0	4.6298759084113914e+17
19414.0	4.6264683852376736e+17
19415.0	4.6230046374188365e+17
19416.0	4.6191917242777594e+17
19417.0	4.61559626273041e+17
19418.0	4.61178830725666e+17
19419.0	4.607789086627155e+17
19420.0	4.6036621829952845e+17
19421.0	4.5993904465510406e+17
19422.0	4.5948956388447565e+17
19423.0	4.590253808200362e+17
19424.0	4.5856113435170125e+17
19425.0	4.580896940228607e+17
19426.0	4.5760553299913376e+17
19427.0	4.571091411053226e+17
19428.0	4.566045176102911e+17
19429.0	4.5608770379011405e+17
19430.0	4.5554510660457805e+17
19431.0	4.54934977769199e+17
19432.0	4.544695765390676e+17
19433.0	4.538980893371049e+17
19434.0	4.533569109448021e+17
19435.0	4.527328182927359e+17
19436.0	4.5206322331429536e+17
19437.0	4.5133735210079565e+17
19438.0	4.494603686248446e+17
19439.0	4.4903966462443546e+17
19440.0	4.467174379530921e+17
19441.0	4.424246578468172e+17
19442.0	4.395256878814549e+17
19443.0	4.3698767160934394e+17
19444.0	4.340721459571368e+17
19445.0	4.31026302231074e+17
19446.0	4.272864451974477e+17
19447.0	4.178557223130459e+17
19448.0	4.0743218243611334e+17
19449.0	3.939885168372409e+17
19450.0	3.477768776624854e+17
19451.0	3.263173041848299e+17
19452.0	3.763939153630537e+17
19453.0	4.0240819708013286e+17
19454.0	4.1170053631399136e+17
19455.0	4.2339358792308026e+17
19456.0	4.2863658808989024e+17
19457.0	4.316853050540031e+17
19458.0	4.3153941373911456e+17
19459.0	4.3697823023104096e+17
19460.0	4.393342132202149e+17
19461.0	4.432590366834686e+17
19462.0	4.4635807508944237e+17
19463.0	4.478959207754408e+17
19464.0	4.48817607405295e+17
19465.0	4.4947696317890554e+17
19466.0	4.4998174997217274e+17
19467.0	4.504936240207189e+17
19468.0	4.508849791478442e+17
19469.0	4.512191190051497e+17
19470.0	4.5167034963940685e+17
19471.0	4.5204155253391354e+17
19472.0	4.524084203356159e+17
19473.0	4.527612887389525e+17
19474.0	4.531085107702442e+17
19475.0	4.5331749203694906e+17
19476.0	4.537527111953065e+17
19477.0	4.5406901093007354e+17
19478.0	4.5436912260874234e+17
19479.0	4.546570087301119e+17
19480.0	4.549485558497279e+17
19481.0	4.5520782346594976e+17
19482.0	4.5546027456921594e+17
19483.0	4.556979810162004e+17
19484.0	4.559169839431678e+17
19485.0	4.561178393750187e+17
19486.0	4.563121797944661e+17
19487.0	4.5650361146408954e+17
19488.0	4.5667553402770765e+17
19489.0	4.5681666075306656e+17
19490.0	4.567667927154685e+17
19491.0	4.5710780333206176e+17
19492.0	4.5723599894828365e+17
19493.0	4.573485060500138e+17
19494.0	4.574509522747391e+17
19495.0	4.5754497361073485e+17
19496.0	4.575651942105086e+17
19497.0	4.5770287943953056e+17
19498.0	4.577169033745749e+17
19499.0	4.570628666075815e+17
19500.0	4.578882002179412e+17
19501.0	4.579348273168383e+17
19502.0	4.5797402385667405e+17
19503.0	4.5800866069872634e+17
19504.0	4.5803643859544736e+17
19505.0	4.580578935788885e+17
19506.0	4.580761664836949e+17
19507.0	4.5808507602425165e+17
19508.0	4.5809662874528416e+17
19509.0	4.5809988254651725e+17
19510.0	4.580694363734015e+17
19511.0	4.564494792174242e+17
19512.0	4.579643870238033e+17
19513.0	4.57813945378406e+17
19514.0	4.578953833130663e+17
19515.0	4.5797377506454195e+17
19516.0	4.580179316484779e+17
19517.0	4.579871197320532e+17
19518.0	4.579704238855508e+17
19519.0	4.579406011258197e+17
19520.0	4.579036291050155e+17
19521.0	4.5787773619841696e+17
19522.0	4.5783698769619616e+17
19523.0	4.57803413131537e+17
19524.0	4.5776249014626976e+17
19525.0	4.577219199019689e+17
19526.0	4.5768044033256096e+17
19527.0	4.5763457918347936e+17
19528.0	4.575876375816874e+17
19529.0	4.5753944670644896e+17
19530.0	4.5749268175476045e+17
19531.0	4.5744220505374714e+17
19532.0	4.5739045789805216e+17
19533.0	4.5733750781597005e+17
19534.0	4.572828705751038e+17
19535.0	4.5722578770548045e+17
19536.0	4.57213979271714e+17
19537.0	4.572869773579604e+17
19538.0	4.5720785649664e+17
19539.0	4.5708599337069235e+17
19540.0	4.571025546499413e+17
19541.0	4.5704328025647776e+17
19542.0	4.569806503499092e+17
19543.0	4.569145565773824e+17
19544.0	4.568537881029291e+17
19545.0	4.5671765840145043e+17
19546.0	4.565937899088555e+17
19547.0	4.5665911067115514e+17
19548.0	4.565924243832831e+17
19549.0	4.5661488488120346e+17
19550.0	4.5675223876020896e+17
19551.0	4.566833663311872e+17
19552.0	4.566135218722131e+17
19553.0	4.565399320395775e+17
19554.0	4.5646708180254714e+17
19555.0	4.5639969443676154e+17
19556.0	4.56330681987891e+17
19557.0	4.562587031175168e+17
19558.0	4.561866783195136e+17
19559.0	4.561145715228672e+17
19560.0	4.5603773620770125e+17
19561.0	4.559657411193513e+17
19562.0	4.558941977575423e+17
19563.0	4.5582408290577056e+17
19564.0	4.5575281462039885e+17
19565.0	4.556788484188842e+17
19566.0	4.5560033580154874e+17
19567.0	4.555300454880596e+17
19568.0	4.5545244548136954e+17
19569.0	4.5537751906385914e+17
19570.0	4.5530550055731194e+17
19571.0	4.5522925978473805e+17
19572.0	4.5515032445146445e+17
19573.0	4.5507551903962445e+17
19574.0	4.549914728770219e+17
19575.0	4.5503916302226765e+17
19576.0	4.5509620940144634e+17
19577.0	4.5501549945815034e+17
19578.0	4.5493622620378445e+17
19579.0	4.5486210711988896e+17
19580.0	4.5478478987919354e+17
19581.0	4.5477496458226336e+17
19582.0	4.547045888447828e+17
19583.0	4.5462693794720416e+17
19584.0	4.5454825832666445e+17
19585.0	4.544564178190336e+17
19586.0	4.5437445300988576e+17
19587.0	4.543131508102485e+17
19588.0	4.5416805354700806e+17
19589.0	4.541557980703402e+17
19590.0	4.5406241049367885e+17
19591.0	4.540007704428543e+17
19592.0	4.539228118231723e+17
19593.0	4.538417673142272e+17
19594.0	4.537330762601812e+17
19595.0	4.536814278104403e+17
19596.0	4.535965197882709e+17
19597.0	4.5352739031831885e+17
19598.0	4.5337381056457376e+17
19599.0	4.533706200274261e+17
19600.0	4.532926796529664e+17
19601.0	4.532041267107157e+17
19602.0	4.531270660915198e+17
19603.0	4.529910954240681e+17
19604.0	4.529691684416171e+17
19605.0	4.528550271691434e+17
19606.0	4.528158024575658e+17
19607.0	4.5273756967021216e+17
19608.0	4.5265550531624954e+17
19609.0	4.525711156401492e+17
19610.0	4.5249704094597114e+17
19611.0	4.5241507250175994e+17
19612.0	4.52339610681344e+17
19613.0	4.522585339461631e+17
19614.0	4.5217500249456634e+17
19615.0	4.52100333187891e+17
19616.0	4.520146485204309e+17
19617.0	4.5193607627407354e+17
19618.0	4.5177298649524883e+17
19619.0	4.516736760020989e+17
19620.0	4.5159955600943776e+17
19621.0	4.516171425862997e+17
19622.0	4.5154126476083194e+17
19623.0	4.514611102831957e+17
19624.0	4.513795398085289e+17
19625.0	4.5130122781873485e+17
19626.0	4.5122020805618336e+17
19627.0	4.511410490966015e+17
19628.0	4.5105261702021114e+17
19629.0	4.509604139149993e+17
19630.0	4.5088162020939085e+17
19631.0	4.5047339048850765e+17
19632.0	4.507397387889323e+17
19633.0	4.50655043138355e+17
19634.0	4.5057997201735674e+17
19635.0	4.5049468587868154e+17
19636.0	4.5041495446650874e+17
19637.0	4.502922941431807e+17
19638.0	4.5025694308106234e+17
19639.0	4.501771038752766e+17
19640.0	4.50079349538816e+17
19641.0	4.498299585298435e+17
19642.0	4.4993669979176954e+17
19643.0	4.498558998806528e+17
19644.0	4.497686529048575e+17
19645.0	4.496559481815038e+17
19646.0	4.496129711057578e+17
19647.0	4.495366281319764e+17
19648.0	4.494559788662783e+17
19649.0	4.4937516693149e+17
19650.0	4.492956898339498e+17
19651.0	4.492148365852672e+17
19652.0	4.491341922828288e+17
19653.0	4.4905469302538234e+17
19654.0	4.4897363789086714e+17
