# Flux units: erg / (cm m2 s)
# Wavelength units: Angstrom
wave	flux
19000.0	7.518175840523603e+17
19001.0	7.516552347080019e+17
19002.0	7.515370364250794e+17
19003.0	7.513955035512832e+17
19004.0	7.512550746182995e+17
19005.0	7.511133000127827e+17
19006.0	7.509728361272662e+17
19007.0	7.508207274557439e+17
19008.0	7.506761574864212e+17
19009.0	7.505346296457898e+17
19010.0	7.503079543581353e+17
19011.0	7.502611094350505e+17
19012.0	7.500965291403944e+17
19013.0	7.499843780651689e+17
19014.0	7.498293742054057e+17
19015.0	7.496945613056684e+17
19016.0	7.495515724491434e+17
19017.0	7.494016585170943e+17
19018.0	7.492764284835155e+17
19019.0	7.491363784359935e+17
19020.0	7.489860295546196e+17
19021.0	7.488514265098921e+17
19022.0	7.487146288655017e+17
19023.0	7.485644132231849e+17
19024.0	7.484285739772585e+17
19025.0	7.482907436952234e+17
19026.0	7.481442676943529e+17
19027.0	7.479975782034089e+17
19028.0	7.478678880867667e+17
19029.0	7.477233052549117e+17
19030.0	7.475881080171177e+17
19031.0	7.474483120046079e+17
19032.0	7.473067128608084e+17
19033.0	7.471448963328681e+17
19034.0	7.4702020149248e+17
19035.0	7.468747539349501e+17
19036.0	7.456898383085564e+17
19037.0	7.465983922230612e+17
19038.0	7.464540902697641e+17
19039.0	7.463174039142397e+17
19040.0	7.461775142289408e+17
19041.0	7.460344927966548e+17
19042.0	7.458742550047402e+17
19043.0	7.457543007065427e+17
19044.0	7.456100110565375e+17
19045.0	7.454712088144556e+17
19046.0	7.453162049546921e+17
19047.0	7.451864222837417e+17
19048.0	7.450009077983914e+17
19049.0	7.448907888634536e+17
19050.0	7.447541401168553e+17
19051.0	7.444540284381861e+17
19052.0	7.444588369281023e+17
19053.0	7.443388212532563e+17
19054.0	7.442002365557417e+17
19055.0	7.440017718771713e+17
19056.0	7.439122655696212e+17
19057.0	7.437753451719338e+17
19058.0	7.436300890144768e+17
19059.0	7.434943456783017e+17
19060.0	7.433486597444947e+17
19061.0	7.432133530353663e+17
19062.0	7.430712098903378e+17
19063.0	7.429305536260778e+17
19064.0	7.42759589880354e+17
19065.0	7.426062500407977e+17
19066.0	7.424930035531775e+17
19067.0	7.423631458041855e+17
19068.0	7.422252874203136e+17
19069.0	7.420845764902911e+17
19070.0	7.419365021799764e+17
19071.0	7.418004431525204e+17
19072.0	7.416612719514964e+17
19073.0	7.415181997681322e+17
19074.0	7.413793884383913e+17
19075.0	7.412383591606953e+17
19076.0	7.410924415614973e+17
19077.0	7.409538549066409e+17
19078.0	7.40803493582165e+17
19079.0	7.406733426513236e+17
19080.0	7.405292934747475e+17
19081.0	7.403820050371923e+17
19082.0	7.402392342844756e+17
19083.0	7.400821767536637e+17
19084.0	7.399119562386089e+17
19085.0	7.3982496749213e+17
19086.0	7.395962767015935e+17
19087.0	7.395125951638186e+17
19088.0	7.393862785258836e+17
19089.0	7.392044625778004e+17
19090.0	7.391162869830996e+17
19091.0	7.389758133108735e+17
19092.0	7.388211648484692e+17
19093.0	7.387004344642217e+17
19094.0	7.385592052580352e+17
19095.0	7.384180490327382e+17
19096.0	7.38274221035793e+17
19097.0	7.38137188789999e+17
19098.0	7.379959446241276e+17
19099.0	7.378545381386921e+17
19100.0	7.377129433290067e+17
19101.0	7.375737991113385e+17
19102.0	7.374135676108797e+17
19103.0	7.372914623337812e+17
19104.0	7.371524535921321e+17
19105.0	7.37010844382003e+17
19106.0	7.368648557592575e+17
19107.0	7.367256406578516e+17
19108.0	7.365892575505064e+17
19109.0	7.363412834473299e+17
19110.0	7.36305597330227e+17
19111.0	7.361673994873513e+17
19112.0	7.360268066968916e+17
19113.0	7.358857476396372e+17
19114.0	7.357441672303956e+17
19115.0	7.355925787923795e+17
19116.0	7.354587329593343e+17
19117.0	7.353176758594217e+17
19118.0	7.351598692259155e+17
19119.0	7.344699635400692e+17
19120.0	7.348891584998058e+17
19121.0	7.34754710224896e+17
19122.0	7.346206829182975e+17
19123.0	7.344785987731455e+17
19124.0	7.343334494306301e+17
19125.0	7.3419709232797e+17
19126.0	7.340562011826857e+17
19127.0	7.335423891559763e+17
19128.0	7.336989323253075e+17
19129.0	7.336164060386644e+17
19130.0	7.334917044873897e+17
19131.0	7.333527417432745e+17
19132.0	7.332140839250602e+17
19133.0	7.329762368290816e+17
19134.0	7.328977537116841e+17
19135.0	7.3279239894685e+17
19136.0	7.326536840861011e+17
19137.0	7.324772678849875e+17
19138.0	7.323644239107411e+17
19139.0	7.322319803733331e+17
19140.0	7.320920715340458e+17
19141.0	7.319516937715711e+17
19142.0	7.318056837578751e+17
19143.0	7.316577808547839e+17
19144.0	7.315213648920575e+17
19145.0	7.313886127936851e+17
19146.0	7.311157361289898e+17
19147.0	7.310884103782399e+17
19148.0	7.309677268303871e+17
19149.0	7.308267350218067e+17
19150.0	7.30685980610833e+17
19151.0	7.305465784434687e+17
19152.0	7.304037545629011e+17
19153.0	7.302627233278633e+17
19154.0	7.300983145802412e+17
19155.0	7.299867309943466e+17
19156.0	7.298456572570284e+17
19157.0	7.29702896570641e+17
19158.0	7.29490727842611e+17
19159.0	7.294206516483412e+17
19160.0	7.292790681632768e+17
19161.0	7.291362596618239e+17
19162.0	7.288365925793792e+17
19163.0	7.288599185020244e+17
19164.0	7.287239037943807e+17
19165.0	7.285792333015721e+17
19166.0	7.284177844742825e+17
19167.0	7.282874724821672e+17
19168.0	7.281398619220649e+17
19169.0	7.280077382702419e+17
19170.0	7.278819664723965e+17
19171.0	7.277319096543913e+17
19172.0	7.276003193782271e+17
19173.0	7.274611831297364e+17
19174.0	7.273081033370281e+17
19175.0	7.271808756962644e+17
19176.0	7.270394675331071e+17
19177.0	7.268665580497577e+17
19178.0	7.267564008068436e+17
19179.0	7.266065233652393e+17
19180.0	7.264667315470335e+17
19181.0	7.263171460289875e+17
19182.0	7.261868292833279e+17
19183.0	7.260569957214889e+17
19184.0	7.25897094452565e+17
19185.0	7.257739705188351e+17
19186.0	7.25637106045201e+17
19187.0	7.254782407693654e+17
19188.0	7.253552714656425e+17
19189.0	7.252132445028351e+17
19190.0	7.250721586020351e+17
19191.0	7.249268948948308e+17
19192.0	7.247943042771625e+17
19193.0	7.246461983697577e+17
19194.0	7.245071995546281e+17
19195.0	7.243727272323753e+17
19196.0	7.242286665913684e+17
19197.0	7.240895127268008e+17
19198.0	7.239473406410751e+17
19199.0	7.228185673116326e+17
19200.0	7.229937032713559e+17
19201.0	7.235267169615871e+17
19202.0	7.233896571731968e+17
19203.0	7.232477957455871e+17
19204.0	7.231040418480127e+17
19205.0	7.229662652530687e+17
19206.0	7.228237282628947e+17
19207.0	7.226650809510569e+17
19208.0	7.225034437995177e+17
19209.0	7.224027272358569e+17
19210.0	7.22262547304721e+17
19211.0	7.221246388688212e+17
19212.0	7.219840048343721e+17
19213.0	7.218190320926719e+17
19214.0	7.216704527881556e+17
19215.0	7.21558483186483e+17
19216.0	7.21417436991761e+17
19217.0	7.212789785427968e+17
19218.0	7.209575498732882e+17
19219.0	7.209610140887721e+17
19220.0	7.208515765884244e+17
19221.0	7.206425217116842e+17
19222.0	7.205747972636671e+17
19223.0	7.204285195135657e+17
19224.0	7.20276310598178e+17
19225.0	7.201164156207101e+17
19226.0	7.200042529412436e+17
19227.0	7.198626523993428e+17
19228.0	7.197286376756564e+17
19229.0	7.195871075980628e+17
19230.0	7.194394887891626e+17
19231.0	7.192980951662591e+17
19232.0	7.191554942828543e+17
19233.0	7.190044011921408e+17
19234.0	7.188730494320639e+17
19235.0	7.187285678227455e+17
19236.0	7.185958944374781e+17
19237.0	7.184497862770688e+17
19238.0	7.1829107521181e+17
19239.0	7.18170842272017e+17
19240.0	7.179861009367039e+17
19241.0	7.178678517628927e+17
19242.0	7.177389809336319e+17
19243.0	7.175600666050557e+17
19244.0	7.174599917699071e+17
19245.0	7.173165729972223e+17
19246.0	7.17171382550528e+17
19247.0	7.170306435186688e+17
19248.0	7.168907752243199e+17
19249.0	7.167475309346815e+17
19250.0	7.166005727286612e+17
19251.0	7.164331456200701e+17
19252.0	7.162501735819945e+17
19253.0	7.161713718373033e+17
19254.0	7.160268179461459e+17
19255.0	7.158462022680573e+17
19256.0	7.157366930451113e+17
19257.0	7.156026851721215e+17
19258.0	7.154594942899539e+17
19259.0	7.152992264388608e+17
19260.0	7.151527551915347e+17
19261.0	7.150253114043049e+17
19262.0	7.148710026805247e+17
19263.0	7.147284628941481e+17
19264.0	7.14481373369685e+17
19265.0	7.144115479947945e+17
19266.0	7.14276627161634e+17
19267.0	7.141632692453375e+17
19268.0	7.140167422137684e+17
19269.0	7.138726531913042e+17
19270.0	7.136936134530387e+17
19271.0	7.134638806575788e+17
19272.0	7.133817620572841e+17
19273.0	7.121158334491292e+17
19274.0	7.124908278546424e+17
19275.0	7.129534309247657e+17
19276.0	7.128031899768148e+17
19277.0	7.126577970850474e+17
19278.0	7.125121063976957e+17
19279.0	7.123578354226516e+17
19280.0	7.122000055806633e+17
19281.0	7.120703692909225e+17
19282.0	7.119268305611434e+17
19283.0	7.117641649662633e+17
19284.0	7.115996842164223e+17
19285.0	7.114350147229012e+17
19286.0	7.113280048857084e+17
19287.0	7.11187944771857e+17
19288.0	7.107537267938641e+17
19289.0	7.102082923713865e+17
19290.0	7.107416897006249e+17
19291.0	7.10531369402368e+17
19292.0	7.104426783277055e+17
19293.0	7.102908427053738e+17
19294.0	7.101397624771923e+17
19295.0	7.099919245858131e+17
19296.0	7.098395073533267e+17
19297.0	7.096839087412564e+17
19298.0	7.095310627110911e+17
19299.0	7.093866033315837e+17
19300.0	7.092336920100863e+17
19301.0	7.090794333383338e+17
19302.0	7.089244538055338e+17
19303.0	7.087551150729897e+17
19304.0	7.086087035245908e+17
19305.0	7.084620916282708e+17
19306.0	7.08309273420322e+17
19307.0	7.081438994235391e+17
19308.0	7.079965703012351e+17
19309.0	7.078143223398399e+17
19310.0	7.076408769642493e+17
19311.0	7.075256738338131e+17
19312.0	7.073513041734313e+17
19313.0	7.071467392991232e+17
19314.0	7.065218395930624e+17
19315.0	7.063842030878725e+17
19316.0	7.066800743251965e+17
19317.0	7.065202770750122e+17
19318.0	7.063582958507347e+17
19319.0	7.062004941105833e+17
19320.0	7.060362385948671e+17
19321.0	7.058559650321748e+17
19322.0	7.056570110181375e+17
19323.0	7.055039702324566e+17
19324.0	7.053536582609578e+17
19325.0	7.051621738829139e+17
19326.0	7.050222688185002e+17
19327.0	7.048530094981119e+17
19328.0	7.04688780546321e+17
19329.0	7.045201092673535e+17
19330.0	7.043415025210708e+17
19331.0	7.041697259192319e+17
19332.0	7.039828624059049e+17
19333.0	7.037511739462995e+17
19334.0	7.035776231538687e+17
19335.0	7.034072350064639e+17
19336.0	7.032310121627647e+17
19337.0	7.030528937732778e+17
19338.0	7.028291271655423e+17
19339.0	7.026960072267092e+17
19340.0	7.025035797594111e+17
19341.0	7.023308020471123e+17
19342.0	7.020625951107752e+17
19343.0	7.019651491954688e+17
19344.0	7.017768535370409e+17
19345.0	7.010899654432076e+17
19346.0	7.011351961184936e+17
19347.0	7.010978968021673e+17
19348.0	7.009203733047977e+17
19349.0	7.007184969793535e+17
19350.0	7.005241592162985e+17
19351.0	7.003241161512276e+17
19352.0	7.001162850325844e+17
19353.0	6.99898660983057e+17
19354.0	6.996060375351295e+17
19355.0	6.993781150012758e+17
19356.0	6.991915419435007e+17
19357.0	6.989800043883176e+17
19358.0	6.987562152012458e+17
19359.0	6.98493156004113e+17
19360.0	6.982027212139177e+17
19361.0	6.979572053923156e+17
19362.0	6.977244856232617e+17
19363.0	6.974684866281472e+17
19364.0	6.972382532425044e+17
19365.0	6.968780929717587e+17
19366.0	6.965946068850004e+17
19367.0	6.963552211085993e+17
19368.0	6.961123240006996e+17
19369.0	6.95778565894963e+17
19370.0	6.953824014390612e+17
19371.0	6.952459038971219e+17
19372.0	6.949988430337363e+17
19373.0	6.947299633310377e+17
19374.0	6.944661118997844e+17
19375.0	6.941944032788479e+17
19376.0	6.939171775403347e+17
19377.0	6.935815257063423e+17
19378.0	6.932716870871721e+17
19379.0	6.929770475072169e+17
19380.0	6.926776049598461e+17
19381.0	6.923699470292307e+17
19382.0	6.92040671306274e+17
19383.0	6.917138981147988e+17
19384.0	6.914119505892691e+17
19385.0	6.91032203268369e+17
19386.0	6.906341775900671e+17
19387.0	6.90282440040994e+17
19388.0	6.8992336134144e+17
19389.0	6.895545704513533e+17
19390.0	6.891757132316671e+17
19391.0	6.877941769524552e+17
19392.0	6.882415783968765e+17
19393.0	6.878415169432233e+17
19394.0	6.87416570614033e+17
19395.0	6.868196536265385e+17
19396.0	6.863585035332265e+17
19397.0	6.858986537440595e+17
19398.0	6.852439502924457e+17
19399.0	6.845751940349951e+17
19400.0	6.841150131754323e+17
19401.0	6.834156872925183e+17
19402.0	6.827998697925289e+17
19403.0	6.819915265387178e+17
19404.0	6.812379583086595e+17
19405.0	6.804053222053204e+17
19406.0	6.794013730406397e+17
19407.0	6.784390201169235e+17
19408.0	6.77309619179793e+17
19409.0	6.765223230133588e+17
19410.0	6.757719660822527e+17
19411.0	6.749805416721065e+17
19412.0	6.741543558490793e+17
19413.0	6.732977765613567e+17
19414.0	6.723748054259028e+17
19415.0	6.714233405658452e+17
19416.0	6.704276355153919e+17
19417.0	6.694401653516969e+17
19418.0	6.684037814244694e+17
19419.0	6.672282088898559e+17
19420.0	6.660873035360937e+17
19421.0	6.648592263544832e+17
19422.0	6.635109623005183e+17
19423.0	6.621454967767037e+17
19424.0	6.60639667261713e+17
19425.0	6.590186081921704e+17
19426.0	6.572975996971688e+17
19427.0	6.553787458125827e+17
19428.0	6.532583946278222e+17
19429.0	6.50807515091217e+17
19430.0	6.479435116402008e+17
19431.0	6.446271631982597e+17
19432.0	6.421424250727081e+17
19433.0	6.39605302816495e+17
19434.0	6.369344409130323e+17
19435.0	6.339732190877011e+17
19436.0	6.307750285934591e+17
19437.0	6.27401415458816e+17
19438.0	6.227614240866305e+17
19439.0	6.191915721905496e+17
19440.0	6.139924908605446e+17
19441.0	6.07758925553117e+17
19442.0	6.020746599290199e+17
19443.0	5.959865460239016e+17
19444.0	5.889311822053372e+17
19445.0	5.805207945827674e+17
19446.0	5.7076285314170906e+17
19447.0	5.601039544396453e+17
19448.0	5.472533621680815e+17
19449.0	5.3143546996544845e+17
19450.0	5.061340605448141e+17
19451.0	4.968970800420184e+17
19452.0	5.198625818804228e+17
19453.0	5.398115457346224e+17
19454.0	5.535754222567418e+17
19455.0	5.6503282752116045e+17
19456.0	5.748685202434737e+17
19457.0	5.83808766600806e+17
19458.0	5.908097653888348e+17
19459.0	5.97529370208939e+17
19460.0	6.030273811229352e+17
19461.0	6.088895086548307e+17
19462.0	6.144201326591999e+17
19463.0	6.189033697487526e+17
19464.0	6.227186507841536e+17
19465.0	6.260854000801111e+17
19466.0	6.291108047530662e+17
19467.0	6.319205998308008e+17
19468.0	6.344799312063146e+17
19469.0	6.367028470349821e+17
19470.0	6.390721225424899e+17
19471.0	6.418094029275142e+17
19472.0	6.446134412531018e+17
19473.0	6.470002697830397e+17
19474.0	6.489837536979626e+17
19475.0	6.506236391107238e+17
19476.0	6.52309017202961e+17
19477.0	6.537061306378921e+17
19478.0	6.549729787772925e+17
19479.0	6.561987056806569e+17
19480.0	6.572507070289236e+17
19481.0	6.583097021693951e+17
19482.0	6.592207341486077e+17
19483.0	6.601212392636415e+17
19484.0	6.609722253770751e+17
19485.0	6.617295002533887e+17
19486.0	6.624567158112255e+17
19487.0	6.63149324935714e+17
19488.0	6.63847197282577e+17
19489.0	6.644490039197695e+17
19490.0	6.64797051320183e+17
19491.0	6.655805317185536e+17
19492.0	6.661004542170452e+17
19493.0	6.666325209033384e+17
19494.0	6.672950083540307e+17
19495.0	6.681346483159037e+17
19496.0	6.687227214736045e+17
19497.0	6.693257534767101e+17
19498.0	6.69928976740079e+17
19499.0	6.690650056207009e+17
19500.0	6.709295222270633e+17
19501.0	6.712393273617065e+17
19502.0	6.7170759882397e+17
19503.0	6.719483915097427e+17
19504.0	6.722880300995922e+17
19505.0	6.725809749710163e+17
19506.0	6.727759708902739e+17
19507.0	6.730176986961233e+17
19508.0	6.732852744596137e+17
19509.0	6.734383983624191e+17
19510.0	6.735424136762708e+17
19511.0	6.726306509094907e+17
19512.0	6.73748317861751e+17
19513.0	6.736236126754126e+17
19514.0	6.738845056543398e+17
19515.0	6.741609902593367e+17
19516.0	6.743447151050751e+17
19517.0	6.744742274531325e+17
19518.0	6.745863674833578e+17
19519.0	6.7464511108765e+17
19520.0	6.746922329746089e+17
19521.0	6.747454928060415e+17
19522.0	6.747769395303764e+17
19523.0	6.74820415169058e+17
19524.0	6.748489141365417e+17
19525.0	6.748628941012991e+17
19526.0	6.749542326905514e+17
19527.0	6.749664868390228e+17
19528.0	6.749741471760381e+17
19529.0	6.749760820783785e+17
19530.0	6.749768990588928e+17
19531.0	6.74972185849583e+17
19532.0	6.749615252570111e+17
19533.0	6.749830973314387e+17
19534.0	6.750249633360553e+17
19535.0	6.749995127188137e+17
19536.0	6.749707970456234e+17
19537.0	6.74951098077457e+17
19538.0	6.750612619613526e+17
19539.0	6.749354114504024e+17
19540.0	6.750042093606227e+17
19541.0	6.749698284410196e+17
19542.0	6.749658291721556e+17
19543.0	6.750037312099667e+17
19544.0	6.750127221899263e+17
19545.0	6.748682047193084e+17
19546.0	6.747242012606464e+17
19547.0	6.748535073188521e+17
19548.0	6.747972404510719e+17
19549.0	6.747142588028244e+17
19550.0	6.747463496324435e+17
19551.0	6.747255939093843e+17
19552.0	6.74660034421282e+17
19553.0	6.74588107350562e+17
19554.0	6.745153619012266e+17
19555.0	6.744503956275199e+17
19556.0	6.743816105798314e+17
19557.0	6.7430694532765e+17
19558.0	6.742315548803072e+17
19559.0	6.741593352568831e+17
19560.0	6.741616312188927e+17
19561.0	6.740824056397824e+17
19562.0	6.740066518958079e+17
19563.0	6.739260395399849e+17
19564.0	6.738429638694228e+17
19565.0	6.737579445583872e+17
19566.0	6.736671643009023e+17
19567.0	6.735870568693759e+17
19568.0	6.73492876918784e+17
19569.0	6.734069140291583e+17
19570.0	6.733219187654655e+17
19571.0	6.732312058265599e+17
19572.0	6.731324456959999e+17
19573.0	6.730437644779519e+17
19574.0	6.729844548523348e+17
19575.0	6.729316387782655e+17
19576.0	6.728372500212394e+17
19577.0	6.727318835822591e+17
19578.0	6.72636339434291e+17
19579.0	6.725427135512575e+17
19580.0	6.72445598147106e+17
19581.0	6.723503417283924e+17
19582.0	6.722550465123668e+17
19583.0	6.721555132317695e+17
19584.0	6.720543242496681e+17
19585.0	6.719298176636242e+17
19586.0	6.718201997382998e+17
19587.0	6.717426234993321e+17
19588.0	6.715451960721409e+17
19589.0	6.715385515955539e+17
19590.0	6.71425042194978e+17
19591.0	6.713368447898964e+17
19592.0	6.712339606798335e+17
19593.0	6.711244508976467e+17
19594.0	6.709692842289833e+17
19595.0	6.709095152571734e+17
19596.0	6.706327724927658e+17
19597.0	6.706986339008511e+17
19598.0	6.705504842328746e+17
19599.0	6.705145460381012e+17
19600.0	6.704476861759487e+17
19601.0	6.703389635248128e+17
19602.0	6.702354334220287e+17
19603.0	6.700383575474173e+17
19604.0	6.700148267330217e+17
19605.0	6.698496743353002e+17
19606.0	6.698056863623849e+17
19607.0	6.696981417514323e+17
19608.0	6.695840849242793e+17
19609.0	6.694647738925055e+17
19610.0	6.693663638465194e+17
19611.0	6.692534076047359e+17
19612.0	6.691442929259859e+17
19613.0	6.690297303356755e+17
19614.0	6.689109707150676e+17
19615.0	6.688084187239764e+17
19616.0	6.686883858524842e+17
19617.0	6.685829356672339e+17
19618.0	6.683537447059453e+17
19619.0	6.682129372370258e+17
19620.0	6.681037037196627e+17
19621.0	6.681294145934676e+17
19622.0	6.680168317146452e+17
19623.0	6.679035597815807e+17
19624.0	6.677872037767849e+17
19625.0	6.676752385791316e+17
19626.0	6.675583629000703e+17
19627.0	6.674463033305769e+17
19628.0	6.673074302047572e+17
19629.0	6.671967389570388e+17
19630.0	6.670549593183572e+17
19631.0	6.659414075375615e+17
19632.0	6.668693118036649e+17
19633.0	6.667451629917524e+17
19634.0	6.666401788635817e+17
19635.0	6.665148771074045e+17
19636.0	6.664060847609171e+17
19637.0	6.661994390923946e+17
19638.0	6.661743075917823e+17
19639.0	6.660565872498003e+17
19640.0	6.659254993813504e+17
19641.0	6.657007318728705e+17
19642.0	6.657084852535295e+17
19643.0	6.655888729309183e+17
19644.0	6.654638237417471e+17
19645.0	6.653028880875519e+17
19646.0	6.652441280555689e+17
19647.0	6.651271001232723e+17
19648.0	6.650088650702847e+17
19649.0	6.648909921255423e+17
19650.0	6.647754155622399e+17
19651.0	6.646564994940927e+17
19652.0	6.64538296877056e+17
19653.0	6.644225315700735e+17
19654.0	6.643028894679039e+17
19655.0	6.64183996678144e+17
19656.0	6.640682579350868e+17
19657.0	6.639501544434345e+17
19658.0	6.638334940719785e+17
19659.0	6.637150641236649e+17
19660.0	6.63597982224657e+17
19661.0	6.634792258895871e+17
19662.0	6.633616663292585e+17
19663.0	6.632326416389459e+17
19664.0	6.631194772897792e+17
19665.0	6.630067802559828e+17
