# Flux units: erg / (cm m2 s)
# Wavelength units: Angstrom
wave	flux
19000.0	6.972593498925738e+17
19001.0	6.97124267368994e+17
19002.0	6.970040303048019e+17
19003.0	6.968761851925844e+17
19004.0	6.967484107543891e+17
19005.0	6.9662016550557e+17
19006.0	6.964928018994516e+17
19007.0	6.963645414113279e+17
19008.0	6.962336087321257e+17
19009.0	6.960972104553811e+17
19010.0	6.95957581795601e+17
19011.0	6.958500222948692e+17
19012.0	6.957162509107199e+17
19013.0	6.955968065000787e+17
19014.0	6.954649030492159e+17
19015.0	6.953384278665897e+17
19016.0	6.952115687653375e+17
19017.0	6.950857636227753e+17
19018.0	6.949570635715924e+17
19019.0	6.948295274397696e+17
19020.0	6.947005872646825e+17
19021.0	6.94574104322594e+17
19022.0	6.944462673892692e+17
19023.0	6.943149863032148e+17
19024.0	6.941887857775955e+17
19025.0	6.940615878464852e+17
19026.0	6.939323571459412e+17
19027.0	6.938027447637332e+17
19028.0	6.936774908925268e+17
19029.0	6.935495745470464e+17
19030.0	6.934227994716841e+17
19031.0	6.932946516006228e+17
19032.0	6.931663233045843e+17
19033.0	6.930308097463636e+17
19034.0	6.929060932354047e+17
19035.0	6.927580477958825e+17
19036.0	6.923797877052755e+17
19037.0	6.925087425604266e+17
19038.0	6.923936976950611e+17
19039.0	6.922696946352127e+17
19040.0	6.921424244222633e+17
19041.0	6.920141183560361e+17
19042.0	6.918780547148457e+17
19043.0	6.91758985974033e+17
19044.0	6.916301299646464e+17
19045.0	6.915026769499475e+17
19046.0	6.913719898472447e+17
19047.0	6.912427167143252e+17
19048.0	6.911081507891881e+17
19049.0	6.909805439833427e+17
19050.0	6.908563992259241e+17
19051.0	6.906926457683968e+17
19052.0	6.905874208172713e+17
19053.0	6.904771068471977e+17
19054.0	6.903508117400233e+17
19055.0	6.902037623078911e+17
19056.0	6.900931576026452e+17
19057.0	6.899671346358953e+17
19058.0	6.898369481233748e+17
19059.0	6.897108881768447e+17
19060.0	6.895831698025129e+17
19061.0	6.894560817621674e+17
19062.0	6.893279273200297e+17
19063.0	6.891996820712106e+17
19064.0	6.89065766682624e+17
19065.0	6.889316666048511e+17
19066.0	6.888110333886463e+17
19067.0	6.886888700204372e+17
19068.0	6.885620062355455e+17
19069.0	6.88434347839761e+17
19070.0	6.88304945242658e+17
19071.0	6.881787161957716e+17
19072.0	6.880491849733459e+17
19073.0	6.879219032959658e+17
19074.0	6.877942768467967e+17
19075.0	6.876664207594836e+17
19076.0	6.875378127033684e+17
19077.0	6.874095511666687e+17
19078.0	6.872811461847722e+17
19079.0	6.87155212067362e+17
19080.0	6.870264881086463e+17
19081.0	6.868964108577449e+17
19082.0	6.867701950928211e+17
19083.0	6.866357387788287e+17
19084.0	6.864986941598378e+17
19085.0	6.86388298191121e+17
19086.0	6.862306684174335e+17
19087.0	6.861279303390548e+17
19088.0	6.859971917862227e+17
19089.0	6.858617727396522e+17
19090.0	6.857468359475197e+17
19091.0	6.856204361225556e+17
19092.0	6.854890205391529e+17
19093.0	6.853673086877693e+17
19094.0	6.852400051301034e+17
19095.0	6.851124911581865e+17
19096.0	6.849843107113642e+17
19097.0	6.848571188619946e+17
19098.0	6.847290548071081e+17
19099.0	6.846013617384106e+17
19100.0	6.844737213781331e+17
19101.0	6.843461822403923e+17
19102.0	6.842141751203156e+17
19103.0	6.840920176940372e+17
19104.0	6.839645696425983e+17
19105.0	6.838349227272874e+17
19106.0	6.83708622447138e+17
19107.0	6.835800084490922e+17
19108.0	6.834510123499519e+17
19109.0	6.833145661183316e+17
19110.0	6.831939895252308e+17
19111.0	6.830705190720852e+17
19112.0	6.829438848554324e+17
19113.0	6.828174058979327e+17
19114.0	6.826898007698089e+17
19115.0	6.825593639971497e+17
19116.0	6.824329371888297e+17
19117.0	6.823050631359146e+17
19118.0	6.821656896296276e+17
19119.0	6.817723186500945e+17
19120.0	6.819172505179476e+17
19121.0	6.817953399963647e+17
19122.0	6.8167074330269e+17
19123.0	6.815436528855721e+17
19124.0	6.814138354018986e+17
19125.0	6.812872829042687e+17
19126.0	6.811514593170772e+17
19127.0	6.809433517238954e+17
19128.0	6.808941148591443e+17
19129.0	6.807718778109951e+17
19130.0	6.806515480526847e+17
19131.0	6.805258600011091e+17
19132.0	6.803986232027817e+17
19133.0	6.802681262418601e+17
19134.0	6.801438452394665e+17
19135.0	6.800171801946794e+17
19136.0	6.798895992537087e+17
19137.0	6.797559529996287e+17
19138.0	6.796342372335615e+17
19139.0	6.795089660958035e+17
19140.0	6.793822151376895e+17
19141.0	6.792551577856681e+17
19142.0	6.791261171570004e+17
19143.0	6.789984093383338e+17
19144.0	6.788704496517119e+17
19145.0	6.787466075133268e+17
19146.0	6.785745451395753e+17
19147.0	6.784884527857663e+17
19148.0	6.783646613285545e+17
19149.0	6.782376825498281e+17
19150.0	6.781113043954345e+17
19151.0	6.779843546273108e+17
19152.0	6.778571028692991e+17
19153.0	6.777264637913769e+17
19154.0	6.7759716185757e+17
19155.0	6.774746169475071e+17
19156.0	6.773478473247401e+17
19157.0	6.772185891515049e+17
19158.0	6.770873418995027e+17
19159.0	6.769644536856575e+17
19160.0	6.768382138034857e+17
19161.0	6.767093670215679e+17
19162.0	6.765667608253779e+17
19163.0	6.764512432619519e+17
19164.0	6.763311011288403e+17
19165.0	6.762034692270762e+17
19166.0	6.760721204030121e+17
19167.0	6.75949839454481e+17
19168.0	6.758245981661866e+17
19169.0	6.75698171847202e+17
19170.0	6.755716394123263e+17
19171.0	6.754444124007081e+17
19172.0	6.753179632227668e+17
19173.0	6.751910955930964e+17
19174.0	6.750617298359636e+17
19175.0	6.74937250652706e+17
19176.0	6.748107428244137e+17
19177.0	6.746726037716991e+17
19178.0	6.745560422460072e+17
19179.0	6.744287724524884e+17
19180.0	6.743019099258879e+17
19181.0	6.741697270644735e+17
19182.0	6.740473209159677e+17
19183.0	6.739224044765183e+17
19184.0	6.737954121362089e+17
19185.0	6.73668439019793e+17
19186.0	6.735415921519272e+17
19187.0	6.734093447681366e+17
19188.0	6.732874323591165e+17
19189.0	6.731606245681834e+17
19190.0	6.730333539358036e+17
19191.0	6.72903762944546e+17
19192.0	6.727787793962324e+17
19193.0	6.726510508157608e+17
19194.0	6.725218583532884e+17
19195.0	6.723936815415295e+17
19196.0	6.722617676748116e+17
19197.0	6.721266357982548e+17
19198.0	6.719728826799444e+17
19199.0	6.717320372158463e+17
19200.0	6.716213956007252e+17
19201.0	6.715955925920425e+17
19202.0	6.714931362310825e+17
19203.0	6.713737901768704e+17
19204.0	6.712501992772948e+17
19205.0	6.711250427838461e+17
19206.0	6.709996822375081e+17
19207.0	6.708636970997075e+17
19208.0	6.707365053901481e+17
19209.0	6.706195902147242e+17
19210.0	6.70493423243537e+17
19211.0	6.703671722464595e+17
19212.0	6.702398593914195e+17
19213.0	6.701054556460371e+17
19214.0	6.699795862607188e+17
19215.0	6.698573641722538e+17
19216.0	6.697303698046975e+17
19217.0	6.695989914107904e+17
19218.0	6.694390175105023e+17
19219.0	6.693309852418047e+17
19220.0	6.692184847810559e+17
19221.0	6.690815413846016e+17
19222.0	6.689634956345343e+17
19223.0	6.688388349777236e+17
19224.0	6.68709061534242e+17
19225.0	6.685799205918035e+17
19226.0	6.684569528259923e+17
19227.0	6.683300017296723e+17
19228.0	6.682048841733459e+17
19229.0	6.680773634206378e+17
19230.0	6.679498065969151e+17
19231.0	6.678212764849491e+17
19232.0	6.676941936175785e+17
19233.0	6.675621969133567e+17
19234.0	6.674380959864148e+17
19235.0	6.673059544388948e+17
19236.0	6.671804800871081e+17
19237.0	6.670520240046079e+17
19238.0	6.669188170339667e+17
19239.0	6.667972537308499e+17
19240.0	6.666692853060948e+17
19241.0	6.665398395775658e+17
19242.0	6.664123205724842e+17
19243.0	6.662724682164906e+17
19244.0	6.661569277242025e+17
19245.0	6.660282283720703e+17
19246.0	6.658997938902355e+17
19247.0	6.657720904755882e+17
19248.0	6.656439834290857e+17
19249.0	6.655155314010793e+17
19250.0	6.653856824601257e+17
19251.0	6.65251917017907e+17
19252.0	6.65106956558882e+17
19253.0	6.649998231295316e+17
19254.0	6.648727610938708e+17
19255.0	6.647288947889491e+17
19256.0	6.646137818360489e+17
19257.0	6.644862815655252e+17
19258.0	6.643572369522687e+17
19259.0	6.642220313957716e+17
19260.0	6.640922736809299e+17
19261.0	6.639683005404499e+17
19262.0	6.638351204133546e+17
19263.0	6.637019603490131e+17
19264.0	6.635514297843711e+17
19265.0	6.634379000414207e+17
19266.0	6.633092954805588e+17
19267.0	6.631920969099944e+17
19268.0	6.630625224163327e+17
19269.0	6.629322895567529e+17
19270.0	6.627992265905491e+17
19271.0	6.626549888800084e+17
19272.0	6.6253817394845e+17
19273.0	6.623883674604884e+17
19274.0	6.622428532135252e+17
19275.0	6.621441808138239e+17
19276.0	6.620125959203498e+17
19277.0	6.618821953585151e+17
19278.0	6.617514407974227e+17
19279.0	6.616182818515625e+17
19280.0	6.614854408339455e+17
19281.0	6.61356243198498e+17
19282.0	6.612260177488553e+17
19283.0	6.610930899790506e+17
19284.0	6.609583939605843e+17
19285.0	6.608232734785533e+17
19286.0	6.606928007047849e+17
19287.0	6.60559955632674e+17
19288.0	6.603272414560253e+17
19289.0	6.601249347250856e+17
19290.0	6.601608502007123e+17
19291.0	6.600137184903168e+17
19292.0	6.599008657080319e+17
19293.0	6.597676446165674e+17
19294.0	6.596333575427412e+17
19295.0	6.595003818180608e+17
19296.0	6.593652309972308e+17
19297.0	6.592302534011561e+17
19298.0	6.590860667912191e+17
19299.0	6.589520770236415e+17
19300.0	6.588176921526271e+17
19301.0	6.586819918779731e+17
19302.0	6.585438507980116e+17
19303.0	6.584023244952916e+17
19304.0	6.582695505865386e+17
19305.0	6.581326414435668e+17
19306.0	6.579960904941568e+17
19307.0	6.578559567702697e+17
19308.0	6.577187293495295e+17
19309.0	6.575776861607252e+17
19310.0	6.574363211988992e+17
19311.0	6.573019786903551e+17
19312.0	6.571659072897023e+17
19313.0	6.570199234205012e+17
19314.0	6.565572432450899e+17
19315.0	6.564416717149527e+17
19316.0	6.565913462920531e+17
19317.0	6.564551754863956e+17
19318.0	6.563146266662228e+17
19319.0	6.561749984258729e+17
19320.0	6.560327402171049e+17
19321.0	6.558893763898026e+17
19322.0	6.557442341076991e+17
19323.0	6.556024827805696e+17
19324.0	6.554595983622143e+17
19325.0	6.553024189169663e+17
19326.0	6.551538286373545e+17
19327.0	6.550087368267091e+17
19328.0	6.548617724690432e+17
19329.0	6.547170641575936e+17
19330.0	6.545683217645565e+17
19331.0	6.544182706787668e+17
19332.0	6.542733971816447e+17
19333.0	6.541236421438121e+17
19334.0	6.539681880255146e+17
19335.0	6.537975659757568e+17
19336.0	6.536451784529236e+17
19337.0	6.534904655380479e+17
19338.0	6.533225558747817e+17
19339.0	6.531830217266516e+17
19340.0	6.530213632540671e+17
19341.0	6.528641434036906e+17
19342.0	6.526935168800084e+17
19343.0	6.525384105394175e+17
19344.0	6.52374395986466e+17
19345.0	6.52120946708753e+17
19346.0	6.519897765620393e+17
19347.0	6.518907584118783e+17
19348.0	6.517364993906003e+17
19349.0	6.515710412281172e+17
19350.0	6.514066498868563e+17
19351.0	6.512397383980371e+17
19352.0	6.510684676991657e+17
19353.0	6.509042992851625e+17
19354.0	6.507255602784936e+17
19355.0	6.505476902617087e+17
19356.0	6.50382655234594e+17
19357.0	6.502092653636266e+17
19358.0	6.500341082925738e+17
19359.0	6.498554939266388e+17
19360.0	6.4967618330624e+17
19361.0	6.494993251652948e+17
19362.0	6.493192315382442e+17
19363.0	6.491333564825599e+17
19364.0	6.489438080554323e+17
19365.0	6.487420858706602e+17
19366.0	6.485444655054847e+17
19367.0	6.483508256047104e+17
19368.0	6.48154685968657e+17
19369.0	6.479534720636244e+17
19370.0	6.477528536798548e+17
19371.0	6.475474271556948e+17
19372.0	6.4734519375517e+17
19373.0	6.471344577314815e+17
19374.0	6.469040745392809e+17
19375.0	6.466774030964052e+17
19376.0	6.46457152643618e+17
19377.0	6.462328236496212e+17
19378.0	6.460060242105684e+17
19379.0	6.457761504864938e+17
19380.0	6.455421710980436e+17
19381.0	6.45282971988787e+17
19382.0	6.450191650171562e+17
19383.0	6.447745403453437e+17
19384.0	6.44522931528226e+17
19385.0	6.442671444153684e+17
19386.0	6.440100238633642e+17
19387.0	6.437343709888511e+17
19388.0	6.43437525344802e+17
19389.0	6.431670880873129e+17
19390.0	6.428800059441151e+17
19391.0	6.423756645859324e+17
19392.0	6.422728641522346e+17
19393.0	6.419579653150035e+17
19394.0	6.416437171541334e+17
19395.0	6.413234140261033e+17
19396.0	6.409869359841279e+17
19397.0	6.406556253246804e+17
19398.0	6.402715946407252e+17
19399.0	6.398669206410578e+17
19400.0	6.395265003028479e+17
19401.0	6.391638615479635e+17
19402.0	6.387809248783017e+17
19403.0	6.383454960047444e+17
19404.0	6.378646187715242e+17
19405.0	6.374470642040831e+17
19406.0	6.370209239662591e+17
19407.0	6.365802148833962e+17
19408.0	6.360965424960852e+17
19409.0	6.35630887510562e+17
19410.0	6.351161978956457e+17
19411.0	6.34605788148531e+17
19412.0	6.340794187950762e+17
19413.0	6.335291444254035e+17
19414.0	6.329549470040063e+17
19415.0	6.323583280917162e+17
19416.0	6.316479679736489e+17
19417.0	6.309985020193449e+17
19418.0	6.303228812940628e+17
19419.0	6.296106691810644e+17
19420.0	6.28859452138018e+17
19421.0	6.280630413994666e+17
19422.0	6.27176805376546e+17
19423.0	6.262643505496061e+17
19424.0	6.253087259186518e+17
19425.0	6.243517031164586e+17
19426.0	6.233444812062719e+17
19427.0	6.222725815205887e+17
19428.0	6.211161453581651e+17
19429.0	6.198845567052458e+17
19430.0	6.185031146580652e+17
19431.0	6.170525790721364e+17
19432.0	6.155590176866301e+17
19433.0	6.13925709292066e+17
19434.0	6.121764495731369e+17
19435.0	6.102923027152895e+17
19436.0	6.08266122952704e+17
19437.0	6.060351023306068e+17
19438.0	6.032246570658473e+17
19439.0	6.008061804849834e+17
19440.0	5.978951031018836e+17
19441.0	5.946333640785917e+17
19442.0	5.909359661940737e+17
19443.0	5.867607501220521e+17
19444.0	5.819794451682642e+17
19445.0	5.764652568237398e+17
19446.0	5.6991660840932685e+17
19447.0	5.6197185025692966e+17
19448.0	5.5192366004305965e+17
19449.0	5.383442304161109e+17
19450.0	5.1705127587457555e+17
19451.0	5.022728057432754e+17
19452.0	5.29297207914223e+17
19453.0	5.4554067321487405e+17
19454.0	5.5683120746550554e+17
19455.0	5.654720732113577e+17
19456.0	5.7240750118666266e+17
19457.0	5.781759807455228e+17
19458.0	5.823700653834249e+17
19459.0	5.872437568733185e+17
19460.0	5.91005968778308e+17
19461.0	5.942385358580393e+17
19462.0	5.971167182236332e+17
19463.0	5.997199877297492e+17
19464.0	6.02083612041762e+17
19465.0	6.041998099567956e+17
19466.0	6.060838028137811e+17
19467.0	6.077937502300841e+17
19468.0	6.093679926181887e+17
19469.0	6.108151691258537e+17
19470.0	6.121659561235795e+17
19471.0	6.134153389015039e+17
19472.0	6.145800156129961e+17
19473.0	6.156334776975359e+17
19474.0	6.16589644931618e+17
19475.0	6.174274556177065e+17
19476.0	6.182661905885865e+17
19477.0	6.19012422701329e+17
19478.0	6.197287571161087e+17
19479.0	6.204312921309183e+17
19480.0	6.211032273911808e+17
19481.0	6.216963285407059e+17
19482.0	6.222337013011796e+17
19483.0	6.227283886298451e+17
19484.0	6.231847068849492e+17
19485.0	6.236069588631551e+17
19486.0	6.240574097762985e+17
19487.0	6.244641243747668e+17
19488.0	6.248100180000767e+17
19489.0	6.251141262912169e+17
19490.0	6.253706233599316e+17
19491.0	6.25708401496337e+17
19492.0	6.259957483700223e+17
19493.0	6.262639361523712e+17
19494.0	6.264966943692116e+17
19495.0	6.267013419412137e+17
19496.0	6.268742667337727e+17
19497.0	6.270691958237865e+17
19498.0	6.271783224563028e+17
19499.0	6.271697817348776e+17
19500.0	6.276646838119082e+17
19501.0	6.278163427142314e+17
19502.0	6.279482583984809e+17
19503.0	6.280655172272127e+17
19504.0	6.28227748012578e+17
19505.0	6.283332585958058e+17
19506.0	6.284239672005972e+17
19507.0	6.285203603455999e+17
19508.0	6.285926951026687e+17
19509.0	6.286892185507156e+17
19510.0	6.287480047970985e+17
19511.0	6.282730797006843e+17
19512.0	6.287673227826516e+17
19513.0	6.287714761222825e+17
19514.0	6.288327734984701e+17
19515.0	6.289741550277972e+17
19516.0	6.290174233979561e+17
19517.0	6.290352569494186e+17
19518.0	6.290571827434835e+17
19519.0	6.290707826343936e+17
19520.0	6.290739934440105e+17
19521.0	6.291066969915391e+17
19522.0	6.29108722770466e+17
19523.0	6.291047157421395e+17
19524.0	6.290942594121727e+17
19525.0	6.290819099830953e+17
19526.0	6.290660494322345e+17
19527.0	6.290464117009065e+17
19528.0	6.290382286138026e+17
19529.0	6.290224304182612e+17
19530.0	6.289925713078953e+17
19531.0	6.289594819543039e+17
19532.0	6.289236753907711e+17
19533.0	6.288854552849066e+17
19534.0	6.288445478884692e+17
19535.0	6.28800416190737e+17
19536.0	6.287528672537257e+17
19537.0	6.287144960830122e+17
19538.0	6.286612603688276e+17
19539.0	6.285977983822506e+17
19540.0	6.285689354190847e+17
19541.0	6.285145682913961e+17
19542.0	6.284551179468799e+17
19543.0	6.28392986812962e+17
19544.0	6.283299506880511e+17
19545.0	6.282340079413929e+17
19546.0	6.281579629729108e+17
19547.0	6.281354631883434e+17
19548.0	6.280707076784125e+17
19549.0	6.28000991355426e+17
19550.0	6.279440554961578e+17
19551.0	6.27873499123985e+17
19552.0	6.278014841825961e+17
19553.0	6.277270659050153e+17
19554.0	6.276526777565183e+17
19555.0	6.275784053708116e+17
19556.0	6.275034718229844e+17
19557.0	6.274261448654847e+17
19558.0	6.273480648207018e+17
19559.0	6.272691598262271e+17
19560.0	6.27197410943522e+17
19561.0	6.271198804224682e+17
19562.0	6.27039908397056e+17
19563.0	6.269575746289664e+17
19564.0	6.268736849838079e+17
19565.0	6.267889204767402e+17
19566.0	6.26701741658385e+17
19567.0	6.266178354457258e+17
19568.0	6.26543767462434e+17
19569.0	6.264668182719146e+17
19570.0	6.263800447631359e+17
19571.0	6.262909622900052e+17
19572.0	6.26199003013666e+17
19573.0	6.261104734197076e+17
19574.0	6.260131671048191e+17
19575.0	6.259290555809792e+17
19576.0	6.258369300004863e+17
19577.0	6.257427116021075e+17
19578.0	6.256605960776361e+17
19579.0	6.255703190667263e+17
19580.0	6.254764815810559e+17
19581.0	6.253834473745066e+17
19582.0	6.252892647675219e+17
19583.0	6.251938958016511e+17
19584.0	6.250979406817962e+17
19585.0	6.249931263530324e+17
19586.0	6.24894407746082e+17
19587.0	6.248049366706857e+17
19588.0	6.24686893367296e+17
19589.0	6.246082853994496e+17
19590.0	6.245129910921898e+17
19591.0	6.244266021311827e+17
19592.0	6.243287469217107e+17
19593.0	6.242284021830995e+17
19594.0	6.241126379246931e+17
19595.0	6.240293851845972e+17
19596.0	6.239262819920553e+17
19597.0	6.238362717388799e+17
19598.0	6.237211050988884e+17
19599.0	6.236420554009257e+17
19600.0	6.235422021648381e+17
19601.0	6.234364464245417e+17
19602.0	6.233318485218643e+17
19603.0	6.232168353234943e+17
19604.0	6.231296840477354e+17
19605.0	6.23016616796706e+17
19606.0	6.229365729787901e+17
19607.0	6.228387780274857e+17
19608.0	6.227348503046825e+17
19609.0	6.226298477914793e+17
19610.0	6.225288750257491e+17
19611.0	6.224250589413375e+17
19612.0	6.223226596928169e+17
19613.0	6.222179320463359e+17
19614.0	6.221114845954047e+17
19615.0	6.220097720942591e+17
19616.0	6.219024894874964e+17
19617.0	6.217968863499603e+17
19618.0	6.216577713526099e+17
19619.0	6.215428425296552e+17
19620.0	6.214498319510185e+17
19621.0	6.21376497062161e+17
19622.0	6.212751301017599e+17
19623.0	6.211702028064084e+17
19624.0	6.210639205411497e+17
19625.0	6.2095869621917e+17
19626.0	6.208522106000724e+17
19627.0	6.207443398120788e+17
19628.0	6.206333012060842e+17
19629.0	6.205120912730793e+17
19630.0	6.203604342581929e+17
19631.0	6.201707637768191e+17
19632.0	6.201938898408788e+17
19633.0	6.201044342844072e+17
19634.0	6.200047523856383e+17
19635.0	6.198965092133546e+17
19636.0	6.197915984155988e+17
19637.0	6.196576798113792e+17
19638.0	6.195795151115604e+17
19639.0	6.194718977993385e+17
19640.0	6.193537734759764e+17
19641.0	6.192091856109568e+17
19642.0	6.191498199214761e+17
19643.0	6.19042637488674e+17
19644.0	6.1892975408797e+17
19645.0	6.188152917415252e+17
19646.0	6.18719075176721e+17
19647.0	6.186138133856255e+17
19648.0	6.185062879286612e+17
19649.0	6.183984776784553e+17
19650.0	6.182907422266708e+17
19651.0	6.18182326878208e+17
19652.0	6.180747002686121e+17
19653.0	6.179667392331775e+17
19654.0	6.178580175607124e+17
19655.0	6.17749709586432e+17
19656.0	6.176420009781929e+17
19657.0	6.175340713301332e+17
19658.0	6.174257661520553e+17
19659.0	6.173173489860607e+17
19660.0	6.172089966220627e+17
19661.0	6.171004955000831e+17
19662.0	6.169917052507476e+17
19663.0	6.168811567491753e+17
19664.0	6.167735858539178e+17
19665.0	6.166661135947092e+17
