# Flux units: erg / (cm m2 s)
# Wavelength units: Angstrom
wave	flux
19000.0	5.955987581523284e+17
19001.0	5.95478410568226e+17
19002.0	5.953768008974335e+17
19003.0	5.952645404207785e+17
19004.0	5.951527911598761e+17
19005.0	5.950428814508031e+17
19006.0	5.949347446740308e+17
19007.0	5.948095481948841e+17
19008.0	5.947087826277716e+17
19009.0	5.945941370601471e+17
19010.0	5.944476229610153e+17
19011.0	5.943736975141545e+17
19012.0	5.941853032196776e+17
19013.0	5.941585420921514e+17
19014.0	5.940425876220586e+17
19015.0	5.939331672484521e+17
19016.0	5.938206604263423e+17
19017.0	5.93714796962338e+17
19018.0	5.935988069804713e+17
19019.0	5.934924316715689e+17
19020.0	5.933799893718356e+17
19021.0	5.932709585092605e+17
19022.0	5.93160486064401e+17
19023.0	5.930458560856063e+17
19024.0	5.929362800334163e+17
19025.0	5.928201918349311e+17
19026.0	5.927065614286847e+17
19027.0	5.925327815573503e+17
19028.0	5.92495029396002e+17
19029.0	5.923824623856297e+17
19030.0	5.922742192832512e+17
19031.0	5.921637836084563e+17
19032.0	5.920525016629247e+17
19033.0	5.919335164586665e+17
19034.0	5.918296937332736e+17
19035.0	5.917121888387071e+17
19036.0	5.865488670261245e+17
19037.0	5.91495214277154e+17
19038.0	5.913858914910207e+17
19039.0	5.912778037177001e+17
19040.0	5.911672551462228e+17
19041.0	5.910557404168191e+17
19042.0	5.909288009247401e+17
19043.0	5.908356227836586e+17
19044.0	5.907234541622612e+17
19045.0	5.906117903253501e+17
19046.0	5.904988431013204e+17
19047.0	5.903912929678676e+17
19048.0	5.902602362770772e+17
19049.0	5.901484624794964e+17
19050.0	5.900567785592148e+17
19051.0	5.892253850883402e+17
19052.0	5.896975723528191e+17
19053.0	5.897258841844393e+17
19054.0	5.896195120911699e+17
19055.0	5.894830008478378e+17
19056.0	5.893951301790377e+17
19057.0	5.89287270715665e+17
19058.0	5.891641037204137e+17
19059.0	5.890641293388457e+17
19060.0	5.889544401103529e+17
19061.0	5.888469993084244e+17
19062.0	5.887361794353833e+17
19063.0	5.886260476379135e+17
19064.0	5.885041111116457e+17
19065.0	5.883895485213354e+17
19066.0	5.882869262756521e+17
19067.0	5.881843571578195e+17
19068.0	5.880748111648084e+17
19069.0	5.87964729978607e+17
19070.0	5.878522393744724e+17
19071.0	5.877415770674516e+17
19072.0	5.876300316497236e+17
19073.0	5.875235802142036e+17
19074.0	5.874139592130559e+17
19075.0	5.873038392994473e+17
19076.0	5.871917841339732e+17
19077.0	5.87082139574818e+17
19078.0	5.869702554670419e+17
19079.0	5.868632930953897e+17
19080.0	5.867518725281108e+17
19081.0	5.866396028239872e+17
19082.0	5.865292584452095e+17
19083.0	5.864139182309376e+17
19084.0	5.862926288158719e+17
19085.0	5.862031394952532e+17
19086.0	5.860506699038719e+17
19087.0	5.858381231991468e+17
19088.0	5.858565340965546e+17
19089.0	5.856747145833129e+17
19090.0	5.856498452966057e+17
19091.0	5.855398331766102e+17
19092.0	5.853902581443241e+17
19093.0	5.853242711867391e+17
19094.0	5.852146390007807e+17
19095.0	5.851048567985492e+17
19096.0	5.849933207481001e+17
19097.0	5.848851961348095e+17
19098.0	5.847719264387071e+17
19099.0	5.846615967399935e+17
19100.0	5.845482106519551e+17
19101.0	5.844436841922559e+17
19102.0	5.843266647883775e+17
19103.0	5.842275754049535e+17
19104.0	5.841179277000704e+17
19105.0	5.839997770924032e+17
19106.0	5.838723117045076e+17
19107.0	5.837850818554537e+17
19108.0	5.836756681228287e+17
19109.0	5.831867580983972e+17
19110.0	5.834483965449555e+17
19111.0	5.833467973599231e+17
19112.0	5.832384535942484e+17
19113.0	5.831319098840403e+17
19114.0	5.830209309070676e+17
19115.0	5.828977565717844e+17
19116.0	5.828019344113663e+17
19117.0	5.82692288663825e+17
19118.0	5.825540502760106e+17
19119.0	5.819309651656695e+17
19120.0	5.823244390454611e+17
19121.0	5.822265792921599e+17
19122.0	5.821480281571327e+17
19123.0	5.820387269017599e+17
19124.0	5.819065435510099e+17
19125.0	5.818166373864788e+17
19126.0	5.81709811819042e+17
19127.0	5.81431611953425e+17
19128.0	5.813908972852563e+17
19129.0	5.813762307129343e+17
19130.0	5.81272348008994e+17
19131.0	5.81161749385489e+17
19132.0	5.810556879503359e+17
19133.0	5.809210744198484e+17
19134.0	5.807926331572224e+17
19135.0	5.807267390335657e+17
19136.0	5.806198356617898e+17
19137.0	5.804952330960895e+17
19138.0	5.803970080888148e+17
19139.0	5.802926050115583e+17
19140.0	5.801838802632703e+17
19141.0	5.800749057441791e+17
19142.0	5.799623049696596e+17
19143.0	5.79851738222865e+17
19144.0	5.797446032556032e+17
19145.0	5.796384299723434e+17
19146.0	5.794726409491798e+17
19147.0	5.794111732842495e+17
19148.0	5.793072140342612e+17
19149.0	5.791979936590506e+17
19150.0	5.790940925001727e+17
19151.0	5.789859587992233e+17
19152.0	5.788720613556223e+17
19153.0	5.787610800018771e+17
19154.0	5.786466080085332e+17
19155.0	5.785494517798228e+17
19156.0	5.784416443258198e+17
19157.0	5.783250332374356e+17
19158.0	5.77962679695223e+17
19159.0	5.781125127471104e+17
19160.0	5.780006978453501e+17
19161.0	5.778892419061076e+17
19162.0	5.771992031210159e+17
19163.0	5.776634679044778e+17
19164.0	5.775722439595348e+17
19165.0	5.774451715080191e+17
19166.0	5.773285280535892e+17
19167.0	5.771906310821204e+17
19168.0	5.771354701124948e+17
19169.0	5.770174987414186e+17
19170.0	5.769210389069823e+17
19171.0	5.767754478343508e+17
19172.0	5.767010307451561e+17
19173.0	5.765938107733332e+17
19174.0	5.764825179226112e+17
19175.0	5.7637943437339283e+17
19176.0	5.7627127550661965e+17
19177.0	5.7614839421337594e+17
19178.0	5.7603908303148365e+17
19179.0	5.7589388223883955e+17
19180.0	5.758303311233022e+17
19181.0	5.757172301780308e+17
19182.0	5.756172834089642e+17
19183.0	5.755116804112383e+17
19184.0	5.754014071259135e+17
19185.0	5.7529543656734714e+17
19186.0	5.751874923790335e+17
19187.0	5.750717072190122e+17
19188.0	5.749689864071849e+17
19189.0	5.74858265170193e+17
19190.0	5.747475603608916e+17
19191.0	5.746365358757205e+17
19192.0	5.7453756791739725e+17
19193.0	5.7442605745220256e+17
19194.0	5.743172036591616e+17
19195.0	5.7421190013474125e+17
19196.0	5.741017960895828e+17
19197.0	5.7399223569612794e+17
19198.0	5.738750896941738e+17
19199.0	5.70411280498687e+17
19200.0	5.713248333944161e+17
19201.0	5.735524099336874e+17
19202.0	5.734527596320085e+17
19203.0	5.733369292434089e+17
19204.0	5.7323526574571514e+17
19205.0	5.7313053278644896e+17
19206.0	5.730223119138815e+17
19207.0	5.729048998532436e+17
19208.0	5.7278702865612794e+17
19209.0	5.726987500912639e+17
19210.0	5.7259108692131834e+17
19211.0	5.7248385576468474e+17
19212.0	5.723757057758549e+17
19213.0	5.722301136546474e+17
19214.0	5.721061468056234e+17
19215.0	5.720374772411049e+17
19216.0	5.7194345478662816e+17
19217.0	5.718356627816447e+17
19218.0	5.716474555531262e+17
19219.0	5.7160543722536954e+17
19220.0	5.715074907897855e+17
19221.0	5.7137240630886394e+17
19222.0	5.712944300031999e+17
19223.0	5.7118560039731194e+17
19224.0	5.7107519128644256e+17
19225.0	5.7095718754932045e+17
19226.0	5.7086156538729805e+17
19227.0	5.7075338785587194e+17
19228.0	5.706477143239337e+17
19229.0	5.7053965765836794e+17
19230.0	5.704278710681598e+17
19231.0	5.703198637555711e+17
19232.0	5.702140911681536e+17
19233.0	5.7010032521598285e+17
19234.0	5.699973166049962e+17
19235.0	5.698888434450431e+17
19236.0	5.6978350322046285e+17
19237.0	5.696739504466602e+17
19238.0	5.695533611308373e+17
19239.0	5.6945947079693645e+17
19240.0	5.693482502280533e+17
19241.0	5.692403988037632e+17
19242.0	5.69133631607057e+17
19243.0	5.690124787864916e+17
19244.0	5.68919323644177e+17
19245.0	5.688107055011156e+17
19246.0	5.6870136719605754e+17
19247.0	5.685949352640511e+17
19248.0	5.684858825211903e+17
19249.0	5.683764422246399e+17
19250.0	5.6826727357917856e+17
19251.0	5.6814903782714016e+17
19252.0	5.68029571256593e+17
19253.0	5.679436791807999e+17
19254.0	5.6783698475526816e+17
19255.0	5.677133516330324e+17
19256.0	5.6761488461441696e+17
19257.0	5.675127958142975e+17
19258.0	5.6740477354202445e+17
19259.0	5.6729015705490765e+17
19260.0	5.6708948812977466e+17
19261.0	5.6707847535547725e+17
19262.0	5.669659947477674e+17
19263.0	5.668567332683775e+17
19264.0	5.6670208522540365e+17
19265.0	5.666266866690729e+17
19266.0	5.6651539745341434e+17
19267.0	5.6642913564972365e+17
19268.0	5.663205823785642e+17
19269.0	5.6621198877218125e+17
19270.0	5.661031254720511e+17
19271.0	5.659620945166336e+17
19272.0	5.658825744973823e+17
19273.0	5.656642372763646e+17
19274.0	5.6558863571572026e+17
19275.0	5.655595884128937e+17
19276.0	5.6544886458941434e+17
19277.0	5.6534044036300794e+17
19278.0	5.6523167842522445e+17
19279.0	5.651173185596073e+17
19280.0	5.650062125651285e+17
19281.0	5.649038324006911e+17
19282.0	5.6479591701326496e+17
19283.0	5.646333585129471e+17
19284.0	5.645430454310228e+17
19285.0	5.6445075704162976e+17
19286.0	5.643555139048788e+17
19287.0	5.6424876145814176e+17
19288.0	5.626556340764653e+17
19289.0	5.6080746022611136e+17
19290.0	5.639198621040639e+17
19291.0	5.6378731280029005e+17
19292.0	5.637013648703488e+17
19293.0	5.63590834893619e+17
19294.0	5.634806232645632e+17
19295.0	5.633716176377173e+17
19296.0	5.6325753263882234e+17
19297.0	5.631465040292521e+17
19298.0	5.630383137051988e+17
19299.0	5.6292586665192096e+17
19300.0	5.628190433214463e+17
19301.0	5.6270855920244045e+17
19302.0	5.625966714596009e+17
19303.0	5.6247908030218234e+17
19304.0	5.623728287951529e+17
19305.0	5.6226317116375034e+17
19306.0	5.621503306847572e+17
19307.0	5.620332760487252e+17
19308.0	5.6192430635308365e+17
19309.0	5.616883916428627e+17
19310.0	5.6154070621443386e+17
19311.0	5.615760557386409e+17
19312.0	5.614819438755839e+17
19313.0	5.613569143996415e+17
19314.0	5.555785696280621e+17
19315.0	5.557989746409522e+17
19316.0	5.609019265078611e+17
19317.0	5.6080525842623136e+17
19318.0	5.6069202284380154e+17
19319.0	5.605803497095167e+17
19320.0	5.604647678334292e+17
19321.0	5.603495038855849e+17
19322.0	5.6022354914618016e+17
19323.0	5.600695956799488e+17
19324.0	5.600060730856788e+17
19325.0	5.5977257282655565e+17
19326.0	5.597786233896958e+17
19327.0	5.596634791193258e+17
19328.0	5.5954257830652576e+17
19329.0	5.594342475431935e+17
19330.0	5.5931454560228685e+17
19331.0	5.591976382562303e+17
19332.0	5.590834749636607e+17
19333.0	5.5896525368197114e+17
19334.0	5.5885020126685856e+17
19335.0	5.5871896680748365e+17
19336.0	5.5861255927234554e+17
19337.0	5.584963053988521e+17
19338.0	5.58358248624401e+17
19339.0	5.5825757169691296e+17
19340.0	5.5812784117514234e+17
19341.0	5.5801028678778874e+17
19342.0	5.578547741589502e+17
19343.0	5.5777748613857274e+17
19344.0	5.5765117656104954e+17
19345.0	5.573461443346429e+17
19346.0	5.573239723349331e+17
19347.0	5.5727611756325536e+17
19348.0	5.571665320738815e+17
19349.0	5.570380016822953e+17
19350.0	5.5691130133544954e+17
19351.0	5.567890157032788e+17
19352.0	5.5665224077803514e+17
19353.0	5.565403165447509e+17
19354.0	5.5641353650612896e+17
19355.0	5.5627657633245856e+17
19356.0	5.5615685642594976e+17
19357.0	5.5602766641015456e+17
19358.0	5.557879775253846e+17
19359.0	5.556007310721023e+17
19360.0	5.5546769746602656e+17
19361.0	5.553395211436031e+17
19362.0	5.5520959390897485e+17
19363.0	5.550740775545513e+17
19364.0	5.5493746620716365e+17
19365.0	5.548000754881877e+17
19366.0	5.5466137698522445e+17
19367.0	5.5452084312473594e+17
19368.0	5.543806292197375e+17
19369.0	5.542301967319038e+17
19370.0	5.540805394912595e+17
19371.0	5.5394479321907194e+17
19372.0	5.5380314996517536e+17
19373.0	5.536524159767892e+17
19374.0	5.5336268422184954e+17
19375.0	5.531466128337577e+17
19376.0	5.529931358404607e+17
19377.0	5.5283591011805856e+17
19378.0	5.526781512996179e+17
19379.0	5.5251869637454496e+17
19380.0	5.52356440842786e+17
19381.0	5.5219148082380794e+17
19382.0	5.5201865564596896e+17
19383.0	5.5163972565510816e+17
19384.0	5.5141936027839136e+17
19385.0	5.5124259720833696e+17
19386.0	5.510631069319167e+17
19387.0	5.5087963290555725e+17
19388.0	5.5069424341046605e+17
19389.0	5.5021070733803546e+17
19390.0	5.4998121522571936e+17
19391.0	5.453362719883202e+17
19392.0	5.4947187160077574e+17
19393.0	5.491267637783211e+17
19394.0	5.487547286639956e+17
19395.0	5.485207700373503e+17
19396.0	5.481457412385448e+17
19397.0	5.4759658625870496e+17
19398.0	5.473390225784831e+17
19399.0	5.466505180697944e+17
19400.0	5.4625830863284896e+17
19401.0	5.45676705748309e+17
19402.0	5.450477428801534e+17
19403.0	5.444912410176174e+17
19404.0	5.4402855105549645e+17
19405.0	5.4367227058585594e+17
19406.0	5.4330576069809485e+17
19407.0	5.429243232823977e+17
19408.0	5.424623927689217e+17
19409.0	5.42122193330722e+17
19410.0	5.416995506530985e+17
19411.0	5.4125813531934714e+17
19412.0	5.4079885434770765e+17
19413.0	5.4031868371490125e+17
19414.0	5.3982054426432845e+17
19415.0	5.3930511966754125e+17
19416.0	5.3873600902813e+17
19417.0	5.381542364140883e+17
19418.0	5.376347723530239e+17
19419.0	5.3700915744822605e+17
19420.0	5.3638686275447456e+17
19421.0	5.3573581757480954e+17
19422.0	5.350565740893525e+17
19423.0	5.3436370037418656e+17
19424.0	5.3364917999588685e+17
19425.0	5.3290982542322336e+17
19426.0	5.321467612889087e+17
19427.0	5.313602270177962e+17
19428.0	5.3050559940962976e+17
19429.0	5.296426083592874e+17
19430.0	5.286875514972846e+17
19431.0	5.270741811462154e+17
19432.0	5.269256964232532e+17
19433.0	5.258706581192703e+17
19434.0	5.247175835516928e+17
19435.0	5.232322823585786e+17
19436.0	5.211903694820687e+17
19437.0	5.1892483148567994e+17
19438.0	5.083375068337522e+17
19439.0	5.1063677402480666e+17
19440.0	5.083127091298303e+17
19441.0	5.054420456833023e+17
19442.0	5.0223170918372704e+17
19443.0	4.989291120470698e+17
19444.0	4.951426671312892e+17
19445.0	4.8968115022725146e+17
19446.0	4.7917498284113914e+17
19447.0	4.7047451428782035e+17
19448.0	4.5979302177887686e+17
19449.0	4.389624363352056e+17
19450.0	3.915056566413985e+17
19451.0	3.731158282709643e+17
19452.0	4.197137022364336e+17
19453.0	4.509122213620398e+17
19454.0	4.653965613815122e+17
19455.0	4.7412984225464314e+17
19456.0	4.8411418984884896e+17
19457.0	4.9183481089665645e+17
19458.0	4.834275755731777e+17
19459.0	4.985540200540888e+17
19460.0	5.02300692062754e+17
19461.0	5.0518368480570016e+17
19462.0	5.077382627065856e+17
19463.0	5.1040135144625446e+17
19464.0	5.1478717205053274e+17
19465.0	5.178149460159144e+17
19466.0	5.197112556563117e+17
19467.0	5.2107234708029434e+17
19468.0	5.2215223244117344e+17
19469.0	5.230044607676414e+17
19470.0	5.2379344632982176e+17
19471.0	5.2457272899884365e+17
19472.0	5.252500868650324e+17
19473.0	5.2590396662524576e+17
19474.0	5.265792742457342e+17
19475.0	5.271202884310356e+17
19476.0	5.2775995712034125e+17
19477.0	5.283163919439188e+17
19478.0	5.288436209199785e+17
19479.0	5.2933918961172474e+17
19480.0	5.298256080098644e+17
19481.0	5.3028656565452794e+17
19482.0	5.3072361702468256e+17
19483.0	5.3114263435564365e+17
19484.0	5.315418277980843e+17
19485.0	5.319009496290644e+17
19486.0	5.322374419316734e+17
19487.0	5.325671153445545e+17
19488.0	5.328703980568575e+17
19489.0	5.33141203644143e+17
19490.0	5.3328915156609696e+17
19491.0	5.3365756762521594e+17
19492.0	5.338887814993236e+17
19493.0	5.3410009731563514e+17
19494.0	5.342953804748117e+17
19495.0	5.344757939874474e+17
19496.0	5.3460604809816723e+17
19497.0	5.347966684495872e+17
19498.0	5.3434626493207917e+17
19499.0	5.287101460731202e+17
19500.0	5.355242559023785e+17
19501.0	5.3615162451558406e+17
19502.0	5.3629527481384954e+17
19503.0	5.366965649189547e+17
19504.0	5.3693660857193805e+17
19505.0	5.3698183029937485e+17
19506.0	5.374314170460839e+17
19507.0	5.374813596024832e+17
19508.0	5.3750159991548576e+17
19509.0	5.377064672690172e+17
19510.0	5.3786922968241485e+17
19511.0	5.276405277392862e+17
19512.0	5.366975832959648e+17
19513.0	5.360046189139255e+17
19514.0	5.366735874031594e+17
19515.0	5.380501406395051e+17
19516.0	5.3812367210141005e+17
19517.0	5.3809472755903136e+17
19518.0	5.3807107622830074e+17
19519.0	5.3803654571185485e+17
19520.0	5.3819837370422605e+17
19521.0	5.3821646324804256e+17
19522.0	5.3817203501301754e+17
19523.0	5.381310417032532e+17
19524.0	5.380837133866325e+17
19525.0	5.380398613091669e+17
19526.0	5.379924443529215e+17
19527.0	5.3794159372970656e+17
19528.0	5.3788854277461325e+17
19529.0	5.378397793768787e+17
19530.0	5.379731277654697e+17
19531.0	5.3791497975234554e+17
19532.0	5.3785544195659085e+17
19533.0	5.377945764539049e+17
19534.0	5.3773211145338874e+17
19535.0	5.3766804478798496e+17
19536.0	5.3760067461884576e+17
19537.0	5.37538835058961e+17
19538.0	5.374552833348949e+17
19539.0	5.3735260055142394e+17
19540.0	5.3733278505151136e+17
19541.0	5.372639695252138e+17
19542.0	5.371936413231785e+17
19543.0	5.371173366573738e+17
19544.0	5.3704996928443725e+17
19545.0	5.3693008999437645e+17
19546.0	5.368193165382998e+17
19547.0	5.368289469399039e+17
19548.0	5.367582011949055e+17
19549.0	5.3681208038522854e+17
19550.0	5.367432920520021e+17
19551.0	5.366654843573588e+17
19552.0	5.3658673189573965e+17
19553.0	5.365051352765779e+17
19554.0	5.3642410579722234e+17
19555.0	5.363453167053481e+17
19556.0	5.362661985703251e+17
19557.0	5.361848737420628e+17
19558.0	5.361032030934357e+17
19559.0	5.3602084807420576e+17
19560.0	5.359337790767103e+17
19561.0	5.3585250136446285e+17
19562.0	5.357695830502058e+17
19563.0	5.3568764823033165e+17
19564.0	5.3560329015132154e+17
19565.0	5.35518548992546e+17
19566.0	5.3543053774465696e+17
19567.0	5.3534786018344954e+17
19568.0	5.3525998140566176e+17
19569.0	5.3517448785865363e+17
19570.0	5.3508966414199456e+17
19571.0	5.350024548450302e+17
19572.0	5.3491327932825594e+17
19573.0	5.3482564081418234e+17
19574.0	5.347326448457044e+17
19575.0	5.3465317382990496e+17
19576.0	5.3456476307456e+17
19577.0	5.3447296856446285e+17
19578.0	5.343841831878655e+17
19579.0	5.342968920320681e+17
19580.0	5.3420787715713696e+17
19581.0	5.341197743336107e+17
19582.0	5.3403197517769363e+17
19583.0	5.339423657601705e+17
19584.0	5.338500619217578e+17
19585.0	5.337524271229609e+17
19586.0	5.336579949548885e+17
19587.0	5.3356009584503456e+17
19588.0	5.3344622692270086e+17
19589.0	5.333980196197717e+17
19590.0	5.3329846096363514e+17
19591.0	5.3321794339908256e+17
19592.0	5.331278469529599e+17
19593.0	5.33034304536576e+17
19594.0	5.3292158764974074e+17
19595.0	5.3284942688638285e+17
19596.0	5.325537132849835e+17
19597.0	5.3266149822955514e+17
19598.0	5.325391559043753e+17
19599.0	5.3248618471096314e+17
19600.0	5.3239492497462605e+17
19601.0	5.32296290603281e+17
19602.0	5.322052139483135e+17
19603.0	5.3202345853801805e+17
19604.0	5.320134996525056e+17
19605.0	5.3190512170325325e+17
19606.0	5.318395088775849e+17
19607.0	5.317475663784617e+17
19608.0	5.3165290960541005e+17
19609.0	5.315575741939711e+17
19610.0	5.314708104019967e+17
19611.0	5.313761577533439e+17
19612.0	5.31287378178867e+17
19613.0	5.311931616679252e+17
19614.0	5.310971430043647e+17
19615.0	5.3100586117802656e+17
19616.0	5.3087106966923936e+17
19617.0	5.308160517253802e+17
19618.0	5.306707253832361e+17
19619.0	5.305647500711251e+17
19620.0	5.304731817039189e+17
19621.0	5.304406154499413e+17
19622.0	5.303522936138409e+17
19623.0	5.302581387591679e+17
19624.0	5.3016336545437e+17
19625.0	5.3007041911848954e+17
19626.0	5.299765108189866e+17
19627.0	5.298817334596947e+17
19628.0	5.2970183640569184e+17
19629.0	5.2967090103691936e+17
19630.0	5.2934955184947194e+17
19631.0	5.2580644374446125e+17
19632.0	5.294068517743273e+17
19633.0	5.2930773121324365e+17
19634.0	5.2922320927675725e+17
19635.0	5.2912470828427936e+17
19636.0	5.290282939580415e+17
19637.0	5.289030096781312e+17
19638.0	5.2884476163085645e+17
19639.0	5.287496295033513e+17
19640.0	5.286456772438698e+17
19641.0	5.2847186885126835e+17
19642.0	5.2846756654394003e+17
19643.0	5.283717829711189e+17
19644.0	5.2827391545835514e+17
19645.0	5.2815879991896723e+17
19646.0	5.2808468635757216e+17
19647.0	5.280642914844671e+17
19648.0	5.2799999105652045e+17
19649.0	5.2790508339418445e+17
19650.0	5.2781067632203085e+17
19651.0	5.277154496828757e+17
19652.0	5.276210368785066e+17
19653.0	5.2752455215786656e+17
19654.0	5.2743109278870176e+17
19655.0	5.27336012390946e+17
19656.0	5.272417363907925e+17
19657.0	5.271476443108692e+17
