# Flux units: erg / (cm m2 s)
# Wavelength units: Angstrom
wave	flux
19000.0	8.200840004588883e+17
19001.0	8.198952805466112e+17
19002.0	8.198008388015446e+17
19003.0	8.196551841852073e+17
19004.0	8.195108298031103e+17
19005.0	8.193681564980564e+17
19006.0	8.192248813103782e+17
19007.0	8.190459545387007e+17
19008.0	8.189108957129388e+17
19009.0	8.187481133765974e+17
19010.0	8.184523743996582e+17
19011.0	8.184847974880596e+17
19012.0	8.182069003812861e+17
19013.0	8.182114682579625e+17
19014.0	8.18036683780915e+17
19015.0	8.179047000790356e+17
19016.0	8.177588402214227e+17
19017.0	8.176200767067475e+17
19018.0	8.174752025105748e+17
19019.0	8.17333600990003e+17
19020.0	8.17181733630771e+17
19021.0	8.170459094843391e+17
19022.0	8.168997958713344e+17
19023.0	8.167332896920915e+17
19024.0	8.165973331454633e+17
19025.0	8.164434420345516e+17
19026.0	8.162858076471296e+17
19027.0	8.160400878425428e+17
19028.0	8.160141217453395e+17
19029.0	8.158593653495124e+17
19030.0	8.158463210640723e+17
19031.0	8.15731746939426e+17
19032.0	8.155813013094399e+17
19033.0	8.153844637412008e+17
19034.0	8.15261170077969e+17
19035.0	8.150092456394751e+17
19036.0	8.072031976641857e+17
19037.0	8.147502289125375e+17
19038.0	8.146653563322365e+17
19039.0	8.145358345469951e+17
19040.0	8.143929842423122e+17
19041.0	8.142414104843604e+17
19042.0	8.140482824983891e+17
19043.0	8.139465165198676e+17
19044.0	8.137916800128338e+17
19045.0	8.136433572599123e+17
19046.0	8.134696946193747e+17
19047.0	8.133360564043775e+17
19048.0	8.131064948763306e+17
19049.0	8.13002337026048e+17
19050.0	8.128547486957567e+17
19051.0	8.114283451777006e+17
19052.0	8.122753755032233e+17
19053.0	8.124254100914173e+17
19054.0	8.122888575341908e+17
19055.0	8.120177758917975e+17
19056.0	8.119806027541162e+17
19057.0	8.118385967628285e+17
19058.0	8.116738534495572e+17
19059.0	8.115382984376319e+17
19060.0	8.113968747555497e+17
19061.0	8.112923318681599e+17
19062.0	8.111381282815999e+17
19063.0	8.109871698280447e+17
19064.0	8.107765188788224e+17
19065.0	8.105927376196948e+17
19066.0	8.104989728352936e+17
19067.0	8.103734670961321e+17
19068.0	8.102272333862227e+17
19069.0	8.100760050991101e+17
19070.0	8.099098835375442e+17
19071.0	8.097630471061503e+17
19072.0	8.096163402787496e+17
19073.0	8.094627749254482e+17
19074.0	8.093142883150504e+17
19075.0	8.091612496265215e+17
19076.0	8.089995039823187e+17
19077.0	8.088476496254291e+17
19078.0	8.086817422529875e+17
19079.0	8.085464084206931e+17
19080.0	8.08386461433856e+17
19081.0	8.08216740040977e+17
19082.0	8.080671293571071e+17
19083.0	8.078677125715284e+17
19084.0	8.076503420676778e+17
19085.0	8.076085079397718e+17
19086.0	8.072371300029782e+17
19087.0	8.071352826549587e+17
19088.0	8.070516893373779e+17
19089.0	8.068065943442774e+17
19090.0	8.068053620577622e+17
19091.0	8.066685290414079e+17
19092.0	8.064676041239209e+17
19093.0	8.063803435865428e+17
19094.0	8.062328686422698e+17
19095.0	8.060822534225919e+17
19096.0	8.059222010189139e+17
19097.0	8.057734807857833e+17
19098.0	8.056169556519592e+17
19099.0	8.054615646579368e+17
19100.0	8.052948942017878e+17
19101.0	8.051487536054272e+17
19102.0	8.04959418388753e+17
19103.0	8.04840622976751e+17
19104.0	8.046877661812051e+17
19105.0	8.045216868422995e+17
19106.0	8.043399551997268e+17
19107.0	8.041977077563391e+17
19108.0	8.040273085639337e+17
19109.0	8.032279625815375e+17
19110.0	8.036316059009021e+17
19111.0	8.035800586037928e+17
19112.0	8.034380073140224e+17
19113.0	8.03285672988945e+17
19114.0	8.03128203996911e+17
19115.0	8.029356790120448e+17
19116.0	8.028060333550249e+17
19117.0	8.026445294425428e+17
19118.0	8.024360073822207e+17
19119.0	8.011983601270769e+17
19120.0	8.021059785719808e+17
19121.0	8.019792116056063e+17
19122.0	8.018805857626794e+17
19123.0	8.01723053436655e+17
19124.0	8.015105934841172e+17
19125.0	8.014026053954217e+17
19126.0	8.012379644231676e+17
19127.0	8.00349976020036e+17
19128.0	8.006884787224571e+17
19129.0	8.007346778625363e+17
19130.0	8.006155435507711e+17
19131.0	8.004579870375935e+17
19132.0	8.003059493896191e+17
19133.0	8.000682174971903e+17
19134.0	7.998809351127041e+17
19135.0	7.99831948997427e+17
19136.0	7.996769319955114e+17
19137.0	7.994515808496297e+17
19138.0	7.992489863195304e+17
19139.0	7.990578613933394e+17
19140.0	7.989016905383936e+17
19141.0	7.987435580074664e+17
19142.0	7.985688167317501e+17
19143.0	7.984008963730089e+17
19144.0	7.982455102723411e+17
19145.0	7.981050055622655e+17
19146.0	7.976562060864174e+17
19147.0	7.977528120923476e+17
19148.0	7.976240745021439e+17
19149.0	7.974636390187004e+17
19150.0	7.973081385533437e+17
19151.0	7.97148538016017e+17
19152.0	7.969803222384637e+17
19153.0	7.968167935956306e+17
19154.0	7.96613214942003e+17
19155.0	7.964986360638122e+17
19156.0	7.963290576966996e+17
19157.0	7.96100634083328e+17
19158.0	7.956512392959313e+17
19159.0	7.957994543950506e+17
19160.0	7.956636273126057e+17
19161.0	7.954613044335956e+17
19162.0	7.943236039475205e+17
19163.0	7.95041025246276e+17
19164.0	7.95038159278353e+17
19165.0	7.948731817831084e+17
19166.0	7.946716362484394e+17
19167.0	7.944737754098345e+17
19168.0	7.943899765713577e+17
19169.0	7.942365294974291e+17
19170.0	7.94089104465374e+17
19171.0	7.938932834566143e+17
19172.0	7.937559845928956e+17
19173.0	7.936085461390675e+17
19174.0	7.93426749624593e+17
19175.0	7.932887023572306e+17
19176.0	7.931241276549802e+17
19177.0	7.928872582512639e+17
19178.0	7.927655226321577e+17
19179.0	7.925782936551424e+17
19180.0	7.924567575450963e+17
19181.0	7.922668070240253e+17
19182.0	7.921374021200552e+17
19183.0	7.919854125667667e+17
19184.0	7.918114501733034e+17
19185.0	7.916514714495658e+17
19186.0	7.914938763487913e+17
19187.0	7.912847090647037e+17
19188.0	7.911584691825324e+17
19189.0	7.909860844066132e+17
19190.0	7.90812867900211e+17
19191.0	7.906341824408233e+17
19192.0	7.904881487992147e+17
19193.0	7.902785053218131e+17
19194.0	7.899334565691392e+17
19195.0	7.897555768355497e+17
19196.0	7.895386204493139e+17
19197.0	7.892700175007744e+17
19198.0	7.886992510200489e+17
19199.0	7.827431750631412e+17
19200.0	7.83789470480249e+17
19201.0	7.882616339780948e+17
19202.0	7.884545621753855e+17
19203.0	7.883702660322644e+17
19204.0	7.882491971676841e+17
19205.0	7.881110408484179e+17
19206.0	7.879543420704084e+17
19207.0	7.877508344403284e+17
19208.0	7.87555347298167e+17
19209.0	7.874653273281875e+17
19210.0	7.873027035365373e+17
19211.0	7.871419775276372e+17
19212.0	7.869678482008745e+17
19213.0	7.867156750401533e+17
19214.0	7.86513185926895e+17
19215.0	7.864347837595648e+17
19216.0	7.862936847166118e+17
19217.0	7.861165308772352e+17
19218.0	7.856104545452026e+17
19219.0	7.856967364116476e+17
19220.0	7.85602296344303e+17
19221.0	7.853115885748225e+17
19222.0	7.85113869783313e+17
19223.0	7.848476732467881e+17
19224.0	7.846232131108863e+17
19225.0	7.844084216845651e+17
19226.0	7.842844969183913e+17
19227.0	7.841118736263849e+17
19228.0	7.839524955269802e+17
19229.0	7.837786248489641e+17
19230.0	7.835935321707858e+17
19231.0	7.834188463996927e+17
19232.0	7.832509444958889e+17
19233.0	7.830442880619859e+17
19234.0	7.828948620673021e+17
19235.0	7.82710545195554e+17
19236.0	7.825534440439807e+17
19237.0	7.82368294323268e+17
19238.0	7.821488591033683e+17
19239.0	7.820216186000723e+17
19240.0	7.817124149286225e+17
19241.0	7.813392525950975e+17
19242.0	7.811700023623679e+17
19243.0	7.809108598063099e+17
19244.0	7.808210306771626e+17
19245.0	7.806380199116799e+17
19246.0	7.804533129696595e+17
19247.0	7.802739446775808e+17
19248.0	7.80097494642415e+17
19249.0	7.799138668948138e+17
19250.0	7.797257072017407e+17
19251.0	7.794981108449274e+17
19252.0	7.792216386830333e+17
19253.0	7.791761481007101e+17
19254.0	7.790000505268906e+17
19255.0	7.783509151536465e+17
19256.0	7.782331007893501e+17
19257.0	7.780651927339007e+17
19258.0	7.778808564285437e+17
19259.0	7.776560473265492e+17
19260.0	7.773675292633766e+17
19261.0	7.773138225987581e+17
19262.0	7.771046168668841e+17
19263.0	7.769136728550058e+17
19264.0	7.765356163279526e+17
19265.0	7.764858179158016e+17
19266.0	7.763170901535404e+17
19267.0	7.760423844926802e+17
19268.0	7.757674745692156e+17
19269.0	7.755757378338816e+17
19270.0	7.753805886128127e+17
19271.0	7.749771386508634e+17
19272.0	7.748954101208403e+17
19273.0	7.741878989837649e+17
19274.0	7.741184613023739e+17
19275.0	7.743279680454655e+17
19276.0	7.741259493933053e+17
19277.0	7.739291246875987e+17
19278.0	7.737331612123135e+17
19279.0	7.735130486123177e+17
19280.0	7.732956305730216e+17
19281.0	7.731244776641875e+17
19282.0	7.729217651343357e+17
19283.0	7.726639001632765e+17
19284.0	7.724143448074921e+17
19285.0	7.722474268874067e+17
19286.0	7.720874782228479e+17
19287.0	7.718872499792553e+17
19288.0	7.695562318370115e+17
19289.0	7.666431804746335e+17
19290.0	7.712617894947498e+17
19291.0	7.709504593111725e+17
19292.0	7.708698724706986e+17
19293.0	7.706592090783743e+17
19294.0	7.703434053899603e+17
19295.0	7.701097456074751e+17
19296.0	7.698902431389011e+17
19297.0	7.696613936638633e+17
19298.0	7.694454316072957e+17
19299.0	7.692381804210858e+17
19300.0	7.690183140267348e+17
19301.0	7.687948905829715e+17
19302.0	7.685661990933846e+17
19303.0	7.683122469885266e+17
19304.0	7.681069577579177e+17
19305.0	7.678852517418326e+17
19306.0	7.676556847611901e+17
19307.0	7.674025627090943e+17
19308.0	7.670412980781055e+17
19309.0	7.665668904189951e+17
19310.0	7.66225398715733e+17
19311.0	7.662482965397501e+17
19312.0	7.660654096460458e+17
19313.0	7.658281419232596e+17
19314.0	7.618335730565114e+17
19315.0	7.61863015672496e+17
19316.0	7.650770500102825e+17
19317.0	7.6486636732416e+17
19318.0	7.64606768567637e+17
19319.0	7.6413173511837e+17
19320.0	7.638823563427837e+17
19321.0	7.636261173635752e+17
19322.0	7.633172910396755e+17
19323.0	7.630329752496809e+17
19324.0	7.628320468369407e+17
19325.0	7.624783650881533e+17
19326.0	7.623258322326866e+17
19327.0	7.620180723804842e+17
19328.0	7.614944012227923e+17
19329.0	7.612307693633535e+17
19330.0	7.609434300394154e+17
19331.0	7.606631114211328e+17
19332.0	7.604034078070102e+17
19333.0	7.601157885831849e+17
19334.0	7.59613992398575e+17
19335.0	7.591234249250132e+17
19336.0	7.588325440705875e+17
19337.0	7.585408109335891e+17
19338.0	7.581544968006313e+17
19339.0	7.579337402351616e+17
19340.0	7.570895386880681e+17
19341.0	7.56785825779985e+17
19342.0	7.563285589830312e+17
19343.0	7.561631651332096e+17
19344.0	7.556576177029123e+17
19345.0	7.541621763604467e+17
19346.0	7.542119009528488e+17
19347.0	7.541822249937577e+17
19348.0	7.53770036479044e+17
19349.0	7.527613278978047e+17
19350.0	7.524111748169727e+17
19351.0	7.520474246414335e+17
19352.0	7.514759454086486e+17
19353.0	7.50899464048913e+17
19354.0	7.505232904847357e+17
19355.0	7.501007298756608e+17
19356.0	7.497532590522368e+17
19357.0	7.493626376486913e+17
19358.0	7.489591025423699e+17
19359.0	7.485410787721216e+17
19360.0	7.481433386560169e+17
19361.0	7.477406372375209e+17
19362.0	7.47342672306722e+17
19363.0	7.469142940581887e+17
19364.0	7.46488792682769e+17
19365.0	7.460576365466964e+17
19366.0	7.456254293180415e+17
19367.0	7.451851869214035e+17
19368.0	7.447421037226666e+17
19369.0	7.442616144625661e+17
19370.0	7.437842192007168e+17
19371.0	7.433452399886335e+17
19372.0	7.428962296791037e+17
19373.0	7.424101529070249e+17
19374.0	7.419361458039464e+17
19375.0	7.41446985519377e+17
19376.0	7.409525364970838e+17
19377.0	7.404464212978345e+17
19378.0	7.399404977782781e+17
19379.0	7.394280171634688e+17
19380.0	7.388839653234004e+17
19381.0	7.383446668880553e+17
19382.0	7.377835215814655e+17
19383.0	7.372381750995624e+17
19384.0	7.367298051822932e+17
19385.0	7.361798199399766e+17
19386.0	7.356186121382569e+17
19387.0	7.350361132105727e+17
19388.0	7.344432535131476e+17
19389.0	7.338281393979391e+17
19390.0	7.331332483623594e+17
19391.0	7.273054814775907e+17
19392.0	7.317191411455311e+17
19393.0	7.312417017036799e+17
19394.0	7.305805337111212e+17
19395.0	7.298764784009216e+17
19396.0	7.29086481801762e+17
19397.0	7.283904229321386e+17
19398.0	7.276510817812479e+17
19399.0	7.266934975714642e+17
19400.0	7.259979730561708e+17
19401.0	7.251701811642365e+17
19402.0	7.24346637263394e+17
19403.0	7.234836097226068e+17
19404.0	7.223759144484864e+17
19405.0	7.214617972091561e+17
19406.0	7.205287337394175e+17
19407.0	7.193049784385537e+17
19408.0	7.180817994350595e+17
19409.0	7.17192202376533e+17
19410.0	7.158930020324692e+17
19411.0	7.148355353662803e+17
19412.0	7.133115056477527e+17
19413.0	7.120995644429651e+17
19414.0	7.105020068975954e+17
19415.0	7.091023768802644e+17
19416.0	7.073310834338474e+17
19417.0	7.057821052960765e+17
19418.0	7.040202398760963e+17
19419.0	7.023477868811604e+17
19420.0	7.002991257889449e+17
19421.0	6.985764943080106e+17
19422.0	6.965856219168768e+17
19423.0	6.948613254370644e+17
19424.0	6.931287854022656e+17
19425.0	6.913282564685823e+17
19426.0	6.893078071738365e+17
19427.0	6.872263267713024e+17
19428.0	6.850467179003903e+17
19429.0	6.825974194765823e+17
19430.0	6.79998999215036e+17
19431.0	6.767063782304436e+17
19432.0	6.746262627942397e+17
19433.0	6.717084746645503e+17
19434.0	6.684005194443434e+17
19435.0	6.64865801065813e+17
19436.0	6.608814065319932e+17
19437.0	6.572006924703059e+17
19438.0	6.487681073326769e+17
19439.0	6.48099609164732e+17
19440.0	6.432310573050537e+17
19441.0	6.378061750599676e+17
19442.0	6.318264142878039e+17
19443.0	6.252646351852884e+17
19444.0	6.180508720780626e+17
19445.0	6.100524183060483e+17
19446.0	6.011515141707092e+17
19447.0	5.911673171520165e+17
19448.0	5.798520278395567e+17
19449.0	5.6680205716029434e+17
19450.0	5.505979455460683e+17
19451.0	5.4136360689554816e+17
19452.0	5.592958028655274e+17
19453.0	5.7337833345515565e+17
19454.0	5.852471966564347e+17
19455.0	5.956212126384127e+17
19456.0	6.048014531559427e+17
19457.0	6.129864578258258e+17
19458.0	6.174900488241199e+17
19459.0	6.269035285752499e+17
19460.0	6.329705442923858e+17
19461.0	6.38444053340706e+17
19462.0	6.43381996744431e+17
19463.0	6.48038111999863e+17
19464.0	6.522408167014397e+17
19465.0	6.560320482268502e+17
19466.0	6.596620295252646e+17
19467.0	6.630169661232467e+17
19468.0	6.661192877604864e+17
19469.0	6.689138424851112e+17
19470.0	6.715465175575208e+17
19471.0	6.74082502807825e+17
19472.0	6.763589699720531e+17
19473.0	6.785485723314857e+17
19474.0	6.805958938329087e+17
19475.0	6.822701205291004e+17
19476.0	6.842264319251796e+17
19477.0	6.858734461168297e+17
19478.0	6.873682813823657e+17
19479.0	6.888050785255423e+17
19480.0	6.904547464533335e+17
19481.0	6.919254939708073e+17
19482.0	6.936970881488219e+17
19483.0	6.951047929004031e+17
19484.0	6.967786952370857e+17
19485.0	6.97981779120401e+17
19486.0	6.99534770298334e+17
19487.0	7.006243572940797e+17
19488.0	7.01991612177886e+17
19489.0	7.029717189612886e+17
19490.0	7.038006505155235e+17
19491.0	7.051022611862867e+17
19492.0	7.060086358802436e+17
19493.0	7.069825796931581e+17
19494.0	7.076967301338451e+17
19495.0	7.085693707397804e+17
19496.0	7.09227511703142e+17
19497.0	7.099493554760362e+17
19498.0	7.10011719813257e+17
19499.0	7.036250907213782e+17
19500.0	7.11932301611281e+17
19501.0	7.124955730105684e+17
19502.0	7.131566806051496e+17
19503.0	7.136554529761961e+17
19504.0	7.141139528985258e+17
19505.0	7.145556542139049e+17
19506.0	7.150225470783487e+17
19507.0	7.154935948203348e+17
19508.0	7.158884667315539e+17
19509.0	7.162555650801663e+17
19510.0	7.165318009629353e+17
19511.0	7.093956226230911e+17
19512.0	7.15931824650101e+17
19513.0	7.152170586253957e+17
19514.0	7.161965625475049e+17
19515.0	7.180849704686936e+17
19516.0	7.185987904645802e+17
19517.0	7.188649917546493e+17
19518.0	7.191525694548649e+17
19519.0	7.194082159187283e+17
19520.0	7.1965306009245e+17
19521.0	7.199122012504063e+17
19522.0	7.201607576627881e+17
19523.0	7.204183372813651e+17
19524.0	7.206428569763837e+17
19525.0	7.208598344739497e+17
19526.0	7.210799981046441e+17
19527.0	7.212855025030484e+17
19528.0	7.214862765654016e+17
19529.0	7.216781447222611e+17
19530.0	7.218705722594646e+17
19531.0	7.220570413684054e+17
19532.0	7.22233019544371e+17
19533.0	7.22402529124898e+17
19534.0	7.22563553628433e+17
19535.0	7.227110622669484e+17
19536.0	7.228551736590335e+17
19537.0	7.230137830823251e+17
19538.0	7.231111760794964e+17
19539.0	7.23103551953306e+17
19540.0	7.2341731175738e+17
19541.0	7.235548958337705e+17
19542.0	7.236727577335126e+17
19543.0	7.23784819749683e+17
19544.0	7.238965318210899e+17
19545.0	7.238273972480678e+17
19546.0	7.237893403705344e+17
19547.0	7.242044285474131e+17
19548.0	7.242995002769407e+17
19549.0	7.244570725886633e+17
19550.0	7.248701319806975e+17
19551.0	7.249454945359187e+17
19552.0	7.250154422446761e+17
19553.0	7.25484766127719e+17
19554.0	7.25815787589905e+17
19555.0	7.258781064189267e+17
19556.0	7.259325379990868e+17
19557.0	7.262082821696172e+17
19558.0	7.265983488065533e+17
19559.0	7.266302497041066e+17
19560.0	7.266478628448938e+17
19561.0	7.266742492113577e+17
19562.0	7.270073869795327e+17
19563.0	7.272082285701802e+17
19564.0	7.272187691357523e+17
19565.0	7.272270570804564e+17
19566.0	7.27220661605717e+17
19567.0	7.272661890979159e+17
19568.0	7.276107908775935e+17
19569.0	7.276097171357696e+17
19570.0	7.276110089814016e+17
19571.0	7.275998567464957e+17
19572.0	7.275699120723284e+17
19573.0	7.275649126017706e+17
19574.0	7.276059474351446e+17
19575.0	7.278307768096083e+17
19576.0	7.278027043329364e+17
19577.0	7.277643760839338e+17
19578.0	7.277263668816553e+17
19579.0	7.276966967945897e+17
19580.0	7.276637550105939e+17
19581.0	7.276353381815636e+17
19582.0	7.276049277998419e+17
19583.0	7.276275546718205e+17
19584.0	7.277513442415955e+17
19585.0	7.276591426742952e+17
19586.0	7.27595804909022e+17
19587.0	7.2758891394717e+17
19588.0	7.273873624006659e+17
19589.0	7.275092388085757e+17
19590.0	7.274374432292863e+17
19591.0	7.274195754942463e+17
19592.0	7.273707711321428e+17
19593.0	7.273072962131283e+17
19594.0	7.272136281773393e+17
19595.0	7.27354917921314e+17
19596.0	7.268050863303342e+17
19597.0	7.272373640232957e+17
19598.0	7.270693044136616e+17
19599.0	7.271225709559805e+17
19600.0	7.270621206893908e+17
19601.0	7.269675740867242e+17
19602.0	7.269007526723583e+17
19603.0	7.266103719187794e+17
19604.0	7.267469268527786e+17
19605.0	7.265887080589996e+17
19606.0	7.266521829780138e+17
19607.0	7.265808891772927e+17
19608.0	7.2650375313053e+17
19609.0	7.264986802596522e+17
19610.0	7.264697423582548e+17
19611.0	7.263886535994025e+17
19612.0	7.263176794046463e+17
19613.0	7.262333161526612e+17
19614.0	7.261387105501183e+17
19615.0	7.260746285755049e+17
19616.0	7.259366379312468e+17
19617.0	7.259085296631807e+17
19618.0	7.255935775582886e+17
19619.0	7.254518359479633e+17
19620.0	7.253889987029672e+17
19621.0	7.255647074648064e+17
19622.0	7.254873727478442e+17
19623.0	7.254012653644458e+17
19624.0	7.25307257590033e+17
19625.0	7.252210178064384e+17
19626.0	7.251211823262377e+17
19627.0	7.250176227235155e+17
19628.0	7.247570230662486e+17
19629.0	7.247089589988008e+17
19630.0	7.236046882340861e+17
19631.0	7.180455574328667e+17
19632.0	7.243800802667178e+17
19633.0	7.244142350434301e+17
19634.0	7.244522269092524e+17
19635.0	7.245332850496851e+17
19636.0	7.244547285319679e+17
19637.0	7.241698969823916e+17
19638.0	7.242681552644777e+17
19639.0	7.241675624327849e+17
19640.0	7.240382128936276e+17
19641.0	7.237275454100827e+17
19642.0	7.238751509370195e+17
19643.0	7.237720360703316e+17
19644.0	7.236490824253437e+17
19645.0	7.234693710391977e+17
19646.0	7.234769617507667e+17
19647.0	7.235752956701352e+17
19648.0	7.235994487095296e+17
19649.0	7.234957929174355e+17
19650.0	7.233958430725459e+17
19651.0	7.232893849261395e+17
19652.0	7.231841016042836e+17
19653.0	7.230802216965459e+17
19654.0	7.22973189349922e+17
19655.0	7.228653079363581e+17
19656.0	7.227644434535764e+17
19657.0	7.226576960400042e+17
19658.0	7.225539483926527e+17
19659.0	7.224467819681108e+17
19660.0	7.223414220303017e+17
19661.0	7.222455621910527e+17
19662.0	7.223854472626175e+17
19663.0	7.222503617331199e+17
19664.0	7.221377874526207e+17
19665.0	7.220711704406697e+17
19666.0	7.219930090263892e+17
