# Flux units: erg / (cm m2 s)
# Wavelength units: Angstrom
wave	flux
19000.0	5.2922804698699085e+17
19001.0	5.2912297897274016e+17
19002.0	5.2903139592546976e+17
19003.0	5.289326806739626e+17
19004.0	5.2883449082893645e+17
19005.0	5.2873636159160314e+17
19006.0	5.286381134457513e+17
19007.0	5.285326428482217e+17
19008.0	5.284375597940735e+17
19009.0	5.2833251107362125e+17
19010.0	5.2821581386219514e+17
19011.0	5.281411363766271e+17
19012.0	5.2802382672691194e+17
19013.0	5.278819634118656e+17
19014.0	5.27744595272226e+17
19015.0	5.2764761660238496e+17
19016.0	5.275483239350271e+17
19017.0	5.2745344136861005e+17
19018.0	5.273543217162922e+17
19019.0	5.2725709320574285e+17
19020.0	5.2715788959743994e+17
19021.0	5.270611881011881e+17
19022.0	5.2696355484030285e+17
19023.0	5.268630098935807e+17
19024.0	5.267661360114345e+17
19025.0	5.266675357537622e+17
19026.0	5.265677360649556e+17
19027.0	5.2645340395165005e+17
19028.0	5.263755976551081e+17
19029.0	5.2627744143441914e+17
19030.0	5.261804654908756e+17
19031.0	5.2608265159529805e+17
19032.0	5.259843606675455e+17
19033.0	5.258807031278249e+17
19034.0	5.2578816007427405e+17
19035.0	5.25676693299746e+17
19036.0	5.2410948322153824e+17
19037.0	5.2549179495765325e+17
19038.0	5.2539615441059834e+17
19039.0	5.253000004807338e+17
19040.0	5.2520225292506445e+17
19041.0	5.2510403323057485e+17
19042.0	5.249997896766804e+17
19043.0	5.249091112009726e+17
19044.0	5.2481043209038496e+17
19045.0	5.247130934793557e+17
19046.0	5.24612495684403e+17
19047.0	5.245156149515604e+17
19048.0	5.244075155040938e+17
19049.0	5.243163958575102e+17
19050.0	5.2422266315953485e+17
19051.0	5.2394016874605203e+17
19052.0	5.239683551679828e+17
19053.0	5.2393287981465594e+17
19054.0	5.238364176034473e+17
19055.0	5.2372231582733645e+17
19056.0	5.236401555636223e+17
19057.0	5.2354382694099616e+17
19058.0	5.2344364333356365e+17
19059.0	5.233489427300351e+17
19060.0	5.2325085291915936e+17
19061.0	5.2315492051845114e+17
19062.0	5.230571798134784e+17
19063.0	5.2295990845112314e+17
19064.0	5.2285467154623136e+17
19065.0	5.2275390688788474e+17
19066.0	5.2266420701320525e+17
19067.0	5.225702634815487e+17
19068.0	5.2247348662763514e+17
19069.0	5.2237614857584634e+17
19070.0	5.2227743730892794e+17
19071.0	5.2218120704273056e+17
19072.0	5.2208382271378765e+17
19073.0	5.219870568349696e+17
19074.0	5.2189023188637005e+17
19075.0	5.2179307495860896e+17
19076.0	5.216946684777812e+17
19077.0	5.2159738907634336e+17
19078.0	5.2149988989337594e+17
19079.0	5.214043780415487e+17
19080.0	5.2130616547737594e+17
19081.0	5.21208000099123e+17
19082.0	5.211105915830272e+17
19083.0	5.210094099409577e+17
19084.0	5.2090450543465805e+17
19085.0	5.2082224010362874e+17
19086.0	5.20701342855987e+17
19087.0	5.20587252334592e+17
19088.0	5.205226731951444e+17
19089.0	5.204035444757845e+17
19090.0	5.20335451628066e+17
19091.0	5.202384984735743e+17
19092.0	5.201311725256703e+17
19093.0	5.200472514232319e+17
19094.0	5.199502268956671e+17
19095.0	5.1985337957744634e+17
19096.0	5.1975559483228154e+17
19097.0	5.1965973757951994e+17
19098.0	5.195628622992724e+17
19099.0	5.194459338418858e+17
19100.0	5.193331020311211e+17
19101.0	5.1923747986909856e+17
19102.0	5.191354584574634e+17
19103.0	5.1904582715965434e+17
19104.0	5.189492075921407e+17
19105.0	5.1885147947007974e+17
19106.0	5.187487139889151e+17
19107.0	5.1865805410795514e+17
19108.0	5.18562419572736e+17
19109.0	5.183605363965949e+17
19110.0	5.183604567048191e+17
19111.0	5.1827262944706554e+17
19112.0	5.181763955458047e+17
19113.0	5.1808025643581434e+17
19114.0	5.179835064254464e+17
19115.0	5.1788166788546554e+17
19116.0	5.1778968120634016e+17
19117.0	5.176929329435989e+17
19118.0	5.1758092195812685e+17
19119.0	5.1710719545398566e+17
19120.0	5.1739375009355085e+17
19121.0	5.17300143853841e+17
19122.0	5.1721321550533965e+17
19123.0	5.171168873021439e+17
19124.0	5.170149109792767e+17
19125.0	5.169225931598506e+17
19126.0	5.168272766227798e+17
19127.0	5.16608235737361e+17
19128.0	5.1659079442322765e+17
19129.0	5.1653486596587514e+17
19130.0	5.164415887693141e+17
19131.0	5.163462223899306e+17
19132.0	5.162508048400383e+17
19133.0	5.1613580862859936e+17
19134.0	5.1604049230124365e+17
19135.0	5.159622581157887e+17
19136.0	5.158670163771391e+17
19137.0	5.157603134930943e+17
19138.0	5.1567159347773434e+17
19139.0	5.1557890131667616e+17
19140.0	5.1548313515021645e+17
19141.0	5.15387067203584e+17
19142.0	5.152896821056853e+17
19143.0	5.151919166543188e+17
19144.0	5.1509664597497165e+17
19145.0	5.150029881453226e+17
19146.0	5.148696196240725e+17
19147.0	5.148015855665151e+17
19148.0	5.147149729092949e+17
19149.0	5.146192620377428e+17
19150.0	5.1452384707433805e+17
19151.0	5.144284788075177e+17
19152.0	5.143310740662954e+17
19153.0	5.1423531999341216e+17
19154.0	5.1413254318762656e+17
19155.0	5.1404570879153485e+17
19156.0	5.139499036180479e+17
19157.0	5.13851661553937e+17
19158.0	5.136828331982847e+17
19159.0	5.136617672365396e+17
19160.0	5.1356587237485216e+17
19161.0	5.1346826882362016e+17
19162.0	5.132118334810795e+17
19163.0	5.132666903636649e+17
19164.0	5.131851246425428e+17
19165.0	5.130852056956927e+17
19166.0	5.129815165588822e+17
19167.0	5.1288281340095136e+17
19168.0	5.12799814136627e+17
19169.0	5.1270299687758496e+17
19170.0	5.126120651358207e+17
19171.0	5.125063509890388e+17
19172.0	5.1242020403937274e+17
19173.0	5.123253346151081e+17
19174.0	5.1222678762509645e+17
19175.0	5.121351464867156e+17
19176.0	5.1204005763044685e+17
19177.0	5.119344962262357e+17
19178.0	5.1184384396492794e+17
19179.0	5.117404432564224e+17
19180.0	5.1165498703872e+17
19181.0	5.115558804586494e+17
19182.0	5.1146531634763085e+17
19183.0	5.1137260454324896e+17
19184.0	5.112757960223402e+17
19185.0	5.111820605980672e+17
19186.0	5.110872688383317e+17
19187.0	5.1098791290688845e+17
19188.0	5.1089628421160954e+17
19189.0	5.107999167916713e+17
19190.0	5.1070405723204256e+17
19191.0	5.1060815551965856e+17
19192.0	5.105163512228521e+17
19193.0	5.1042004427079674e+17
19194.0	5.103250766299136e+17
19195.0	5.1023137231339514e+17
19196.0	5.1013558811142816e+17
19197.0	5.1004048408575994e+17
19198.0	5.0994516174656845e+17
19199.0	5.0888379360870355e+17
19200.0	5.0903166505451546e+17
19201.0	5.0966050761605114e+17
19202.0	5.0956626803643725e+17
19203.0	5.0946871943058765e+17
19204.0	5.0937459106993485e+17
19205.0	5.092807845522089e+17
19206.0	5.091853666527915e+17
19207.0	5.0908322486463136e+17
19208.0	5.089836897665023e+17
19209.0	5.089014792410453e+17
19210.0	5.0880689488964256e+17
19211.0	5.087126295849642e+17
19212.0	5.086178121700693e+17
19213.0	5.08510458609664e+17
19214.0	5.084088542516566e+17
19215.0	5.0832907083011405e+17
19216.0	5.082383593592149e+17
19217.0	5.081438433749674e+17
19218.0	5.079916689926825e+17
19219.0	5.079444012837547e+17
19220.0	5.0785748377053856e+17
19221.0	5.0774414850348365e+17
19222.0	5.0766782356520954e+17
19223.0	5.0757400236741965e+17
19224.0	5.074771231025834e+17
19225.0	5.07375667852083e+17
19226.0	5.072900787448489e+17
19227.0	5.071952885230249e+17
19228.0	5.071020741012138e+17
19229.0	5.070074752095572e+17
19230.0	5.0691105354328736e+17
19231.0	5.068162957574143e+17
19232.0	5.067224314281983e+17
19233.0	5.0662441963137696e+17
19234.0	5.065328840496468e+17
19235.0	5.064384831990442e+17
19236.0	5.0634518412219725e+17
19237.0	5.0624949198520314e+17
19238.0	5.061487221538815e+17
19239.0	5.0606129069861536e+17
19240.0	5.059629446157653e+17
19241.0	5.0586940611406496e+17
19242.0	5.057759315055957e+17
19243.0	5.0567337476095994e+17
19244.0	5.055888430377641e+17
19245.0	5.054943977275391e+17
19246.0	5.053988633662805e+17
19247.0	5.0530519386248525e+17
19248.0	5.0521083488501754e+17
19249.0	5.0511546298313376e+17
19250.0	5.050202826910378e+17
19251.0	5.049168470299988e+17
19252.0	5.0481644154388474e+17
19253.0	5.047366185560746e+17
19254.0	5.0464308327000736e+17
19255.0	5.0453889067690656e+17
19256.0	5.044494796499626e+17
19257.0	5.0435998340874234e+17
19258.0	5.0426568867403085e+17
19259.0	5.0416704633350816e+17
19260.0	5.0404750915884365e+17
19261.0	5.039811570171904e+17
19262.0	5.038839364059135e+17
19263.0	5.037866745506474e+17
19264.0	5.036619980952915e+17
19265.0	5.0358906390227616e+17
19266.0	5.0349475029319674e+17
19267.0	5.034151228298581e+17
19268.0	5.033205751786154e+17
19269.0	5.032260229835434e+17
19270.0	5.031305771920041e+17
19271.0	5.030138687957674e+17
19272.0	5.029398668028585e+17
19273.0	5.027161644378793e+17
19274.0	5.026629991880019e+17
19275.0	5.0265844997597856e+17
19276.0	5.025625070895103e+17
19277.0	5.0246821361309e+17
19278.0	5.023735364976639e+17
19279.0	5.022771260861098e+17
19280.0	5.0217957489377274e+17
19281.0	5.0208909557759994e+17
19282.0	5.0199573729116154e+17
19283.0	5.018844738704725e+17
19284.0	5.0179065015610016e+17
19285.0	5.016990552948735e+17
19286.0	5.01614308823313e+17
19287.0	5.0152169977937914e+17
19288.0	5.0090167105836314e+17
19289.0	5.004302663112014e+17
19290.0	5.0123727773368314e+17
19291.0	5.0112584605149856e+17
19292.0	5.010469475581951e+17
19293.0	5.009519556602538e+17
19294.0	5.008568245114196e+17
19295.0	5.007625117412011e+17
19296.0	5.006667895450281e+17
19297.0	5.0057054683572883e+17
19298.0	5.00475432603921e+17
19299.0	5.0038139917434874e+17
19300.0	5.002861816927573e+17
19301.0	5.001910155913898e+17
19302.0	5.000943414280191e+17
19303.0	4.999958458881363e+17
19304.0	4.9990240853906765e+17
19305.0	4.9980833414512634e+17
19306.0	4.997132053031594e+17
19307.0	4.996142404206591e+17
19308.0	4.995197870014462e+17
19309.0	4.993885335977982e+17
19310.0	4.992838975968596e+17
19311.0	4.9922720920152736e+17
19312.0	4.991388808642559e+17
19313.0	4.99042965520384e+17
19314.0	4.972237109067789e+17
19315.0	4.971938766127105e+17
19316.0	4.987508438510251e+17
19317.0	4.986588142501888e+17
19318.0	4.9856225228445e+17
19319.0	4.984667792998398e+17
19320.0	4.983699507860821e+17
19321.0	4.982733904980649e+17
19322.0	4.981677293393237e+17
19323.0	4.980657265923413e+17
19324.0	4.979824902100308e+17
19325.0	4.9785106784583674e+17
19326.0	4.97788959990306e+17
19327.0	4.9769110492064416e+17
19328.0	4.975937293997398e+17
19329.0	4.9749740916572154e+17
19330.0	4.9739738263497376e+17
19331.0	4.9729900642303994e+17
19332.0	4.9720357712909645e+17
19333.0	4.971054917921449e+17
19334.0	4.9700758534225914e+17
19335.0	4.9690785430022816e+17
19336.0	4.9681026277266765e+17
19337.0	4.967119740818773e+17
19338.0	4.965992497851049e+17
19339.0	4.9651421208903674e+17
19340.0	4.9640814436242765e+17
19341.0	4.96310337736977e+17
19342.0	4.9618912983121914e+17
19343.0	4.961158698106879e+17
19344.0	4.9601541469197645e+17
19345.0	4.9579149373385363e+17
19346.0	4.957387467958953e+17
19347.0	4.9570899820543994e+17
19348.0	4.9561387006252365e+17
19349.0	4.955103146541055e+17
19350.0	4.954083996379817e+17
19351.0	4.9530707392157005e+17
19352.0	4.9520106421616614e+17
19353.0	4.9510407373236896e+17
19354.0	4.950014446359892e+17
19355.0	4.9489192387870726e+17
19356.0	4.9479466433030816e+17
19357.0	4.946908369212756e+17
19358.0	4.9458432361977165e+17
19359.0	4.9447004141868365e+17
19360.0	4.9425184030283085e+17
19361.0	4.9414765064574285e+17
19362.0	4.9404409355960314e+17
19363.0	4.939373083273899e+17
19364.0	4.938300526340777e+17
19365.0	4.937227452110164e+17
19366.0	4.9361461444607994e+17
19367.0	4.935059295436798e+17
19368.0	4.9339669371944954e+17
19369.0	4.9328065494384634e+17
19370.0	4.9316115726554445e+17
19371.0	4.930615333879808e+17
19372.0	4.9295266547411616e+17
19373.0	4.92838565445632e+17
19374.0	4.9272651769009485e+17
19375.0	4.926120435296938e+17
19376.0	4.9249706234784416e+17
19377.0	4.923807401771007e+17
19378.0	4.9226385303360845e+17
19379.0	4.9214588278101325e+17
19380.0	4.9202681697621325e+17
19381.0	4.9190666610496845e+17
19382.0	4.9178061405771085e+17
19383.0	4.916550090533547e+17
19384.0	4.9153829052088314e+17
19385.0	4.9141395771883514e+17
19386.0	4.9116590203644576e+17
19387.0	4.910043108824405e+17
19388.0	4.9087454918301005e+17
19389.0	4.907431269586261e+17
19390.0	4.9060978793731405e+17
19391.0	4.8917503705524794e+17
19392.0	4.902240182949202e+17
19393.0	4.9019917277593594e+17
19394.0	4.9005720397414406e+17
19395.0	4.899118081463636e+17
19396.0	4.8970483679013523e+17
19397.0	4.8942641141077325e+17
19398.0	4.892724923378346e+17
19399.0	4.8907276307660794e+17
19400.0	4.8895170805323085e+17
19401.0	4.887996125238612e+17
19402.0	4.8857587199071546e+17
19403.0	4.8823019597987834e+17
19404.0	4.880567033484628e+17
19405.0	4.87876739535121e+17
19406.0	4.8764484611386035e+17
19407.0	4.872250292087465e+17
19408.0	4.8697488196676256e+17
19409.0	4.867640059232258e+17
19410.0	4.862884704856746e+17
19411.0	4.8606753685067085e+17
19412.0	4.855143305925973e+17
19413.0	4.8522099928596474e+17
19414.0	4.8455020830173843e+17
19415.0	4.840726796610214e+17
19416.0	4.8346410264821715e+17
19417.0	4.828931799995732e+17
19418.0	4.8253600544413e+17
19419.0	4.821946518732798e+17
19420.0	4.818390991153834e+17
19421.0	4.814642974381396e+17
19422.0	4.8107089276436474e+17
19423.0	4.806565111179946e+17
19424.0	4.802069771496107e+17
19425.0	4.796269330781524e+17
19426.0	4.7913069518520314e+17
19427.0	4.78604760781073e+17
19428.0	4.7789318543332704e+17
19429.0	4.772824094867455e+17
19430.0	4.763774494616235e+17
19431.0	4.753455123354967e+17
19432.0	4.74521583537357e+17
19433.0	4.7319706742292506e+17
19434.0	4.7145975531874976e+17
19435.0	4.6894986982413664e+17
19436.0	4.6571067231873696e+17
19437.0	4.638173790120617e+17
19438.0	4.599000888683186e+17
19439.0	4.596291262043475e+17
19440.0	4.576445289114281e+17
19441.0	4.552426933714942e+17
19442.0	4.5261085212672006e+17
19443.0	4.498548241814867e+17
19444.0	4.4658220688124563e+17
19445.0	4.415319298801674e+17
19446.0	4.323517891171674e+17
19447.0	4.2493180040096384e+17
19448.0	4.156459249390941e+17
19449.0	3.955163198215501e+17
19450.0	3.4632836079506477e+17
19451.0	3.3127995214397344e+17
19452.0	3.742652592117091e+17
19453.0	4.075783937764006e+17
19454.0	4.204840974548988e+17
19455.0	4.2812847598250656e+17
19456.0	4.364599643428189e+17
19457.0	4.43598421517926e+17
19458.0	4.4325278472383366e+17
19459.0	4.494199862154595e+17
19460.0	4.5253561442194765e+17
19461.0	4.5489434894445216e+17
19462.0	4.570431499534336e+17
19463.0	4.590145639896404e+17
19464.0	4.607968792281088e+17
19465.0	4.624035200281258e+17
19466.0	4.649160087874208e+17
19467.0	4.6769381411826336e+17
19468.0	4.695594820610727e+17
19469.0	4.708024124615334e+17
19470.0	4.718358954683045e+17
19471.0	4.726490495888043e+17
19472.0	4.732784782344191e+17
19473.0	4.738131969092266e+17
19474.0	4.7431324064372026e+17
19475.0	4.7468707287749965e+17
19476.0	4.750695251749545e+17
19477.0	4.754198128230401e+17
19478.0	4.757736088666111e+17
19479.0	4.760211341093545e+17
19480.0	4.7624434769810765e+17
19481.0	4.764470911959039e+17
19482.0	4.7663524459752096e+17
19483.0	4.768059345950036e+17
19484.0	4.7695843697186125e+17
19485.0	4.772460973697703e+17
19486.0	4.7754821406556134e+17
19487.0	4.7810958306836474e+17
19488.0	4.783699912556541e+17
19489.0	4.7865718405857274e+17
19490.0	4.7882911410203334e+17
19491.0	4.791406846192298e+17
19492.0	4.792141805693608e+17
19493.0	4.795240855983445e+17
19494.0	4.795448539742207e+17
19495.0	4.7956327752444563e+17
19496.0	4.798078880754345e+17
19497.0	4.798356630361429e+17
19498.0	4.794356619804668e+17
19499.0	4.7782357515632666e+17
19500.0	4.7998064195010554e+17
19501.0	4.800264735293439e+17
19502.0	4.8000568187508045e+17
19503.0	4.799836324888576e+17
19504.0	4.799569318292138e+17
19505.0	4.799286521539242e+17
19506.0	4.7994252201820134e+17
19507.0	4.8004630811333965e+17
19508.0	4.800106336703828e+17
19509.0	4.799711330435071e+17
19510.0	4.799124302637738e+17
19511.0	4.7679474887557075e+17
19512.0	4.7938412530892806e+17
19513.0	4.791981932806138e+17
19514.0	4.7925984738235686e+17
19515.0	4.7965135196651514e+17
19516.0	4.7964043866712736e+17
19517.0	4.795849357219156e+17
19518.0	4.7959216872925856e+17
19519.0	4.796235519098879e+17
19520.0	4.795648545128447e+17
19521.0	4.7950869110456326e+17
19522.0	4.794468320411647e+17
19523.0	4.793879301018963e+17
19524.0	4.7932579022984525e+17
19525.0	4.7926221108237645e+17
19526.0	4.791995276285268e+17
19527.0	4.791347670854314e+17
19528.0	4.7906902360719366e+17
19529.0	4.7900315464936096e+17
19530.0	4.78936649765137e+17
19531.0	4.788689794935465e+17
19532.0	4.7880061800065696e+17
19533.0	4.787316061809321e+17
19534.0	4.7866165169138336e+17
19535.0	4.785910315657898e+17
19536.0	4.7851813120682656e+17
19537.0	4.784494723377834e+17
19538.0	4.7836409658081274e+17
19539.0	4.782716246207146e+17
19540.0	4.782304146052436e+17
19541.0	4.7815864572968954e+17
19542.0	4.7808471825558176e+17
19543.0	4.7800997519906125e+17
19544.0	4.77935953772544e+17
19545.0	4.778219583220394e+17
19546.0	4.7772858982946125e+17
19547.0	4.777102087815168e+17
19548.0	4.7763336570688845e+17
19549.0	4.7755206912027296e+17
19550.0	4.774810172609877e+17
19551.0	4.774041573392383e+17
19552.0	4.773267683060393e+17
19553.0	4.77247154753809e+17
19554.0	4.771689497187668e+17
19555.0	4.7709223974338554e+17
19556.0	4.770176679542783e+17
19557.0	4.770471185394346e+17
19558.0	4.769682646455636e+17
19559.0	4.768887989425493e+17
19560.0	4.768078943136425e+17
19561.0	4.767284314767359e+17
19562.0	4.7665028299489274e+17
19563.0	4.765706358882303e+17
19564.0	4.7649052635955194e+17
19565.0	4.764102374544724e+17
19566.0	4.763278080562517e+17
19567.0	4.7624886433437005e+17
19568.0	4.761667562897407e+17
19569.0	4.760867580499285e+17
19570.0	4.7600635422091936e+17
19571.0	4.759245663414955e+17
19572.0	4.75842029499187e+17
19573.0	4.757603615069524e+17
19574.0	4.75675404341521e+17
19575.0	4.755987835650047e+17
19576.0	4.7551721204176205e+17
19577.0	4.754328450149034e+17
19578.0	4.753498570751998e+17
19579.0	4.752692152194389e+17
19580.0	4.751867505191594e+17
19581.0	4.751055220899839e+17
19582.0	4.7502414706988365e+17
19583.0	4.749416428732415e+17
19584.0	4.7485724844359674e+17
19585.0	4.747694408990719e+17
19586.0	4.7468366367730336e+17
19587.0	4.746045253397162e+17
19588.0	4.74494902800657e+17
19589.0	4.7444270573595296e+17
19590.0	4.7435445597197645e+17
19591.0	4.74278536413184e+17
19592.0	4.7419551268208634e+17
19593.0	4.741111402026324e+17
19594.0	4.740145555876523e+17
19595.0	4.739408554448212e+17
19596.0	4.737745126337194e+17
19597.0	4.737673440788479e+17
19598.0	4.736671122369193e+17
19599.0	4.7361148052657485e+17
19600.0	4.735286737108991e+17
19601.0	4.734405097903445e+17
19602.0	4.733555009650687e+17
19603.0	4.7323735629933216e+17
19604.0	4.7318583242042016e+17
19605.0	4.7309161094621875e+17
19606.0	4.7302623307147936e+17
19607.0	4.729427636955819e+17
19608.0	4.7285748042301434e+17
19609.0	4.7277167495959885e+17
19610.0	4.726906120656213e+17
19611.0	4.726062205719893e+17
19612.0	4.7252315930187085e+17
19613.0	4.7243848609082016e+17
19614.0	4.723526419699029e+17
19615.0	4.722698890510334e+17
19616.0	4.721758301760171e+17
19617.0	4.721020671186261e+17
19618.0	4.719766608543742e+17
19619.0	4.718847828077226e+17
19620.0	4.718053215087274e+17
19621.0	4.717660296882857e+17
19622.0	4.7168251347599354e+17
19623.0	4.7159835099135994e+17
19624.0	4.7151352664555514e+17
19625.0	4.7142984343005856e+17
19626.0	4.7134571477947725e+17
19627.0	4.7126068540211194e+17
19628.0	4.7115263342018554e+17
19629.0	4.7108538719272954e+17
19630.0	4.708460501401597e+17
19631.0	4.6988418214789146e+17
19632.0	4.7083955407202976e+17
19633.0	4.707520949343572e+17
19634.0	4.7067146957619194e+17
19635.0	4.7058476576276474e+17
19636.0	4.705021683826687e+17
19637.0	4.703952661293738e+17
19638.0	4.7033323747628365e+17
19639.0	4.7024881396613114e+17
19640.0	4.7015000301458765e+17
19641.0	4.7002153413946016e+17
19642.0	4.699970615640064e+17
19643.0	4.699120786036053e+17
19644.0	4.6982328441896954e+17
19645.0	4.697256356391593e+17
19646.0	4.696591877275647e+17
19647.0	4.695755474337792e+17
19648.0	4.6949133776322554e+17
19649.0	4.694068307165184e+17
19650.0	4.6932270094745594e+17
19651.0	4.692380244508671e+17
19652.0	4.691538407849983e+17
19653.0	4.69069099835938e+17
19654.0	4.6898542235265696e+17
19655.0	4.6890078598157645e+17
