# Flux units: erg / (cm m2 s)
# Wavelength units: Angstrom
wave	flux
19000.0	7.342006188987731e+17
19001.0	7.340605894033407e+17
19002.0	7.339297433365161e+17
19003.0	7.337941048579411e+17
19004.0	7.336584557537961e+17
19005.0	7.335229496754175e+17
19006.0	7.333872473036116e+17
19007.0	7.332453486865064e+17
19008.0	7.331128770472617e+17
19009.0	7.329755827972777e+17
19010.0	7.328237808691881e+17
19011.0	7.327058638842538e+17
19012.0	7.32556296261905e+17
19013.0	7.324361498645844e+17
19014.0	7.322967089698131e+17
19015.0	7.321618881008982e+17
19016.0	7.320252604656298e+17
19017.0	7.318904110754474e+17
19018.0	7.317539514919593e+17
19019.0	7.316190847653203e+17
19020.0	7.31481256300817e+17
19021.0	7.313462845767676e+17
19022.0	7.312105311742633e+17
19023.0	7.310730676142079e+17
19024.0	7.309365339313492e+17
19025.0	7.308002362479955e+17
19026.0	7.306622565089279e+17
19027.0	7.305149628983977e+17
19028.0	7.303919947131561e+17
19029.0	7.302554727743487e+17
19030.0	7.301189634184532e+17
19031.0	7.299823908683775e+17
19032.0	7.298457946903892e+17
19033.0	7.297049765259948e+17
19034.0	7.295724260338345e+17
19035.0	7.29433058259763e+17
19036.0	7.284118548469076e+17
19037.0	7.291618259020457e+17
19038.0	7.290245322113023e+17
19039.0	7.288890479433044e+17
19040.0	7.28752320483601e+17
19041.0	7.28615499211298e+17
19042.0	7.284750259585023e+17
19043.0	7.283420101782186e+17
19044.0	7.282050788753407e+17
19045.0	7.280683426075987e+17
19046.0	7.279291803544233e+17
19047.0	7.277937577426944e+17
19048.0	7.276486412555603e+17
19049.0	7.275177528262655e+17
19050.0	7.273818468909055e+17
19051.0	7.27112024798003e+17
19052.0	7.270835658861225e+17
19053.0	7.269714746496339e+17
19054.0	7.268360454668288e+17
19055.0	7.266872646959104e+17
19056.0	7.265611661617833e+17
19057.0	7.264247022441811e+17
19058.0	7.262865573893459e+17
19059.0	7.261510584412841e+17
19060.0	7.26013033263923e+17
19061.0	7.258770995063466e+17
19062.0	7.257398259482624e+17
19063.0	7.256028455720275e+17
19064.0	7.254604995624957e+17
19065.0	7.253204927163049e+17
19066.0	7.251888841250131e+17
19067.0	7.250545261674496e+17
19068.0	7.249175262177961e+17
19069.0	7.247804763559251e+17
19070.0	7.246429066799786e+17
19071.0	7.245062610092032e+17
19072.0	7.243691409626451e+17
19073.0	7.242317633858216e+17
19074.0	7.240948761231356e+17
19075.0	7.239577384605012e+17
19076.0	7.238196454752255e+17
19077.0	7.236828281176063e+17
19078.0	7.235450242596863e+17
19079.0	7.2340912223901e+17
19080.0	7.232715549398355e+17
19081.0	7.231329554224467e+17
19082.0	7.229955600897364e+17
19083.0	7.22855696409122e+17
19084.0	7.227118347179348e+17
19085.0	7.225859214322345e+17
19086.0	7.224306417270784e+17
19087.0	7.222848369546582e+17
19088.0	7.221686379566419e+17
19089.0	7.220149803286527e+17
19090.0	7.218983063956138e+17
19091.0	7.217611318231039e+17
19092.0	7.216170046324736e+17
19093.0	7.214882411773951e+17
19094.0	7.213501720996522e+17
19095.0	7.212127639044096e+17
19096.0	7.210758703502675e+17
19097.0	7.209393739967145e+17
19098.0	7.208023499997183e+17
19099.0	7.206650907022676e+17
19100.0	7.205265236208297e+17
19101.0	7.203905125482496e+17
19102.0	7.202493022164308e+17
19103.0	7.20116202410257e+17
19104.0	7.199789393379327e+17
19105.0	7.198415806354772e+17
19106.0	7.19699507675136e+17
19107.0	7.195663023123114e+17
19108.0	7.19429554020898e+17
19109.0	7.19211099009843e+17
19110.0	7.19151800638942e+17
19111.0	7.190180797961556e+17
19112.0	7.188809257757356e+17
19113.0	7.187436966772735e+17
19114.0	7.186064398964051e+17
19115.0	7.184663118348287e+17
19116.0	7.18330785763601e+17
19117.0	7.181934016157011e+17
19118.0	7.180491716646228e+17
19119.0	7.177762071991633e+17
19120.0	7.177752911631699e+17
19121.0	7.176398572268202e+17
19122.0	7.175082401071104e+17
19123.0	7.173708587554131e+17
19124.0	7.172289039346345e+17
19125.0	7.170955101077504e+17
19126.0	7.16958504985122e+17
19127.0	7.167435025853097e+17
19128.0	7.166472105929385e+17
19129.0	7.165432459602602e+17
19130.0	7.1640927975069e+17
19131.0	7.1627165415069e+17
19132.0	7.161349127099732e+17
19133.0	7.159829827158016e+17
19134.0	7.1584427568442e+17
19135.0	7.157228768679251e+17
19136.0	7.155858063141544e+17
19137.0	7.15441090662673e+17
19138.0	7.153089331767977e+17
19139.0	7.151735825672874e+17
19140.0	7.150363970895871e+17
19141.0	7.148990266430803e+17
19142.0	7.147605145070249e+17
19143.0	7.146219674184361e+17
19144.0	7.144863513094826e+17
19145.0	7.143491528294399e+17
19146.0	7.141845644257961e+17
19147.0	7.140701256373587e+17
19148.0	7.139366914053459e+17
19149.0	7.137993682146644e+17
19150.0	7.13661834469922e+17
19151.0	7.13524792717039e+17
19152.0	7.133861216168617e+17
19153.0	7.132489583689727e+17
19154.0	7.131065070824105e+17
19155.0	7.129747867828223e+17
19156.0	7.128369549628756e+17
19157.0	7.126971783839744e+17
19158.0	7.125071450953044e+17
19159.0	7.124227965233833e+17
19160.0	7.122855642092884e+17
19161.0	7.121455060527786e+17
19162.0	7.11885708066816e+17
19163.0	7.118690678647465e+17
19164.0	7.117364766878377e+17
19165.0	7.115966620805802e+17
19166.0	7.11453652811776e+17
19167.0	7.113117140691625e+17
19168.0	7.111836244989267e+17
19169.0	7.110450267990697e+17
19170.0	7.109104294865578e+17
19171.0	7.107658165955242e+17
19172.0	7.106347511666004e+17
19173.0	7.104972000854015e+17
19174.0	7.103572079192744e+17
19175.0	7.102219881720489e+17
19176.0	7.10084139155456e+17
19177.0	7.099392411915603e+17
19178.0	7.098047677508266e+17
19179.0	7.09660626858803e+17
19180.0	7.095294740485459e+17
19181.0	7.093897904433833e+17
19182.0	7.092551957872637e+17
19183.0	7.09118333690402e+17
19184.0	7.089788056939177e+17
19185.0	7.088422345419434e+17
19186.0	7.087044004850345e+17
19187.0	7.085633505154387e+17
19188.0	7.084280471617535e+17
19189.0	7.082885864139434e+17
19190.0	7.081495354496339e+17
19191.0	7.080120973350228e+17
19192.0	7.07874990989858e+17
19193.0	7.077351422689279e+17
19194.0	7.075976736757076e+17
19195.0	7.074597718108841e+17
19196.0	7.073204083709268e+17
19197.0	7.071808535308969e+17
19198.0	7.070375431110655e+17
19199.0	7.061567739439784e+17
19200.0	7.062354322434732e+17
19201.0	7.066227523103402e+17
19202.0	7.064886829208916e+17
19203.0	7.063493194809343e+17
19204.0	7.062116773833386e+17
19205.0	7.060742128446122e+17
19206.0	7.05934894703138e+17
19207.0	7.057926594232319e+17
19208.0	7.056491092290217e+17
19209.0	7.05518969762611e+17
19210.0	7.053799480186195e+17
19211.0	7.052408229549395e+17
19212.0	7.051016692301824e+17
19213.0	7.049534734248617e+17
19214.0	7.048097325296298e+17
19215.0	7.04680780051251e+17
19216.0	7.045443206075731e+17
19217.0	7.044051695392084e+17
19218.0	7.042283828412415e+17
19219.0	7.041187045878441e+17
19220.0	7.039854086280531e+17
19221.0	7.038323727357267e+17
19222.0	7.037066312766804e+17
19223.0	7.035671308926973e+17
19224.0	7.034256450650111e+17
19225.0	7.032807574470655e+17
19226.0	7.031473572588202e+17
19227.0	7.030062162029225e+17
19228.0	7.028670586333865e+17
19229.0	7.027267413387945e+17
19230.0	7.025848016874153e+17
19231.0	7.024449675766442e+17
19232.0	7.023045947774292e+17
19233.0	7.02161331613423e+17
19234.0	7.020228627486036e+17
19235.0	7.018820512950953e+17
19236.0	7.01742143644194e+17
19237.0	7.016003726737408e+17
19238.0	7.014547606994943e+17
19239.0	7.013187606719145e+17
19240.0	7.011736692806998e+17
19241.0	7.010336146194431e+17
19242.0	7.008934794275498e+17
19243.0	7.007447379432788e+17
19244.0	7.006109670484648e+17
19245.0	7.004690274669908e+17
19246.0	7.003262525898751e+17
19247.0	7.001847239802879e+17
19248.0	7.000424986968061e+17
19249.0	6.998999871520768e+17
19250.0	6.997571723591679e+17
19251.0	6.996085476862633e+17
19252.0	6.994589035877716e+17
19253.0	6.993283942536531e+17
19254.0	6.991851240991402e+17
19255.0	6.990340076601343e+17
19256.0	6.988958892993193e+17
19257.0	6.987551893443923e+17
19258.0	6.986114898329599e+17
19259.0	6.984642624924329e+17
19260.0	6.983084843641513e+17
19261.0	6.981790816971433e+17
19262.0	6.980323441115133e+17
19263.0	6.978870620192767e+17
19264.0	6.977214918688767e+17
19265.0	6.975914654389587e+17
19266.0	6.974476127655252e+17
19267.0	6.973105494119764e+17
19268.0	6.971710518241961e+17
19269.0	6.970251301705044e+17
19270.0	6.968789092532223e+17
19271.0	6.967179446583295e+17
19272.0	6.965844612830548e+17
19273.0	6.963292409604776e+17
19274.0	6.962246746548905e+17
19275.0	6.961450774604457e+17
19276.0	6.959967345748649e+17
19277.0	6.958499367310676e+17
19278.0	6.957019250556927e+17
19279.0	6.955524537625257e+17
19280.0	6.954015725540692e+17
19281.0	6.952559767977983e+17
19282.0	6.951066904734376e+17
19283.0	6.949463837551274e+17
19284.0	6.947938069293738e+17
19285.0	6.946491810359977e+17
19286.0	6.945058213330943e+17
19287.0	6.943565021533524e+17
19288.0	6.939490252401318e+17
19289.0	6.934958874558455e+17
19290.0	6.939024161068372e+17
19291.0	6.937383375907498e+17
19292.0	6.935980943256234e+17
19293.0	6.934449319750313e+17
19294.0	6.932920978287273e+17
19295.0	6.931384898333353e+17
19296.0	6.929844686290943e+17
19297.0	6.928299069887827e+17
19298.0	6.926743183032319e+17
19299.0	6.925198399198548e+17
19300.0	6.923639732218537e+17
19301.0	6.922074982798675e+17
19302.0	6.920502533335722e+17
19303.0	6.918903305338877e+17
19304.0	6.917341642926762e+17
19305.0	6.915769964516692e+17
19306.0	6.914189857652735e+17
19307.0	6.912567198176598e+17
19308.0	6.910978790085972e+17
19309.0	6.908754978493779e+17
19310.0	6.906745442009087e+17
19311.0	6.905435783867049e+17
19312.0	6.903866689148244e+17
19313.0	6.902230766583807e+17
19314.0	6.895289194861912e+17
19315.0	6.893910669044399e+17
19316.0	6.897293585634644e+17
19317.0	6.895667634328916e+17
19318.0	6.893999588988244e+17
19319.0	6.892340378249898e+17
19320.0	6.89066343539234e+17
19321.0	6.888982021406719e+17
19322.0	6.88723050242594e+17
19323.0	6.885477600023892e+17
19324.0	6.883876210562387e+17
19325.0	6.881938756687187e+17
19326.0	6.880435693595305e+17
19327.0	6.878703392915455e+17
19328.0	6.876968263876607e+17
19329.0	6.875216946921472e+17
19330.0	6.8734377525248e+17
19331.0	6.871662746140672e+17
19332.0	6.869898450610858e+17
19333.0	6.868107665954132e+17
19334.0	6.866301361673556e+17
19335.0	6.864489009206612e+17
19336.0	6.862661571925331e+17
19337.0	6.86082440246067e+17
19338.0	6.858884697642323e+17
19339.0	6.857122250402473e+17
19340.0	6.855224977260543e+17
19341.0	6.853354285520212e+17
19342.0	6.851277443738281e+17
19343.0	6.848507962982399e+17
19344.0	6.846578267171497e+17
19345.0	6.843813145695571e+17
19346.0	6.842281030757033e+17
19347.0	6.840667349887658e+17
19348.0	6.838708278569642e+17
19349.0	6.836687385307817e+17
19350.0	6.834626800648191e+17
19351.0	6.832519451596116e+17
19352.0	6.830435468312575e+17
19353.0	6.828388520034303e+17
19354.0	6.826288874520573e+17
19355.0	6.824130508051796e+17
19356.0	6.822025943318527e+17
19357.0	6.819863453149865e+17
19358.0	6.816789115699197e+17
19359.0	6.813930366173183e+17
19360.0	6.811727765176319e+17
19361.0	6.80945944432913e+17
19362.0	6.807181851273898e+17
19363.0	6.804861342100138e+17
19364.0	6.802514951973545e+17
19365.0	6.800142796237481e+17
19366.0	6.797742899374761e+17
19367.0	6.794850374516733e+17
19368.0	6.790873579432617e+17
19369.0	6.788340319081811e+17
19370.0	6.78572255678737e+17
19371.0	6.783253356041555e+17
19372.0	6.780676516872191e+17
19373.0	6.778031692229289e+17
19374.0	6.773518324028755e+17
19375.0	6.770084276076543e+17
19376.0	6.767308810747903e+17
19377.0	6.764487009544873e+17
19378.0	6.761620065047892e+17
19379.0	6.755938587377663e+17
19380.0	6.752496349347839e+17
19381.0	6.749426917834751e+17
19382.0	6.746168998494209e+17
19383.0	6.739182443560959e+17
19384.0	6.735937524465661e+17
19385.0	6.732578485349033e+17
19386.0	6.724970633756676e+17
19387.0	6.720977525626195e+17
19388.0	6.715911685100888e+17
19389.0	6.708178028156243e+17
19390.0	6.704201712620888e+17
19391.0	6.687002458761888e+17
19392.0	6.68937964207035e+17
19393.0	6.682031387836415e+17
19394.0	6.677591877834068e+17
19395.0	6.673032212905983e+17
19396.0	6.66835459576081e+17
19397.0	6.663227853941417e+17
19398.0	6.658295674699773e+17
19399.0	6.652996760196436e+17
19400.0	6.648080053742249e+17
19401.0	6.642806778320212e+17
19402.0	6.637353764388863e+17
19403.0	6.631741883503956e+17
19404.0	6.625976991612927e+17
19405.0	6.620045759916713e+17
19406.0	6.613679994131798e+17
19407.0	6.606911178102099e+17
19408.0	6.600132002141524e+17
19409.0	6.593713740447743e+17
19410.0	6.586773838058836e+17
19411.0	6.57910785970449e+17
19412.0	6.571075430602068e+17
19413.0	6.563513403878057e+17
19414.0	6.555296629522428e+17
19415.0	6.545992439212714e+17
19416.0	6.537660053760682e+17
19417.0	6.526928343968426e+17
19418.0	6.517491300477608e+17
19419.0	6.505448860898644e+17
19420.0	6.492791590879228e+17
19421.0	6.478911895153322e+17
19422.0	6.463120040700581e+17
19423.0	6.444910843177646e+17
19424.0	6.423420410877279e+17
19425.0	6.396549166792704e+17
19426.0	6.37204673138961e+17
19427.0	6.354559191132842e+17
19428.0	6.336579438815913e+17
19429.0	6.318217019173544e+17
19430.0	6.299093662608044e+17
19431.0	6.278383363861164e+17
19432.0	6.258337082157737e+17
19433.0	6.23612008665361e+17
19434.0	6.211933009084415e+17
19435.0	6.185806061720913e+17
19436.0	6.156572349344425e+17
19437.0	6.123632199030099e+17
19438.0	6.075076210327555e+17
19439.0	6.031227007358296e+17
19440.0	5.972819815606963e+17
19441.0	5.924468293631996e+17
19442.0	5.87297603837406e+17
19443.0	5.814425415406931e+17
19444.0	5.745785708740603e+17
19445.0	5.6591982704721946e+17
19446.0	5.5529433478813005e+17
19447.0	5.437148497619619e+17
19448.0	5.2907317503808934e+17
19449.0	5.095311764619264e+17
19450.0	4.817709276244607e+17
19451.0	4.733101381692086e+17
19452.0	4.959663234394804e+17
19453.0	5.200838834956978e+17
19454.0	5.365582621485731e+17
19455.0	5.4913137702338554e+17
19456.0	5.599283962533213e+17
19457.0	5.694605276916393e+17
19458.0	5.762094908921182e+17
19459.0	5.828941700923395e+17
19460.0	5.88162893576055e+17
19461.0	5.927904912692563e+17
19462.0	5.979291409973254e+17
19463.0	6.034021879032485e+17
19464.0	6.076812188013905e+17
19465.0	6.111446846930944e+17
19466.0	6.139470218788859e+17
19467.0	6.164536302239743e+17
19468.0	6.186940684566528e+17
19469.0	6.207736784792233e+17
19470.0	6.227065223249919e+17
19471.0	6.245087070999892e+17
19472.0	6.262000562034003e+17
19473.0	6.27814481142306e+17
19474.0	6.293921075647828e+17
19475.0	6.308650545053695e+17
19476.0	6.326588999554404e+17
19477.0	6.351983951391404e+17
19478.0	6.372210275691169e+17
19479.0	6.389988858702509e+17
19480.0	6.404124642552488e+17
19481.0	6.416774173381972e+17
19482.0	6.427471440947884e+17
19483.0	6.436460664193023e+17
19484.0	6.445023705606825e+17
19485.0	6.452570836260183e+17
19486.0	6.459378590810111e+17
19487.0	6.465494491419987e+17
19488.0	6.472113014352554e+17
19489.0	6.477217691336704e+17
19490.0	6.481769642939731e+17
19491.0	6.488086255676074e+17
19492.0	6.492634356908031e+17
19493.0	6.496930139297108e+17
19494.0	6.50099170406127e+17
19495.0	6.504907428681044e+17
19496.0	6.509086001943891e+17
19497.0	6.512697217297066e+17
19498.0	6.515004350136319e+17
19499.0	6.50815591642999e+17
19500.0	6.522158464019114e+17
19501.0	6.524997865220778e+17
19502.0	6.527679940875604e+17
19503.0	6.53023360721442e+17
19504.0	6.532670940337492e+17
19505.0	6.535062280820052e+17
19506.0	6.537502733107199e+17
19507.0	6.539558160870058e+17
19508.0	6.54150448849442e+17
19509.0	6.54467966889711e+17
19510.0	6.548346245567827e+17
19511.0	6.541995893151062e+17
19512.0	6.55544192161109e+17
19513.0	6.556407666398542e+17
19514.0	6.562525975237969e+17
19515.0	6.565692114119338e+17
19516.0	6.568973007060991e+17
19517.0	6.572153112974676e+17
19518.0	6.572952315931306e+17
19519.0	6.574705169399807e+17
19520.0	6.577935836250111e+17
19521.0	6.578489917789523e+17
19522.0	6.578970479471273e+17
19523.0	6.580478501628584e+17
19524.0	6.582766679709012e+17
19525.0	6.58304860894003e+17
19526.0	6.58330241606178e+17
19527.0	6.583506763950761e+17
19528.0	6.584494402306049e+17
19529.0	6.586169468212564e+17
19530.0	6.586234713407487e+17
19531.0	6.586264147634857e+17
19532.0	6.586259073925119e+17
19533.0	6.586221042772649e+17
19534.0	6.586151583700308e+17
19535.0	6.587038864943785e+17
19536.0	6.587739708675412e+17
19537.0	6.587589131763711e+17
19538.0	6.587342528359082e+17
19539.0	6.58694595551778e+17
19540.0	6.586909495132159e+17
19541.0	6.586651090354175e+17
19542.0	6.586352955031551e+17
19543.0	6.586025029664767e+17
19544.0	6.585673135947775e+17
19545.0	6.585869804765183e+17
19546.0	6.58588364387123e+17
19547.0	6.585832666999465e+17
19548.0	6.585386756560212e+17
19549.0	6.584879745597439e+17
19550.0	6.584440606162941e+17
19551.0	6.583939545519444e+17
19552.0	6.583418983459497e+17
19553.0	6.582870755071316e+17
19554.0	6.582311591433555e+17
19555.0	6.581756525630804e+17
19556.0	6.581169346139475e+17
19557.0	6.580565511766015e+17
19558.0	6.579949409053353e+17
19559.0	6.579357984926378e+17
19560.0	6.578748892992852e+17
19561.0	6.578095360311295e+17
19562.0	6.577795150206294e+17
19563.0	6.577689959159123e+17
19564.0	6.57698929648162e+17
19565.0	6.576276309540864e+17
19566.0	6.575544741134335e+17
19567.0	6.574819741007871e+17
19568.0	6.574063291290964e+17
19569.0	6.573317754454015e+17
19570.0	6.572555891288746e+17
19571.0	6.571777523537235e+17
19572.0	6.570980498822484e+17
19573.0	6.570187647440211e+17
19574.0	6.569351703778644e+17
19575.0	6.568579018610003e+17
19576.0	6.567756507206995e+17
19577.0	6.566917457663315e+17
19578.0	6.566065660930729e+17
19579.0	6.565224331083773e+17
19580.0	6.564368133128191e+17
19581.0	6.563507934505642e+17
19582.0	6.562643115857236e+17
19583.0	6.561763694739455e+17
19584.0	6.560873464201215e+17
19585.0	6.559934053351421e+17
19586.0	6.559013962863956e+17
19587.0	6.558130102774442e+17
19588.0	6.557054867079168e+17
19589.0	6.556329690791935e+17
19590.0	6.555381438349311e+17
19591.0	6.554485033795583e+17
19592.0	6.55354676519458e+17
19593.0	6.552594242251434e+17
19594.0	6.551545105612799e+17
19595.0	6.550679865436841e+17
19596.0	6.548902842990592e+17
19597.0	6.548741875389779e+17
19598.0	6.547683469339306e+17
19599.0	6.546838923160233e+17
19600.0	6.545861172177578e+17
19601.0	6.544847357870077e+17
19602.0	6.543866525472084e+17
19603.0	6.542612916513449e+17
19604.0	6.541862709318996e+17
19605.0	6.540770052582057e+17
19606.0	6.540160011337727e+17
19607.0	6.539493223257427e+17
19608.0	6.53847824572962e+17
19609.0	6.53744374161954e+17
19610.0	6.53644418654754e+17
19611.0	6.535418224137556e+17
19612.0	6.534393956226388e+17
19613.0	6.533363535271252e+17
19614.0	6.532310260951722e+17
19615.0	6.531290002096127e+17
19616.0	6.530187122442239e+17
19617.0	6.52920929456401e+17
19618.0	6.527914142422356e+17
19619.0	6.526811852068179e+17
19620.0	6.525770785270441e+17
19621.0	6.525007496740863e+17
19622.0	6.523950347583487e+17
19623.0	6.522890395931988e+17
19624.0	6.52182769701137e+17
19625.0	6.520761862149459e+17
19626.0	6.519694221639679e+17
19627.0	6.518621787040425e+17
19628.0	6.517372106746538e+17
19629.0	6.516428387647487e+17
19630.0	6.514807814837588e+17
19631.0	6.506348222436694e+17
19632.0	6.513221492015101e+17
19633.0	6.512138385009321e+17
19634.0	6.511072478145193e+17
19635.0	6.509968128387753e+17
19636.0	6.508899361008297e+17
19637.0	6.507628096826025e+17
19638.0	6.506713449846099e+17
19639.0	6.505614779875327e+17
19640.0	6.504479266439167e+17
19641.0	6.503140266344447e+17
19642.0	6.502331579367423e+17
19643.0	6.501228534737578e+17
19644.0	6.500099198812159e+17
19645.0	6.498903985050963e+17
19646.0	6.497919737091412e+17
19647.0	6.496813139886079e+17
19648.0	6.495705020148393e+17
19649.0	6.494594253804884e+17
19650.0	6.493484603146239e+17
19651.0	6.492372404447914e+17
19652.0	6.491258909709652e+17
19653.0	6.490143250011476e+17
19654.0	6.489028133475668e+17
19655.0	6.487908770906111e+17
19656.0	6.486789433502378e+17
19657.0	6.4856730384029e+17
19658.0	6.484552428027904e+17
19659.0	6.48342998683921e+17
19660.0	6.482307952498003e+17
19661.0	6.481184140470953e+17
19662.0	6.48005925610018e+17
19663.0	6.478910044766207e+17
19664.0	6.477777161857706e+17
19665.0	6.476679016174931e+17
