# Flux units: erg / (cm m2 s)
# Wavelength units: Angstrom
wave	flux
19000.0	6.437812204557652e+17
19001.0	6.435800187142141e+17
19002.0	6.43547617296384e+17
19003.0	6.434251845140477e+17
19004.0	6.433085950263295e+17
19005.0	6.431839157747711e+17
19006.0	6.430665648111615e+17
19007.0	6.429454944785748e+17
19008.0	6.427930418042195e+17
19009.0	6.425657052845395e+17
19010.0	6.42358005936947e+17
19011.0	6.424282129935017e+17
19012.0	6.422387607557459e+17
19013.0	6.422360692009642e+17
19014.0	6.420790535432874e+17
19015.0	6.41973287247326e+17
19016.0	6.418737871017299e+17
19017.0	6.417632706166783e+17
19018.0	6.416454377974441e+17
19019.0	6.415314877153279e+17
19020.0	6.414081965686784e+17
19021.0	6.413052356329471e+17
19022.0	6.411838542228138e+17
19023.0	6.410343850967037e+17
19024.0	6.40926433288738e+17
19025.0	6.408133696028671e+17
19026.0	6.406809810108415e+17
19027.0	6.40542846432051e+17
19028.0	6.404625323611476e+17
19029.0	6.403388236715348e+17
19030.0	6.402425056744788e+17
19031.0	6.401242862802259e+17
19032.0	6.399936256715433e+17
19033.0	6.39778818516582e+17
19034.0	6.396623629669716e+17
19035.0	6.390765875888125e+17
19036.0	6.352816550095529e+17
19037.0	6.389700452068009e+17
19038.0	6.391965769094483e+17
19039.0	6.391515060371455e+17
19040.0	6.390571293037908e+17
19041.0	6.389440658276351e+17
19042.0	6.386557274204838e+17
19043.0	6.387201847154004e+17
19044.0	6.385966615538345e+17
19045.0	6.384786016829439e+17
19046.0	6.383263152428372e+17
19047.0	6.381988902600701e+17
19048.0	6.380089948940969e+17
19049.0	6.377061662152017e+17
19050.0	6.377687038470826e+17
19051.0	6.371499634065405e+17
19052.0	6.372986995081215e+17
19053.0	6.374898083561471e+17
19054.0	6.374106903609344e+17
19055.0	6.370706844199603e+17
19056.0	6.371672754662057e+17
19057.0	6.370812656003753e+17
19058.0	6.368478792865105e+17
19059.0	6.36807086744098e+17
19060.0	6.367293497234772e+17
19061.0	6.366208388147881e+17
19062.0	6.364982881725097e+17
19063.0	6.363792460655274e+17
19064.0	6.362002280677376e+17
19065.0	6.360170121308842e+17
19066.0	6.359434145387859e+17
19067.0	6.359101034463231e+17
19068.0	6.358043084892841e+17
19069.0	6.3568792794781e+17
19070.0	6.355531239959209e+17
19071.0	6.354476824089939e+17
19072.0	6.352983260397565e+17
19073.0	6.352195261125972e+17
19074.0	6.351071066718208e+17
19075.0	6.349897736039082e+17
19076.0	6.34865812836625e+17
19077.0	6.347399709939027e+17
19078.0	6.346103878320127e+17
19079.0	6.345199008961876e+17
19080.0	6.343933513345706e+17
19081.0	6.342443184160767e+17
19082.0	6.341541646477994e+17
19083.0	6.339654045401087e+17
19084.0	6.337427863328084e+17
19085.0	6.337963906564095e+17
19086.0	6.333089169014781e+17
19087.0	6.334363964801023e+17
19088.0	6.333097359092392e+17
19089.0	6.33164516801468e+17
19090.0	6.331862473506816e+17
19091.0	6.330808328869204e+17
19092.0	6.328525175564972e+17
19093.0	6.328778319986687e+17
19094.0	6.327669782216703e+17
19095.0	6.326554742576467e+17
19096.0	6.325355368065706e+17
19097.0	6.324220652945407e+17
19098.0	6.322584433983487e+17
19099.0	6.321322198040576e+17
19100.0	6.320583420324521e+17
19101.0	6.319399928244906e+17
19102.0	6.31782041207876e+17
19103.0	6.317176716438185e+17
19104.0	6.316080019887444e+17
19105.0	6.313793221033987e+17
19106.0	6.313580087476224e+17
19107.0	6.312028186607615e+17
19108.0	6.310510158938111e+17
19109.0	6.308716643090431e+17
19110.0	6.308227355858259e+17
19111.0	6.307345106381481e+17
19112.0	6.306322633632424e+17
19113.0	6.305547602449747e+17
19114.0	6.304135720730623e+17
19115.0	6.302804117291007e+17
19116.0	6.30179168920098e+17
19117.0	6.300453441284777e+17
19118.0	6.297108635538772e+17
19119.0	6.260737326448602e+17
19120.0	6.295777616505514e+17
19121.0	6.295718463537151e+17
19122.0	6.29502649704994e+17
19123.0	6.293903819582121e+17
19124.0	6.292314362915497e+17
19125.0	6.291292423542099e+17
19126.0	6.288902434324479e+17
19127.0	6.280560888512511e+17
19128.0	6.286114342043645e+17
19129.0	6.285996972834815e+17
19130.0	6.285681579349332e+17
19131.0	6.284726362264916e+17
19132.0	6.283590708319572e+17
19133.0	6.282104723035476e+17
19134.0	6.281176963263146e+17
19135.0	6.280125385539583e+17
19136.0	6.278903761644201e+17
19137.0	6.277199434874879e+17
19138.0	6.276471988770131e+17
19139.0	6.27554424787217e+17
19140.0	6.274434439228074e+17
19141.0	6.273285998946985e+17
19142.0	6.271883276189695e+17
19143.0	6.270692390950228e+17
19144.0	6.269421813934761e+17
19145.0	6.268607459054932e+17
19146.0	6.262367066608988e+17
19147.0	6.265951678190931e+17
19148.0	6.264771676471296e+17
19149.0	6.263554748099242e+17
19150.0	6.26284852027938e+17
19151.0	6.261662146712916e+17
19152.0	6.260448872278698e+17
19153.0	6.258334080434173e+17
19154.0	6.257607928272211e+17
19155.0	6.256815033548799e+17
19156.0	6.255675429268138e+17
19157.0	6.254021510343338e+17
19158.0	6.252198775575894e+17
19159.0	6.251882550919165e+17
19160.0	6.250732454587049e+17
19161.0	6.249194163535871e+17
19162.0	6.246432492574038e+17
19163.0	6.246394655757652e+17
19164.0	6.246188005894825e+17
19165.0	6.24433924617011e+17
19166.0	6.243499061368148e+17
19167.0	6.242814828478463e+17
19168.0	6.241876578052778e+17
19169.0	6.240803528987988e+17
19170.0	6.239728051421183e+17
19171.0	6.238522196011689e+17
19172.0	6.237372471574527e+17
19173.0	6.236300319391743e+17
19174.0	6.234916538810367e+17
19175.0	6.233966407319551e+17
19176.0	6.232854841262079e+17
19177.0	6.230474741514237e+17
19178.0	6.230475107117738e+17
19179.0	6.229300232934739e+17
19180.0	6.228136138113023e+17
19181.0	6.226409517219839e+17
19182.0	6.225681499990698e+17
19183.0	6.224838202316116e+17
19184.0	6.22368377606417e+17
19185.0	6.2224546150045e+17
19186.0	6.221372883730431e+17
19187.0	6.219613935239168e+17
19188.0	6.218997169127423e+17
19189.0	6.217812605403135e+17
19190.0	6.21660221665007e+17
19191.0	6.215118513766399e+17
19192.0	6.214119240411818e+17
19193.0	6.21263299088657e+17
19194.0	6.211018794816854e+17
19195.0	6.209689610092541e+17
19196.0	6.207581773103101e+17
19197.0	6.204678435329366e+17
19198.0	6.198912506047145e+17
19199.0	6.184721551720447e+17
19200.0	6.185219328223914e+17
19201.0	6.196021695960404e+17
19202.0	6.199172582954324e+17
19203.0	6.199632683423059e+17
19204.0	6.199319597503827e+17
19205.0	6.198615775117312e+17
19206.0	6.197746207118675e+17
19207.0	6.195669398891177e+17
19208.0	6.194747207057407e+17
19209.0	6.194620028070569e+17
19210.0	6.193634591724883e+17
19211.0	6.192647595797161e+17
19212.0	6.191440905721172e+17
19213.0	6.189449710927868e+17
19214.0	6.188532980077908e+17
19215.0	6.187920629869225e+17
19216.0	6.186784218152959e+17
19217.0	6.185013197056682e+17
19218.0	6.181227619592872e+17
19219.0	6.181340081466024e+17
19220.0	6.181844824708436e+17
19221.0	6.179986246817108e+17
19222.0	6.179589144794452e+17
19223.0	6.178771433772372e+17
19224.0	6.177397034450943e+17
19225.0	6.176232128031401e+17
19226.0	6.175408154913448e+17
19227.0	6.174379232722944e+17
19228.0	6.173450168522067e+17
19229.0	6.172312214700031e+17
19230.0	6.171150941246803e+17
19231.0	6.169940697197225e+17
19232.0	6.168854353586857e+17
19233.0	6.167236310641321e+17
19234.0	6.166529733995178e+17
19235.0	6.165180433388884e+17
19236.0	6.164340255577428e+17
19237.0	6.163105536365908e+17
19238.0	6.161411604479999e+17
19239.0	6.160940625384788e+17
19240.0	6.159796575840938e+17
19241.0	6.158508001067008e+17
19242.0	6.157412330722644e+17
19243.0	6.155025624246952e+17
19244.0	6.155271096587604e+17
19245.0	6.154065117446144e+17
19246.0	6.152921039940265e+17
19247.0	6.151726404993023e+17
19248.0	6.15068668666402e+17
19249.0	6.149497151990441e+17
19250.0	6.148085647059626e+17
19251.0	6.146352725622779e+17
19252.0	6.143586520618324e+17
19253.0	6.144811359447721e+17
19254.0	6.143838654911828e+17
19255.0	6.141039662333948e+17
19256.0	6.141430663741439e+17
19257.0	6.140397033444692e+17
19258.0	6.139259715758761e+17
19259.0	6.13735357096482e+17
19260.0	6.135729751763625e+17
19261.0	6.135584680574975e+17
19262.0	6.133993581838335e+17
19263.0	6.132357500589395e+17
19264.0	6.129258148309673e+17
19265.0	6.129553485332479e+17
19266.0	6.128438449886548e+17
19267.0	6.12885066748177e+17
19268.0	6.127701508576596e+17
19269.0	6.126519237738495e+17
19270.0	6.125007206525609e+17
19271.0	6.122599282464086e+17
19272.0	6.122746720638291e+17
19273.0	6.120082496640342e+17
19274.0	6.117469514454349e+17
19275.0	6.119726923819689e+17
19276.0	6.118466513797119e+17
19277.0	6.117353461557929e+17
19278.0	6.116185579978751e+17
19279.0	6.114786996999508e+17
19280.0	6.113465360624298e+17
19281.0	6.1125777962653e+17
19282.0	6.111528480669695e+17
19283.0	6.110264643900756e+17
19284.0	6.108742610670932e+17
19285.0	6.107319405729108e+17
19286.0	6.106057267653289e+17
19287.0	6.10421455331874e+17
19288.0	6.085987581034488e+17
19289.0	6.075848466978117e+17
19290.0	6.100479054446591e+17
19291.0	6.098643726281394e+17
19292.0	6.099929087519401e+17
19293.0	6.098919947064659e+17
19294.0	6.097730457829375e+17
19295.0	6.096725808076116e+17
19296.0	6.095019035328513e+17
19297.0	6.094107766860457e+17
19298.0	6.093033662229161e+17
19299.0	6.091528548122623e+17
19300.0	6.0909275854493e+17
19301.0	6.089791638601727e+17
19302.0	6.088482004926463e+17
19303.0	6.086895635267583e+17
19304.0	6.086147619596969e+17
19305.0	6.084915951042559e+17
19306.0	6.083755596141907e+17
19307.0	6.082224113145171e+17
19308.0	6.080991004546387e+17
19309.0	6.079399857575252e+17
19310.0	6.077824402893482e+17
19311.0	6.077034072986963e+17
19312.0	6.076029615472639e+17
19313.0	6.073851066712064e+17
19314.0	6.003171429537115e+17
19315.0	6.00675427881239e+17
19316.0	6.06962085387742e+17
19317.0	6.070270954919252e+17
19318.0	6.069431883005951e+17
19319.0	6.068511679971327e+17
19320.0	6.067165298600618e+17
19321.0	6.065664365516116e+17
19322.0	6.064700819942057e+17
19323.0	6.063487694405632e+17
19324.0	6.062372413592916e+17
19325.0	6.061151893498538e+17
19326.0	6.060115845884586e+17
19327.0	6.058992659507881e+17
19328.0	6.056999285074604e+17
19329.0	6.056755914779305e+17
19330.0	6.055435721943722e+17
19331.0	6.053987829328553e+17
19332.0	6.053171144512852e+17
19333.0	6.051855536750591e+17
19334.0	6.050753720352768e+17
19335.0	6.047687509366103e+17
19336.0	6.04825363484945e+17
19337.0	6.04703505322257e+17
19338.0	6.044143339962364e+17
19339.0	6.044475588957524e+17
19340.0	6.042363417154899e+17
19341.0	6.040473132422486e+17
19342.0	6.038780156138835e+17
19343.0	6.038941142614015e+17
19344.0	6.036232712749057e+17
19345.0	6.02623894041395e+17
19346.0	6.027607893431634e+17
19347.0	6.032430799869267e+17
19348.0	6.032974234867028e+17
19349.0	6.031655507241641e+17
19350.0	6.030192982796969e+17
19351.0	6.029183573207721e+17
19352.0	6.026826370165416e+17
19353.0	6.027018530106025e+17
19354.0	6.025769611078314e+17
19355.0	6.02364384483738e+17
19356.0	6.02316874064418e+17
19357.0	6.021842807204521e+17
19358.0	6.020430900319574e+17
19359.0	6.018741354976595e+17
19360.0	6.0167972468381e+17
19361.0	6.016323890271572e+17
19362.0	6.015154888813225e+17
19363.0	6.013819539161087e+17
19364.0	6.01245932777199e+17
19365.0	6.011040840024064e+17
19366.0	6.009697900079786e+17
19367.0	6.008287592622762e+17
19368.0	6.006872117783209e+17
19369.0	6.005168114674345e+17
19370.0	6.003810461810687e+17
19371.0	6.002069760638975e+17
19372.0	6.001077849686015e+17
19373.0	5.999439521688233e+17
19374.0	5.998058647759529e+17
19375.0	5.996588854586025e+17
19376.0	5.995072665419775e+17
19377.0	5.993466963514708e+17
19378.0	5.991912935434921e+17
19379.0	5.990358861217791e+17
19380.0	5.988690744573952e+17
19381.0	5.986983331495936e+17
19382.0	5.984661127823359e+17
19383.0	5.983173489284435e+17
19384.0	5.981895937141418e+17
19385.0	5.980299487171924e+17
19386.0	5.978573790423721e+17
19387.0	5.976691012796415e+17
19388.0	5.974664559285588e+17
19389.0	5.97249598038562e+17
19390.0	5.968618316977491e+17
19391.0	5.933267030463807e+17
19392.0	5.958790224543741e+17
19393.0	5.964348867127978e+17
19394.0	5.962907226122921e+17
19395.0	5.960810935353344e+17
19396.0	5.959065506501972e+17
19397.0	5.957019859856042e+17
19398.0	5.95412739092207e+17
19399.0	5.948855715627008e+17
19400.0	5.948333011675817e+17
19401.0	5.947580179546111e+17
19402.0	5.945403483968852e+17
19403.0	5.942776462748329e+17
19404.0	5.940339042942976e+17
19405.0	5.937355241641299e+17
19406.0	5.934670875896489e+17
19407.0	5.931355182115497e+17
19408.0	5.925539513281196e+17
19409.0	5.92520703709457e+17
19410.0	5.922954629436756e+17
19411.0	5.919851788894208e+17
19412.0	5.916531914790228e+17
19413.0	5.912813818085376e+17
19414.0	5.909337080507049e+17
19415.0	5.90552365146658e+17
19416.0	5.900420231375528e+17
19417.0	5.897209555976191e+17
19418.0	5.893094514535082e+17
19419.0	5.888693004227924e+17
19420.0	5.884091975073791e+17
19421.0	5.879255704884564e+17
19422.0	5.873824955716947e+17
19423.0	5.868343770043731e+17
19424.0	5.862637048255827e+17
19425.0	5.856581477116586e+17
19426.0	5.850054057263103e+17
19427.0	5.843049485697023e+17
19428.0	5.835549610169684e+17
19429.0	5.827171386567337e+17
19430.0	5.815810137609556e+17
19431.0	5.803822916741805e+17
19432.0	5.799051773607935e+17
19433.0	5.789431657835178e+17
19434.0	5.778064324340393e+17
19435.0	5.763778388601513e+17
19436.0	5.748646829446485e+17
19437.0	5.732794275725311e+17
19438.0	5.6589856409299725e+17
19439.0	5.686324408003239e+17
19440.0	5.682038607358634e+17
19441.0	5.661409042672296e+17
19442.0	5.636610477522944e+17
19443.0	5.607931192016896e+17
19444.0	5.5749635808952294e+17
19445.0	5.5358135922414944e+17
19446.0	5.488670099723604e+17
19447.0	5.43042941834581e+17
19448.0	5.3546668257880774e+17
19449.0	5.248401342638762e+17
19450.0	5.06754741899536e+17
19451.0	4.928092396410206e+17
19452.0	5.1739863988305894e+17
19453.0	5.304706421926575e+17
19454.0	5.390514253725692e+17
19455.0	5.45402222874897e+17
19456.0	5.5031817624180077e+17
19457.0	5.541549977545385e+17
19458.0	5.405577104588996e+17
19459.0	5.58459691082278e+17
19460.0	5.6303878626344934e+17
19461.0	5.653334471999487e+17
19462.0	5.6721622853222394e+17
19463.0	5.688956597305342e+17
19464.0	5.704067027653972e+17
19465.0	5.7176534870043296e+17
19466.0	5.729244193751039e+17
19467.0	5.740201515854505e+17
19468.0	5.7497119834330445e+17
19469.0	5.75656580891716e+17
19470.0	5.76560497304098e+17
19471.0	5.773250493677568e+17
19472.0	5.779961654105428e+17
19473.0	5.78584087503394e+17
19474.0	5.790448211023188e+17
19475.0	5.791739835755178e+17
19476.0	5.79982841819955e+17
19477.0	5.804934567384404e+17
19478.0	5.808838215204863e+17
19479.0	5.811835656383145e+17
19480.0	5.815428808267092e+17
19481.0	5.818292958658559e+17
19482.0	5.82101545132578e+17
19483.0	5.823491409095337e+17
19484.0	5.825566597622442e+17
19485.0	5.827410052251647e+17
19486.0	5.828772304868695e+17
19487.0	5.831157648195583e+17
19488.0	5.8324278050816e+17
19489.0	5.831109021532159e+17
19490.0	5.828585135450793e+17
19491.0	5.835371949238954e+17
19492.0	5.837347376245418e+17
19493.0	5.838317337007444e+17
19494.0	5.838881493265066e+17
19495.0	5.839120844718079e+17
19496.0	5.837069356804776e+17
19497.0	5.837837779861504e+17
19498.0	5.821587682317649e+17
19499.0	5.785508869308413e+17
19500.0	5.837780694685012e+17
19501.0	5.841048352500394e+17
19502.0	5.841861084184573e+17
19503.0	5.842388526301183e+17
19504.0	5.842536474083327e+17
19505.0	5.842511967464105e+17
19506.0	5.842489288862378e+17
19507.0	5.84211367006481e+17
19508.0	5.841890817605631e+17
19509.0	5.840923626482345e+17
19510.0	5.836220969342291e+17
19511.0	5.7266017388898464e+17
19512.0	5.820360836513788e+17
19513.0	5.819092568462668e+17
19514.0	5.82276936874939e+17
19515.0	5.83659911380992e+17
19516.0	5.838885685471913e+17
19517.0	5.838932040919721e+17
19518.0	5.838817563683498e+17
19519.0	5.838363339434665e+17
19520.0	5.837312462858921e+17
19521.0	5.837701299306495e+17
19522.0	5.836789062653267e+17
19523.0	5.836513208172544e+17
19524.0	5.835573703649962e+17
19525.0	5.835449431315796e+17
19526.0	5.834923450215081e+17
19527.0	5.834163487069524e+17
19528.0	5.833465075335167e+17
19529.0	5.832718531865257e+17
19530.0	5.832198711498067e+17
19531.0	5.831535668232191e+17
19532.0	5.830828893055657e+17
19533.0	5.830124928062804e+17
19534.0	5.829370425901055e+17
19535.0	5.828404342773076e+17
19536.0	5.827463255599785e+17
19537.0	5.826770810961919e+17
19538.0	5.823952893684396e+17
19539.0	5.822786998807212e+17
19540.0	5.824077474998954e+17
19541.0	5.82350110003473e+17
19542.0	5.822742652431018e+17
19543.0	5.821182778190506e+17
19544.0	5.820665262593363e+17
19545.0	5.816431053286058e+17
19546.0	5.814805688483837e+17
19547.0	5.818199192196436e+17
19548.0	5.817769234792447e+17
19549.0	5.816166361246376e+17
19550.0	5.816203035541503e+17
19551.0	5.815352597763412e+17
19552.0	5.814443456506538e+17
19553.0	5.813426327300778e+17
19554.0	5.812476484517887e+17
19555.0	5.811583661200724e+17
19556.0	5.810830755670697e+17
19557.0	5.809991400641876e+17
19558.0	5.809074153193471e+17
19559.0	5.808173209004714e+17
19560.0	5.806794051245395e+17
19561.0	5.806117305188352e+17
19562.0	5.805100939345919e+17
19563.0	5.804497647435775e+17
19564.0	5.803548356902912e+17
19565.0	5.802603668220585e+17
19566.0	5.801505356862803e+17
19567.0	5.800710232866815e+17
19568.0	5.799567862442665e+17
19569.0	5.798717860872191e+17
19570.0	5.797913994548564e+17
19571.0	5.797033067675648e+17
19572.0	5.79578083934208e+17
19573.0	5.794982841548799e+17
19574.0	5.793331600687101e+17
19575.0	5.793184153425235e+17
19576.0	5.792161610771114e+17
19577.0	5.790939190657023e+17
19578.0	5.790103872645801e+17
19579.0	5.78907912938018e+17
19580.0	5.78813677412898e+17
19581.0	5.787351999578112e+17
19582.0	5.786470330313385e+17
19583.0	5.785486277388969e+17
19584.0	5.784466822441641e+17
19585.0	5.782506553649832e+17
19586.0	5.781281890981207e+17
19587.0	5.781062026963625e+17
19588.0	5.7782094004224e+17
19589.0	5.778899547280726e+17
19590.0	5.777722801040041e+17
19591.0	5.777481749495807e+17
19592.0	5.776590841577471e+17
19593.0	5.775384707246761e+17
19594.0	5.772480387306833e+17
19595.0	5.773425518488234e+17
19596.0	5.772145663672319e+17
19597.0	5.771422325888339e+17
19598.0	5.767792013170003e+17
19599.0	5.7693894620829e+17
19600.0	5.768581626549588e+17
19601.0	5.767104669504852e+17
19602.0	5.765673584863914e+17
19603.0	5.7634969605898214e+17
19604.0	5.763753965868373e+17
19605.0	5.761524860365488e+17
19606.0	5.7625005197885434e+17
19607.0	5.761604757662377e+17
19608.0	5.760563846752937e+17
19609.0	5.7593329632324256e+17
19610.0	5.758319771080021e+17
19611.0	5.7571205580499616e+17
19612.0	5.756689674403838e+17
19613.0	5.755582836026025e+17
19614.0	5.754298317144063e+17
19615.0	5.753491338646868e+17
19616.0	5.75182180782353e+17
19617.0	5.7505017170493434e+17
19618.0	5.746251670050131e+17
19619.0	5.744098851247443e+17
19620.0	5.744574360890024e+17
19621.0	5.746147110944767e+17
19622.0	5.746314595095892e+17
19623.0	5.745359349350398e+17
19624.0	5.744172785642154e+17
19625.0	5.743304071883434e+17
19626.0	5.7420365804776096e+17
19627.0	5.740720076532394e+17
19628.0	5.738760479528277e+17
19629.0	5.734027373139282e+17
19630.0	5.7275212862149946e+17
19631.0	5.717983256466773e+17
19632.0	5.7315261642615456e+17
19633.0	5.7333345985495046e+17
19634.0	5.733665531931306e+17
19635.0	5.7326375457696403e+17
19636.0	5.7313546277137043e+17
19637.0	5.72755330902699e+17
19638.0	5.7301632859941536e+17
19639.0	5.7291803424631456e+17
19640.0	5.72653219942673e+17
19641.0	5.7212984413388883e+17
19642.0	5.726027329656149e+17
19643.0	5.7250513221058554e+17
19644.0	5.7235529265752723e+17
19645.0	5.722051056063827e+17
19646.0	5.721400571243177e+17
19647.0	5.7213465192475296e+17
19648.0	5.720350898432681e+17
19649.0	5.7193458739882656e+17
19650.0	5.718384420672852e+17
19651.0	5.717328100589567e+17
19652.0	5.71629879042594e+17
19653.0	5.7153440997266765e+17
19654.0	5.714267482707285e+17
19655.0	5.713205919743998e+17
19656.0	5.712290178749781e+17
19657.0	5.711240079518377e+17
19658.0	5.7102776803874125e+17
19659.0	5.709260667224063e+17
19660.0	5.708285920062122e+17
19661.0	5.7072283675525114e+17
19662.0	5.706202997238442e+17
19663.0	5.70498897551906e+17
19664.0	5.70405988335616e+17
