# Flux units: erg / (cm m2 s)
# Wavelength units: Angstrom
wave	flux
19000.0	7.786142205564246e+17
19001.0	7.784670350191273e+17
19002.0	7.783256180479315e+17
19003.0	7.78181166917222e+17
19004.0	7.78035994366225e+17
19005.0	7.778922468999167e+17
19006.0	7.77747684060911e+17
19007.0	7.775811569101481e+17
19008.0	7.774565825860948e+17
19009.0	7.773118676336637e+17
19010.0	7.771559243896147e+17
19011.0	7.770222733120851e+17
19012.0	7.768457996490068e+17
19013.0	7.767345328728745e+17
19014.0	7.765873783734271e+17
19015.0	7.764439219918164e+17
19016.0	7.762979946059089e+17
19017.0	7.761527468370602e+17
19018.0	7.760072830615553e+17
19019.0	7.758643747356671e+17
19020.0	7.757178000288426e+17
19021.0	7.7557357622941e+17
19022.0	7.754289634781868e+17
19023.0	7.752837102567421e+17
19024.0	7.751374214616403e+17
19025.0	7.749900452233212e+17
19026.0	7.748433895664297e+17
19027.0	7.746703139886419e+17
19028.0	7.745570817616553e+17
19029.0	7.74411694322483e+17
19030.0	7.742662754260308e+17
19031.0	7.741208082950826e+17
19032.0	7.739753034153981e+17
19033.0	7.738271246669139e+17
19034.0	7.736840728958291e+17
19035.0	7.735361248340649e+17
19036.0	7.712904233091066e+17
19037.0	7.732464750078633e+17
19038.0	7.731010296872957e+17
19039.0	7.729562940429651e+17
19040.0	7.728106893388458e+17
19041.0	7.72665033883648e+17
19042.0	7.725169776088404e+17
19043.0	7.723737871461032e+17
19044.0	7.722278712246271e+17
19045.0	7.72081050591778e+17
19046.0	7.719350444927657e+17
19047.0	7.717905220588884e+17
19048.0	7.716391981416447e+17
19049.0	7.714972574416896e+17
19050.0	7.71351941305685e+17
19051.0	7.708774771632805e+17
19052.0	7.710142040637439e+17
19053.0	7.70910302765056e+17
19054.0	7.707700456587261e+17
19055.0	7.706167209186644e+17
19056.0	7.7047771707037e+17
19057.0	7.703320363095382e+17
19058.0	7.701812527584594e+17
19059.0	7.700406575912274e+17
19060.0	7.698940700218708e+17
19061.0	7.697488507742889e+17
19062.0	7.696027888910336e+17
19063.0	7.694569056851284e+17
19064.0	7.693076508180479e+17
19065.0	7.691596668250794e+17
19066.0	7.690171895338323e+17
19067.0	7.688730939402922e+17
19068.0	7.687271261492564e+17
19069.0	7.685811805880317e+17
19070.0	7.684348655086249e+17
19071.0	7.682880799681194e+17
19072.0	7.681428488366761e+17
19073.0	7.679970372135594e+17
19074.0	7.678511800123391e+17
19075.0	7.677051630081363e+17
19076.0	7.6755851294365e+17
19077.0	7.674127868843347e+17
19078.0	7.67266146886178e+17
19079.0	7.671210371099306e+17
19080.0	7.669748034000212e+17
19081.0	7.668276872085501e+17
19082.0	7.666815063468713e+17
19083.0	7.665337008914432e+17
19084.0	7.663832479913302e+17
19085.0	7.662443653584211e+17
19086.0	7.660838436121258e+17
19087.0	7.658870193258496e+17
19088.0	7.657986615585449e+17
19089.0	7.656198385259859e+17
19090.0	7.655116568002557e+17
19091.0	7.653665735879338e+17
19092.0	7.65204579361314e+17
19093.0	7.65075665190912e+17
19094.0	7.649286949612202e+17
19095.0	7.647823201828864e+17
19096.0	7.646367016375634e+17
19097.0	7.644915641789097e+17
19098.0	7.643457862500351e+17
19099.0	7.641997201724756e+17
19100.0	7.640502697110186e+17
19101.0	7.639063520957782e+17
19102.0	7.637589901180927e+17
19103.0	7.636154504096425e+17
19104.0	7.634693193203711e+17
19105.0	7.633229239899476e+17
19106.0	7.631650147358034e+17
19107.0	7.630300393766911e+17
19108.0	7.628839658891945e+17
19109.0	7.625231051696806e+17
19110.0	7.625860660068351e+17
19111.0	7.62445597647394e+17
19112.0	7.623004551555752e+17
19113.0	7.621545270706177e+17
19114.0	7.620084555404628e+17
19115.0	7.618571844714496e+17
19116.0	7.617155166808745e+17
19117.0	7.615691143599442e+17
19118.0	7.614102534182227e+17
19119.0	7.612042903027711e+17
19120.0	7.611136118270634e+17
19121.0	7.609728459516586e+17
19122.0	7.608395920747178e+17
19123.0	7.606933203364522e+17
19124.0	7.605350384883028e+17
19125.0	7.60399377080866e+17
19126.0	7.602535960761686e+17
19127.0	7.600605890259626e+17
19128.0	7.598290627461117e+17
19129.0	7.59814112289314e+17
19130.0	7.596704348678825e+17
19131.0	7.59520166936576e+17
19132.0	7.593782213432659e+17
19133.0	7.592052535590913e+17
19134.0	7.590248554255702e+17
19135.0	7.589391432854186e+17
19136.0	7.587936800691539e+17
19137.0	7.586425064478036e+17
19138.0	7.584936640206164e+17
19139.0	7.5835467904669e+17
19140.0	7.582090343568726e+17
19141.0	7.580629425542483e+17
19142.0	7.579152820819286e+17
19143.0	7.577689874148009e+17
19144.0	7.576241766924287e+17
19145.0	7.574772407162195e+17
19146.0	7.573108684750847e+17
19147.0	7.571832302119594e+17
19148.0	7.570381257484969e+17
19149.0	7.568922520496809e+17
19150.0	7.567464832084649e+17
19151.0	7.566006820711081e+17
19152.0	7.564519432432297e+17
19153.0	7.563075484560041e+17
19154.0	7.561581146319528e+17
19155.0	7.560146237172394e+17
19156.0	7.558683284908713e+17
19157.0	7.55715998360098e+17
19158.0	7.554319658254333e+17
19159.0	7.554264786971305e+17
19160.0	7.552797661375148e+17
19161.0	7.551229878075392e+17
19162.0	7.546578035627352e+17
19163.0	7.548180798024362e+17
19164.0	7.546402847937876e+17
19165.0	7.544886995714047e+17
19166.0	7.543377482481661e+17
19167.0	7.54169909678353e+17
19168.0	7.540521188021587e+17
19169.0	7.539023625759402e+17
19170.0	7.537617616764928e+17
19171.0	7.535981302732118e+17
19172.0	7.534669760648532e+17
19173.0	7.53321903338291e+17
19174.0	7.531749872151208e+17
19175.0	7.530300261968553e+17
19176.0	7.528833606134441e+17
19177.0	7.527320561298089e+17
19178.0	7.525817127010303e+17
19179.0	7.52418094579712e+17
19180.0	7.522830044364797e+17
19181.0	7.521460662829053e+17
19182.0	7.520014089322496e+17
19183.0	7.518548263960577e+17
19184.0	7.517056868723369e+17
19185.0	7.515628272003753e+17
19186.0	7.514162056571561e+17
19187.0	7.512668808850089e+17
19188.0	7.511208375965012e+17
19189.0	7.509692045590527e+17
19190.0	7.508207029889705e+17
19191.0	7.506772940029951e+17
19192.0	7.505326984484178e+17
19193.0	7.503769372371625e+17
19194.0	7.502346232441514e+17
19195.0	7.500906650839721e+17
19196.0	7.499430466945021e+17
19197.0	7.497927250761046e+17
19198.0	7.496319931951785e+17
19199.0	7.475539890317988e+17
19200.0	7.480071489060869e+17
19201.0	7.491923008116051e+17
19202.0	7.490568384937981e+17
19203.0	7.489078742919849e+17
19204.0	7.487644671235411e+17
19205.0	7.486190455706963e+17
19206.0	7.484714210295807e+17
19207.0	7.48322588528913e+17
19208.0	7.481712284008447e+17
19209.0	7.480284946978131e+17
19210.0	7.478814182124202e+17
19211.0	7.477334904231251e+17
19212.0	7.475854636482557e+17
19213.0	7.474183460793004e+17
19214.0	7.472607964168191e+17
19215.0	7.471333517907283e+17
19216.0	7.469930344262314e+17
19217.0	7.468452924446036e+17
19218.0	7.466732295116115e+17
19219.0	7.465437706409302e+17
19220.0	7.463985142038528e+17
19221.0	7.46241386208734e+17
19222.0	7.46103208498517e+17
19223.0	7.459546020708352e+17
19224.0	7.458046062100479e+17
19225.0	7.456529242390527e+17
19226.0	7.45508299743778e+17
19227.0	7.453586392875007e+17
19228.0	7.452103314942633e+17
19229.0	7.450611719776938e+17
19230.0	7.44906675209284e+17
19231.0	7.4475909442874e+17
19232.0	7.446122995209556e+17
19233.0	7.444611902122666e+17
19234.0	7.443133931454463e+17
19235.0	7.441637160517632e+17
19236.0	7.440145766678525e+17
19237.0	7.438641865424896e+17
19238.0	7.437089148065106e+17
19239.0	7.435645168036521e+17
19240.0	7.434101497790463e+17
19241.0	7.432619293671423e+17
19242.0	7.431129193076051e+17
19243.0	7.429576022731433e+17
19244.0	7.428121645023233e+17
19245.0	7.426612907737087e+17
19246.0	7.425098583638015e+17
19247.0	7.423591163363327e+17
19248.0	7.422079473287165e+17
19249.0	7.420557440057343e+17
19250.0	7.419048000924329e+17
19251.0	7.417497896615936e+17
19252.0	7.41592539472418e+17
19253.0	7.41449162363153e+17
19254.0	7.412966384555348e+17
19255.0	7.411392281837568e+17
19256.0	7.409877479587839e+17
19257.0	7.408394352721919e+17
19258.0	7.406868972437501e+17
19259.0	7.40531652071697e+17
19260.0	7.403485679058943e+17
19261.0	7.402272721294675e+17
19262.0	7.400728312851113e+17
19263.0	7.399183395498666e+17
19264.0	7.397518919510697e+17
19265.0	7.396064434148691e+17
19266.0	7.394532467408896e+17
19267.0	7.393025943317161e+17
19268.0	7.391477136446803e+17
19269.0	7.389925913657343e+17
19270.0	7.388371922627241e+17
19271.0	7.386725422028116e+17
19272.0	7.385247071076351e+17
19273.0	7.38254972535876e+17
19274.0	7.381157593918118e+17
19275.0	7.379792947751593e+17
19276.0	7.378218762545834e+17
19277.0	7.376652821943635e+17
19278.0	7.375078071904938e+17
19279.0	7.373456781869055e+17
19280.0	7.371896657368403e+17
19281.0	7.370332581833386e+17
19282.0	7.368737556529151e+17
19283.0	7.366864392945661e+17
19284.0	7.365076106696019e+17
19285.0	7.363907474336425e+17
19286.0	7.362354083091796e+17
19287.0	7.36075740802799e+17
19288.0	7.353612759291215e+17
19289.0	7.343860204175334e+17
19290.0	7.355921372719785e+17
19291.0	7.354226465658196e+17
19292.0	7.352681082738003e+17
19293.0	7.351050558242812e+17
19294.0	7.349420109245098e+17
19295.0	7.347782831920468e+17
19296.0	7.346140905908905e+17
19297.0	7.344484224335871e+17
19298.0	7.342842357044564e+17
19299.0	7.341185580400637e+17
19300.0	7.339523116280489e+17
19301.0	7.337853952458751e+17
19302.0	7.336178975331668e+17
19303.0	7.334479935482538e+17
19304.0	7.332805556742826e+17
19305.0	7.331128838979581e+17
19306.0	7.3294245017245e+17
19307.0	7.327689853632511e+17
19308.0	7.325267332694016e+17
19309.0	7.322611209994239e+17
19310.0	7.320682580934653e+17
19311.0	7.319791597518847e+17
19312.0	7.318143173132288e+17
19313.0	7.316387219374079e+17
19314.0	7.30488313409263e+17
19315.0	7.303654313470646e+17
19316.0	7.311052039520255e+17
19317.0	7.309341340904105e+17
19318.0	7.307559276205395e+17
19319.0	7.3057667397277e+17
19320.0	7.303961488916479e+17
19321.0	7.302151104277161e+17
19322.0	7.300255661948927e+17
19323.0	7.298188859932672e+17
19324.0	7.296624405512191e+17
19325.0	7.294235185949353e+17
19326.0	7.29226759320371e+17
19327.0	7.289718833501523e+17
19328.0	7.287839307158868e+17
19329.0	7.285941683792553e+17
19330.0	7.284019943178237e+17
19331.0	7.282094946385919e+17
19332.0	7.280169935612585e+17
19333.0	7.278210741261651e+17
19334.0	7.276252961789267e+17
19335.0	7.274277556453373e+17
19336.0	7.272274166721193e+17
19337.0	7.270273019543551e+17
19338.0	7.26675968456567e+17
19339.0	7.264185315841363e+17
19340.0	7.262111535901356e+17
19341.0	7.260043236518569e+17
19342.0	7.257824789441193e+17
19343.0	7.255837654035114e+17
19344.0	7.253704280025769e+17
19345.0	7.251025415809704e+17
19346.0	7.248303112585212e+17
19347.0	7.245079985695402e+17
19348.0	7.24287851995682e+17
19349.0	7.240619532135081e+17
19350.0	7.238352969400319e+17
19351.0	7.236068853503316e+17
19352.0	7.233738656186368e+17
19353.0	7.22899662082321e+17
19354.0	7.226535015961939e+17
19355.0	7.224109993820157e+17
19356.0	7.221701958609578e+17
19357.0	7.219241507181908e+17
19358.0	7.214248532202839e+17
19359.0	7.211187192201216e+17
19360.0	7.208669798902441e+17
19361.0	7.206072430013097e+17
19362.0	7.202399423474348e+17
19363.0	7.199041258171049e+17
19364.0	7.196333433683968e+17
19365.0	7.193586184137386e+17
19366.0	7.19051997454882e+17
19367.0	7.187366975023786e+17
19368.0	7.184487307105619e+17
19369.0	7.181528991793151e+17
19370.0	7.178455935702356e+17
19371.0	7.175549501134163e+17
19372.0	7.172490016413012e+17
19373.0	7.169362179915773e+17
19374.0	7.166179140785492e+17
19375.0	7.162937750497961e+17
19376.0	7.159637839882922e+17
19377.0	7.156274076581887e+17
19378.0	7.152441713055059e+17
19379.0	7.14841467929668e+17
19380.0	7.144843084038143e+17
19381.0	7.141204044371283e+17
19382.0	7.137470810423296e+17
19383.0	7.133675587458387e+17
19384.0	7.129837414820521e+17
19385.0	7.125608078595411e+17
19386.0	7.120496118202368e+17
19387.0	7.116343390939817e+17
19388.0	7.112092344997204e+17
19389.0	7.107738021309098e+17
19390.0	7.102918171820032e+17
19391.0	7.080185671887505e+17
19392.0	7.09199991616307e+17
19393.0	7.087346337273172e+17
19394.0	7.081278546728275e+17
19395.0	7.074896405681491e+17
19396.0	7.069601524700499e+17
19397.0	7.062766716190716e+17
19398.0	7.055716271521791e+17
19399.0	7.049399813275649e+17
19400.0	7.04045200249105e+17
19401.0	7.033998608607912e+17
19402.0	7.023701925735081e+17
19403.0	7.015307533090811e+17
19404.0	7.005046675166547e+17
19405.0	6.993204719823525e+17
19406.0	6.981438353528142e+17
19407.0	6.969133843349505e+17
19408.0	6.958303842839209e+17
19409.0	6.94985103122978e+17
19410.0	6.940950042858835e+17
19411.0	6.931735062598995e+17
19412.0	6.92219508809182e+17
19413.0	6.912303416300884e+17
19414.0	6.901593737789437e+17
19415.0	6.890963661575508e+17
19416.0	6.879777001919828e+17
19417.0	6.868072576406867e+17
19418.0	6.856092933947391e+17
19419.0	6.843358510404948e+17
19420.0	6.830695478110889e+17
19421.0	6.816868312547328e+17
19422.0	6.802584052432895e+17
19423.0	6.787416138448893e+17
19424.0	6.771413311903062e+17
19425.0	6.753364632491348e+17
19426.0	6.734442644460883e+17
19427.0	6.713692013985796e+17
19428.0	6.690242685829114e+17
19429.0	6.663498484416512e+17
19430.0	6.631914602845523e+17
19431.0	6.593611205094054e+17
19432.0	6.56711672345395e+17
19433.0	6.539995419858262e+17
19434.0	6.511237411460436e+17
19435.0	6.480499622368595e+17
19436.0	6.44636704121378e+17
19437.0	6.411054605839016e+17
19438.0	6.356053421719551e+17
19439.0	6.323930014242135e+17
19440.0	6.270732131281577e+17
19441.0	6.208155799257088e+17
19442.0	6.145282648921431e+17
19443.0	6.080984415294804e+17
19444.0	6.008424507987282e+17
19445.0	5.922399151194115e+17
19446.0	5.822389436809215e+17
19447.0	5.710996735787002e+17
19448.0	5.581403159440048e+17
19449.0	5.426736916682069e+17
19450.0	5.213575618494415e+17
19451.0	5.1348208695814874e+17
19452.0	5.325511046376112e+17
19453.0	5.506872243825329e+17
19454.0	5.644910434713593e+17
19455.0	5.761772266979328e+17
19456.0	5.865500647096325e+17
19457.0	5.955986572793167e+17
19458.0	6.024222214892216e+17
19459.0	6.097652055801859e+17
19460.0	6.157267246951078e+17
19461.0	6.220048988023465e+17
19462.0	6.274865177471657e+17
19463.0	6.321999441122643e+17
19464.0	6.362720460166483e+17
19465.0	6.398427266372948e+17
19466.0	6.430367001782953e+17
19467.0	6.45979060568064e+17
19468.0	6.48708451397359e+17
19469.0	6.512211273624232e+17
19470.0	6.53649751502575e+17
19471.0	6.568119709466618e+17
19472.0	6.599435329645219e+17
19473.0	6.625628315626152e+17
19474.0	6.647607225658024e+17
19475.0	6.666851628438867e+17
19476.0	6.68432467877342e+17
19477.0	6.69978567534182e+17
19478.0	6.713795237205331e+17
19479.0	6.727454570490536e+17
19480.0	6.738833708154879e+17
19481.0	6.750795909999274e+17
19482.0	6.761120246617428e+17
19483.0	6.771000062509055e+17
19484.0	6.781102285564585e+17
19485.0	6.790177817100287e+17
19486.0	6.798815041770836e+17
19487.0	6.806978399567871e+17
19488.0	6.81495072079872e+17
19489.0	6.822540206931967e+17
19490.0	6.829278602373801e+17
19491.0	6.83624180551953e+17
19492.0	6.842617994848938e+17
19493.0	6.848673382137855e+17
19494.0	6.855066004750332e+17
19495.0	6.863412747304955e+17
19496.0	6.874450278481919e+17
19497.0	6.88299776881459e+17
19498.0	6.8882815474729e+17
19499.0	6.872270683242478e+17
19500.0	6.903535402046802e+17
19501.0	6.909428857744042e+17
19502.0	6.9140889993216e+17
19503.0	6.919331797532671e+17
19504.0	6.922313855401983e+17
19505.0	6.927775148190377e+17
19506.0	6.93053609353762e+17
19507.0	6.933027703750655e+17
19508.0	6.937471088590847e+17
19509.0	6.939748767629311e+17
19510.0	6.941751497457664e+17
19511.0	6.921905885937652e+17
19512.0	6.943224978123427e+17
19513.0	6.94155109291348e+17
19514.0	6.945080638177271e+17
19515.0	6.951569967458986e+17
19516.0	6.953447588189526e+17
19517.0	6.955887470051327e+17
19518.0	6.957089373727402e+17
19519.0	6.958181766223187e+17
19520.0	6.959208672351572e+17
19521.0	6.960162231287805e+17
19522.0	6.961041406339753e+17
19523.0	6.961852786758996e+17
19524.0	6.963123127495337e+17
19525.0	6.964130237906943e+17
19526.0	6.964741685641215e+17
19527.0	6.965286966132735e+17
19528.0	6.965773622837247e+17
19529.0	6.966203281047551e+17
19530.0	6.966578645390676e+17
19531.0	6.96690176758033e+17
19532.0	6.967174695135913e+17
19533.0	6.967399386797398e+17
19534.0	6.967577473449983e+17
19535.0	6.967710153965565e+17
19536.0	6.967787543068671e+17
19537.0	6.968333507231743e+17
19538.0	6.968378199638015e+17
19539.0	6.968223503919785e+17
19540.0	6.96894475294037e+17
19541.0	6.9698098575005e+17
19542.0	6.969666790490111e+17
19543.0	6.969490322139817e+17
19544.0	6.969350523890345e+17
19545.0	6.971678517799593e+17
19546.0	6.971280566430378e+17
19547.0	6.971208419508224e+17
19548.0	6.970873205140138e+17
19549.0	6.970483089429844e+17
19550.0	6.971636852981756e+17
19551.0	6.972016017364308e+17
19552.0	6.971572192193194e+17
19553.0	6.971099589203283e+17
19554.0	6.970606421540861e+17
19555.0	6.970105062402729e+17
19556.0	6.9695722501789e+17
19557.0	6.970508115443711e+17
19558.0	6.970339282823849e+17
19559.0	6.969739037376511e+17
19560.0	6.969117988880383e+17
19561.0	6.968492674777087e+17
19562.0	6.967841448263679e+17
19563.0	6.967173318705151e+17
19564.0	6.966490146275327e+17
19565.0	6.965790865620992e+17
19566.0	6.96608696041472e+17
19567.0	6.965872019111933e+17
19568.0	6.965195928065364e+17
19569.0	6.964659875741696e+17
19570.0	6.963887598119594e+17
19571.0	6.96309906547234e+17
19572.0	6.962291007640915e+17
19573.0	6.961481970439508e+17
19574.0	6.960635989109418e+17
19575.0	6.959828468148905e+17
19576.0	6.958982353300138e+17
19577.0	6.958118825099263e+17
19578.0	6.957246177083391e+17
19579.0	6.957071534653437e+17
19580.0	6.956679506340522e+17
19581.0	6.955782895566847e+17
19582.0	6.954879464854868e+17
19583.0	6.953962387275775e+17
19584.0	6.953027620219561e+17
19585.0	6.952068534588755e+17
19586.0	6.951101219034452e+17
19587.0	6.95008935158306e+17
19588.0	6.949116814120276e+17
19589.0	6.948257652888916e+17
19590.0	6.947286050755924e+17
19591.0	6.946336854594899e+17
19592.0	6.945352637393578e+17
19593.0	6.944354551027028e+17
19594.0	6.943267373449215e+17
19595.0	6.942345269695828e+17
19596.0	6.938268857794561e+17
19597.0	6.940270508288681e+17
19598.0	6.939234264241491e+17
19599.0	6.938277660939604e+17
19600.0	6.937243895027028e+17
19601.0	6.937018346329427e+17
19602.0	6.936046273735338e+17
19603.0	6.934589882761213e+17
19604.0	6.933907585542825e+17
19605.0	6.932807222471337e+17
19606.0	6.931827546303146e+17
19607.0	6.930759997369001e+17
19608.0	6.929684966495572e+17
19609.0	6.928595278626815e+17
19610.0	6.927526412681215e+17
19611.0	6.926438838042623e+17
19612.0	6.92535041405747e+17
19613.0	6.924256581517311e+17
19614.0	6.923146495350099e+17
19615.0	6.922054272723625e+17
19616.0	6.920794853255849e+17
19617.0	6.919844883245737e+17
19618.0	6.918586019523242e+17
19619.0	6.917432827794772e+17
19620.0	6.916322297730388e+17
19621.0	6.915380349326676e+17
19622.0	6.914256547086333e+17
19623.0	6.913129814425599e+17
19624.0	6.912000024117247e+17
19625.0	6.910865326473215e+17
19626.0	6.909730387656703e+17
19627.0	6.908588402409471e+17
19628.0	6.906988847256918e+17
19629.0	6.906264007912105e+17
19630.0	6.904171271815168e+17
19631.0	6.883363426839208e+17
19632.0	6.902822788399101e+17
19633.0	6.901694857565523e+17
19634.0	6.900558809355604e+17
19635.0	6.899392474076499e+17
19636.0	6.898247821251923e+17
19637.0	6.896968898270548e+17
19638.0	6.895923644159316e+17
19639.0	6.89474884477474e+17
19640.0	6.893571899304617e+17
19641.0	6.892264085258239e+17
19642.0	6.891257493542227e+17
19643.0	6.890083260388691e+17
19644.0	6.888894455524009e+17
19645.0	6.887662992490496e+17
19646.0	6.886560731496447e+17
19647.0	6.88538253402658e+17
19648.0	6.884202746915497e+17
19649.0	6.88302066901538e+17
19650.0	6.881977024118783e+17
19651.0	6.881297547569833e+17
19652.0	6.880111539606867e+17
19653.0	6.878915428264617e+17
19654.0	6.877735471284223e+17
19655.0	6.876544236519423e+17
19656.0	6.875352369812819e+17
19657.0	6.874161864157866e+17
19658.0	6.872968282679978e+17
19659.0	6.871773029072895e+17
19660.0	6.870577567847763e+17
19661.0	6.869380547040596e+17
19662.0	6.868182431520084e+17
19663.0	6.866962530784596e+17
19664.0	6.865703771220649e+17
19665.0	6.864582117163007e+17
19666.0	6.863376075806035e+17
