# Flux units: erg / (cm m2 s)
# Wavelength units: Angstrom
wave	flux
19000.0	6.29692956741905e+17
19001.0	6.295642896859135e+17
19002.0	6.294583755407359e+17
19003.0	6.293407995527168e+17
19004.0	6.292232980135935e+17
19005.0	6.291054320593577e+17
19006.0	6.289888833262932e+17
19007.0	6.288714382704639e+17
19008.0	6.287466082336767e+17
19009.0	6.286265754320896e+17
19010.0	6.284637433932457e+17
19011.0	6.283981187536212e+17
19012.0	6.282712696487936e+17
19013.0	6.281659806646271e+17
19014.0	6.280426108747773e+17
19015.0	6.279270450069503e+17
19016.0	6.278083671752703e+17
19017.0	6.276975830237183e+17
19018.0	6.275784796798975e+17
19019.0	6.274618037196116e+17
19020.0	6.273428524193108e+17
19021.0	6.272276969641299e+17
19022.0	6.271099091637588e+17
19023.0	6.269887599782569e+17
19024.0	6.268736088571903e+17
19025.0	6.26758610059264e+17
19026.0	6.266384222082388e+17
19027.0	6.265197193505449e+17
19028.0	6.264066989359103e+17
19029.0	6.262882027874985e+17
19030.0	6.261736643843412e+17
19031.0	6.260564407877632e+17
19032.0	6.259386482338473e+17
19033.0	6.258115648771412e+17
19034.0	6.257029519070548e+17
19035.0	6.255809983938559e+17
19036.0	6.250931432368808e+17
19037.0	6.253501024479914e+17
19038.0	6.252331737808895e+17
19039.0	6.251190290830675e+17
19040.0	6.250020037372586e+17
19041.0	6.248839927300096e+17
19042.0	6.247550547219795e+17
19043.0	6.246508057853951e+17
19044.0	6.245323826178729e+17
19045.0	6.244166180099412e+17
19046.0	6.242937348991657e+17
19047.0	6.241804697468927e+17
19048.0	6.240406106101076e+17
19049.0	6.239363149769385e+17
19050.0	6.238254812626943e+17
19051.0	6.236511063594323e+17
19052.0	6.235868153686697e+17
19053.0	6.234805118522708e+17
19054.0	6.233637276090367e+17
19055.0	6.232170842554367e+17
19056.0	6.231262761757353e+17
19057.0	6.230121504920916e+17
19058.0	6.22892617371921e+17
19059.0	6.227777507644756e+17
19060.0	6.226597902286847e+17
19061.0	6.225456603507369e+17
19062.0	6.224282638090239e+17
19063.0	6.223116329375059e+17
19064.0	6.221808486667604e+17
19065.0	6.220584213370195e+17
19066.0	6.219540613911892e+17
19067.0	6.218433477738495e+17
19068.0	6.217280681672701e+17
19069.0	6.216115038453759e+17
19070.0	6.214920058874538e+17
19071.0	6.213774541324287e+17
19072.0	6.212606091416916e+17
19073.0	6.211442580302506e+17
19074.0	6.210281982132223e+17
19075.0	6.209115639862611e+17
19076.0	6.207926558872916e+17
19077.0	6.206766299742207e+17
19078.0	6.205578093963945e+17
19079.0	6.204450747536724e+17
19080.0	6.203270115972436e+17
19081.0	6.202070196901203e+17
19082.0	6.200907712692223e+17
19083.0	6.199674812410537e+17
19084.0	6.198372678849875e+17
19085.0	6.197453433514665e+17
19086.0	6.195870705210707e+17
19087.0	6.195022336622591e+17
19088.0	6.193862969480531e+17
19089.0	6.192553449051476e+17
19090.0	6.19160347484706e+17
19091.0	6.19044639220258e+17
19092.0	6.189223440809983e+17
19093.0	6.188149578050217e+17
19094.0	6.186987268603904e+17
19095.0	6.185824332808192e+17
19096.0	6.184643220996095e+17
19097.0	6.183496331209385e+17
19098.0	6.182327056422228e+17
19099.0	6.181162986766335e+17
19100.0	6.180001333029546e+17
19101.0	6.178847019324756e+17
19102.0	6.177560379523071e+17
19103.0	6.176522652789418e+17
19104.0	6.175365506531327e+17
19105.0	6.174181665625428e+17
19106.0	6.173025097482239e+17
19107.0	6.171858478388564e+17
19108.0	6.170707942353578e+17
19109.0	6.169303318877524e+17
19110.0	6.16837878522402e+17
19111.0	6.167231869572436e+17
19112.0	6.166071791495849e+17
19113.0	6.164916107651753e+17
19114.0	6.163757974334121e+17
19115.0	6.162543629653332e+17
19116.0	6.161414241998164e+17
19117.0	6.160256815420756e+17
19118.0	6.159005837688831e+17
19119.0	6.151432921153526e+17
19120.0	6.156747127390207e+17
19121.0	6.155618472340137e+17
19122.0	6.154486440176297e+17
19123.0	6.153328321538729e+17
19124.0	6.152150438641664e+17
19125.0	6.151007983632383e+17
19126.0	6.149831655423999e+17
19127.0	6.146699609942697e+17
19128.0	6.147496166293501e+17
19129.0	6.146284257105236e+17
19130.0	6.145206056037033e+17
19131.0	6.144064919437311e+17
19132.0	6.142906298881364e+17
19133.0	6.141674229071871e+17
19134.0	6.140582561491626e+17
19135.0	6.139436080649556e+17
19136.0	6.13828494692625e+17
19137.0	6.13694933443106e+17
19138.0	6.135957193490431e+17
19139.0	6.13481812468258e+17
19140.0	6.133664527504724e+17
19141.0	6.132509258896724e+17
19142.0	6.13132496151074e+17
19143.0	6.130136415993855e+17
19144.0	6.129001775671977e+17
19145.0	6.127888972294825e+17
19146.0	6.126041673586006e+17
19147.0	6.125475298541567e+17
19148.0	6.124416415738537e+17
19149.0	6.123253909159935e+17
19150.0	6.122108798457171e+17
19151.0	6.120956524582227e+17
19152.0	6.119806409375743e+17
19153.0	6.118614430821034e+17
19154.0	6.117359970418687e+17
19155.0	6.116346463693482e+17
19156.0	6.115191283864916e+17
19157.0	6.114021686815402e+17
19158.0	6.112709398844755e+17
19159.0	6.111707980103679e+17
19160.0	6.11056838910498e+17
19161.0	6.109423897761107e+17
19162.0	6.107870608577875e+17
19163.0	6.107096979690838e+17
19164.0	6.105972902024531e+17
19165.0	6.104789208618324e+17
19166.0	6.103527079630163e+17
19167.0	6.102481271171754e+17
19168.0	6.101359164129279e+17
19169.0	6.1002026071709e+17
19170.0	6.099064519131136e+17
19171.0	6.097891777751721e+17
19172.0	6.096762704669353e+17
19173.0	6.095613154994857e+17
19174.0	6.09439851811089e+17
19175.0	6.093309337752916e+17
19176.0	6.092156751402324e+17
19177.0	6.090838940931412e+17
19178.0	6.089847462690815e+17
19179.0	6.08867705683968e+17
19180.0	6.087547300085759e+17
19181.0	6.086263807410173e+17
19182.0	6.085243614964393e+17
19183.0	6.084111627539795e+17
19184.0	6.082953947906047e+17
19185.0	6.08179880862242e+17
19186.0	6.080660186507945e+17
19187.0	6.079435752428883e+17
19188.0	6.078359305977855e+17
19189.0	6.077216144927401e+17
19190.0	6.076064918929405e+17
19191.0	6.074879315017727e+17
19192.0	6.073767012859901e+17
19193.0	6.072610253176832e+17
19194.0	6.071451900357289e+17
19195.0	6.070314552612182e+17
19196.0	6.069141360345087e+17
19197.0	6.067993459032063e+17
19198.0	6.06680129732608e+17
19199.0	6.063189547199144e+17
19200.0	6.062738050646015e+17
19201.0	6.063365740123475e+17
19202.0	6.062262479486973e+17
19203.0	6.061117742077267e+17
19204.0	6.059951345281705e+17
19205.0	6.058820750366036e+17
19206.0	6.057673293649235e+17
19207.0	6.056415398810964e+17
19208.0	6.055132193445203e+17
19209.0	6.054230735454207e+17
19210.0	6.053087943502505e+17
19211.0	6.051950234348201e+17
19212.0	6.050801615110143e+17
19213.0	6.049543845401939e+17
19214.0	6.048374261634388e+17
19215.0	6.047346024513535e+17
19216.0	6.04620717101329e+17
19217.0	6.045044103796052e+17
19218.0	6.043007702794237e+17
19219.0	6.042582103272105e+17
19220.0	6.041586231498068e+17
19221.0	6.040109257676116e+17
19222.0	6.039303313773908e+17
19223.0	6.038146081532586e+17
19224.0	6.036970328642899e+17
19225.0	6.03571094552576e+17
19226.0	6.034700746009257e+17
19227.0	6.033551838762324e+17
19228.0	6.032433648500733e+17
19229.0	6.031283922665472e+17
19230.0	6.03013134749969e+17
19231.0	6.028971642017108e+17
19232.0	6.027829221261312e+17
19233.0	6.026609791685971e+17
19234.0	6.025513638996649e+17
19235.0	6.024356400463871e+17
19236.0	6.023240396832767e+17
19237.0	6.022073822478336e+17
19238.0	6.020836756553727e+17
19239.0	6.019682976224595e+17
19240.0	6.018437751679657e+17
19241.0	6.017272427227818e+17
19242.0	6.016132389535743e+17
19243.0	6.014817430492499e+17
19244.0	6.01385154519586e+17
19245.0	6.01269398020642e+17
19246.0	6.011530396390739e+17
19247.0	6.010398087402836e+17
19248.0	6.009248214766934e+17
19249.0	6.008094298821971e+17
19250.0	6.006917687498068e+17
19251.0	6.005672299375273e+17
19252.0	6.004313732153341e+17
19253.0	6.003459070711124e+17
19254.0	6.002333782988116e+17
19255.0	6.000966106436947e+17
19256.0	5.999999020870314e+17
19257.0	5.998875882728105e+17
19258.0	5.997721090173609e+17
19259.0	5.996483594332841e+17
19260.0	5.995323552606889e+17
19261.0	5.994241510255274e+17
19262.0	5.993033263393449e+17
19263.0	5.99186690155042e+17
19264.0	5.990168378998781e+17
19265.0	5.989398913657514e+17
19266.0	5.988201647483562e+17
19267.0	5.98731661788228e+17
19268.0	5.986150538455721e+17
19269.0	5.984995183165439e+17
19270.0	5.983832391374164e+17
19271.0	5.982297977957034e+17
19272.0	5.981476484371796e+17
19273.0	5.979747003662335e+17
19274.0	5.978597056927059e+17
19275.0	5.978033644459348e+17
19276.0	5.976849632286036e+17
19277.0	5.975692356004521e+17
19278.0	5.974532107359574e+17
19279.0	5.973347305259007e+17
19280.0	5.972107743723519e+17
19281.0	5.970809720580778e+17
19282.0	5.969623324644692e+17
19283.0	5.968422466049364e+17
19284.0	5.967246407674538e+17
19285.0	5.965923919855615e+17
19286.0	5.964901040958122e+17
19287.0	5.963769969289897e+17
19288.0	5.961583761730216e+17
19289.0	5.958904890523642e+17
19290.0	5.960250839881044e+17
19291.0	5.958793318541994e+17
19292.0	5.957906874062163e+17
19293.0	5.956722192198314e+17
19294.0	5.955538993020927e+17
19295.0	5.954371989449386e+17
19296.0	5.953173232200361e+17
19297.0	5.951986112047786e+17
19298.0	5.950792977962324e+17
19299.0	5.949627745785172e+17
19300.0	5.948445931427155e+17
19301.0	5.947256934323539e+17
19302.0	5.946058192453631e+17
19303.0	5.94456197796113e+17
19304.0	5.94332143845376e+17
19305.0	5.942142030927188e+17
19306.0	5.940955780393641e+17
19307.0	5.93970981835025e+17
19308.0	5.938336450827604e+17
19309.0	5.936829958193151e+17
19310.0	5.935579002830847e+17
19311.0	5.934472592272041e+17
19312.0	5.933300201117012e+17
19313.0	5.932103496280745e+17
19314.0	5.92609580102451e+17
19315.0	5.9252915236591e+17
19316.0	5.928437044740095e+17
19317.0	5.927126043721727e+17
19318.0	5.925801616736255e+17
19319.0	5.924600442869076e+17
19320.0	5.923369532784639e+17
19321.0	5.922135017695914e+17
19322.0	5.920829021880319e+17
19323.0	5.919635771053395e+17
19324.0	5.918434865621674e+17
19325.0	5.917122322497533e+17
19326.0	5.915949759376041e+17
19327.0	5.914689333974356e+17
19328.0	5.913436275867647e+17
19329.0	5.912201688776703e+17
19330.0	5.910899393036287e+17
19331.0	5.909625447295658e+17
19332.0	5.908410109962922e+17
19333.0	5.90713189372177e+17
19334.0	5.905863758490281e+17
19335.0	5.904546446442495e+17
19336.0	5.903295251305812e+17
19337.0	5.902001009328127e+17
19338.0	5.900472317640703e+17
19339.0	5.899405242662911e+17
19340.0	5.897953202580137e+17
19341.0	5.896167566431571e+17
19342.0	5.894358345711613e+17
19343.0	5.893445932198569e+17
19344.0	5.89209510416657e+17
19345.0	5.88847838099319e+17
19346.0	5.888478852153343e+17
19347.0	5.887996821766143e+17
19348.0	5.886741017788415e+17
19349.0	5.885335424030035e+17
19350.0	5.883966642279763e+17
19351.0	5.882576610088276e+17
19352.0	5.881128932780713e+17
19353.0	5.879718008061951e+17
19354.0	5.878234970674516e+17
19355.0	5.876704025247744e+17
19356.0	5.874976977933652e+17
19357.0	5.872919750814377e+17
19358.0	5.871461890435754e+17
19359.0	5.869946886160383e+17
19360.0	5.868460451386707e+17
19361.0	5.866991590047743e+17
19362.0	5.865532397977599e+17
19363.0	5.864015418884095e+17
19364.0	5.862482822998697e+17
19365.0	5.86093589307938e+17
19366.0	5.858199062183933e+17
19367.0	5.856372029652991e+17
19368.0	5.854779427957418e+17
19369.0	5.853113056843092e+17
19370.0	5.851473642520576e+17
19371.0	5.84982765502464e+17
19372.0	5.847792710844415e+17
19373.0	5.844610333016064e+17
19374.0	5.842907876207273e+17
19375.0	5.841171814634835e+17
19376.0	5.839411376466602e+17
19377.0	5.837378030316198e+17
19378.0	5.833359878695593e+17
19379.0	5.831515547456852e+17
19380.0	5.829327035826175e+17
19381.0	5.826970624109228e+17
19382.0	5.822219978539008e+17
19383.0	5.820203113207124e+17
19384.0	5.818297055095465e+17
19385.0	5.813152077840385e+17
19386.0	5.810451667484671e+17
19387.0	5.807719850180605e+17
19388.0	5.801693555982335e+17
19389.0	5.799462365910356e+17
19390.0	5.794745580956328e+17
19391.0	5.788149652040356e+17
19392.0	5.788981158128297e+17
19393.0	5.786621346228906e+17
19394.0	5.78414241190161e+17
19395.0	5.781620967604223e+17
19396.0	5.779013298902356e+17
19397.0	5.775197788089002e+17
19398.0	5.772483177917098e+17
19399.0	5.768989664520873e+17
19400.0	5.766936788292947e+17
19401.0	5.7625684052978336e+17
19402.0	5.759393295499263e+17
19403.0	5.7563456981346976e+17
19404.0	5.751197175993683e+17
19405.0	5.747462534856703e+17
19406.0	5.74267342122735e+17
19407.0	5.737331375996926e+17
19408.0	5.730683004299948e+17
19409.0	5.725599140850345e+17
19410.0	5.716506234410323e+17
19411.0	5.707693501186052e+17
19412.0	5.6971511068972294e+17
19413.0	5.684625605831344e+17
19414.0	5.671595257364478e+17
19415.0	5.6627314459060896e+17
19416.0	5.656145632952319e+17
19417.0	5.649672713885011e+17
19418.0	5.6425804079650125e+17
19419.0	5.635109415813119e+17
19420.0	5.6273907730786963e+17
19421.0	5.6194217129192096e+17
19422.0	5.611168137740287e+17
19423.0	5.602670057706836e+17
19424.0	5.5939325262561274e+17
19425.0	5.584962928858451e+17
19426.0	5.575714955504297e+17
19427.0	5.5662507629827405e+17
19428.0	5.556606906750292e+17
19429.0	5.5467186861725e+17
19430.0	5.536230262789462e+17
19431.0	5.525093269984597e+17
19432.0	5.514792803849555e+17
19433.0	5.502823408773802e+17
19434.0	5.490695206862848e+17
19435.0	5.4774057594606906e+17
19436.0	5.4618916427311763e+17
19437.0	5.443791708225534e+17
19438.0	5.4135109549643155e+17
19439.0	5.3835060855439226e+17
19440.0	5.3334314910569734e+17
19441.0	5.293847020743336e+17
19442.0	5.26164779003631e+17
19443.0	5.226585269469184e+17
19444.0	5.186258933033641e+17
19445.0	5.1352834901278694e+17
19446.0	5.0663800784814054e+17
19447.0	4.968129899790322e+17
19448.0	4.8382263776597395e+17
19449.0	4.6592645429985306e+17
19450.0	4.2829109250403514e+17
19451.0	4.077937172501882e+17
19452.0	4.5074003938071866e+17
19453.0	4.759947767534941e+17
19454.0	4.90331952696523e+17
19455.0	5.016020671179424e+17
19456.0	5.0957549676352864e+17
19457.0	5.152505411403774e+17
19458.0	5.183476997292054e+17
19459.0	5.230280547762179e+17
19460.0	5.2616888292037946e+17
19461.0	5.292408519174823e+17
19462.0	5.3404795834204154e+17
19463.0	5.380467882721278e+17
19464.0	5.407417760219133e+17
19465.0	5.426580601962497e+17
19466.0	5.4411088370510496e+17
19467.0	5.4529514173453645e+17
19468.0	5.4639336116715514e+17
19469.0	5.473335025947988e+17
19470.0	5.4829823907157325e+17
19471.0	5.491590629250388e+17
19472.0	5.500161507721214e+17
19473.0	5.508124774148777e+17
19474.0	5.5158384375453005e+17
19475.0	5.522460432662526e+17
19476.0	5.530489905479678e+17
19477.0	5.5375443850690566e+17
19478.0	5.5442798647705594e+17
19479.0	5.550794287874047e+17
19480.0	5.557005701873664e+17
19481.0	5.5629580966297574e+17
19482.0	5.5686710525515085e+17
19483.0	5.574140059364009e+17
19484.0	5.579315904599381e+17
19485.0	5.5839338521777485e+17
19486.0	5.5882782933865805e+17
19487.0	5.5929559133279514e+17
19488.0	5.602033721671689e+17
19489.0	5.613139354364586e+17
19490.0	5.621423675888979e+17
19491.0	5.630645072035839e+17
19492.0	5.636378856172203e+17
19493.0	5.640482116512423e+17
19494.0	5.6460967027234106e+17
19495.0	5.647788970868737e+17
19496.0	5.6515584876434746e+17
19497.0	5.653109456677545e+17
19498.0	5.6554857682698214e+17
19499.0	5.6521817122843245e+17
19500.0	5.6583707231081805e+17
19501.0	5.660118068756479e+17
19502.0	5.661547029681492e+17
19503.0	5.662150966815402e+17
19504.0	5.662696397602815e+17
19505.0	5.663592133165056e+17
19506.0	5.664848382438058e+17
19507.0	5.665208417998164e+17
19508.0	5.6655744507139405e+17
19509.0	5.6658599478995616e+17
19510.0	5.665882931986431e+17
19511.0	5.6581541914651226e+17
19512.0	5.667786247023272e+17
19513.0	5.6679780777110144e+17
19514.0	5.6698840798986195e+17
19515.0	5.673590638073174e+17
19516.0	5.6740548147063456e+17
19517.0	5.67569642474701e+17
19518.0	5.677391816949758e+17
19519.0	5.677230204125183e+17
19520.0	5.67759007191313e+17
19521.0	5.6796964157303456e+17
19522.0	5.6794294881266336e+17
19523.0	5.679537520814761e+17
19524.0	5.679420397671767e+17
19525.0	5.681139249315839e+17
19526.0	5.6807669971462816e+17
19527.0	5.680352565657598e+17
19528.0	5.6799135282845005e+17
19529.0	5.679461820618068e+17
19530.0	5.680493809543852e+17
19531.0	5.6802680714035194e+17
19532.0	5.679747644959402e+17
19533.0	5.6792085720378016e+17
19534.0	5.6786489113750176e+17
19535.0	5.678064314875903e+17
19536.0	5.677444008072533e+17
19537.0	5.678092406925994e+17
19538.0	5.6774574256510285e+17
19539.0	5.676315051731628e+17
19540.0	5.676267766546431e+17
19541.0	5.6756355975522976e+17
19542.0	5.674955736525483e+17
19543.0	5.6742573073148576e+17
19544.0	5.673568581626537e+17
19545.0	5.6723274486251494e+17
19546.0	5.6711124880807245e+17
19547.0	5.672110062742185e+17
19548.0	5.6716113900557645e+17
19549.0	5.670751162073087e+17
19550.0	5.670099312006485e+17
19551.0	5.6693323814229325e+17
19552.0	5.6685529455220045e+17
19553.0	5.6678779058476365e+17
19554.0	5.6670971452456954e+17
19555.0	5.666323965848235e+17
19556.0	5.6655321840134816e+17
19557.0	5.664710975640916e+17
19558.0	5.6638908577873914e+17
19559.0	5.663064832256683e+17
19560.0	5.662194821059924e+17
19561.0	5.661358257340415e+17
19562.0	5.660540476413268e+17
19563.0	5.659694548910079e+17
19564.0	5.659202012490409e+17
19565.0	5.6585981480577696e+17
19566.0	5.6576967424955725e+17
19567.0	5.656858738032639e+17
19568.0	5.655954662096894e+17
19569.0	5.655078245498878e+17
19570.0	5.6542191933194234e+17
19571.0	5.6533274905804794e+17
19572.0	5.652396731880788e+17
19573.0	5.651521604332203e+17
19574.0	5.6505354689358496e+17
19575.0	5.6497382799441914e+17
19576.0	5.64882666824226e+17
19577.0	5.647895577493503e+17
19578.0	5.6469614186113696e+17
19579.0	5.6460578466911565e+17
19580.0	5.6451408753677645e+17
19581.0	5.6442301961994234e+17
19582.0	5.6433248962259616e+17
19583.0	5.642397299332437e+17
19584.0	5.641464326739284e+17
19585.0	5.640405885736276e+17
19586.0	5.639440352062122e+17
19587.0	5.638695383553364e+17
19588.0	5.6374040985600006e+17
19589.0	5.637003579577685e+17
19590.0	5.635971318022143e+17
19591.0	5.635134651542185e+17
19592.0	5.63419276185873e+17
19593.0	5.6332222831001594e+17
19594.0	5.632015931364692e+17
19595.0	5.6313068339418445e+17
19596.0	5.6303007958739616e+17
19597.0	5.6294100529315834e+17
19598.0	5.627995565151572e+17
19599.0	5.6274996530162336e+17
19600.0	5.6265491118817274e+17
19601.0	5.6255090090748576e+17
19602.0	5.624558241447935e+17
19603.0	5.623169160664404e+17
19604.0	5.622631752182441e+17
19605.0	5.621744850523477e+17
19606.0	5.621400305926143e+17
19607.0	5.620439351732906e+17
19608.0	5.6194471772378445e+17
19609.0	5.618433381105664e+17
19610.0	5.617512042812755e+17
19611.0	5.6165264512778234e+17
19612.0	5.615568435194538e+17
19613.0	5.6145789031109965e+17
19614.0	5.6135667847004154e+17
19615.0	5.612632063781545e+17
19616.0	5.611615530866004e+17
19617.0	5.610647203785385e+17
19618.0	5.609030508609534e+17
19619.0	5.607870457795923e+17
19620.0	5.606957410942975e+17
19621.0	5.606719751891626e+17
19622.0	5.6057536610740896e+17
19623.0	5.604769034928126e+17
19624.0	5.603772165608789e+17
19625.0	5.6027958679524685e+17
19626.0	5.6018076375012685e+17
19627.0	5.600816395539796e+17
19628.0	5.599767019825835e+17
19629.0	5.5986929592347296e+17
19630.0	5.597595586701994e+17
19631.0	5.59412760752947e+17
19632.0	5.5958374414199456e+17
19633.0	5.594832598029652e+17
19634.0	5.594096318720681e+17
19635.0	5.593062300450814e+17
19636.0	5.59209064309282e+17
19637.0	5.59070969856e+17
19638.0	5.590115328633513e+17
19639.0	5.589119045817684e+17
19640.0	5.588034283459926e+17
19641.0	5.585996854154584e+17
19642.0	5.5861363336369485e+17
19643.0	5.58513825845521e+17
19644.0	5.5840801061601274e+17
19645.0	5.582847189800276e+17
19646.0	5.582146491471188e+17
19647.0	5.581167706592596e+17
19648.0	5.5801713140258125e+17
19649.0	5.5791711207205536e+17
19650.0	5.578176461799424e+17
19651.0	5.577171308729684e+17
19652.0	5.576170912000681e+17
19653.0	5.575179853190484e+17
19654.0	5.574173847977982e+17
19655.0	5.5731710367279776e+17
19656.0	5.572177505375572e+17
19657.0	5.5711861340897274e+17
19658.0	5.570186704846847e+17
19659.0	5.569185287503871e+17
19660.0	5.568187349336064e+17
19661.0	5.5671873084238496e+17
