# Flux units: erg / (cm m2 s)
# Wavelength units: Angstrom
wave	flux
19000.0	6.522060721356799e+17
19001.0	6.520806262352553e+17
19002.0	6.519609719696042e+17
19003.0	6.518382227270314e+17
19004.0	6.517157092043434e+17
19005.0	6.515926180560896e+17
19006.0	6.514708021859667e+17
19007.0	6.513446227716778e+17
19008.0	6.512232910640468e+17
19009.0	6.511087568551936e+17
19010.0	6.509591656748371e+17
19011.0	6.50858654212642e+17
19012.0	6.50726330212898e+17
19013.0	6.506132626822484e+17
19014.0	6.504889890198867e+17
19015.0	6.503671736390995e+17
19016.0	6.502445239413417e+17
19017.0	6.501219559626068e+17
19018.0	6.500003866476541e+17
19019.0	6.498788769617236e+17
19020.0	6.497553695287978e+17
19021.0	6.496338921390079e+17
19022.0	6.49511391129327e+17
19023.0	6.493881366129321e+17
19024.0	6.492667076673535e+17
19025.0	6.491455114357417e+17
19026.0	6.490218528680617e+17
19027.0	6.488963035081386e+17
19028.0	6.487790253856084e+17
19029.0	6.486556188256937e+17
19030.0	6.485345254244351e+17
19031.0	6.484127847721642e+17
19032.0	6.482906293032276e+17
19033.0	6.481659656404991e+17
19034.0	6.480461840777215e+17
19035.0	6.479240226668543e+17
19036.0	6.475076262166511e+17
19037.0	6.476795046002687e+17
19038.0	6.475572597926569e+17
19039.0	6.474356042847572e+17
19040.0	6.473140542636031e+17
19041.0	6.471915629707263e+17
19042.0	6.470676623917055e+17
19043.0	6.469482726468265e+17
19044.0	6.468255237537791e+17
19045.0	6.46703877123823e+17
19046.0	6.465804655307433e+17
19047.0	6.464622629137066e+17
19048.0	6.463302836857513e+17
19049.0	6.46214951300847e+17
19050.0	6.460934285426687e+17
19051.0	6.45892685657975e+17
19052.0	6.458707797169492e+17
19053.0	6.457292378953043e+17
19054.0	6.456087122629972e+17
19055.0	6.45479313510673e+17
19056.0	6.453637440077823e+17
19057.0	6.452432262747476e+17
19058.0	6.451202576700756e+17
19059.0	6.450000673723732e+17
19060.0	6.448778080245076e+17
19061.0	6.447571834765311e+17
19062.0	6.446355007056553e+17
19063.0	6.445141706757459e+17
19064.0	6.443879718278484e+17
19065.0	6.44265696961058e+17
19066.0	6.441481805321556e+17
19067.0	6.440287521297748e+17
19068.0	6.439081442192042e+17
19069.0	6.437869088407551e+17
19070.0	6.436641557534036e+17
19071.0	6.435430250927444e+17
19072.0	6.434227276305748e+17
19073.0	6.433013109882879e+17
19074.0	6.431793719454378e+17
19075.0	6.430571030205779e+17
19076.0	6.429349461535401e+17
19077.0	6.428147545276415e+17
19078.0	6.426909629306195e+17
19079.0	6.425722797861545e+17
19080.0	6.424512585968297e+17
19081.0	6.423280534334121e+17
19082.0	6.422066039357439e+17
19083.0	6.420852771913727e+17
19084.0	6.419597345423359e+17
19085.0	6.418446606663679e+17
19086.0	6.41712379728145e+17
19087.0	6.415933383202131e+17
19088.0	6.414813975194281e+17
19089.0	6.413498774279508e+17
19090.0	6.412396987940863e+17
19091.0	6.411199080737449e+17
19092.0	6.409941969534976e+17
19093.0	6.4087809603229e+17
19094.0	6.407569944521386e+17
19095.0	6.40636096155921e+17
19096.0	6.405145930410665e+17
19097.0	6.403950142029823e+17
19098.0	6.402740940264788e+17
19099.0	6.401528852818602e+17
19100.0	6.400319483281408e+17
19101.0	6.399118123466751e+17
19102.0	6.397877567881215e+17
19103.0	6.396703218685268e+17
19104.0	6.39550009516578e+17
19105.0	6.39429396013602e+17
19106.0	6.393068728440148e+17
19107.0	6.391872837997908e+17
19108.0	6.390675244668244e+17
19109.0	6.389109708816381e+17
19110.0	6.388291843304106e+17
19111.0	6.387057110111572e+17
19112.0	6.385856248720042e+17
19113.0	6.384651501305855e+17
19114.0	6.383451120162131e+17
19115.0	6.382227080347647e+17
19116.0	6.381036075570516e+17
19117.0	6.379842166237865e+17
19118.0	6.378599452682922e+17
19119.0	6.376436498344614e+17
19120.0	6.37618949787921e+17
19121.0	6.37501666702131e+17
19122.0	6.373825663642282e+17
19123.0	6.372622157043027e+17
19124.0	6.37139562930722e+17
19125.0	6.370224983681705e+17
19126.0	6.369012409696255e+17
19127.0	6.367321213195601e+17
19128.0	6.366378169379497e+17
19129.0	6.365380891115519e+17
19130.0	6.364220917197482e+17
19131.0	6.363001795204435e+17
19132.0	6.361815101472765e+17
19133.0	6.360509666295807e+17
19134.0	6.359278784173396e+17
19135.0	6.358215017802409e+17
19136.0	6.357017470610089e+17
19137.0	6.355767124120916e+17
19138.0	6.354601399812095e+17
19139.0	6.3534217574045e+17
19140.0	6.352222897395028e+17
19141.0	6.35102537327138e+17
19142.0	6.349818915280211e+17
19143.0	6.348603430447785e+17
19144.0	6.347430209519615e+17
19145.0	6.346236079986003e+17
19146.0	6.344838300915028e+17
19147.0	6.343831789589843e+17
19148.0	6.342643761370451e+17
19149.0	6.341443163521023e+17
19150.0	6.340250480323241e+17
19151.0	6.339053747524948e+17
19152.0	6.337859412470441e+17
19153.0	6.336656732848127e+17
19154.0	6.33543420088593e+17
19155.0	6.334273017610237e+17
19156.0	6.333080490300755e+17
19157.0	6.331885338755071e+17
19158.0	6.330461596243284e+17
19159.0	6.32948813533457e+17
19160.0	6.32828845044531e+17
19161.0	6.327084964118528e+17
19162.0	6.325361080008703e+17
19163.0	6.324759011437225e+17
19164.0	6.323529608506026e+17
19165.0	6.322319593745065e+17
19166.0	6.32110040743936e+17
19167.0	6.319899193726291e+17
19168.0	6.318733767912105e+17
19169.0	6.317545609669289e+17
19170.0	6.316374411094697e+17
19171.0	6.315149405891242e+17
19172.0	6.313989589259603e+17
19173.0	6.312799011602431e+17
19174.0	6.311591453305514e+17
19175.0	6.310415385843028e+17
19176.0	6.309221068264788e+17
19177.0	6.307991539504468e+17
19178.0	6.306855365465428e+17
19179.0	6.30559063810594e+17
19180.0	6.30442482082338e+17
19181.0	6.30322841587985e+17
19182.0	6.302083923836928e+17
19183.0	6.300891792889171e+17
19184.0	6.299675660735828e+17
19185.0	6.298508841014612e+17
19186.0	6.297326678529364e+17
19187.0	6.296117097878867e+17
19188.0	6.29494514852386e+17
19189.0	6.293752005350739e+17
19190.0	6.292563115900928e+17
19191.0	6.291368804614143e+17
19192.0	6.290198218407935e+17
19193.0	6.28898900615714e+17
19194.0	6.287807705601363e+17
19195.0	6.286629125051731e+17
19196.0	6.28543692349986e+17
19197.0	6.284256227622911e+17
19198.0	6.283069252872873e+17
19199.0	6.278411424453971e+17
19200.0	6.279104848461824e+17
19201.0	6.279509714840234e+17
19202.0	6.278326265402708e+17
19203.0	6.277133575913471e+17
19204.0	6.275942006303402e+17
19205.0	6.274768712673962e+17
19206.0	6.273584311129427e+17
19207.0	6.272392512929791e+17
19208.0	6.271118321822378e+17
19209.0	6.270025155477501e+17
19210.0	6.268830312912212e+17
19211.0	6.267656483110911e+17
19212.0	6.266472536648361e+17
19213.0	6.265228013950291e+17
19214.0	6.264005142948521e+17
19215.0	6.262853424119807e+17
19216.0	6.261671638422868e+17
19217.0	6.260486660161533e+17
19218.0	6.259072275841023e+17
19219.0	6.258076562751487e+17
19220.0	6.256929379363498e+17
19221.0	6.255641238700031e+17
19222.0	6.254583736522068e+17
19223.0	6.253377495935657e+17
19224.0	6.252188656118442e+17
19225.0	6.25097352220945e+17
19226.0	6.249830733053951e+17
19227.0	6.248647211614208e+17
19228.0	6.247474190614528e+17
19229.0	6.246290936212137e+17
19230.0	6.245092878712831e+17
19231.0	6.243915236988244e+17
19232.0	6.242737764433919e+17
19233.0	6.241536586372436e+17
19234.0	6.240366163045034e+17
19235.0	6.239175115625812e+17
19236.0	6.23801091105314e+17
19237.0	6.23682387059234e+17
19238.0	6.235614050167466e+17
19239.0	6.234465909779114e+17
19240.0	6.233226805422762e+17
19241.0	6.231751458990764e+17
19242.0	6.22699674075136e+17
19243.0	6.225760135501139e+17
19244.0	6.224634828903764e+17
19245.0	6.223447932447401e+17
19246.0	6.222264972345344e+17
19247.0	6.221082966447444e+17
19248.0	6.219932801608361e+17
19249.0	6.218749591945215e+17
19250.0	6.217564835282943e+17
19251.0	6.216402962044243e+17
19252.0	6.215068447058602e+17
19253.0	6.21401785569553e+17
19254.0	6.21283433775104e+17
19255.0	6.211572768003412e+17
19256.0	6.210494392172543e+17
19257.0	6.209296352149503e+17
19258.0	6.208111832465407e+17
19259.0	6.206898318955859e+17
19260.0	6.205692062291284e+17
19261.0	6.204165320955222e+17
19262.0	6.202610228920319e+17
19263.0	6.201448850609492e+17
19264.0	6.200120102791849e+17
19265.0	6.199022333198333e+17
19266.0	6.197842594321748e+17
19267.0	6.196716234255018e+17
19268.0	6.195525855128233e+17
19269.0	6.19434446229777e+17
19270.0	6.193164621359785e+17
19271.0	6.191878155621718e+17
19272.0	6.190782825715027e+17
19273.0	6.18815024354645e+17
19274.0	6.1876481846586e+17
19275.0	6.187065214151337e+17
19276.0	6.185873102777001e+17
19277.0	6.18468987703569e+17
19278.0	6.183504973572778e+17
19279.0	6.18229421642001e+17
19280.0	6.1810782779037e+17
19281.0	6.179919384018943e+17
19282.0	6.178733556411049e+17
19283.0	6.177500076616361e+17
19284.0	6.176275168580948e+17
19285.0	6.175317611773951e+17
19286.0	6.174285817184256e+17
19287.0	6.173104748014249e+17
19288.0	6.172025032103256e+17
19289.0	6.16719190344771e+17
19290.0	6.169530817227433e+17
19291.0	6.168261283195562e+17
19292.0	6.167146857321812e+17
19293.0	6.165950771145385e+17
19294.0	6.164758118006783e+17
19295.0	6.163565545259008e+17
19296.0	6.162365045975721e+17
19297.0	6.161167495288147e+17
19298.0	6.159959700013056e+17
19299.0	6.158778844053503e+17
19300.0	6.157581668057085e+17
19301.0	6.15637814537967e+17
19302.0	6.155188821819391e+17
19303.0	6.153944246692521e+17
19304.0	6.151973203432788e+17
19305.0	6.149343833402026e+17
19306.0	6.148139828379647e+17
19307.0	6.146914081483434e+17
19308.0	6.145727277301759e+17
19309.0	6.144393894778195e+17
19310.0	6.143073797712553e+17
19311.0	6.142042575645353e+17
19312.0	6.140825973729961e+17
19313.0	6.139602412765183e+17
19314.0	6.135910397640668e+17
19315.0	6.135454374035476e+17
19316.0	6.135961425543167e+17
19317.0	6.134724581916672e+17
19318.0	6.133499497021439e+17
19319.0	6.132285636083712e+17
19320.0	6.131055664125267e+17
19321.0	6.129832495327914e+17
19322.0	6.128585156154708e+17
19323.0	6.12730868404497e+17
19324.0	6.126136364892159e+17
19325.0	6.124815268184063e+17
19326.0	6.123675456285353e+17
19327.0	6.12243172631074e+17
19328.0	6.121198435958783e+17
19329.0	6.119954290748074e+17
19330.0	6.118698535703892e+17
19331.0	6.117816086298623e+17
19332.0	6.116583034322943e+17
19333.0	6.115310094516223e+17
19334.0	6.114065859827028e+17
19335.0	6.112810979994282e+17
19336.0	6.111527553728511e+17
19337.0	6.110060381995008e+17
19338.0	6.108733190963199e+17
19339.0	6.107460200824831e+17
19340.0	6.106121218905427e+17
19341.0	6.104900912720553e+17
19342.0	6.103473357586431e+17
19343.0	6.102314854470995e+17
19344.0	6.10101835665681e+17
19345.0	6.098776024416251e+17
19346.0	6.098578056762711e+17
19347.0	6.097099582778025e+17
19348.0	6.09580235096064e+17
19349.0	6.094470849582419e+17
19350.0	6.093235669696511e+17
19351.0	6.092080435341993e+17
19352.0	6.090749141581823e+17
19353.0	6.089433108796756e+17
19354.0	6.08740018557201e+17
19355.0	6.085616559194111e+17
19356.0	6.084281844279978e+17
19357.0	6.082913606391124e+17
19358.0	6.081939902212777e+17
19359.0	6.080389068095487e+17
19360.0	6.079068941669716e+17
19361.0	6.077658544734205e+17
19362.0	6.076458740307284e+17
19363.0	6.075091365046956e+17
19364.0	6.07364290060834e+17
19365.0	6.072152582608212e+17
19366.0	6.07068465799714e+17
19367.0	6.069220885747027e+17
19368.0	6.067757669941247e+17
19369.0	6.066260467690153e+17
19370.0	6.064291887185919e+17
19371.0	6.062879762896211e+17
19372.0	6.061363196242601e+17
19373.0	6.05980510528034e+17
19374.0	6.058243154859348e+17
19375.0	6.056661646398804e+17
19376.0	6.05505741389824e+17
19377.0	6.053318533054463e+17
19378.0	6.051348453785599e+17
19379.0	6.049681296239274e+17
19380.0	6.047990987532969e+17
19381.0	6.046268716133034e+17
19382.0	6.044496880642729e+17
19383.0	6.042360639826602e+17
19384.0	6.040450474093226e+17
19385.0	6.038610562951849e+17
19386.0	6.036745018321578e+17
19387.0	6.03448978510097e+17
19388.0	6.032002014074195e+17
19389.0	6.030023670628351e+17
19390.0	6.027905675733673e+17
19391.0	6.021499849452193e+17
19392.0	6.0218491273216e+17
19393.0	6.019248341472595e+17
19394.0	6.016748388089855e+17
19395.0	6.014459251610964e+17
19396.0	6.012125655509674e+17
19397.0	6.009701001068544e+17
19398.0	6.007167538692095e+17
19399.0	6.004049612636157e+17
19400.0	6.001615893605033e+17
19401.0	5.998867062106793e+17
19402.0	5.995402002868906e+17
19403.0	5.991808704883369e+17
19404.0	5.988775376541012e+17
19405.0	5.985202406948863e+17
19406.0	5.981823269426516e+17
19407.0	5.978375858421759e+17
19408.0	5.972363641006765e+17
19409.0	5.967559192302932e+17
19410.0	5.963467285244586e+17
19411.0	5.959097853673468e+17
19412.0	5.952111674829482e+17
19413.0	5.947421557959337e+17
19414.0	5.93976618769886e+17
19415.0	5.93164263943919e+17
19416.0	5.923322028796584e+17
19417.0	5.914944629374973e+17
19418.0	5.902628475808428e+17
19419.0	5.891421505934682e+17
19420.0	5.877623332798465e+17
19421.0	5.858696549979473e+17
19422.0	5.838983821699757e+17
19423.0	5.821197056999427e+17
19424.0	5.810585848862034e+17
19425.0	5.80444089570645e+17
19426.0	5.799694780683603e+17
19427.0	5.796665841680384e+17
19428.0	5.799122650355014e+17
19429.0	5.797466050570922e+17
19430.0	5.78358490571298e+17
19431.0	5.765448803723949e+17
19432.0	5.74580118991667e+17
19433.0	5.7257518610513926e+17
19434.0	5.707590198973778e+17
19435.0	5.6847746860755616e+17
19436.0	5.657125049073662e+17
19437.0	5.6238410867671014e+17
19438.0	5.5868743326105504e+17
19439.0	5.5479342136470214e+17
19440.0	5.48163707399918e+17
19441.0	5.4396672037355514e+17
19442.0	5.43481116858777e+17
19443.0	5.382688603810474e+17
19444.0	5.312308426659151e+17
19445.0	5.248537996558342e+17
19446.0	5.1372852377900294e+17
19447.0	5.036235788298915e+17
19448.0	4.916571879243787e+17
19449.0	4.7214932070673254e+17
19450.0	4.371883463365985e+17
19451.0	4.2539032059576275e+17
19452.0	4.5729225155543085e+17
19453.0	4.823347332382727e+17
19454.0	4.985714095685623e+17
19455.0	5.069373793020563e+17
19456.0	5.194732648355163e+17
19457.0	5.272827468272982e+17
19458.0	5.3284809561429536e+17
19459.0	5.4029331656430925e+17
19460.0	5.4203129633177824e+17
19461.0	5.433876153368578e+17
19462.0	5.497114119372819e+17
19463.0	5.5482506529122874e+17
19464.0	5.583538383137442e+17
19465.0	5.61256092209425e+17
19466.0	5.642331788498262e+17
19467.0	5.664367580981931e+17
19468.0	5.682399104991231e+17
19469.0	5.6985590333876896e+17
19470.0	5.717328090103811e+17
19471.0	5.73403668239701e+17
19472.0	5.7475586969654624e+17
19473.0	5.753727965200386e+17
19474.0	5.749641008818866e+17
19475.0	5.748097365136722e+17
19476.0	5.7495639881154534e+17
19477.0	5.753600727493286e+17
19478.0	5.7579269325673805e+17
19479.0	5.7702829718678e+17
19480.0	5.789279785582592e+17
19481.0	5.8044465034909e+17
19482.0	5.818893563417939e+17
19483.0	5.828645280372055e+17
19484.0	5.838594594482857e+17
19485.0	5.845726514206038e+17
19486.0	5.852630679027711e+17
19487.0	5.856687855151782e+17
19488.0	5.864508595634173e+17
19489.0	5.867480523560276e+17
19490.0	5.870119077718696e+17
19491.0	5.87443296412194e+17
19492.0	5.876228300996607e+17
19493.0	5.878215648914089e+17
19494.0	5.881375427832489e+17
19495.0	5.883978473712298e+17
19496.0	5.884989318452563e+17
19497.0	5.886280388138324e+17
19498.0	5.888562351658327e+17
19499.0	5.881489917651603e+17
19500.0	5.889609444272809e+17
19501.0	5.890538470025898e+17
19502.0	5.890973610890579e+17
19503.0	5.891395636166655e+17
19504.0	5.891954651605674e+17
19505.0	5.892173849427967e+17
19506.0	5.892347232867667e+17
19507.0	5.892412669602473e+17
19508.0	5.89241965871104e+17
19509.0	5.892680319325524e+17
19510.0	5.892613631290025e+17
19511.0	5.887153902977004e+17
19512.0	5.89461479314772e+17
19513.0	5.892417444817572e+17
19514.0	5.893274898967209e+17
19515.0	5.893589064919724e+17
19516.0	5.894114816731818e+17
19517.0	5.893687542983338e+17
19518.0	5.893292993194665e+17
19519.0	5.892837275773609e+17
19520.0	5.89277601866274e+17
19521.0	5.892326396264447e+17
19522.0	5.891775097645738e+17
19523.0	5.891228447713961e+17
19524.0	5.890646144101034e+17
19525.0	5.890032123161257e+17
19526.0	5.889802536747005e+17
19527.0	5.889176178961066e+17
19528.0	5.888513171346772e+17
19529.0	5.887830961509716e+17
19530.0	5.887144676207273e+17
19531.0	5.886433971666943e+17
19532.0	5.885706231960916e+17
19533.0	5.884967370358783e+17
19534.0	5.884357754137257e+17
19535.0	5.883762766249983e+17
19536.0	5.882985697334612e+17
19537.0	5.882209316285098e+17
19538.0	5.881474351890431e+17
19539.0	5.880350692955479e+17
19540.0	5.879782936586921e+17
19541.0	5.879004447899648e+17
19542.0	5.878163287922003e+17
19543.0	5.877260977089193e+17
19544.0	5.876260437054804e+17
19545.0	5.875421378423462e+17
19546.0	5.874122676502528e+17
19547.0	5.873653124169727e+17
19548.0	5.8729081339904e+17
19549.0	5.872099379904511e+17
19550.0	5.871237618903721e+17
19551.0	5.870336170000384e+17
19552.0	5.869434513478995e+17
19553.0	5.868603945517055e+17
19554.0	5.867667052647764e+17
19555.0	5.866738051361449e+17
19556.0	5.865814380336468e+17
19557.0	5.864880085139455e+17
19558.0	5.863721814108841e+17
19559.0	5.862602515152896e+17
19560.0	5.861654359179263e+17
19561.0	5.86070766911488e+17
19562.0	5.859759014019071e+17
19563.0	5.858806085626537e+17
19564.0	5.857847555741011e+17
19565.0	5.857100129370111e+17
19566.0	5.856264781998761e+17
19567.0	5.855310580634964e+17
19568.0	5.854469442327892e+17
19569.0	5.85349105590818e+17
19570.0	5.852527135642964e+17
19571.0	5.851549562219178e+17
19572.0	5.85054528995328e+17
19573.0	5.849580137960788e+17
19574.0	5.84855052231202e+17
19575.0	5.847671317899946e+17
19576.0	5.846673983012863e+17
19577.0	5.845653164916736e+17
19578.0	5.844678069627562e+17
19579.0	5.843829336134995e+17
19580.0	5.842874998456319e+17
19581.0	5.841871070123348e+17
19582.0	5.840874706217642e+17
19583.0	5.839868844310527e+17
19584.0	5.838865092837375e+17
19585.0	5.837812532248576e+17
19586.0	5.836799415593642e+17
19587.0	5.835804535073449e+17
19588.0	5.834679123618473e+17
19589.0	5.833761620317526e+17
19590.0	5.832421571646803e+17
19591.0	5.83143100916258e+17
19592.0	5.830417980588032e+17
19593.0	5.82939320656418e+17
19594.0	5.828275774073513e+17
19595.0	5.827375603733844e+17
19596.0	5.825794749584724e+17
19597.0	5.82534591291938e+17
19598.0	5.824197961973759e+17
19599.0	5.823261631141204e+17
19600.0	5.822237637257897e+17
19601.0	5.821191166099455e+17
19602.0	5.820185847354708e+17
19603.0	5.818964136077993e+17
19604.0	5.818135332519936e+17
19605.0	5.816993913503744e+17
19606.0	5.816059156234237e+17
19607.0	5.815033741180927e+17
19608.0	5.813994880587092e+17
19609.0	5.812951045548714e+17
19610.0	5.811936316183892e+17
19611.0	5.810895680700415e+17
19612.0	5.80986823840017e+17
19613.0	5.808829637853183e+17
19614.0	5.807784920612864e+17
19615.0	5.806765495025663e+17
19616.0	5.805693292511231e+17
19617.0	5.804687443187028e+17
19618.0	5.80355018002705e+17
19619.0	5.802373184924328e+17
19620.0	5.801380921649833e+17
19621.0	5.800531956771497e+17
19622.0	5.799498173382655e+17
19623.0	5.798460100618922e+17
19624.0	5.797412934604116e+17
19625.0	5.796380040407722e+17
19626.0	5.795336550700372e+17
19627.0	5.794301279731712e+17
19628.0	5.793182632990038e+17
19629.0	5.792192404652031e+17
19630.0	5.791687851551402e+17
19631.0	5.786278709340832e+17
19632.0	5.789091182411776e+17
19633.0	5.788039543870804e+17
19634.0	5.787010136539135e+17
19635.0	5.785955595539796e+17
19636.0	5.784918169397929e+17
19637.0	5.783768711299072e+17
19638.0	5.782838172800342e+17
19639.0	5.781800228661929e+17
19640.0	5.780794296849747e+17
19641.0	5.77943453355213e+17
19642.0	5.778656088205994e+17
19643.0	5.777611580680874e+17
19644.0	5.776560167234218e+17
19645.0	5.775652712786601e+17
19646.0	5.776408999624703e+17
19647.0	5.775364046804308e+17
19648.0	5.774314849348266e+17
19649.0	5.773268425026218e+17
19650.0	5.772227784649386e+17
19651.0	5.771176641735337e+17
19652.0	5.770130261453481e+17
19653.0	5.769086457872383e+17
19654.0	5.768038080402771e+17
19655.0	5.76699316183586e+17
19656.0	5.765951466591572e+17
19657.0	5.764902557144403e+17
19658.0	5.763900022718463e+17
19659.0	5.7628732564002125e+17
19660.0	5.7618281462934176e+17
19661.0	5.760782437100202e+17
19662.0	5.759736811094015e+17
19663.0	5.758681250878804e+17
19664.0	5.7576229944251725e+17
19665.0	5.756599921191593e+17
