# Flux units: erg / (cm m2 s)
# Wavelength units: Angstrom
wave	flux
19000.0	4.872032871251966e+17
19001.0	4.871036284349098e+17
19002.0	4.870235639250943e+17
19003.0	4.8693324182541645e+17
19004.0	4.868434113680723e+17
19005.0	4.8675290115386016e+17
19006.0	4.8666394471956474e+17
19007.0	4.865721149773139e+17
19008.0	4.864775230761642e+17
19009.0	4.8638094097776634e+17
19010.0	4.862574652817406e+17
19011.0	4.8620975004057594e+17
19012.0	4.861050096713727e+17
19013.0	4.860338867186347e+17
19014.0	4.8593909349089274e+17
19015.0	4.858503218156885e+17
19016.0	4.857585811324927e+17
19017.0	4.85674496102673e+17
19018.0	4.8558379350971725e+17
19019.0	4.8549454969569274e+17
19020.0	4.8540344347088205e+17
19021.0	4.8531549262097056e+17
19022.0	4.852254095267156e+17
19023.0	4.8513275043075405e+17
19024.0	4.850444490069332e+17
19025.0	4.849557447901183e+17
19026.0	4.848635185463296e+17
19027.0	4.847659546312704e+17
19028.0	4.8468772883442336e+17
19029.0	4.845963057299455e+17
19030.0	4.845094640637269e+17
19031.0	4.844199372739925e+17
19032.0	4.8432963272048634e+17
19033.0	4.8423170984290976e+17
19034.0	4.841498680666794e+17
19035.0	4.8405677800598176e+17
19036.0	4.830238171900587e+17
19037.0	4.8388102066012154e+17
19038.0	4.8379049269002234e+17
19039.0	4.837029330288639e+17
19040.0	4.8361381742073165e+17
19041.0	4.835232207339519e+17
19042.0	4.83422946529553e+17
19043.0	4.8334535274441376e+17
19044.0	4.832546791620607e+17
19045.0	4.8316602513708365e+17
19046.0	4.8307087742074874e+17
19047.0	4.829843522846719e+17
19048.0	4.828760442404863e+17
19049.0	4.8279616183336954e+17
19050.0	4.8271442002138445e+17
19051.0	4.8250713681865363e+17
19052.0	4.825105586017619e+17
19053.0	4.824506850519721e+17
19054.0	4.823616208240638e+17
19055.0	4.822469082873856e+17
19056.0	4.821801898431828e+17
19057.0	4.8209327477664416e+17
19058.0	4.82000600371473e+17
19059.0	4.819136702753449e+17
19060.0	4.8182386162838176e+17
19061.0	4.8173708091938125e+17
19062.0	4.816473293848575e+17
19063.0	4.8155831017581216e+17
19064.0	4.814564040376319e+17
19065.0	4.8136376542385485e+17
19066.0	4.8128479520795296e+17
19067.0	4.8120034618245114e+17
19068.0	4.811126303533738e+17
19069.0	4.8102363022841165e+17
19070.0	4.809316918536874e+17
19071.0	4.8084466528856736e+17
19072.0	4.8075507034139296e+17
19073.0	4.806669162075477e+17
19074.0	4.8057840961235616e+17
19075.0	4.8048938376232954e+17
19076.0	4.803984093085696e+17
19077.0	4.8030942225585485e+17
19078.0	4.802188298332842e+17
19079.0	4.8013311762322765e+17
19080.0	4.800427282748757e+17
19081.0	4.799516143605077e+17
19082.0	4.7986237893509114e+17
19083.0	4.797683883573247e+17
19084.0	4.7966815539691514e+17
19085.0	4.795984844423168e+17
19086.0	4.794759886755157e+17
19087.0	4.7939569117211296e+17
19088.0	4.793235139111594e+17
19089.0	4.792170226297514e+17
19090.0	4.7915325075401376e+17
19091.0	4.790637241739947e+17
19092.0	4.7896691844928845e+17
19093.0	4.788894799233023e+17
19094.0	4.788005792732499e+17
19095.0	4.7871181409921696e+17
19096.0	4.786216589328383e+17
19097.0	4.7853423013396474e+17
19098.0	4.7844450047972685e+17
19099.0	4.783551239858858e+17
19100.0	4.7826598370126496e+17
19101.0	4.781787010039807e+17
19102.0	4.780794519573845e+17
19103.0	4.7800248277401594e+17
19104.0	4.779142368548181e+17
19105.0	4.7782274223745696e+17
19106.0	4.777328945135615e+17
19107.0	4.7764583341533856e+17
19108.0	4.775589212149075e+17
19109.0	4.774109436532053e+17
19110.0	4.7738032747096736e+17
19111.0	4.772936856633343e+17
19112.0	4.7720511936921594e+17
19113.0	4.771172822548479e+17
19114.0	4.770284007587839e+17
19115.0	4.7693460731330554e+17
19116.0	4.7685031746164045e+17
19117.0	4.7676176598739616e+17
19118.0	4.766627404272981e+17
19119.0	4.758054362240332e+17
19120.0	4.76491041350178e+17
19121.0	4.7640510872944634e+17
19122.0	4.7632235238522874e+17
19123.0	4.762340205527039e+17
19124.0	4.761422886775466e+17
19125.0	4.760567615761065e+17
19126.0	4.7596872711973536e+17
19127.0	4.756964115830102e+17
19128.0	4.757778096018773e+17
19129.0	4.7569764512781645e+17
19130.0	4.7561409179593376e+17
19131.0	4.7552774310024525e+17
19132.0	4.7543957827092474e+17
19133.0	4.7533898194397856e+17
19134.0	4.752565740765183e+17
19135.0	4.751749381707093e+17
19136.0	4.750876208005119e+17
19137.0	4.749831857766398e+17
19138.0	4.749091963666432e+17
19139.0	4.748232754200576e+17
19140.0	4.7473541985075194e+17
19141.0	4.746473176563711e+17
19142.0	4.7455697269773645e+17
19143.0	4.7446573686893216e+17
19144.0	4.7437936852991994e+17
19145.0	4.742953439679829e+17
19146.0	4.741500011282432e+17
19147.0	4.7410688501131936e+17
19148.0	4.740301793001472e+17
19149.0	4.7394157735444474e+17
19150.0	4.738549553299456e+17
19151.0	4.737673496013482e+17
19152.0	4.7367863364048205e+17
19153.0	4.735884022775807e+17
19154.0	4.734911053998762e+17
19155.0	4.734165758334292e+17
19156.0	4.733285016010751e+17
19157.0	4.7323929756303354e+17
19158.0	4.731098440750419e+17
19159.0	4.730635053345449e+17
19160.0	4.7297589030857376e+17
19161.0	4.728884504646996e+17
19162.0	4.72707536781312e+17
19163.0	4.7271047202515616e+17
19164.0	4.7262663515832314e+17
19165.0	4.7253389147723085e+17
19166.0	4.724359623781033e+17
19167.0	4.7235480000921594e+17
19168.0	4.7227422148744525e+17
19169.0	4.721853350980266e+17
19170.0	4.72100729065745e+17
19171.0	4.7200710339242656e+17
19172.0	4.7192516682492576e+17
19173.0	4.718377228566527e+17
19174.0	4.7174454359709e+17
19175.0	4.716626593884842e+17
19176.0	4.715750635864063e+17
19177.0	4.714729011762517e+17
19178.0	4.7139779160746656e+17
19179.0	4.7130450539315194e+17
19180.0	4.712235611280724e+17
19181.0	4.7112467950250656e+17
19182.0	4.710471448570537e+17
19183.0	4.709628749982378e+17
19184.0	4.7087381398596256e+17
19185.0	4.7078697399746554e+17
19186.0	4.707004410320212e+17
19187.0	4.706071913081514e+17
19188.0	4.7052538867875834e+17
19189.0	4.704380212565332e+17
19190.0	4.7035014254865056e+17
19191.0	4.7026015326699514e+17
19192.0	4.701762151077204e+17
19193.0	4.700877932374698e+17
19194.0	4.700000363042132e+17
19195.0	4.6991421986570234e+17
19196.0	4.6982531551068154e+17
19197.0	4.6973872711051936e+17
19198.0	4.696517295560021e+17
19199.0	4.6901956692322963e+17
19200.0	4.690921909474647e+17
19201.0	4.693901109624832e+17
19202.0	4.693033586349397e+17
19203.0	4.69214610657553e+17
19204.0	4.691263934693375e+17
19205.0	4.6904053278091936e+17
19206.0	4.6895273935721805e+17
19207.0	4.688545790820351e+17
19208.0	4.6875768744400205e+17
19209.0	4.686918571436713e+17
19210.0	4.686045834641407e+17
19211.0	4.68518602608913e+17
19212.0	4.6843152515290445e+17
19213.0	4.683329622245374e+17
19214.0	4.6824065733754874e+17
19215.0	4.681678100365311e+17
19216.0	4.680826811842559e+17
19217.0	4.679951872338603e+17
19218.0	4.6782505934301843e+17
19219.0	4.6780791302826656e+17
19220.0	4.6773183709184e+17
19221.0	4.6761522998804486e+17
19222.0	4.6755830489415674e+17
19223.0	4.6747088231683405e+17
19224.0	4.6738123235437216e+17
19225.0	4.672834630582271e+17
19226.0	4.6720967322719565e+17
19227.0	4.6712247944915616e+17
19228.0	4.670375126368255e+17
19229.0	4.669504021157205e+17
19230.0	4.668629578678271e+17
19231.0	4.6677512040393376e+17
19232.0	4.6668803896333645e+17
19233.0	4.6659549954484896e+17
19234.0	4.665126707789823e+17
19235.0	4.664252858804906e+17
19236.0	4.6634082608960845e+17
19237.0	4.662521499746302e+17
19238.0	4.661570283328853e+17
19239.0	4.6607962119427405e+17
19240.0	4.65989603041826e+17
19241.0	4.65902545998097e+17
19242.0	4.658164376360276e+17
19243.0	4.6571692490751994e+17
19244.0	4.6564439371721376e+17
19245.0	4.6555687802634234e+17
19246.0	4.6546847020701e+17
19247.0	4.6538225971363834e+17
19248.0	4.652961133931178e+17
19249.0	4.6520826313659725e+17
19250.0	4.651194827232597e+17
19251.0	4.650205704093695e+17
19252.0	4.649236845734569e+17
19253.0	4.6485795745300474e+17
19254.0	4.647728966882645e+17
19255.0	4.646706032061097e+17
19256.0	4.645940219259561e+17
19257.0	4.645119525388287e+17
19258.0	4.6442471094572365e+17
19259.0	4.643315208508757e+17
19260.0	4.642298176471039e+17
19261.0	4.641616491621034e+17
19262.0	4.6407044185456634e+17
19263.0	4.6398087263245645e+17
19264.0	4.638446537321129e+17
19265.0	4.6379209665631565e+17
19266.0	4.6369887216817485e+17
19267.0	4.636396299310421e+17
19268.0	4.635516434295466e+17
19269.0	4.6346454695936e+17
19270.0	4.633771422078293e+17
19271.0	4.632549280186368e+17
19272.0	4.6319925709154976e+17
19273.0	4.6300394960541e+17
19274.0	4.629480770721108e+17
19275.0	4.629404309258238e+17
19276.0	4.6285096502340256e+17
19277.0	4.627640028408491e+17
19278.0	4.626765617386836e+17
19279.0	4.625877254012927e+17
19280.0	4.624932364703059e+17
19281.0	4.624131093255508e+17
19282.0	4.62327342100207e+17
19283.0	4.622307553880746e+17
19284.0	4.6214570650719565e+17
19285.0	4.620465895112702e+17
19286.0	4.619726900690943e+17
19287.0	4.6188815806627834e+17
19288.0	4.615018840588284e+17
19289.0	4.611268186996728e+17
19290.0	4.6162448013940045e+17
19291.0	4.6151251731851936e+17
19292.0	4.6144821199721805e+17
19293.0	4.613595079901183e+17
19294.0	4.612710908734121e+17
19295.0	4.611837813325823e+17
19296.0	4.610936293818366e+17
19297.0	4.610044941303807e+17
19298.0	4.609158246563839e+17
19299.0	4.6082872951439354e+17
19300.0	4.6074069694545914e+17
19301.0	4.6065238161053005e+17
19302.0	4.605621499680085e+17
19303.0	4.6046834058417485e+17
19304.0	4.603828427729578e+17
19305.0	4.6029562131251194e+17
19306.0	4.6020750457787725e+17
19307.0	4.6011417830795936e+17
19308.0	4.6002680648171514e+17
19309.0	4.59918541988386e+17
19310.0	4.5982264209353376e+17
19311.0	4.597560824037376e+17
19312.0	4.5967128567043405e+17
19313.0	4.595823982324394e+17
19314.0	4.580251645859171e+17
19315.0	4.5801660701737043e+17
19316.0	4.593093695242239e+17
19317.0	4.5922214379956896e+17
19318.0	4.5913159408899405e+17
19319.0	4.590427494329002e+17
19320.0	4.5895146390159354e+17
19321.0	4.58860560261666e+17
19322.0	4.587619230941183e+17
19323.0	4.586710493036543e+17
19324.0	4.5858792407039994e+17
19325.0	4.5847763722349216e+17
19326.0	4.5840614817791994e+17
19327.0	4.5831302470260045e+17
19328.0	4.5822024152514554e+17
19329.0	4.581310217584639e+17
19330.0	4.5803511857807354e+17
19331.0	4.5794206549715616e+17
19332.0	4.578533172401493e+17
19333.0	4.577595662270463e+17
19334.0	4.576677740937215e+17
19335.0	4.5757005652732576e+17
19336.0	4.5748066171835725e+17
19337.0	4.5738714306969594e+17
19338.0	4.572729338494975e+17
19339.0	4.571990893527039e+17
19340.0	4.5708891749963085e+17
19341.0	4.570013908336639e+17
19342.0	4.568756605594281e+17
19343.0	4.568189462992213e+17
19344.0	4.567214738898944e+17
19345.0	4.564301919201959e+17
19346.0	4.564262982079827e+17
19347.0	4.564250214618453e+17
19348.0	4.563375689651541e+17
19349.0	4.562364606534997e+17
19350.0	4.561380889853951e+17
19351.0	4.5603972109216416e+17
19352.0	4.5593461672727885e+17
19353.0	4.558450561034921e+17
19354.0	4.557456139091966e+17
19355.0	4.5563586043794765e+17
19356.0	4.5554425131608736e+17
19357.0	4.554430626136063e+17
19358.0	4.5534003191261856e+17
19359.0	4.552308181783893e+17
19360.0	4.551291506262015e+17
19361.0	4.550280098086911e+17
19362.0	4.5492735343329274e+17
19363.0	4.548219759493119e+17
19364.0	4.547158404147881e+17
19365.0	4.5460955129883296e+17
19366.0	4.5450208987490976e+17
19367.0	4.543938916515839e+17
19368.0	4.54284910141986e+17
19369.0	4.541687999933098e+17
19370.0	4.5405164539303245e+17
19371.0	4.539470579761151e+17
19372.0	4.538389152574121e+17
19373.0	4.5372295232880634e+17
19374.0	4.536092850825898e+17
19375.0	4.534933017417045e+17
19376.0	4.533761663653204e+17
19377.0	4.532563353796607e+17
19378.0	4.531365905869481e+17
19379.0	4.5301545929714336e+17
19380.0	4.5289251977297914e+17
19381.0	4.5276778718385485e+17
19382.0	4.526356437488981e+17
19383.0	4.5250336700497914e+17
19384.0	4.523841016212138e+17
19385.0	4.5225372671453856e+17
19386.0	4.52121155740194e+17
19387.0	4.519861420032e+17
19388.0	4.518490821449046e+17
19389.0	4.5170981622251514e+17
19390.0	4.515683445156521e+17
19391.0	4.5058577294950304e+17
19392.0	4.512436754666835e+17
19393.0	4.511303413181098e+17
19394.0	4.509780187370838e+17
19395.0	4.5082261970397856e+17
19396.0	4.5066644912865254e+17
19397.0	4.505083063915861e+17
19398.0	4.503422222991359e+17
19399.0	4.501038864968361e+17
19400.0	4.499987722753364e+17
19401.0	4.498357380011349e+17
19402.0	4.4966042678941005e+17
19403.0	4.4947824356010656e+17
19404.0	4.492961435877375e+17
19405.0	4.491072941413717e+17
19406.0	4.4891687469711354e+17
19407.0	4.487210185960106e+17
19408.0	4.484343457469783e+17
19409.0	4.482665543630847e+17
19410.0	4.480601553895423e+17
19411.0	4.4784609468088314e+17
19412.0	4.4762661723832314e+17
19413.0	4.47402535218927e+17
19414.0	4.471713899915946e+17
19415.0	4.4694052725063674e+17
19416.0	4.4668558249383245e+17
19417.0	4.4644923108666016e+17
19418.0	4.462098533493419e+17
19419.0	4.4595360612133536e+17
19420.0	4.456929993337513e+17
19421.0	4.454021778287274e+17
19422.0	4.4506012702474234e+17
19423.0	4.4478114177570125e+17
19424.0	4.44491708375586e+17
19425.0	4.441931181806932e+17
19426.0	4.437748735104339e+17
19427.0	4.43426140201506e+17
19428.0	4.4302540381443405e+17
19429.0	4.4255658590426445e+17
19430.0	4.419967366376106e+17
19431.0	4.412649217458178e+17
19432.0	4.406386013590871e+17
19433.0	4.396279879346859e+17
19434.0	4.381753709953026e+17
19435.0	4.36000614444782e+17
19436.0	4.339503456059389e+17
19437.0	4.328835631808512e+17
19438.0	4.301102094745606e+17
19439.0	4.300994793264468e+17
19440.0	4.286775718925652e+17
19441.0	4.2701985901008205e+17
19442.0	4.251633677150889e+17
19443.0	4.228596243628032e+17
19444.0	4.1895429651387744e+17
19445.0	4.113051197024936e+17
19446.0	4.0584459349306016e+17
19447.0	4.000002354096808e+17
19448.0	3.923222203815254e+17
19449.0	3.740209696298326e+17
19450.0	3.2596938439611686e+17
19451.0	3.064862515833497e+17
19452.0	3.5555104455830426e+17
19453.0	3.844223114324651e+17
19454.0	3.964603753736873e+17
19455.0	4.025474885178708e+17
19456.0	4.078393322635266e+17
19457.0	4.1444806869647405e+17
19458.0	4.161364274708519e+17
19459.0	4.2255250148556966e+17
19460.0	4.247857966088189e+17
19461.0	4.2639596027467085e+17
19462.0	4.277917578865323e+17
19463.0	4.2913347735825056e+17
19464.0	4.3029202206719994e+17
19465.0	4.3131787241936205e+17
19466.0	4.325332855291897e+17
19467.0	4.3473659983735514e+17
19468.0	4.363309305648474e+17
19469.0	4.372851701667151e+17
19470.0	4.380373608475304e+17
19471.0	4.385874678644736e+17
19472.0	4.389910511353854e+17
19473.0	4.39262191358225e+17
19474.0	4.3960375289664845e+17
19475.0	4.396818176322217e+17
19476.0	4.4000165435364685e+17
19477.0	4.401976477483008e+17
19478.0	4.403310912776874e+17
19479.0	4.4045257146367994e+17
19480.0	4.405760101799253e+17
19481.0	4.40758108754193e+17
19482.0	4.4086232784131405e+17
19483.0	4.4095992223498234e+17
19484.0	4.410484270126421e+17
19485.0	4.4112610097889274e+17
19486.0	4.412024298318507e+17
19487.0	4.412797751743828e+17
19488.0	4.413472265732095e+17
19489.0	4.4138890565167763e+17
19490.0	4.413207152863913e+17
19491.0	4.4151390548787194e+17
19492.0	4.415647200400725e+17
19493.0	4.416069314456234e+17
19494.0	4.416689519198208e+17
19495.0	4.417223908480341e+17
19496.0	4.417054919273129e+17
19497.0	4.4177233123737594e+17
19498.0	4.416275863655763e+17
19499.0	4.404934383151785e+17
19500.0	4.418253340278783e+17
19501.0	4.4183442343417165e+17
19502.0	4.4183959773730125e+17
19503.0	4.418431236090537e+17
19504.0	4.418422729342976e+17
19505.0	4.4183778062499834e+17
19506.0	4.418313714488661e+17
19507.0	4.4181907934194336e+17
19508.0	4.4180874443707725e+17
19509.0	4.417930518680917e+17
19510.0	4.4175351551972685e+17
19511.0	4.3926837152535834e+17
19512.0	4.4148509844875936e+17
19513.0	4.413078550609914e+17
19514.0	4.413833862971388e+17
19515.0	4.415978950273707e+17
19516.0	4.4161596982121805e+17
19517.0	4.4157874684122445e+17
19518.0	4.4155015685734394e+17
19519.0	4.4151233353263776e+17
19520.0	4.414706954185387e+17
19521.0	4.4143548269854714e+17
19522.0	4.4139031123285325e+17
19523.0	4.413503270726314e+17
19524.0	4.4130527829032954e+17
19525.0	4.412595387061589e+17
19526.0	4.412138547664212e+17
19527.0	4.411650520121342e+17
19528.0	4.411150551394985e+17
19529.0	4.410642632365398e+17
19530.0	4.410144131645438e+17
19531.0	4.409618439252649e+17
19532.0	4.409082974830591e+17
19533.0	4.408538184373587e+17
19534.0	4.407980718729898e+17
19535.0	4.4074081591842125e+17
19536.0	4.406810763766442e+17
19537.0	4.4062727764705274e+17
19538.0	4.405513340409173e+17
19539.0	4.40455223312384e+17
19540.0	4.404466154121898e+17
19541.0	4.403877819099818e+17
19542.0	4.403264002981887e+17
19543.0	4.402629978707284e+17
19544.0	4.402021721440255e+17
19545.0	4.400838015451136e+17
19546.0	4.3998669606748154e+17
19547.0	4.4001206126073165e+17
19548.0	4.399468111025493e+17
19549.0	4.3987344203011405e+17
19550.0	4.398166624086697e+17
19551.0	4.3975097890897914e+17
19552.0	4.3968447185769805e+17
19553.0	4.3961490443250336e+17
19554.0	4.39546639618321e+17
19555.0	4.394812837636778e+17
19556.0	4.3941496524636154e+17
19557.0	4.393464035453611e+17
19558.0	4.3927772209698125e+17
19559.0	4.3920874278311245e+17
19560.0	4.391368663236607e+17
19561.0	4.3906777572092576e+17
19562.0	4.3900008321952416e+17
19563.0	4.3893071775006714e+17
19564.0	4.3886040227075405e+17
19565.0	4.3878982926117536e+17
19566.0	4.387160067145727e+17
19567.0	4.386477351195989e+17
19568.0	4.38574325502225e+17
19569.0	4.3850297857365325e+17
19570.0	4.3843345448959994e+17
19571.0	4.3836071847744845e+17
19572.0	4.382863944318975e+17
19573.0	4.382143340522153e+17
19574.0	4.381366393241599e+17
19575.0	4.380718817170773e+17
19576.0	4.3799875668322976e+17
19577.0	4.379223357652991e+17
19578.0	4.3784842492859725e+17
19579.0	4.377772083030698e+17
19580.0	4.377036015534079e+17
19581.0	4.3763126001554765e+17
19582.0	4.3755925024713376e+17
19583.0	4.374854351104681e+17
19584.0	4.374102675903828e+17
19585.0	4.373271793369087e+17
19586.0	4.3724963378626554e+17
19587.0	4.3718538341034656e+17
19588.0	4.370655226451286e+17
19589.0	4.3703777452796576e+17
19590.0	4.369535893241855e+17
19591.0	4.3689311410148685e+17
19592.0	4.3681887624888314e+17
19593.0	4.3674220360280736e+17
19594.0	4.366471766824276e+17
19595.0	4.365886720835583e+17
19596.0	4.364872401114453e+17
19597.0	4.364405012343466e+17
19598.0	4.363186406948863e+17
19599.0	4.362926102151168e+17
19600.0	4.3621799585382394e+17
19601.0	4.3613578351083514e+17
19602.0	4.360603450387114e+17
19603.0	4.359421980661076e+17
19604.0	4.359089168930134e+17
19605.0	4.358113353618772e+17
19606.0	4.3576329988560205e+17
19607.0	4.3568829342679034e+17
19608.0	4.3561043176543565e+17
19609.0	4.355313000688297e+17
19610.0	4.354592689793706e+17
19611.0	4.353818816238933e+17
19612.0	4.3530823663616e+17
19613.0	4.3523112512607565e+17
19614.0	4.351522320853674e+17
19615.0	4.350793251553278e+17
19616.0	4.349953456122539e+17
19617.0	4.349246806775125e+17
19618.0	4.347879707639807e+17
19619.0	4.346996523532287e+17
19620.0	4.346273164776787e+17
19621.0	4.34619948273937e+17
19622.0	4.3454534174201165e+17
19623.0	4.344687640969215e+17
19624.0	4.34391167865105e+17
19625.0	4.343157713360213e+17
19626.0	4.342388126384127e+17
19627.0	4.341624994441898e+17
19628.0	4.340719251270314e+17
19629.0	4.3399631832350714e+17
19630.0	4.3387518528607565e+17
19631.0	4.332393237665111e+17
19632.0	4.337787964052821e+17
19633.0	4.336982104036693e+17
19634.0	4.336258267829589e+17
19635.0	4.3354540568739834e+17
19636.0	4.3346976735668883e+17
19637.0	4.3336191159828474e+17
19638.0	4.3331732733515085e+17
19639.0	4.3324046748330656e+17
19640.0	4.3314566314065914e+17
19641.0	4.329736416613719e+17
19642.0	4.330104740817579e+17
19643.0	4.3293322499850234e+17
19644.0	4.328509932219049e+17
19645.0	4.327520825857365e+17
19646.0	4.327019577868286e+17
19647.0	4.3262704367261e+17
19648.0	4.325503367031466e+17
19649.0	4.324726678399659e+17
19650.0	4.3239639630916256e+17
19651.0	4.323190839618218e+17
19652.0	4.3224185640932685e+17
19653.0	4.321652498934442e+17
19654.0	4.3208809329459194e+17
19655.0	4.3201071733364045e+17
