# Flux units: erg / (cm m2 s)
# Wavelength units: Angstrom
wave	flux
19000.0	8.645927717131604e+17
19001.0	8.644891477977769e+17
19002.0	8.643473787846655e+17
19003.0	8.642016184718675e+17
19004.0	8.640555602236758e+17
19005.0	8.639093026062335e+17
19006.0	8.637626322692777e+17
19007.0	8.63599490900514e+17
19008.0	8.634663421607935e+17
19009.0	8.633177265056425e+17
19010.0	8.631584696216232e+17
19011.0	8.630218612801535e+17
19012.0	8.628392233882962e+17
19013.0	8.627275701769556e+17
19014.0	8.625765721571325e+17
19015.0	8.624284115839656e+17
19016.0	8.622779326791679e+17
19017.0	8.621285105991679e+17
19018.0	8.619783712931837e+17
19019.0	8.618293373261139e+17
19020.0	8.61677569511697e+17
19021.0	8.615278732640255e+17
19022.0	8.613771215896573e+17
19023.0	8.612248608047101e+17
19024.0	8.610729510830079e+17
19025.0	8.60917129753395e+17
19026.0	8.607646704380586e+17
19027.0	8.605794708051284e+17
19028.0	8.604648281735167e+17
19029.0	8.603125747985066e+17
19030.0	8.601596171998547e+17
19031.0	8.600062995901097e+17
19032.0	8.598525818437631e+17
19033.0	8.596950061765972e+17
19034.0	8.595420928977577e+17
19035.0	8.593671894422868e+17
19036.0	8.568801553547258e+17
19037.0	8.590655755037353e+17
19038.0	8.58924206207795e+17
19039.0	8.587723591210323e+17
19040.0	8.58618029425732e+17
19041.0	8.584631038596436e+17
19042.0	8.583049012838399e+17
19043.0	8.581524788783785e+17
19044.0	8.579964985846442e+17
19045.0	8.578391484312233e+17
19046.0	8.576829410858324e+17
19047.0	8.575273761680042e+17
19048.0	8.573649300750335e+17
19049.0	8.572115057901567e+17
19050.0	8.570524294010195e+17
19051.0	8.565208908475044e+17
19052.0	8.566564142623404e+17
19053.0	8.56579609146163e+17
19054.0	8.564280703407443e+17
19055.0	8.562615868107433e+17
19056.0	8.561123629815123e+17
19057.0	8.55954873017958e+17
19058.0	8.55793030205713e+17
19059.0	8.556385271458473e+17
19060.0	8.554793197546152e+17
19061.0	8.553213397565437e+17
19062.0	8.551622942654463e+17
19063.0	8.550032714235901e+17
19064.0	8.54840337113634e+17
19065.0	8.546779908450986e+17
19066.0	8.545228172558335e+17
19067.0	8.543655799291903e+17
19068.0	8.542057657619796e+17
19069.0	8.540458102467242e+17
19070.0	8.538853547704316e+17
19071.0	8.537239966799188e+17
19072.0	8.535645444811434e+17
19073.0	8.534041896681472e+17
19074.0	8.532436224835583e+17
19075.0	8.530827205935105e+17
19076.0	8.529210206672212e+17
19077.0	8.527600404834985e+17
19078.0	8.525982264721407e+17
19079.0	8.524375895222953e+17
19080.0	8.522756881296042e+17
19081.0	8.521123728370348e+17
19082.0	8.519504896196608e+17
19083.0	8.517852892670633e+17
19084.0	8.516171021505878e+17
19085.0	8.514626701142697e+17
19086.0	8.512776655164755e+17
19087.0	8.510885937020925e+17
19088.0	8.509537078214653e+17
19089.0	8.507766556240552e+17
19090.0	8.506413451400532e+17
19091.0	8.504824927267498e+17
19092.0	8.503099586336083e+17
19093.0	8.501594958069757e+17
19094.0	8.499967015867731e+17
19095.0	8.498334328509779e+17
19096.0	8.496784583513428e+17
19097.0	8.495790025954643e+17
19098.0	8.494149930057727e+17
19099.0	8.492506197699242e+17
19100.0	8.490819071071572e+17
19101.0	8.489197662197075e+17
19102.0	8.487536839447892e+17
19103.0	8.485913688539136e+17
19104.0	8.484258361726292e+17
19105.0	8.482590561053353e+17
19106.0	8.480852880479572e+17
19107.0	8.479252518622547e+17
19108.0	8.477536779851094e+17
19109.0	8.473836269862908e+17
19110.0	8.473968935698431e+17
19111.0	8.472616188772352e+17
19112.0	8.470994588357972e+17
19113.0	8.469341943103485e+17
19114.0	8.467680187820713e+17
19115.0	8.465955270514006e+17
19116.0	8.464337881180841e+17
19117.0	8.462656398688253e+17
19118.0	8.460895803233619e+17
19119.0	8.45860311417924e+17
19120.0	8.45744901927731e+17
19121.0	8.455832884041043e+17
19122.0	8.454323095382697e+17
19123.0	8.45264907875123e+17
19124.0	8.45080896488516e+17
19125.0	8.449279439230294e+17
19126.0	8.447605319139327e+17
19127.0	8.445381764797779e+17
19128.0	8.443265258881021e+17
19129.0	8.442533124942505e+17
19130.0	8.440879751277226e+17
19131.0	8.439162931773439e+17
19132.0	8.437503263855955e+17
19133.0	8.435632467258025e+17
19134.0	8.43367309115392e+17
19135.0	8.432426260190547e+17
19136.0	8.43073522307345e+17
19137.0	8.42898693230865e+17
19138.0	8.427323253238441e+17
19139.0	8.425641437997736e+17
19140.0	8.423945062929747e+17
19141.0	8.42224412865331e+17
19142.0	8.420532038926336e+17
19143.0	8.418819480835411e+17
19144.0	8.417125742586536e+17
19145.0	8.415413757717162e+17
19146.0	8.413470238878377e+17
19147.0	8.411970989107881e+17
19148.0	8.410270412745388e+17
19149.0	8.408557271646207e+17
19150.0	8.406848446485843e+17
19151.0	8.405131043973801e+17
19152.0	8.403380032503808e+17
19153.0	8.40167570363733e+17
19154.0	8.399911551412905e+17
19155.0	8.398202043979092e+17
19156.0	8.396442112622591e+17
19157.0	8.394510839753382e+17
19158.0	8.391892407069353e+17
19159.0	8.39111664537873e+17
19160.0	8.389459930251263e+17
19161.0	8.387565351949655e+17
19162.0	8.382744789428908e+17
19163.0	8.383830575895892e+17
19164.0	8.382543718689449e+17
19165.0	8.380805768282111e+17
19166.0	8.379021863682047e+17
19167.0	8.376228960534527e+17
19168.0	8.373970592071676e+17
19169.0	8.372237335090518e+17
19170.0	8.3705075859456e+17
19171.0	8.368658815036073e+17
19172.0	8.366970795021654e+17
19173.0	8.365244202789544e+17
19174.0	8.363482546176e+17
19175.0	8.361735482944168e+17
19176.0	8.359964401729536e+17
19177.0	8.358126958237011e+17
19178.0	8.356317005611007e+17
19179.0	8.354475880917673e+17
19180.0	8.352820949767506e+17
19181.0	8.351053658805588e+17
19182.0	8.349306659886419e+17
19183.0	8.34752915579426e+17
19184.0	8.345724286664705e+17
19185.0	8.343959447972522e+17
19186.0	8.342169497982291e+17
19187.0	8.340347864219647e+17
19188.0	8.338563141730303e+17
19189.0	8.336723847151612e+17
19190.0	8.334896721646931e+17
19191.0	8.333113713229824e+17
19192.0	8.331318235146922e+17
19193.0	8.329455922227881e+17
19194.0	8.327630123521362e+17
19195.0	8.325767666597885e+17
19196.0	8.323822285488128e+17
19197.0	8.321684048882344e+17
19198.0	8.318669064328532e+17
19199.0	8.298512511576742e+17
19200.0	8.300612926745261e+17
19201.0	8.313370808330922e+17
19202.0	8.312599919023443e+17
19203.0	8.311010919535955e+17
19204.0	8.309336289138003e+17
19205.0	8.307578326308182e+17
19206.0	8.305768493918889e+17
19207.0	8.303925723660285e+17
19208.0	8.301157357191164e+17
19209.0	8.29810785071923e+17
19210.0	8.296252525510656e+17
19211.0	8.294388541860521e+17
19212.0	8.29250918888243e+17
19213.0	8.290471001806164e+17
19214.0	8.28849965655654e+17
19215.0	8.286804056036692e+17
19216.0	8.285013274176169e+17
19217.0	8.283136180529832e+17
19218.0	8.280989007260328e+17
19219.0	8.279292746836649e+17
19220.0	8.277447037769043e+17
19221.0	8.275451253708114e+17
19222.0	8.273644687283539e+17
19223.0	8.271739381350399e+17
19224.0	8.2698102126237e+17
19225.0	8.2678576606522e+17
19226.0	8.26597711229747e+17
19227.0	8.264038425296896e+17
19228.0	8.262113340424191e+17
19229.0	8.260173425890646e+17
19230.0	8.258189373298002e+17
19231.0	8.256256151475539e+17
19232.0	8.25323685098291e+17
19233.0	8.249514913693696e+17
19234.0	8.247562876223485e+17
19235.0	8.245585204565332e+17
19236.0	8.243611609770668e+17
19237.0	8.241571984048127e+17
19238.0	8.239504304024233e+17
19239.0	8.237565531739476e+17
19240.0	8.235545104744447e+17
19241.0	8.233538990112765e+17
19242.0	8.231533651427325e+17
19243.0	8.22945207287808e+17
19244.0	8.227483059661481e+17
19245.0	8.225441739440125e+17
19246.0	8.223389937653076e+17
19247.0	8.221341095646548e+17
19248.0	8.218297005419178e+17
19249.0	8.213613718274045e+17
19250.0	8.21153442562048e+17
19251.0	8.209402999166292e+17
19252.0	8.207235958876842e+17
19253.0	8.205236476837888e+17
19254.0	8.203124737048573e+17
19255.0	8.200938531586047e+17
19256.0	8.198845540335615e+17
19257.0	8.196749077599572e+17
19258.0	8.194611791702697e+17
19259.0	8.192435866479276e+17
19260.0	8.189398502517418e+17
19261.0	8.183703002589864e+17
19262.0	8.18150608207872e+17
19263.0	8.179299201493672e+17
19264.0	8.176965577430356e+17
19265.0	8.17484923089715e+17
19266.0	8.172648619398486e+17
19267.0	8.170462360808105e+17
19268.0	8.168227739096403e+17
19269.0	8.1659848322362e+17
19270.0	8.163730944688127e+17
19271.0	8.156568674282152e+17
19272.0	8.153795009008979e+17
19273.0	8.150910509252607e+17
19274.0	8.148781688859306e+17
19275.0	8.146880775760553e+17
19276.0	8.14456033998711e+17
19277.0	8.142230448854355e+17
19278.0	8.139890922007209e+17
19279.0	8.137508869111804e+17
19280.0	8.132311978257064e+17
19281.0	8.129612417946964e+17
19282.0	8.127196447113215e+17
19283.0	8.12464165879808e+17
19284.0	8.122048882671616e+17
19285.0	8.119940271833085e+17
19286.0	8.117503516824914e+17
19287.0	8.114998028358995e+17
19288.0	8.106400682431822e+17
19289.0	8.095811836226194e+17
19290.0	8.107450827101522e+17
19291.0	8.104865397997565e+17
19292.0	8.102413258282323e+17
19293.0	8.099848192524289e+17
19294.0	8.097270468356778e+17
19295.0	8.094675781025791e+17
19296.0	8.092066238868137e+17
19297.0	8.0894309185181e+17
19298.0	8.086801538700628e+17
19299.0	8.084146307989501e+17
19300.0	8.081474467834537e+17
19301.0	8.078786116102824e+17
19302.0	8.076079633793021e+17
19303.0	8.073339706103124e+17
19304.0	8.070615680417792e+17
19305.0	8.067871334727676e+17
19306.0	8.065092323115007e+17
19307.0	8.062266101814611e+17
19308.0	8.059438044807167e+17
19309.0	8.056052086647468e+17
19310.0	8.052894762795007e+17
19311.0	8.050818854944767e+17
19312.0	8.048090397278207e+17
19313.0	8.045193021008554e+17
19314.0	8.033296944463871e+17
19315.0	8.030988921034079e+17
19316.0	8.036333539469994e+17
19317.0	8.0334089617408e+17
19318.0	8.030272613602644e+17
19319.0	8.027274049748991e+17
19320.0	8.024242157955753e+17
19321.0	8.021175617017172e+17
19322.0	8.017985472735914e+17
19323.0	8.014733388371284e+17
19324.0	8.011770216054784e+17
19325.0	8.008343500445012e+17
19326.0	8.005468903440383e+17
19327.0	8.002332770609833e+17
19328.0	7.999130413913427e+17
19329.0	7.99588926689553e+17
19330.0	7.992607292522493e+17
19331.0	7.989304339638953e+17
19332.0	7.985991257511251e+17
19333.0	7.982626455420928e+17
19334.0	7.97925196309026e+17
19335.0	7.975840133065386e+17
19336.0	7.972386343223292e+17
19337.0	7.968921664968019e+17
19338.0	7.96535342515268e+17
19339.0	7.961882279280639e+17
19340.0	7.958299783026004e+17
19341.0	7.954312747548671e+17
19342.0	7.95039033790737e+17
19343.0	7.946817780755113e+17
19344.0	7.94308698369775e+17
19345.0	7.938815343722496e+17
19346.0	7.935311050265939e+17
19347.0	7.931704566786728e+17
19348.0	7.927854293581821e+17
19349.0	7.923937151986345e+17
19350.0	7.919992469192703e+17
19351.0	7.916015284737363e+17
19352.0	7.91198198329071e+17
19353.0	7.907698086161068e+17
19354.0	7.902939515453439e+17
19355.0	7.898767546122237e+17
19356.0	7.894601665522345e+17
19357.0	7.890367023502676e+17
19358.0	7.886072855920639e+17
19359.0	7.881729184366591e+17
19360.0	7.877365820555263e+17
19361.0	7.872938324437673e+17
19362.0	7.86846461128431e+17
19363.0	7.86261112730419e+17
19364.0	7.857810387064148e+17
19365.0	7.853060357357567e+17
19366.0	7.848242656750249e+17
19367.0	7.843380618155348e+17
19368.0	7.838450581504e+17
19369.0	7.832434413054636e+17
19370.0	7.826243181346816e+17
19371.0	7.821088088129533e+17
19372.0	7.815816879800317e+17
19373.0	7.810438003687424e+17
19374.0	7.804084163007828e+17
19375.0	7.796750612605609e+17
19376.0	7.791052803014653e+17
19377.0	7.78524411699746e+17
19378.0	7.779172519422633e+17
19379.0	7.769941354042708e+17
19380.0	7.763750762665299e+17
19381.0	7.757428109432148e+17
19382.0	7.749501990557012e+17
19383.0	7.740260272308221e+17
19384.0	7.733472876210858e+17
19385.0	7.725897153686188e+17
19386.0	7.714453495742463e+17
19387.0	7.707133270644051e+17
19388.0	7.698525890543616e+17
19389.0	7.686465065932114e+17
19390.0	7.678663427009194e+17
19391.0	7.654476339653261e+17
19392.0	7.655851022789288e+17
19393.0	7.64704430978935e+17
19394.0	7.632542155582122e+17
19395.0	7.624038879505066e+17
19396.0	7.611891407563432e+17
19397.0	7.602678010653353e+17
19398.0	7.593545169545897e+17
19399.0	7.58403236643908e+17
19400.0	7.574565429444607e+17
19401.0	7.56455181385728e+17
19402.0	7.554238397808637e+17
19403.0	7.543939552772093e+17
19404.0	7.533381796145834e+17
19405.0	7.522532396979539e+17
19406.0	7.511370622828544e+17
19407.0	7.499192805097471e+17
19408.0	7.486812276654079e+17
19409.0	7.474504004883796e+17
19410.0	7.461715998408701e+17
19411.0	7.447881093655209e+17
19412.0	7.433885756773718e+17
19413.0	7.420051362327208e+17
19414.0	7.405467080851452e+17
19415.0	7.389754742713004e+17
19416.0	7.374503825549994e+17
19417.0	7.357445540850348e+17
19418.0	7.33962694767411e+17
19419.0	7.322012303927977e+17
19420.0	7.301614097749329e+17
19421.0	7.282067059856723e+17
19422.0	7.260405569858216e+17
19423.0	7.238425119817725e+17
19424.0	7.215679639912445e+17
19425.0	7.191351317757951e+17
19426.0	7.167262196760572e+17
19427.0	7.140927857841492e+17
19428.0	7.114328329857708e+17
19429.0	7.084367243378687e+17
19430.0	7.05519204503825e+17
19431.0	7.021586994080425e+17
19432.0	6.991142032419497e+17
19433.0	6.957820893200385e+17
19434.0	6.920601655924052e+17
19435.0	6.882334748617384e+17
19436.0	6.842094989606912e+17
19437.0	6.800253460152319e+17
19438.0	6.74577339593523e+17
19439.0	6.705641915678721e+17
19440.0	6.653891921139028e+17
19441.0	6.598212348193448e+17
19442.0	6.538688724992001e+17
19443.0	6.474689385157972e+17
19444.0	6.406060473232038e+17
19445.0	6.332299443088045e+17
19446.0	6.252958049457491e+17
19447.0	6.167405896138747e+17
19448.0	6.074352722247684e+17
19449.0	5.970365222922922e+17
19450.0	5.84007945429537e+17
19451.0	5.761833318569305e+17
19452.0	5.909979085144061e+17
19453.0	6.021364264381101e+17
19454.0	6.116795840025937e+17
19455.0	6.203528522847572e+17
19456.0	6.283474834380118e+17
19457.0	6.357501080152742e+17
19458.0	6.422144953789103e+17
19459.0	6.489869537421997e+17
19460.0	6.549201243952466e+17
19461.0	6.60406042501666e+17
19462.0	6.65554382679791e+17
19463.0	6.70294387929907e+17
19464.0	6.747422311055359e+17
19465.0	6.789121504706561e+17
19466.0	6.827255988049235e+17
19467.0	6.863519940433235e+17
19468.0	6.898519444378966e+17
19469.0	6.93117868397909e+17
19470.0	6.960800760943955e+17
19471.0	6.990567266669908e+17
19472.0	7.018140677089961e+17
19473.0	7.044644421850454e+17
19474.0	7.070485955215361e+17
19475.0	7.093539399095636e+17
19476.0	7.116588992604841e+17
19477.0	7.137228522258433e+17
19478.0	7.158727073333245e+17
19479.0	7.177241066733565e+17
19480.0	7.197348144873472e+17
19481.0	7.214395583102973e+17
19482.0	7.231751318055594e+17
19483.0	7.247674945656148e+17
19484.0	7.262302717870079e+17
19485.0	7.277558940827647e+17
19486.0	7.290386586271744e+17
19487.0	7.302719712089427e+17
19488.0	7.31527945335603e+17
19489.0	7.326366125697705e+17
19490.0	7.336928279352658e+17
19491.0	7.348687028791977e+17
19492.0	7.358795017617407e+17
19493.0	7.368497190753619e+17
19494.0	7.377837760359081e+17
19495.0	7.387321653526527e+17
19496.0	7.395834197617321e+17
19497.0	7.403941894903123e+17
19498.0	7.410067099877375e+17
19499.0	7.397991339349318e+17
19500.0	7.426446614768301e+17
19501.0	7.433924821123072e+17
19502.0	7.440683547754492e+17
19503.0	7.447234632570196e+17
19504.0	7.453553231309484e+17
19505.0	7.459557209713321e+17
19506.0	7.468093015414102e+17
19507.0	7.4747448655872e+17
19508.0	7.483672563286022e+17
19509.0	7.49236925829393e+17
19510.0	7.498004736333146e+17
19511.0	7.489931471486966e+17
19512.0	7.509902191405729e+17
19513.0	7.513921646056772e+17
19514.0	7.523309376416419e+17
19515.0	7.532305555914752e+17
19516.0	7.539193355261262e+17
19517.0	7.545624136253437e+17
19518.0	7.54956785156096e+17
19519.0	7.554249416245252e+17
19520.0	7.560678702667092e+17
19521.0	7.564069730342228e+17
19522.0	7.567318566917459e+17
19523.0	7.572226691126614e+17
19524.0	7.576581302823594e+17
19525.0	7.579432852127743e+17
19526.0	7.582178935657812e+17
19527.0	7.585423705156261e+17
19528.0	7.589819953709056e+17
19529.0	7.592234227247785e+17
19530.0	7.594554358235133e+17
19531.0	7.596784496235859e+17
19532.0	7.59908766545783e+17
19533.0	7.602876267014825e+17
19534.0	7.604834851793577e+17
19535.0	7.60670995034931e+17
19536.0	7.608523122802687e+17
19537.0	7.610299628650496e+17
19538.0	7.611967388778493e+17
19539.0	7.614225761435647e+17
19540.0	7.616410561806333e+17
19541.0	7.617858269173076e+17
19542.0	7.619242248284841e+17
19543.0	7.620574352244735e+17
19544.0	7.621855626832553e+17
19545.0	7.622963522874026e+17
19546.0	7.624045829466794e+17
19547.0	7.625420564332541e+17
19548.0	7.62662560744516e+17
19549.0	7.628379181634899e+17
19550.0	7.629421545870676e+17
19551.0	7.630392318929578e+17
19552.0	7.631323283849215e+17
19553.0	7.632210707699028e+17
19554.0	7.633064034653523e+17
19555.0	7.633890568394068e+17
19556.0	7.634659704482474e+17
19557.0	7.635391884558333e+17
19558.0	7.636099213382994e+17
19559.0	7.636775238718803e+17
19560.0	7.637409892838058e+17
19561.0	7.638228513325053e+17
19562.0	7.639044590665727e+17
19563.0	7.639559112927914e+17
19564.0	7.640041137722706e+17
19565.0	7.640491042537471e+17
19566.0	7.640904181481471e+17
19567.0	7.641296923525119e+17
19568.0	7.641645117865984e+17
19569.0	7.641982349694292e+17
19570.0	7.64228462199876e+17
19571.0	7.642555806121983e+17
19572.0	7.64279113314031e+17
19573.0	7.643014288288425e+17
19574.0	7.643180382726825e+17
19575.0	7.643378846007296e+17
19576.0	7.643520447108436e+17
19577.0	7.643634667793066e+17
19578.0	7.643718787355987e+17
19579.0	7.643790269480957e+17
19580.0	7.643837077913599e+17
19581.0	7.643863422337021e+17
19582.0	7.643866903609344e+17
19583.0	7.643836190119251e+17
19584.0	7.643772489826301e+17
19585.0	7.64367002158148e+17
19586.0	7.643701380994387e+17
19587.0	7.643619355787261e+17
19588.0	7.643431948692138e+17
19589.0	7.643408062130857e+17
19590.0	7.643222687875072e+17
19591.0	7.643070947743059e+17
19592.0	7.642873821047466e+17
19593.0	7.642649868981587e+17
19594.0	7.642327023615999e+17
19595.0	7.642163410807466e+17
19596.0	7.63979115720431e+17
19597.0	7.641573361713151e+17
19598.0	7.641232110343508e+17
19599.0	7.640982416435881e+17
19600.0	7.64064408010752e+17
19601.0	7.640266469714602e+17
19602.0	7.639893319264938e+17
19603.0	7.639118740368041e+17
19604.0	7.639044078960637e+17
19605.0	7.638614390691156e+17
19606.0	7.63828259328273e+17
19607.0	7.637839161677139e+17
19608.0	7.637378306932735e+17
19609.0	7.636898187750057e+17
19610.0	7.636417442217984e+17
19611.0	7.635914703153833e+17
19612.0	7.635401486718292e+17
19613.0	7.634873274247849e+17
19614.0	7.634316933376681e+17
19615.0	7.633770889521832e+17
19616.0	7.633043644743679e+17
19617.0	7.632609812501842e+17
19618.0	7.631817992219305e+17
19619.0	7.631134422728701e+17
19620.0	7.630498383091028e+17
19621.0	7.630993203309229e+17
19622.0	7.632145470892714e+17
19623.0	7.631452615213053e+17
19624.0	7.630749315716436e+17
19625.0	7.630034291742036e+17
19626.0	7.629305042086569e+17
19627.0	7.628534876995581e+17
19628.0	7.627309968261119e+17
19629.0	7.626835486223017e+17
19630.0	7.624760323560794e+17
19631.0	7.609075937662294e+17
19632.0	7.628981127173459e+17
19633.0	7.628559675118932e+17
19634.0	7.627846141520553e+17
19635.0	7.627048665918121e+17
19636.0	7.626259222407849e+17
19637.0	7.625291959981395e+17
19638.0	7.624607773928104e+17
19639.0	7.623760668524543e+17
19640.0	7.622906193728849e+17
19641.0	7.625688500666364e+17
19642.0	7.624995709299372e+17
19643.0	7.624104264510121e+17
19644.0	7.62318547285879e+17
19645.0	7.622222745873064e+17
19646.0	7.621393264934911e+17
19647.0	7.620476633350144e+17
19648.0	7.619552791756799e+17
19649.0	7.618621713590954e+17
19650.0	7.617685969960956e+17
19651.0	7.616743293146451e+17
19652.0	7.615794324875945e+17
19653.0	7.617214144315391e+17
19654.0	7.616903033214292e+17
19655.0	7.615919836626943e+17
19656.0	7.614931859931136e+17
19657.0	7.613941203075071e+17
19658.0	7.612942891614208e+17
19659.0	7.611935990218751e+17
19660.0	7.610920029126655e+17
19661.0	7.609897846483625e+17
19662.0	7.608868930584573e+17
19663.0	7.607803234833747e+17
19664.0	7.606723791552511e+17
19665.0	7.6057546864285e+17
19666.0	7.604704618654378e+17
