# Flux units: erg / (cm m2 s)
# Wavelength units: Angstrom
wave	flux
19000.0	7.273703002516138e+17
19001.0	7.272297492643839e+17
19002.0	7.271041747386365e+17
19003.0	7.269708478808061e+17
19004.0	7.268375719138644e+17
19005.0	7.267044318423721e+17
19006.0	7.265710405320701e+17
19007.0	7.264369784127487e+17
19008.0	7.263002115265875e+17
19009.0	7.261613453912745e+17
19010.0	7.2600760891037e+17
19011.0	7.259008307385684e+17
19012.0	7.257603186185556e+17
19013.0	7.256433640865791e+17
19014.0	7.255142701203455e+17
19015.0	7.253821273145344e+17
19016.0	7.252484391873194e+17
19017.0	7.25117527269922e+17
19018.0	7.249827771449343e+17
19019.0	7.248492024037373e+17
19020.0	7.247141093244927e+17
19021.0	7.245816724979711e+17
19022.0	7.244484495190697e+17
19023.0	7.243103790432255e+17
19024.0	7.241781206144339e+17
19025.0	7.240450286376275e+17
19026.0	7.239092643299327e+17
19027.0	7.237727123319464e+17
19028.0	7.236424562638847e+17
19029.0	7.23508082507776e+17
19030.0	7.233750815473663e+17
19031.0	7.232407417651199e+17
19032.0	7.231062937698301e+17
19033.0	7.229648370925568e+17
19034.0	7.228352405088936e+17
19035.0	7.226911156950356e+17
19036.0	7.222443437457407e+17
19037.0	7.224264690936488e+17
19038.0	7.223115678132905e+17
19039.0	7.221799769778857e+17
19040.0	7.220457816195071e+17
19041.0	7.219113962591571e+17
19042.0	7.217691511925417e+17
19043.0	7.216424317616125e+17
19044.0	7.21506956161843e+17
19045.0	7.213731490562045e+17
19046.0	7.212352505468242e+17
19047.0	7.211012502235817e+17
19048.0	7.209564126576639e+17
19049.0	7.208274256461823e+17
19050.0	7.20695457742848e+17
19051.0	7.205126045433855e+17
19052.0	7.204146711800489e+17
19053.0	7.202952483001683e+17
19054.0	7.201612212731901e+17
19055.0	7.200073702877866e+17
19056.0	7.1989033186973e+17
19057.0	7.197566496145408e+17
19058.0	7.196208745414655e+17
19059.0	7.194875262926847e+17
19060.0	7.193517180846079e+17
19061.0	7.192182322626557e+17
19062.0	7.190831228256255e+17
19063.0	7.189482247815165e+17
19064.0	7.188057332296361e+17
19065.0	7.186652775929172e+17
19066.0	7.185392402956287e+17
19067.0	7.184093024354304e+17
19068.0	7.182744762537299e+17
19069.0	7.181396622355113e+17
19070.0	7.180031335858173e+17
19071.0	7.178699463983104e+17
19072.0	7.177350743588863e+17
19073.0	7.175999296897023e+17
19074.0	7.174653286023165e+17
19075.0	7.173304041340927e+17
19076.0	7.171943260924585e+17
19077.0	7.170593813517654e+17
19078.0	7.169240058560511e+17
19079.0	7.16790637334801e+17
19080.0	7.166546619138045e+17
19081.0	7.165175276066131e+17
19082.0	7.163833449709565e+17
19083.0	7.162419348504573e+17
19084.0	7.160976923164671e+17
19085.0	7.159806513818281e+17
19086.0	7.158161235159721e+17
19087.0	7.157042568145578e+17
19088.0	7.155682593035604e+17
19089.0	7.154233536501076e+17
19090.0	7.153025438537042e+17
19091.0	7.151687507290793e+17
19092.0	7.150303704339795e+17
19093.0	7.149009261035519e+17
19094.0	7.147661622771711e+17
19095.0	7.146312294203391e+17
19096.0	7.144953931104255e+17
19097.0	7.143610793328639e+17
19098.0	7.142260708387497e+17
19099.0	7.140910224987475e+17
19100.0	7.139559921942528e+17
19101.0	7.138208413734228e+17
19102.0	7.136799309343402e+17
19103.0	7.135512769505961e+17
19104.0	7.134162546152787e+17
19105.0	7.13280237810483e+17
19106.0	7.131448968478719e+17
19107.0	7.130094243239251e+17
19108.0	7.128739677383338e+17
19109.0	7.127202964089514e+17
19110.0	7.126006671693139e+17
19111.0	7.124701142843391e+17
19112.0	7.123355685617663e+17
19113.0	7.122009305645055e+17
19114.0	7.120657313693693e+17
19115.0	7.119271991006548e+17
19116.0	7.117937980036436e+17
19117.0	7.116586449458516e+17
19118.0	7.115162713937236e+17
19119.0	7.111269962219515e+17
19120.0	7.112498719926953e+17
19121.0	7.111177414901759e+17
19122.0	7.109766941769727e+17
19123.0	7.108360897822719e+17
19124.0	7.106987102481066e+17
19125.0	7.105651146751999e+17
19126.0	7.104261059335506e+17
19127.0	7.10182702363443e+17
19128.0	7.101527642603519e+17
19129.0	7.100182244098045e+17
19130.0	7.098891860880041e+17
19131.0	7.097553306080598e+17
19132.0	7.09620028932096e+17
19133.0	7.094801712633172e+17
19134.0	7.093483823169535e+17
19135.0	7.092147461991081e+17
19136.0	7.090796444516351e+17
19137.0	7.089350776979455e+17
19138.0	7.088083019235327e+17
19139.0	7.086745928247978e+17
19140.0	7.08539687510562e+17
19141.0	7.084045666091008e+17
19142.0	7.082674808160255e+17
19143.0	7.081309455952553e+17
19144.0	7.0799577855645e+17
19145.0	7.078637864659625e+17
19146.0	7.076836982915071e+17
19147.0	7.075884063610195e+17
19148.0	7.074577620402175e+17
19149.0	7.07322568577297e+17
19150.0	7.071873994413395e+17
19151.0	7.070524190490624e+17
19152.0	7.069169902856874e+17
19153.0	7.067793536406867e+17
19154.0	7.066386274713599e+17
19155.0	7.065104327639039e+17
19156.0	7.06375029306163e+17
19157.0	7.062371507896319e+17
19158.0	7.060930778453331e+17
19159.0	7.059664267815594e+17
19160.0	7.058324221242025e+17
19161.0	7.056962080473087e+17
19162.0	7.055308683040083e+17
19163.0	7.054203658698751e+17
19164.0	7.052918736464556e+17
19165.0	7.05156001964578e+17
19166.0	7.050140081367722e+17
19167.0	7.048833291430569e+17
19168.0	7.047501528607402e+17
19169.0	7.04614950310161e+17
19170.0	7.044801295810559e+17
19171.0	7.043436164502867e+17
19172.0	7.042091295877802e+17
19173.0	7.040738135113727e+17
19174.0	7.0393488488093e+17
19175.0	7.038027447315113e+17
19176.0	7.036673129622185e+17
19177.0	7.035202505976489e+17
19178.0	7.033946055376893e+17
19179.0	7.032581210679977e+17
19180.0	7.031233684264275e+17
19181.0	7.029814472998911e+17
19182.0	7.028516797284351e+17
19183.0	7.027166493540351e+17
19184.0	7.025716398216532e+17
19185.0	7.024358633504767e+17
19186.0	7.023001957214889e+17
19187.0	7.021510348767231e+17
19188.0	7.020189758870868e+17
19189.0	7.01883325944081e+17
19190.0	7.017470485331965e+17
19191.0	7.016084265063763e+17
19192.0	7.014747994761897e+17
19193.0	7.013382816617812e+17
19194.0	7.012006130701652e+17
19195.0	7.010643225171284e+17
19196.0	7.009254421211817e+17
19197.0	7.007844775755776e+17
19198.0	7.00629330829858e+17
19199.0	7.002974591822506e+17
19200.0	7.001979154857983e+17
19201.0	7.002233446421844e+17
19202.0	7.00103951262242e+17
19203.0	6.999715069558783e+17
19204.0	6.998362082159274e+17
19205.0	6.997011105229482e+17
19206.0	6.995654156309843e+17
19207.0	6.994214439092223e+17
19208.0	6.992801459863551e+17
19209.0	6.991559265703252e+17
19210.0	6.990197328358057e+17
19211.0	6.98883672969489e+17
19212.0	6.987466193327444e+17
19213.0	6.986021124177919e+17
19214.0	6.984646890531497e+17
19215.0	6.983345042882559e+17
19216.0	6.981981947909459e+17
19217.0	6.980590318387199e+17
19218.0	6.978736319277736e+17
19219.0	6.977714023388499e+17
19220.0	6.97646890160401e+17
19221.0	6.974934538518525e+17
19222.0	6.973716962825556e+17
19223.0	6.972354431287293e+17
19224.0	6.970955278581759e+17
19225.0	6.969535565398015e+17
19226.0	6.968222791587156e+17
19227.0	6.966844789358591e+17
19228.0	6.965488542984874e+17
19229.0	6.964107306248874e+17
19230.0	6.962724626672297e+17
19231.0	6.961333520738985e+17
19232.0	6.959954671261012e+17
19233.0	6.958524157744467e+17
19234.0	6.957179229001044e+17
19235.0	6.955789129700691e+17
19236.0	6.954418821223763e+17
19237.0	6.953021971191123e+17
19238.0	6.951576171533652e+17
19239.0	6.950254491118249e+17
19240.0	6.9488572104704e+17
19241.0	6.947452375881043e+17
19242.0	6.946066607199572e+17
19243.0	6.944556515153236e+17
19244.0	6.943291605341524e+17
19245.0	6.941895047512061e+17
19246.0	6.940488870046378e+17
19247.0	6.939097039197523e+17
19248.0	6.937698698788863e+17
19249.0	6.936295966943913e+17
19250.0	6.934878569715028e+17
19251.0	6.933415027452585e+17
19252.0	6.931831322574847e+17
19253.0	6.930499740805801e+17
19254.0	6.929107793215487e+17
19255.0	6.927547442222419e+17
19256.0	6.92627027595537e+17
19257.0	6.924874870161407e+17
19258.0	6.923459715487059e+17
19259.0	6.921983862942378e+17
19260.0	6.920554312717652e+17
19261.0	6.919193391792127e+17
19262.0	6.917734807197012e+17
19263.0	6.916292173540009e+17
19264.0	6.914583490985981e+17
19265.0	6.913367495147519e+17
19266.0	6.911950122385407e+17
19267.0	6.910644662042623e+17
19268.0	6.909212040888319e+17
19269.0	6.907775080027476e+17
19270.0	6.906321052543657e+17
19271.0	6.904683662671872e+17
19272.0	6.903419639955455e+17
19273.0	6.901630456823805e+17
19274.0	6.900150325389993e+17
19275.0	6.89910593880064e+17
19276.0	6.897643371713876e+17
19277.0	6.896192016001705e+17
19278.0	6.894736962311508e+17
19279.0	6.893268547665919e+17
19280.0	6.891765739727529e+17
19281.0	6.890333536605524e+17
19282.0	6.888685142278143e+17
19283.0	6.887133600022527e+17
19284.0	6.885633454768127e+17
19285.0	6.884101713821693e+17
19286.0	6.882676805293396e+17
19287.0	6.881210851306153e+17
19288.0	6.878734009237501e+17
19289.0	6.876160922572113e+17
19290.0	6.876733617034579e+17
19291.0	6.875059861149012e+17
19292.0	6.8737579352064e+17
19293.0	6.872249896271872e+17
19294.0	6.870734055931901e+17
19295.0	6.869228771956052e+17
19296.0	6.867710344429567e+17
19297.0	6.866178572724906e+17
19298.0	6.864638820657833e+17
19299.0	6.863038992875519e+17
19300.0	6.861225047971155e+17
19301.0	6.859681234419711e+17
19302.0	6.858126054304425e+17
19303.0	6.856499243865427e+17
19304.0	6.854812343031123e+17
19305.0	6.853254550563497e+17
19306.0	6.851691854954495e+17
19307.0	6.85008682553617e+17
19308.0	6.848517103069865e+17
19309.0	6.846876347968168e+17
19310.0	6.845249280977577e+17
19311.0	6.843723425338708e+17
19312.0	6.842150788530175e+17
19313.0	6.840273719350612e+17
19314.0	6.835662242185213e+17
19315.0	6.834262660262574e+17
19316.0	6.835148329495209e+17
19317.0	6.833527217018195e+17
19318.0	6.831877216272381e+17
19319.0	6.830238051510953e+17
19320.0	6.828574926088874e+17
19321.0	6.82690008387857e+17
19322.0	6.825174973633876e+17
19323.0	6.823068387945129e+17
19324.0	6.821167342026752e+17
19325.0	6.819429755824808e+17
19326.0	6.817751686796628e+17
19327.0	6.816028642246655e+17
19328.0	6.814295957787987e+17
19329.0	6.812558244358825e+17
19330.0	6.810779275755519e+17
19331.0	6.808364229066752e+17
19332.0	6.806406920055465e+17
19333.0	6.804619918660948e+17
19334.0	6.802808131026943e+17
19335.0	6.800574234230784e+17
19336.0	6.798758744424447e+17
19337.0	6.796795517250218e+17
19338.0	6.793863958102015e+17
19339.0	6.79214937416226e+17
19340.0	6.790220543077034e+17
19341.0	6.788337576706047e+17
19342.0	6.786247992628564e+17
19343.0	6.784287375709523e+17
19344.0	6.781936154443775e+17
19345.0	6.778802534001321e+17
19346.0	6.777369049519444e+17
19347.0	6.776000386607785e+17
19348.0	6.774065666719743e+17
19349.0	6.772034890978644e+17
19350.0	6.769998710177791e+17
19351.0	6.76743849513233e+17
19352.0	6.765065433426602e+17
19353.0	6.762966703669247e+17
19354.0	6.76084270113314e+17
19355.0	6.758621622829056e+17
19356.0	6.756515606167551e+17
19357.0	6.754314877927424e+17
19358.0	6.752081489341097e+17
19359.0	6.749797790078291e+17
19360.0	6.747504152412159e+17
19361.0	6.744858223968256e+17
19362.0	6.741713459260074e+17
19363.0	6.739331386791252e+17
19364.0	6.736914621835945e+17
19365.0	6.73446063243264e+17
19366.0	6.731967774414163e+17
19367.0	6.729434286871891e+17
19368.0	6.726830139987283e+17
19369.0	6.722962173810004e+17
19370.0	6.719769294842538e+17
19371.0	6.717026162704383e+17
19372.0	6.71428647199266e+17
19373.0	6.711451806859263e+17
19374.0	6.708603372524884e+17
19375.0	6.704121539898025e+17
19376.0	6.700518453106003e+17
19377.0	6.697527379580244e+17
19378.0	6.694384256243028e+17
19379.0	6.691159452330665e+17
19380.0	6.685601628334757e+17
19381.0	6.681992385702568e+17
19382.0	6.67873033007923e+17
19383.0	6.675477989862057e+17
19384.0	6.669707957851476e+17
19385.0	6.665205717139455e+17
19386.0	6.661645592603306e+17
19387.0	6.65794163699439e+17
19388.0	6.649976632726867e+17
19389.0	6.646140012680531e+17
19390.0	6.641710198510931e+17
19391.0	6.631585737954641e+17
19392.0	6.628537452724223e+17
19393.0	6.62459793871121e+17
19394.0	6.61589944364783e+17
19395.0	6.610357900541952e+17
19396.0	6.605642375277226e+17
19397.0	6.597307723502931e+17
19398.0	6.592813649100799e+17
19399.0	6.587857649707689e+17
19400.0	6.583474657951743e+17
19401.0	6.577818152468479e+17
19402.0	6.572090320748543e+17
19403.0	6.566956596811092e+17
19404.0	6.561703365967871e+17
19405.0	6.554348738489001e+17
19406.0	6.548218757600596e+17
19407.0	6.542317183827967e+17
19408.0	6.533702677605033e+17
19409.0	6.526572410437632e+17
19410.0	6.520024483932842e+17
19411.0	6.509257511228755e+17
19412.0	6.502089372292436e+17
19413.0	6.491503801139195e+17
19414.0	6.482238819183272e+17
19415.0	6.471130798533288e+17
19416.0	6.460173121312084e+17
19417.0	6.447628256542716e+17
19418.0	6.435380603650047e+17
19419.0	6.420097375666172e+17
19420.0	6.407895212097535e+17
19421.0	6.389166229159936e+17
19422.0	6.37714923432619e+17
19423.0	6.361888702420307e+17
19424.0	6.349941182038016e+17
19425.0	6.337369868686676e+17
19426.0	6.324303791041193e+17
19427.0	6.310729526629718e+17
19428.0	6.296644395991039e+17
19429.0	6.281446180956841e+17
19430.0	6.26575673393152e+17
19431.0	6.248496430579712e+17
19432.0	6.229967606120447e+17
19433.0	6.210241809787562e+17
19434.0	6.188654131150847e+17
19435.0	6.164034153174354e+17
19436.0	6.138684795518977e+17
19437.0	6.110477062329684e+17
19438.0	6.076422001699497e+17
19439.0	6.045527830779222e+17
19440.0	6.006563116417023e+17
19441.0	5.964668810734248e+17
19442.0	5.917634921671341e+17
19443.0	5.863896713090387e+17
19444.0	5.802743868424188e+17
19445.0	5.731510915869356e+17
19446.0	5.647790848518826e+17
19447.0	5.54680204097399e+17
19448.0	5.42020535215719e+17
19449.0	5.251901706032467e+17
19450.0	5.000786552203931e+17
19451.0	4.8455809645936755e+17
19452.0	5.1426539161518106e+17
19453.0	5.341776095215621e+17
19454.0	5.483597026820089e+17
19455.0	5.5935585348485114e+17
19456.0	5.682794483154946e+17
19457.0	5.7573508057661414e+17
19458.0	5.81629783729767e+17
19459.0	5.875760214573059e+17
19460.0	5.923713348971176e+17
19461.0	5.965714970815145e+17
19462.0	6.003821952805546e+17
19463.0	6.038019026976767e+17
19464.0	6.067735158412628e+17
19465.0	6.095336349805226e+17
19466.0	6.119341685385897e+17
19467.0	6.141790760818003e+17
19468.0	6.162670774386688e+17
19469.0	6.180544208087721e+17
19470.0	6.197769633704618e+17
19471.0	6.213187937151657e+17
19472.0	6.22708923703842e+17
19473.0	6.239982515650559e+17
19474.0	6.252206339304106e+17
19475.0	6.263228968118953e+17
19476.0	6.274503571144701e+17
19477.0	6.284930601801044e+17
19478.0	6.294834957167274e+17
19479.0	6.305794500853761e+17
19480.0	6.317233302492502e+17
19481.0	6.330784636644008e+17
19482.0	6.341788086304765e+17
19483.0	6.355720774964562e+17
19484.0	6.363811887273297e+17
19485.0	6.376985467726501e+17
19486.0	6.383242647175164e+17
19487.0	6.394455702284969e+17
19488.0	6.399675034763263e+17
19489.0	6.408942088705368e+17
19490.0	6.41344712422195e+17
19491.0	6.420882236200279e+17
19492.0	6.42681206280465e+17
19493.0	6.43080735826466e+17
19494.0	6.437391548022779e+17
19495.0	6.441229674523305e+17
19496.0	6.444274818919082e+17
19497.0	6.449262469928279e+17
19498.0	6.452206752497664e+17
19499.0	6.45138529666116e+17
19500.0	6.457965359923199e+17
19501.0	6.461992413254996e+17
19502.0	6.46429685195298e+17
19503.0	6.4664585123485e+17
19504.0	6.468495138444628e+17
19505.0	6.472292229971967e+17
19506.0	6.476500914143231e+17
19507.0	6.47825533907763e+17
19508.0	6.48433283314483e+17
19509.0	6.487227669763411e+17
19510.0	6.488629766171306e+17
19511.0	6.489277287716173e+17
19512.0	6.495943304151037e+17
19513.0	6.497001311742633e+17
19514.0	6.500860717345448e+17
19515.0	6.504644034778452e+17
19516.0	6.505998153940991e+17
19517.0	6.506986569640617e+17
19518.0	6.510666325513558e+17
19519.0	6.512055420977152e+17
19520.0	6.512750216522409e+17
19521.0	6.513436999548928e+17
19522.0	6.515808886150486e+17
19523.0	6.517387903893503e+17
19524.0	6.518114645355178e+17
19525.0	6.518653383431508e+17
19526.0	6.519107918058835e+17
19527.0	6.521043426476031e+17
19528.0	6.521978694052522e+17
19529.0	6.522304074175828e+17
19530.0	6.522587519647743e+17
19531.0	6.522826239158953e+17
19532.0	6.523024677273597e+17
19533.0	6.524219636580351e+17
19534.0	6.524856575197183e+17
19535.0	6.524890775551999e+17
19536.0	6.524865242726399e+17
19537.0	6.524844661276671e+17
19538.0	6.524658479617363e+17
19539.0	6.52432466964207e+17
19540.0	6.524470994228566e+17
19541.0	6.525338248369492e+17
19542.0	6.525169129138857e+17
19543.0	6.524920118902783e+17
19544.0	6.524643589838164e+17
19545.0	6.524008273717929e+17
19546.0	6.523479243358207e+17
19547.0	6.523666979007146e+17
19548.0	6.523301331468287e+17
19549.0	6.52282987422242e+17
19550.0	6.522482822829396e+17
19551.0	6.522225411402409e+17
19552.0	6.522312662712319e+17
19553.0	6.521811246252031e+17
19554.0	6.521298821141844e+17
19555.0	6.520787046148778e+17
19556.0	6.520259915808768e+17
19557.0	6.5197087667869e+17
19558.0	6.519143703161514e+17
19559.0	6.519121186040489e+17
19560.0	6.518528818195114e+17
19561.0	6.517915220880042e+17
19562.0	6.517308842661203e+17
19563.0	6.516666320027647e+17
19564.0	6.516139321109162e+17
19565.0	6.516298852160852e+17
19566.0	6.515598683013119e+17
19567.0	6.514924145257129e+17
19568.0	6.514299085608276e+17
19569.0	6.513871575580671e+17
19570.0	6.513147668769449e+17
19571.0	6.512654235467776e+17
19572.0	6.512397579714559e+17
19573.0	6.511651492724736e+17
19574.0	6.510818392102228e+17
19575.0	6.510109923125929e+17
19576.0	6.509317360451583e+17
19577.0	6.508510548328447e+17
19578.0	6.507678588556627e+17
19579.0	6.506993121143466e+17
19580.0	6.506625389035521e+17
19581.0	6.505800166014975e+17
19582.0	6.504964694212608e+17
19583.0	6.50411191181858e+17
19584.0	6.503252323467263e+17
19585.0	6.502302553385641e+17
19586.0	6.501407584681983e+17
19587.0	6.500611983234388e+17
19588.0	6.499452957928106e+17
19589.0	6.498818687587667e+17
19590.0	6.498243347218431e+17
19591.0	6.497479407872682e+17
19592.0	6.496564801437695e+17
19593.0	6.495629289193471e+17
19594.0	6.494537522348031e+17
19595.0	6.493766125529769e+17
19596.0	6.49275777430323e+17
19597.0	6.49189059076642e+17
19598.0	6.490723953497427e+17
19599.0	6.489992544474452e+17
19600.0	6.489041559442772e+17
19601.0	6.488029011116032e+17
19602.0	6.487049440504489e+17
19603.0	6.485961843496275e+17
19604.0	6.485458139043156e+17
19605.0	6.484445957018964e+17
19606.0	6.483669159335252e+17
19607.0	6.48268379918609e+17
19608.0	6.481677870869161e+17
19609.0	6.480656979372714e+17
19610.0	6.479687933668009e+17
19611.0	6.478679743223123e+17
19612.0	6.477678871838719e+17
19613.0	6.476658086597972e+17
19614.0	6.475618774417408e+17
19615.0	6.474628416055978e+17
19616.0	6.473579152889172e+17
19617.0	6.4727459313309e+17
19618.0	6.471354099782995e+17
19619.0	6.470222828885332e+17
19620.0	6.469261400036691e+17
19621.0	6.468634867488083e+17
19622.0	6.46776751198481e+17
19623.0	6.466780316128595e+17
19624.0	6.465727502483455e+17
19625.0	6.464685963826516e+17
19626.0	6.463632414081023e+17
19627.0	6.462568225483434e+17
19628.0	6.461456059640489e+17
19629.0	6.460326666392916e+17
19630.0	6.458822191218687e+17
19631.0	6.456058927819433e+17
19632.0	6.457157855040852e+17
19633.0	6.456158432788479e+17
19634.0	6.455135766402388e+17
19635.0	6.454041530509994e+17
19636.0	6.452998140067839e+17
19637.0	6.45163660747298e+17
19638.0	6.450848732632404e+17
19639.0	6.44976604226082e+17
19640.0	6.448613923575123e+17
19641.0	6.447101632315392e+17
19642.0	6.446520872905385e+17
19643.0	6.445435730264063e+17
19644.0	6.444301403815935e+17
19645.0	6.443099142225919e+17
19646.0	6.442172350638761e+17
19647.0	6.441090885702996e+17
19648.0	6.439999174082559e+17
19649.0	6.438904055988223e+17
19650.0	6.437810426172756e+17
19651.0	6.436708739099305e+17
19652.0	6.435614114534739e+17
19653.0	6.434515469729791e+17
19654.0	6.433415912663721e+17
19655.0	6.432387439962793e+17
19656.0	6.431335363816105e+17
19657.0	6.430235577461417e+17
19658.0	6.429130232255828e+17
19659.0	6.428022924115967e+17
19660.0	6.426916465322666e+17
19661.0	6.425807927552681e+17
19662.0	6.424697052157268e+17
19663.0	6.423559201095679e+17
19664.0	6.42246788653602e+17
19665.0	6.421363729716564e+17
