# Flux units: erg / (cm m2 s)
# Wavelength units: Angstrom
wave	flux
19000.0	7.022577439124138e+17
19001.0	7.020564742231379e+17
19002.0	7.020024029336916e+17
19003.0	7.01869230006818e+17
19004.0	7.017406522895017e+17
19005.0	7.016091272347647e+17
19006.0	7.014804522095955e+17
19007.0	7.013457941495807e+17
19008.0	7.01188025684241e+17
19009.0	7.009719742190931e+17
19010.0	7.007252201690451e+17
19011.0	7.007930837281448e+17
19012.0	7.00556322956902e+17
19013.0	7.005714075615231e+17
19014.0	7.004052430782461e+17
19015.0	7.002904615452672e+17
19016.0	7.001719161836884e+17
19017.0	7.00052192502306e+17
19018.0	6.999228147914067e+17
19019.0	6.997971112209066e+17
19020.0	6.996625708810239e+17
19021.0	6.995478184285524e+17
19022.0	6.994156593348605e+17
19023.0	6.992578088708776e+17
19024.0	6.991401285145939e+17
19025.0	6.990073838261588e+17
19026.0	6.988599206958419e+17
19027.0	6.986760484902228e+17
19028.0	6.986260876186964e+17
19029.0	6.984921837644457e+17
19030.0	6.983833058541567e+17
19031.0	6.982541809199786e+17
19032.0	6.981134206369791e+17
19033.0	6.978976844436819e+17
19034.0	6.977690076009812e+17
19035.0	6.971854986848936e+17
19036.0	6.909257461006332e+17
19037.0	6.970597395398655e+17
19038.0	6.972567235592191e+17
19039.0	6.971921975476223e+17
19040.0	6.970839941513215e+17
19041.0	6.969581617457833e+17
19042.0	6.967269761832274e+17
19043.0	6.967093584986111e+17
19044.0	6.965748968718333e+17
19045.0	6.964463473262591e+17
19046.0	6.962840662092457e+17
19047.0	6.961522574797481e+17
19048.0	6.959470020831912e+17
19049.0	6.957680587440125e+17
19050.0	6.956874714142036e+17
19051.0	6.946800427248294e+17
19052.0	6.950532455333887e+17
19053.0	6.953645091673428e+17
19054.0	6.952720112724649e+17
19055.0	6.949586536322396e+17
19056.0	6.95010301313024e+17
19057.0	6.949036075166378e+17
19058.0	6.947236535599101e+17
19059.0	6.946300884243796e+17
19060.0	6.94513674817809e+17
19061.0	6.943957042156884e+17
19062.0	6.942625119950163e+17
19063.0	6.941325764416852e+17
19064.0	6.939366371535529e+17
19065.0	6.937504589894996e+17
19066.0	6.936870512492541e+17
19067.0	6.936133052486996e+17
19068.0	6.934939016626173e+17
19069.0	6.933653893065385e+17
19070.0	6.932192559103997e+17
19071.0	6.930992826679295e+17
19072.0	6.929627830288383e+17
19073.0	6.928476568638804e+17
19074.0	6.927234650603519e+17
19075.0	6.925945559231146e+17
19076.0	6.924572509776553e+17
19077.0	6.923219323846655e+17
19078.0	6.921806482330964e+17
19079.0	6.920757703606272e+17
19080.0	6.919373746864127e+17
19081.0	6.917805117014015e+17
19082.0	6.916704248528893e+17
19083.0	6.914726804062207e+17
19084.0	6.91249348608e+17
19085.0	6.912763473428479e+17
19086.0	6.90823686730547e+17
19087.0	6.909032090566655e+17
19088.0	6.907649734650536e+17
19089.0	6.905794923244205e+17
19090.0	6.905956892584618e+17
19091.0	6.90485694964258e+17
19092.0	6.902916351437482e+17
19093.0	6.902570440196095e+17
19094.0	6.901367365610153e+17
19095.0	6.900140530292052e+17
19096.0	6.898805653897215e+17
19097.0	6.897563416395775e+17
19098.0	6.896079071783593e+17
19099.0	6.894751074047316e+17
19100.0	6.893544053320361e+17
19101.0	6.892288406629033e+17
19102.0	6.890574280567465e+17
19103.0	6.889788913221631e+17
19104.0	6.888543891401385e+17
19105.0	6.886718512125268e+17
19106.0	6.885707818379946e+17
19107.0	6.884210774813353e+17
19108.0	6.882519593691817e+17
19109.0	6.878836993381716e+17
19110.0	6.87935403921681e+17
19111.0	6.879046065455103e+17
19112.0	6.878000347873279e+17
19113.0	6.876912824265385e+17
19114.0	6.875516985759059e+17
19115.0	6.873922534375424e+17
19116.0	6.872864514200916e+17
19117.0	6.871484769938089e+17
19118.0	6.869030175156906e+17
19119.0	6.842143699457332e+17
19120.0	6.866739021217791e+17
19121.0	6.866049191728467e+17
19122.0	6.865342715046569e+17
19123.0	6.864079442411519e+17
19124.0	6.862227684458493e+17
19125.0	6.861328006949545e+17
19126.0	6.859259758597459e+17
19127.0	6.849774270895444e+17
19128.0	6.855958921041235e+17
19129.0	6.855591544051027e+17
19130.0	6.854986006091092e+17
19131.0	6.853839349787306e+17
19132.0	6.852566220537855e+17
19133.0	6.850896335295827e+17
19134.0	6.849735974802772e+17
19135.0	6.848719382467923e+17
19136.0	6.847399070793727e+17
19137.0	6.845454065074175e+17
19138.0	6.844713904635903e+17
19139.0	6.843619793174527e+17
19140.0	6.842368356166313e+17
19141.0	6.841088674714964e+17
19142.0	6.83958068191778e+17
19143.0	6.838229440047785e+17
19144.0	6.836876969246719e+17
19145.0	6.83590880993826e+17
19146.0	6.830132380215983e+17
19147.0	6.832961143963647e+17
19148.0	6.831887862814036e+17
19149.0	6.830566984209748e+17
19150.0	6.829479753504084e+17
19151.0	6.828168789535402e+17
19152.0	6.826804976637268e+17
19153.0	6.825073285529599e+17
19154.0	6.823675516944383e+17
19155.0	6.822794133591379e+17
19156.0	6.821444976290472e+17
19157.0	6.819542231678975e+17
19158.0	6.817228074778623e+17
19159.0	6.817068666060797e+17
19160.0	6.815930835271679e+17
19161.0	6.814039039890772e+17
19162.0	6.80878381535505e+17
19163.0	6.81041525281041e+17
19164.0	6.810880239643305e+17
19165.0	6.809448520264361e+17
19166.0	6.807969240274259e+17
19167.0	6.806978036760575e+17
19168.0	6.806040253999785e+17
19169.0	6.804889148937556e+17
19170.0	6.803687302583636e+17
19171.0	6.802288164558163e+17
19172.0	6.801051836831059e+17
19173.0	6.799898520671572e+17
19174.0	6.798375445157204e+17
19175.0	6.797336482501972e+17
19176.0	6.796067579712852e+17
19177.0	6.793668997764435e+17
19178.0	6.793310903468031e+17
19179.0	6.791953491077802e+17
19180.0	6.790800882357588e+17
19181.0	6.789007051238057e+17
19182.0	6.788173693364905e+17
19183.0	6.787127745096362e+17
19184.0	6.785822690202963e+17
19185.0	6.784467523163476e+17
19186.0	6.783248259962195e+17
19187.0	6.781368894401193e+17
19188.0	6.780590524552532e+17
19189.0	6.779268147183615e+17
19190.0	6.777891160675668e+17
19191.0	6.776300502340948e+17
19192.0	6.77516933000943e+17
19193.0	6.77360743621154e+17
19194.0	6.771897693896704e+17
19195.0	6.770285047622314e+17
19196.0	6.767941171281919e+17
19197.0	6.764530172428287e+17
19198.0	6.756612502978559e+17
19199.0	6.726787088951976e+17
19200.0	6.729355227037699e+17
19201.0	6.75361685905954e+17
19202.0	6.758365286541993e+17
19203.0	6.758961610315091e+17
19204.0	6.758631752073215e+17
19205.0	6.757864565637119e+17
19206.0	6.756869112594431e+17
19207.0	6.754858073849853e+17
19208.0	6.753615394548393e+17
19209.0	6.7533664171677e+17
19210.0	6.752202292985855e+17
19211.0	6.751055169017172e+17
19212.0	6.749704689112404e+17
19213.0	6.747551503308114e+17
19214.0	6.746282303422464e+17
19215.0	6.745713338395306e+17
19216.0	6.744568004695379e+17
19217.0	6.742851420072617e+17
19218.0	6.738278446617939e+17
19219.0	6.739031796744188e+17
19220.0	6.739188814009684e+17
19221.0	6.736893974675455e+17
19222.0	6.736580094634666e+17
19223.0	6.735570722794153e+17
19224.0	6.734064882373971e+17
19225.0	6.732587632427005e+17
19226.0	6.731732548758185e+17
19227.0	6.730519163174911e+17
19228.0	6.729435683575124e+17
19229.0	6.728149133251924e+17
19230.0	6.726825577982633e+17
19231.0	6.72548327207731e+17
19232.0	6.724239848985939e+17
19233.0	6.722500613024425e+17
19234.0	6.721614263615487e+17
19235.0	6.720151271505919e+17
19236.0	6.719137635456339e+17
19237.0	6.717745538968233e+17
19238.0	6.715918931460095e+17
19239.0	6.715273867777364e+17
19240.0	6.713962213845673e+17
19241.0	6.712532351145299e+17
19242.0	6.711292962974378e+17
19243.0	6.708843461476348e+17
19244.0	6.708831637733375e+17
19245.0	6.707487529675433e+17
19246.0	6.706164426691923e+17
19247.0	6.704834027017555e+17
19248.0	6.703621130070698e+17
19249.0	6.702288643031039e+17
19250.0	6.700824303850836e+17
19251.0	6.698942367181477e+17
19252.0	6.696158145544192e+17
19253.0	6.696975590227965e+17
19254.0	6.695827860881408e+17
19255.0	6.693009265524732e+17
19256.0	6.6930236981248e+17
19257.0	6.691849913761791e+17
19258.0	6.690552187715583e+17
19259.0	6.688571463303167e+17
19260.0	6.686326320878931e+17
19261.0	6.686435695045289e+17
19262.0	6.684765288311465e+17
19263.0	6.683105272266751e+17
19264.0	6.679641703404883e+17
19265.0	6.679970034221055e+17
19266.0	6.67877494628898e+17
19267.0	6.678704489671337e+17
19268.0	6.677358731154771e+17
19269.0	6.676018137224531e+17
19270.0	6.674437507470675e+17
19271.0	6.6716459059555e+17
19272.0	6.671733074777428e+17
19273.0	6.668430314831871e+17
19274.0	6.6660908222382e+17
19275.0	6.668105833687721e+17
19276.0	6.666692836283732e+17
19277.0	6.665392792185514e+17
19278.0	6.664065350893567e+17
19279.0	6.662484439422292e+17
19280.0	6.660952558665727e+17
19281.0	6.65991582528307e+17
19282.0	6.658634857578495e+17
19283.0	6.657084001091585e+17
19284.0	6.65527956537344e+17
19285.0	6.653716425867261e+17
19286.0	6.652448249391785e+17
19287.0	6.650499003929939e+17
19288.0	6.624980343193583e+17
19289.0	6.606547984231048e+17
19290.0	6.646201327113555e+17
19291.0	6.644209775804422e+17
19292.0	6.645051456574803e+17
19293.0	6.643812200524457e+17
19294.0	6.642428704456704e+17
19295.0	6.641197021222227e+17
19296.0	6.639587544443562e+17
19297.0	6.638214964051967e+17
19298.0	6.636899953978025e+17
19299.0	6.635496820178943e+17
19300.0	6.634348289021268e+17
19301.0	6.632980243371348e+17
19302.0	6.631361784490665e+17
19303.0	6.629558392455167e+17
19304.0	6.628531589786282e+17
19305.0	6.627112040180393e+17
19306.0	6.625712986041001e+17
19307.0	6.623980221191508e+17
19308.0	6.62246754825011e+17
19309.0	6.620053120920233e+17
19310.0	6.618013128196095e+17
19311.0	6.617754231985492e+17
19312.0	6.616801899883178e+17
19313.0	6.614854409737558e+17
19314.0	6.544155031371776e+17
19315.0	6.54780359420594e+17
19316.0	6.609976547431764e+17
19317.0	6.609643709835946e+17
19318.0	6.608431028895741e+17
19319.0	6.607191588995072e+17
19320.0	6.605682768521897e+17
19321.0	6.604046002902355e+17
19322.0	6.602353156642132e+17
19323.0	6.600853582512127e+17
19324.0	6.599529917491881e+17
19325.0	6.59773092667938e+17
19326.0	6.596451444457471e+17
19327.0	6.595131640294058e+17
19328.0	6.593418451659434e+17
19329.0	6.592345857676627e+17
19330.0	6.590700604882943e+17
19331.0	6.589008600279722e+17
19332.0	6.587831496125097e+17
19333.0	6.586198668257962e+17
19334.0	6.584708966121471e+17
19335.0	6.582367072288768e+17
19336.0	6.581515309809663e+17
19337.0	6.579979477319679e+17
19338.0	6.576932389563048e+17
19339.0	6.57676028748322e+17
19340.0	6.574565101316778e+17
19341.0	6.572692371843753e+17
19342.0	6.569977031862953e+17
19343.0	6.57001111757346e+17
19344.0	6.567643105110698e+17
19345.0	6.556673820852218e+17
19346.0	6.558154884819622e+17
19347.0	6.562510594026153e+17
19348.0	6.561853394823849e+17
19349.0	6.560032652350804e+17
19350.0	6.55832429765154e+17
19351.0	6.556688347125075e+17
19352.0	6.55442865955362e+17
19353.0	6.55358646288384e+17
19354.0	6.551851074497193e+17
19355.0	6.549375550838103e+17
19356.0	6.548325131441491e+17
19357.0	6.546541677729107e+17
19358.0	6.544575699790504e+17
19359.0	6.542447767191551e+17
19360.0	6.54030535795234e+17
19361.0	6.538849175994368e+17
19362.0	6.537159271339348e+17
19363.0	6.535262027557546e+17
19364.0	6.533331671143763e+17
19365.0	6.531332296758612e+17
19366.0	6.52939359298082e+17
19367.0	6.527373042253823e+17
19368.0	6.525096084635647e+17
19369.0	6.522713361350655e+17
19370.0	6.520698656085334e+17
19371.0	6.518455017319082e+17
19372.0	6.516716926402559e+17
19373.0	6.514369999405055e+17
19374.0	6.512268701335551e+17
19375.0	6.509975438360576e+17
19376.0	6.507417160384511e+17
19377.0	6.505046535569407e+17
19378.0	6.502678257467391e+17
19379.0	6.500254837549737e+17
19380.0	6.497830701804202e+17
19381.0	6.495324076681897e+17
19382.0	6.49192184811793e+17
19383.0	6.48930495124821e+17
19384.0	6.487173511512064e+17
19385.0	6.484660072742911e+17
19386.0	6.482019373197993e+17
19387.0	6.479252968265044e+17
19388.0	6.475824710549501e+17
19389.0	6.472583182548991e+17
19390.0	6.467872939311103e+17
19391.0	6.412009980908838e+17
19392.0	6.455218516525051e+17
19393.0	6.459428335954604e+17
19394.0	6.456587670869334e+17
19395.0	6.453363080167423e+17
19396.0	6.450211860425385e+17
19397.0	6.446886627398995e+17
19398.0	6.44257579864337e+17
19399.0	6.435287083253759e+17
19400.0	6.433485781379753e+17
19401.0	6.430763320868863e+17
19402.0	6.42695481664034e+17
19403.0	6.422645541175295e+17
19404.0	6.418337765173929e+17
19405.0	6.413909625230675e+17
19406.0	6.409169756225533e+17
19407.0	6.404268579181908e+17
19408.0	6.396344057637548e+17
19409.0	6.394449575804927e+17
19410.0	6.390043335720959e+17
19411.0	6.384821880225791e+17
19412.0	6.378725577501354e+17
19413.0	6.37256578699537e+17
19414.0	6.366498384423593e+17
19415.0	6.360244672266239e+17
19416.0	6.352637112178002e+17
19417.0	6.346622494223017e+17
19418.0	6.339218467629737e+17
19419.0	6.331876206357162e+17
19420.0	6.32409930404113e+17
19421.0	6.315310509806934e+17
19422.0	6.306355106633044e+17
19423.0	6.297444431517012e+17
19424.0	6.287995101511679e+17
19425.0	6.277601475690495e+17
19426.0	6.266982225674237e+17
19427.0	6.255146075947008e+17
19428.0	6.242800692974932e+17
19429.0	6.22965552333892e+17
19430.0	6.212415680501079e+17
19431.0	6.192606947399002e+17
19432.0	6.185085278967124e+17
19433.0	6.168789066448896e+17
19434.0	6.150624534768297e+17
19435.0	6.128524487644499e+17
19436.0	6.104873811924307e+17
19437.0	6.082955276102313e+17
19438.0	5.980223640174607e+17
19439.0	6.018880426912424e+17
19440.0	6.002455867992744e+17
19441.0	5.970255097277097e+17
19442.0	5.932610911294806e+17
19443.0	5.890267438295721e+17
19444.0	5.841671451312124e+17
19445.0	5.785631154940589e+17
19446.0	5.7193515041423354e+17
19447.0	5.6391576315057434e+17
19448.0	5.5382243942946176e+17
19449.0	5.403038353894058e+17
19450.0	5.194930857181172e+17
19451.0	5.053430748588723e+17
19452.0	5.3141258220776115e+17
19453.0	5.474568278551215e+17
19454.0	5.587475328838309e+17
19455.0	5.6743383601425043e+17
19456.0	5.744225128458925e+17
19457.0	5.801809294305958e+17
19458.0	5.714150974030016e+17
19459.0	5.884337313895796e+17
19460.0	5.933121469240658e+17
19461.0	5.967107186141866e+17
19462.0	5.996487737606144e+17
19463.0	6.023187108200445e+17
19464.0	6.04721181237794e+17
19465.0	6.06900804718865e+17
19466.0	6.088668737437695e+17
19467.0	6.107137956642815e+17
19468.0	6.123325434626048e+17
19469.0	6.137241859872082e+17
19470.0	6.152110248820736e+17
19471.0	6.165217873144492e+17
19472.0	6.176922579675816e+17
19473.0	6.187577509937151e+17
19474.0	6.197268702385492e+17
19475.0	6.203428154550952e+17
19476.0	6.215392131984041e+17
19477.0	6.224335327636138e+17
19478.0	6.231883940276905e+17
19479.0	6.238554832590163e+17
19480.0	6.245098639589376e+17
19481.0	6.251555946059092e+17
19482.0	6.257547294015487e+17
19483.0	6.262868966812329e+17
19484.0	6.267992527252138e+17
19485.0	6.272675505416873e+17
19486.0	6.27668414435601e+17
19487.0	6.280994080423935e+17
19488.0	6.28458758742562e+17
19489.0	6.286205296224937e+17
19490.0	6.285668700039848e+17
19491.0	6.294682020959571e+17
19492.0	6.29804389892096e+17
19493.0	6.300599614876329e+17
19494.0	6.302780009829716e+17
19495.0	6.304694070673408e+17
19496.0	6.304776343344466e+17
19497.0	6.307269143341738e+17
19498.0	6.289780409106424e+17
19499.0	6.2295056706437e+17
19500.0	6.311563805851647e+17
19501.0	6.315680886423551e+17
19502.0	6.317629753698985e+17
19503.0	6.319542768762879e+17
19504.0	6.321572125431124e+17
19505.0	6.322666931748863e+17
19506.0	6.323700566239913e+17
19507.0	6.324405954499924e+17
19508.0	6.325184245355859e+17
19509.0	6.325843263487999e+17
19510.0	6.323283497233065e+17
19511.0	6.203643207701778e+17
19512.0	6.304987325224271e+17
19513.0	6.299796634948928e+17
19514.0	6.306435788963825e+17
19515.0	6.326920661346988e+17
19516.0	6.330121889076564e+17
19517.0	6.330635219457363e+17
19518.0	6.331227223796393e+17
19519.0	6.331370871717887e+17
19520.0	6.331548959768573e+17
19521.0	6.332247937034921e+17
19522.0	6.331998255011156e+17
19523.0	6.332238379614207e+17
19524.0	6.332119819223039e+17
19525.0	6.332241598742527e+17
19526.0	6.332270556916393e+17
19527.0	6.332341249813161e+17
19528.0	6.332157608503977e+17
19529.0	6.331911253961386e+17
19530.0	6.331781049483263e+17
19531.0	6.331555359577427e+17
19532.0	6.331229871800319e+17
19533.0	6.330907231955625e+17
19534.0	6.330606937265492e+17
19535.0	6.33023240409361e+17
19536.0	6.329689782091773e+17
19537.0	6.329394483516756e+17
19538.0	6.327476979848534e+17
19539.0	6.32596816776397e+17
19540.0	6.327724684257962e+17
19541.0	6.32743198335522e+17
19542.0	6.326899503180457e+17
19543.0	6.326015435472895e+17
19544.0	6.325582037341524e+17
19545.0	6.321820925252947e+17
19546.0	6.320101745055059e+17
19547.0	6.323852286798505e+17
19548.0	6.323448787064148e+17
19549.0	6.322077625745405e+17
19550.0	6.322223761588224e+17
19551.0	6.321554210859689e+17
19552.0	6.320833854526803e+17
19553.0	6.319992246457684e+17
19554.0	6.319207051777363e+17
19555.0	6.318544183973203e+17
19556.0	6.317914667876352e+17
19557.0	6.317202269536256e+17
19558.0	6.316516861542399e+17
19559.0	6.315758268536147e+17
19560.0	6.314684254082388e+17
19561.0	6.31399344172783e+17
19562.0	6.313232906059773e+17
19563.0	6.312593065683625e+17
19564.0	6.311761145058644e+17
19565.0	6.31093022827042e+17
19566.0	6.309933316308991e+17
19567.0	6.309239866436266e+17
19568.0	6.308225968242687e+17
19569.0	6.30751324414498e+17
19570.0	6.30678189314321e+17
19571.0	6.305903832378025e+17
19572.0	6.304740758869334e+17
19573.0	6.304024317919232e+17
19574.0	6.302497517163858e+17
19575.0	6.302307128617641e+17
19576.0	6.30137324516147e+17
19577.0	6.300346001391616e+17
19578.0	6.29955922895394e+17
19579.0	6.298662987279018e+17
19580.0	6.29775735595554e+17
19581.0	6.296960609462953e+17
19582.0	6.29609153429504e+17
19583.0	6.295135815991296e+17
19584.0	6.294133995296084e+17
19585.0	6.292331330972328e+17
19586.0	6.291128476587351e+17
19587.0	6.290882138122922e+17
19588.0	6.287959714168831e+17
19589.0	6.28900816294161e+17
19590.0	6.287805097443327e+17
19591.0	6.287443633722708e+17
19592.0	6.286535036327252e+17
19593.0	6.285375805500073e+17
19594.0	6.282703326412796e+17
19595.0	6.283372478682452e+17
19596.0	6.281364608035497e+17
19597.0	6.281412065886208e+17
19598.0	6.278252986018473e+17
19599.0	6.279454530382506e+17
19600.0	6.278635024198313e+17
19601.0	6.277204063289344e+17
19602.0	6.275910676250623e+17
19603.0	6.273247362416637e+17
19604.0	6.273860162813951e+17
19605.0	6.271667599485615e+17
19606.0	6.272551864325462e+17
19607.0	6.271595026841599e+17
19608.0	6.270520958560938e+17
19609.0	6.269263932642643e+17
19610.0	6.268404795179007e+17
19611.0	6.267270600152404e+17
19612.0	6.266519525436074e+17
19613.0	6.265390060885332e+17
19614.0	6.264102473170943e+17
19615.0	6.263242824002218e+17
19616.0	6.261592642202282e+17
19617.0	6.260707927173802e+17
19618.0	6.256286486932134e+17
19619.0	6.254253758043474e+17
19620.0	6.254306445492223e+17
19621.0	6.256358375205546e+17
19622.0	6.255890415310163e+17
19623.0	6.25485615936307e+17
19624.0	6.253653411932842e+17
19625.0	6.252642035914067e+17
19626.0	6.251319090216959e+17
19627.0	6.249871353490089e+17
19628.0	6.247478302430548e+17
19629.0	6.24383738721075e+17
19630.0	6.230476908571302e+17
19631.0	6.208555401783981e+17
19632.0	6.239485801704106e+17
19633.0	6.242148285065897e+17
19634.0	6.242473105948671e+17
19635.0	6.241462087843837e+17
19636.0	6.24050863026995e+17
19637.0	6.23682120091785e+17
19638.0	6.238803321334442e+17
19639.0	6.237758576132095e+17
19640.0	6.23565587157265e+17
19641.0	6.230868708294664e+17
19642.0	6.234515594106196e+17
19643.0	6.233424608100351e+17
19644.0	6.231897921989289e+17
19645.0	6.230122431862099e+17
19646.0	6.230003758923773e+17
19647.0	6.229355971040595e+17
19648.0	6.228268745927337e+17
19649.0	6.227184915404116e+17
19650.0	6.226145425664682e+17
19651.0	6.225018715373565e+17
19652.0	6.223915707094356e+17
19653.0	6.222913423627604e+17
19654.0	6.22178031772194e+17
19655.0	6.220651270504447e+17
19656.0	6.219647142242985e+17
19657.0	6.218532275967316e+17
19658.0	6.217487633525418e+17
19659.0	6.216393998816596e+17
19660.0	6.215341839482877e+17
19661.0	6.2142118639261e+17
19662.0	6.213118989085353e+17
19663.0	6.211763387236351e+17
19664.0	6.210753725988863e+17
19665.0	6.209855073288191e+17
