# Flux units: erg / (cm m2 s)
# Wavelength units: Angstrom
wave	flux
19000.0	7.08044645273873e+17
19001.0	7.079087949829459e+17
19002.0	7.077807087681536e+17
19003.0	7.076486035712681e+17
19004.0	7.075164987938131e+17
19005.0	7.073845378809855e+17
19006.0	7.072524435892905e+17
19007.0	7.071203220346198e+17
19008.0	7.069857507267923e+17
19009.0	7.068525291459923e+17
19010.0	7.06706566947362e+17
19011.0	7.06590370046498e+17
19012.0	7.064553474315603e+17
19013.0	7.063273019015168e+17
19014.0	7.06192204767778e+17
19015.0	7.060610016258729e+17
19016.0	7.059282883947178e+17
19017.0	7.057967532037459e+17
19018.0	7.056652100435965e+17
19019.0	7.055334736658432e+17
19020.0	7.053996151100756e+17
19021.0	7.05268443844881e+17
19022.0	7.051367382253565e+17
19023.0	7.050034589029716e+17
19024.0	7.048709618182825e+17
19025.0	7.0473933141661e+17
19026.0	7.046060170018815e+17
19027.0	7.044731731880617e+17
19028.0	7.043425861894143e+17
19029.0	7.042101797016916e+17
19030.0	7.040778180930217e+17
19031.0	7.039454197142868e+17
19032.0	7.038130242715647e+17
19033.0	7.036770873682602e+17
19034.0	7.035481985733972e+17
19035.0	7.034142966065833e+17
19036.0	7.031627171495935e+17
19037.0	7.031509282892458e+17
19038.0	7.030175615156224e+17
19039.0	7.02886141947631e+17
19040.0	7.027537235760468e+17
19041.0	7.026212584379731e+17
19042.0	7.024857106961748e+17
19043.0	7.023564639873706e+17
19044.0	7.022239497759401e+17
19045.0	7.020916171778729e+17
19046.0	7.019572499229353e+17
19047.0	7.018261115830271e+17
19048.0	7.016866093815123e+17
19049.0	7.015593785950207e+17
19050.0	7.01427890659874e+17
19051.0	7.012778066487977e+17
19052.0	7.011613776631124e+17
19053.0	7.010322822987775e+17
19054.0	7.008998468004521e+17
19055.0	7.007574480825002e+17
19056.0	7.006342471133865e+17
19057.0	7.005027097553578e+17
19058.0	7.003703201147562e+17
19059.0	7.002378820299433e+17
19060.0	7.001046283627178e+17
19061.0	6.999731889416874e+17
19062.0	6.998406327173119e+17
19063.0	6.997083407340884e+17
19064.0	6.995714995388413e+17
19065.0	6.994366794388819e+17
19066.0	6.993089613441706e+17
19067.0	6.991789256168787e+17
19068.0	6.990466692153343e+17
19069.0	6.989143800982185e+17
19070.0	6.987816683350698e+17
19071.0	6.986497509031935e+17
19072.0	6.985174396261716e+17
19073.0	6.983849230379689e+17
19074.0	6.982528441952938e+17
19075.0	6.981205568957098e+17
19076.0	6.979874665966249e+17
19077.0	6.978554955475625e+17
19078.0	6.977225975573161e+17
19079.0	6.975914806782633e+17
19080.0	6.974589055795199e+17
19081.0	6.973254584849748e+17
19082.0	6.971930111027882e+17
19083.0	6.970586064486399e+17
19084.0	6.969207616263508e+17
19085.0	6.967981041691306e+17
19086.0	6.966509412810751e+17
19087.0	6.965297639937364e+17
19088.0	6.963985312819881e+17
19089.0	6.96260689465617e+17
19090.0	6.961363784739497e+17
19091.0	6.960038706937855e+17
19092.0	6.958702884727465e+17
19093.0	6.957407527064916e+17
19094.0	6.956077357378217e+17
19095.0	6.954754175401983e+17
19096.0	6.953437391836499e+17
19097.0	6.952121944855891e+17
19098.0	6.95080234132002e+17
19099.0	6.949481242514772e+17
19100.0	6.948160784738986e+17
19101.0	6.946838998067881e+17
19102.0	6.945484418230953e+17
19103.0	6.944199346399913e+17
19104.0	6.942879022841855e+17
19105.0	6.941558718158164e+17
19106.0	6.940231715170986e+17
19107.0	6.938912717712041e+17
19108.0	6.937598392707754e+17
19109.0	6.936167431099732e+17
19110.0	6.934955403771903e+17
19111.0	6.933639378676393e+17
19112.0	6.932319918445908e+17
19113.0	6.93100047499264e+17
19114.0	6.929681094453929e+17
19115.0	6.928351617526442e+17
19116.0	6.927033389722281e+17
19117.0	6.925714574715561e+17
19118.0	6.924368771459753e+17
19119.0	6.921856028945064e+17
19120.0	6.921756850432682e+17
19121.0	6.920440084343465e+17
19122.0	6.919129502755498e+17
19123.0	6.917809834207913e+17
19124.0	6.916492225063594e+17
19125.0	6.915173646335999e+17
19126.0	6.913853299709267e+17
19127.0	6.911874503278592e+17
19128.0	6.91118962516514e+17
19129.0	6.90986870182161e+17
19130.0	6.908579086161236e+17
19131.0	6.907264690552831e+17
19132.0	6.905945639266985e+17
19133.0	6.904525563275945e+17
19134.0	6.90329935221009e+17
19135.0	6.901994835585706e+17
19136.0	6.900677746535081e+17
19137.0	6.899298274202964e+17
19138.0	6.898034623381501e+17
19139.0	6.89672530567714e+17
19140.0	6.895408804528127e+17
19141.0	6.894091611318953e+17
19142.0	6.892765048733695e+17
19143.0	6.891438121943039e+17
19144.0	6.890136618926079e+17
19145.0	6.88882412823074e+17
19146.0	6.887284533450067e+17
19147.0	6.886152683738452e+17
19148.0	6.884873320355156e+17
19149.0	6.883556859052032e+17
19150.0	6.882236975196842e+17
19151.0	6.880924318127443e+17
19152.0	6.879604402814975e+17
19153.0	6.878283745110698e+17
19154.0	6.876925393895423e+17
19155.0	6.875658866480467e+17
19156.0	6.874341443283625e+17
19157.0	6.873023750253226e+17
19158.0	6.871631071455913e+17
19159.0	6.870386441104042e+17
19160.0	6.869074344673279e+17
19161.0	6.867760758565546e+17
19162.0	6.866271122838868e+17
19163.0	6.86512451756578e+17
19164.0	6.863813682921471e+17
19165.0	6.862493845203626e+17
19166.0	6.861137373036543e+17
19167.0	6.85984938266897e+17
19168.0	6.858526856402259e+17
19169.0	6.857217170298196e+17
19170.0	6.855917210086057e+17
19171.0	6.85459152830464e+17
19172.0	6.85328565412386e+17
19173.0	6.851969712914431e+17
19174.0	6.850632185719465e+17
19175.0	6.849338184914259e+17
19176.0	6.848022143041535e+17
19177.0	6.846647414467242e+17
19178.0	6.845385363772756e+17
19179.0	6.844060107014143e+17
19180.0	6.842750528563881e+17
19181.0	6.841401907434836e+17
19182.0	6.840110817476607e+17
19183.0	6.838807534676649e+17
19184.0	6.83747186905361e+17
19185.0	6.836172486257321e+17
19186.0	6.834858335316649e+17
19187.0	6.833517086375933e+17
19188.0	6.832224413766995e+17
19189.0	6.830909867862698e+17
19190.0	6.829592348196863e+17
19191.0	6.828274019030356e+17
19192.0	6.826958573447849e+17
19193.0	6.82563855327778e+17
19194.0	6.824323180396543e+17
19195.0	6.823006492601002e+17
19196.0	6.821684564022612e+17
19197.0	6.820366768930815e+17
19198.0	6.81904886059281e+17
19199.0	6.816694779510783e+17
19200.0	6.815696375775231e+17
19201.0	6.815095919214591e+17
19202.0	6.813781182469462e+17
19203.0	6.81246359499571e+17
19204.0	6.811135488207529e+17
19205.0	6.809826136249684e+17
19206.0	6.808502046905684e+17
19207.0	6.807160815441236e+17
19208.0	6.80579396936226e+17
19209.0	6.804549743760724e+17
19210.0	6.8032297711261e+17
19211.0	6.801909231561385e+17
19212.0	6.800589535051775e+17
19213.0	6.799235984217427e+17
19214.0	6.797900138239316e+17
19215.0	6.79662293492258e+17
19216.0	6.795163105318228e+17
19217.0	6.793365476256425e+17
19218.0	6.791727063673512e+17
19219.0	6.790659409881769e+17
19220.0	6.789389853480276e+17
19221.0	6.787953231659007e+17
19222.0	6.786750494714538e+17
19223.0	6.785429035199145e+17
19224.0	6.784090341987668e+17
19225.0	6.782725478416383e+17
19226.0	6.781457985612457e+17
19227.0	6.780124604486996e+17
19228.0	6.778808080269311e+17
19229.0	6.777482116770474e+17
19230.0	6.776154616758271e+17
19231.0	6.7748299290269e+17
19232.0	6.773494663260842e+17
19233.0	6.772146503505236e+17
19234.0	6.770837522743295e+17
19235.0	6.769509304806057e+17
19236.0	6.768188940703062e+17
19237.0	6.766853158338559e+17
19238.0	6.765493778120703e+17
19239.0	6.764199009058815e+17
19240.0	6.762824520957951e+17
19241.0	6.76151235252497e+17
19242.0	6.76019569828386e+17
19243.0	6.758802913230847e+17
19244.0	6.757536919191551e+17
19245.0	6.756202348980906e+17
19246.0	6.75486108885538e+17
19247.0	6.753530626965503e+17
19248.0	6.752194892136447e+17
19249.0	6.750856974172159e+17
19250.0	6.749516761923583e+17
19251.0	6.748128533981866e+17
19252.0	6.746730237613396e+17
19253.0	6.745496039194623e+17
19254.0	6.744151796219903e+17
19255.0	6.742744946966527e+17
19256.0	6.741455850001748e+17
19257.0	6.740128949775018e+17
19258.0	6.738783380701183e+17
19259.0	6.737409651769343e+17
19260.0	6.736067020805459e+17
19261.0	6.734741995432617e+17
19262.0	6.733373628918441e+17
19263.0	6.73201943355938e+17
19264.0	6.730496994181119e+17
19265.0	6.729265670258687e+17
19266.0	6.72792322384418e+17
19267.0	6.726629443938985e+17
19268.0	6.725273036084564e+17
19269.0	6.723915316811092e+17
19270.0	6.722555435373908e+17
19271.0	6.721070131664212e+17
19272.0	6.719819711075668e+17
19273.0	6.717245199045971e+17
19274.0	6.716394797618515e+17
19275.0	6.715739376801108e+17
19276.0	6.71436423438882e+17
19277.0	6.713002957646506e+17
19278.0	6.711631941730303e+17
19279.0	6.7102571509405e+17
19280.0	6.708854991618047e+17
19281.0	6.707506998935551e+17
19282.0	6.706129851645951e+17
19283.0	6.704734170426025e+17
19284.0	6.703346721226751e+17
19285.0	6.701909298992467e+17
19286.0	6.700585152326314e+17
19287.0	6.699209219986772e+17
19288.0	6.697474116812797e+17
19289.0	6.695662225719295e+17
19290.0	6.695031873557844e+17
19291.0	6.693531528374953e+17
19292.0	6.692234784494932e+17
19293.0	6.690722867926355e+17
19294.0	6.689274610406739e+17
19295.0	6.687867211000489e+17
19296.0	6.686457005604863e+17
19297.0	6.685043440571732e+17
19298.0	6.683628287994538e+17
19299.0	6.68220949406242e+17
19300.0	6.680786820399101e+17
19301.0	6.679359790252031e+17
19302.0	6.67792715092241e+17
19303.0	6.676471224816979e+17
19304.0	6.675049035595775e+17
19305.0	6.673628285020842e+17
19306.0	6.672187336774995e+17
19307.0	6.670719542187348e+17
19308.0	6.66927777325602e+17
19309.0	6.667801340499284e+17
19310.0	6.666324656783359e+17
19311.0	6.664902087278591e+17
19312.0	6.663453861216255e+17
19313.0	6.661973512377684e+17
19314.0	6.659785055272959e+17
19315.0	6.65834132410641e+17
19316.0	6.657544849544532e+17
19317.0	6.656071833048404e+17
19318.0	6.654602203452755e+17
19319.0	6.653103346548735e+17
19320.0	6.651595907399679e+17
19321.0	6.650088191426559e+17
19322.0	6.648510863289002e+17
19323.0	6.646164265544362e+17
19324.0	6.644650906135209e+17
19325.0	6.64308492149282e+17
19326.0	6.641574609245524e+17
19327.0	6.640021183747412e+17
19328.0	6.638471975621972e+17
19329.0	6.636910424358911e+17
19330.0	6.635326217562793e+17
19331.0	6.633746871965012e+17
19332.0	6.632177503218346e+17
19333.0	6.630586420559871e+17
19334.0	6.62898216149538e+17
19335.0	6.627375854212436e+17
19336.0	6.625756255180115e+17
19337.0	6.624126777163775e+17
19338.0	6.622410790229334e+17
19339.0	6.620846272195241e+17
19340.0	6.619168375832575e+17
19341.0	6.617515278292308e+17
19342.0	6.615706783885993e+17
19343.0	6.614158874596691e+17
19344.0	6.612459722200404e+17
19345.0	6.61004066575701e+17
19346.0	6.608693230916948e+17
19347.0	6.607261488469331e+17
19348.0	6.60554007061026e+17
19349.0	6.602951337792852e+17
19350.0	6.600797236931242e+17
19351.0	6.599003149959167e+17
19352.0	6.597175456825343e+17
19353.0	6.595380057735165e+17
19354.0	6.593540064804863e+17
19355.0	6.591650468637353e+17
19356.0	6.589807144031572e+17
19357.0	6.587914421010432e+17
19358.0	6.58599083839761e+17
19359.0	6.584007693172736e+17
19360.0	6.582105317659988e+17
19361.0	6.580135641044308e+17
19362.0	6.577635260541612e+17
19363.0	6.574579235422207e+17
19364.0	6.57253673869858e+17
19365.0	6.570471062153898e+17
19366.0	6.568379538210815e+17
19367.0	6.566262071099391e+17
19368.0	6.564117876484777e+17
19369.0	6.561909639042388e+17
19370.0	6.559603033287338e+17
19371.0	6.555811937517564e+17
19372.0	6.553249600853331e+17
19373.0	6.550939857059839e+17
19374.0	6.54859478883806e+17
19375.0	6.546211554547027e+17
19376.0	6.543791729846953e+17
19377.0	6.539338313629695e+17
19378.0	6.536371172103508e+17
19379.0	6.533809413554175e+17
19380.0	6.531200978692777e+17
19381.0	6.527703143765334e+17
19382.0	6.522846459898538e+17
19383.0	6.520047892343465e+17
19384.0	6.517251713444521e+17
19385.0	6.51207281265869e+17
19386.0	6.507893617240745e+17
19387.0	6.504846718227795e+17
19388.0	6.498949247183532e+17
19389.0	6.494452742881279e+17
19390.0	6.490385737405775e+17
19391.0	6.481872303423484e+17
19392.0	6.479086877321894e+17
19393.0	6.472865817122131e+17
19394.0	6.469136870451882e+17
19395.0	6.465315921723391e+17
19396.0	6.461388540433748e+17
19397.0	6.457356643379882e+17
19398.0	6.453204494232234e+17
19399.0	6.448715372604074e+17
19400.0	6.444558492980563e+17
19401.0	6.440082314974548e+17
19402.0	6.435449853007188e+17
19403.0	6.430278149647017e+17
19404.0	6.424955605133993e+17
19405.0	6.419861778115242e+17
19406.0	6.414604199176874e+17
19407.0	6.409174590160895e+17
19408.0	6.403308221977939e+17
19409.0	6.396778404380671e+17
19410.0	6.390554722041855e+17
19411.0	6.384344088182783e+17
19412.0	6.377512790305448e+17
19413.0	6.369528889300307e+17
19414.0	6.362556373401597e+17
19415.0	6.353874539511809e+17
19416.0	6.345478334928212e+17
19417.0	6.335548634081958e+17
19418.0	6.325883849670659e+17
19419.0	6.314293723135999e+17
19420.0	6.301457083006973e+17
19421.0	6.287380421367123e+17
19422.0	6.271342837323082e+17
19423.0	6.251257546495314e+17
19424.0	6.229167987228672e+17
19425.0	6.208650508326227e+17
19426.0	6.194199234521769e+17
19427.0	6.179068775672492e+17
19428.0	6.16290473546001e+17
19429.0	6.146026807929512e+17
19430.0	6.128365118073514e+17
19431.0	6.109586718545236e+17
19432.0	6.089161306013695e+17
19433.0	6.068214249990828e+17
19434.0	6.04569173229568e+17
19435.0	6.020986538644819e+17
19436.0	5.992886346711037e+17
19437.0	5.960448069337088e+17
19438.0	5.919214185480191e+17
19439.0	5.86731861713442e+17
19440.0	5.814877699790164e+17
19441.0	5.770066810721619e+17
19442.0	5.721565850588503e+17
19443.0	5.665932825329663e+17
19444.0	5.5982860446378643e+17
19445.0	5.5099047458897914e+17
19446.0	5.409396793627989e+17
19447.0	5.299921379568292e+17
19448.0	5.1543574986096736e+17
19449.0	4.96107924820241e+17
19450.0	4.669205751616805e+17
19451.0	4.590243707617282e+17
19452.0	4.8183409244460416e+17
19453.0	5.06622421884383e+17
19454.0	5.2293108491441434e+17
19455.0	5.352143596115285e+17
19456.0	5.4512680627950976e+17
19457.0	5.5469327305932794e+17
19458.0	5.620271243329538e+17
19459.0	5.679629618642946e+17
19460.0	5.729083074456231e+17
19461.0	5.773191349796864e+17
19462.0	5.816912474101082e+17
19463.0	5.871875387992749e+17
19464.0	5.914957175936337e+17
19465.0	5.94830186197811e+17
19466.0	5.976019884310527e+17
19467.0	5.999729339706028e+17
19468.0	6.020723847288151e+17
19469.0	6.040107863070035e+17
19470.0	6.058635797637802e+17
19471.0	6.075872358432768e+17
19472.0	6.091613393300136e+17
19473.0	6.106403961132372e+17
19474.0	6.120693963948031e+17
19475.0	6.133613495407956e+17
19476.0	6.146218298878633e+17
19477.0	6.159920355344379e+17
19478.0	6.180861422600198e+17
19479.0	6.199156100737701e+17
19480.0	6.214108818265425e+17
19481.0	6.226869798742698e+17
19482.0	6.237806538697386e+17
19483.0	6.247001172388525e+17
19484.0	6.255304835246762e+17
19485.0	6.263124456549033e+17
19486.0	6.26902471610641e+17
19487.0	6.275821767491581e+17
19488.0	6.280843378382164e+17
19489.0	6.285620794796716e+17
19490.0	6.290545171933865e+17
19491.0	6.294867588153343e+17
19492.0	6.298542475138388e+17
19493.0	6.302765594006867e+17
19494.0	6.306427086482092e+17
19495.0	6.309493436579837e+17
19496.0	6.312261529021097e+17
19497.0	6.315100480034132e+17
19498.0	6.317535421005823e+17
19499.0	6.319146750268756e+17
19500.0	6.323074843891027e+17
19501.0	6.32518950920738e+17
19502.0	6.327168323813375e+17
19503.0	6.329022847210836e+17
19504.0	6.330765139421865e+17
19505.0	6.332396202885119e+17
19506.0	6.333916362659156e+17
19507.0	6.335328619768489e+17
19508.0	6.336643715825663e+17
19509.0	6.338785491025917e+17
19510.0	6.341436471508991e+17
19511.0	6.342080155265705e+17
19512.0	6.348002850854227e+17
19513.0	6.348510901305343e+17
19514.0	6.351874079500969e+17
19515.0	6.354129108598783e+17
19516.0	6.354843706152276e+17
19517.0	6.357185564333398e+17
19518.0	6.359054401492308e+17
19519.0	6.359403709420884e+17
19520.0	6.359693154145622e+17
19521.0	6.362290848792577e+17
19522.0	6.362893912812202e+17
19523.0	6.363018952004948e+17
19524.0	6.363097593806847e+17
19525.0	6.363364431932072e+17
19526.0	6.365414419682644e+17
19527.0	6.365356046854825e+17
19528.0	6.365259967234047e+17
19529.0	6.365127318175743e+17
19530.0	6.364959988514815e+17
19531.0	6.364759528046591e+17
19532.0	6.36590429132117e+17
19533.0	6.366105088032767e+17
19534.0	6.365804304706217e+17
19535.0	6.365475536983379e+17
19536.0	6.365105072286377e+17
19537.0	6.364740292968448e+17
19538.0	6.364293422033578e+17
19539.0	6.363712015302656e+17
19540.0	6.363444420105556e+17
19541.0	6.36384514670592e+17
19542.0	6.363934063154516e+17
19543.0	6.363416076397228e+17
19544.0	6.362878566552916e+17
19545.0	6.362143061792084e+17
19546.0	6.361425546401108e+17
19547.0	6.361154757940563e+17
19548.0	6.360545355628543e+17
19549.0	6.359884055095978e+17
19550.0	6.35928169222417e+17
19551.0	6.358627115160916e+17
19552.0	6.357956547313663e+17
19553.0	6.357263312049491e+17
19554.0	6.356561361720659e+17
19555.0	6.355864119498068e+17
19556.0	6.355656341367466e+17
19557.0	6.355487001935871e+17
19558.0	6.354737294562643e+17
19559.0	6.353972591154515e+17
19560.0	6.353192377210196e+17
19561.0	6.352420331672916e+17
19562.0	6.351626727413076e+17
19563.0	6.350823147700223e+17
19564.0	6.350011124853417e+17
19565.0	6.349189529905834e+17
19566.0	6.348351171024212e+17
19567.0	6.347518331846655e+17
19568.0	6.346660015068499e+17
19569.0	6.345811723375956e+17
19570.0	6.344950680999252e+17
19571.0	6.34407664816401e+17
19572.0	6.34318771716096e+17
19573.0	6.342303460709716e+17
19574.0	6.341383359037439e+17
19575.0	6.340518276147882e+17
19576.0	6.339611850003795e+17
19577.0	6.338689707103572e+17
19578.0	6.337762545019562e+17
19579.0	6.336843647811583e+17
19580.0	6.335912673105236e+17
19581.0	6.334979111911423e+17
19582.0	6.334042788768425e+17
19583.0	6.33309505851665e+17
19584.0	6.332139273803091e+17
19585.0	6.331142609305599e+17
19586.0	6.330166650688852e+17
19587.0	6.329245550073172e+17
19588.0	6.328104344966484e+17
19589.0	6.327297777511081e+17
19590.0	6.326322218052265e+17
19591.0	6.326108551817897e+17
19592.0	6.325118360529578e+17
19593.0	6.324117131930282e+17
19594.0	6.323040661711529e+17
19595.0	6.322110348307114e+17
19596.0	6.320981161978538e+17
19597.0	6.320104512596649e+17
19598.0	6.318994418739881e+17
19599.0	6.318089529109162e+17
19600.0	6.317071718329002e+17
19601.0	6.316024211876521e+17
19602.0	6.315006454923263e+17
19603.0	6.313838483166548e+17
19604.0	6.312947245995348e+17
19605.0	6.311823294158164e+17
19606.0	6.310900381603156e+17
19607.0	6.30986470588416e+17
19608.0	6.30882226475281e+17
19609.0	6.307763941889366e+17
19610.0	6.306736132587519e+17
19611.0	6.305686430416895e+17
19612.0	6.304638936547327e+17
19613.0	6.30358686179874e+17
19614.0	6.302516172029951e+17
19615.0	6.301476071320233e+17
19616.0	6.300409182289919e+17
19617.0	6.299357722006868e+17
19618.0	6.298084779403946e+17
19619.0	6.296974969361748e+17
19620.0	6.295917789446143e+17
19621.0	6.295097979873961e+17
19622.0	6.294028758111572e+17
19623.0	6.292957799208276e+17
19624.0	6.291885194040659e+17
19625.0	6.290810923035306e+17
19626.0	6.289735127400447e+17
19627.0	6.288657815524691e+17
19628.0	6.287555065195178e+17
19629.0	6.286464808998227e+17
19630.0	6.285347860250623e+17
19631.0	6.283229907998038e+17
19632.0	6.283249636605951e+17
19633.0	6.282156884798121e+17
19634.0	6.281079151394815e+17
19635.0	6.279975627216212e+17
19636.0	6.278902958434986e+17
19637.0	6.277660478362964e+17
19638.0	6.276718726392489e+17
19639.0	6.275622655492095e+17
19640.0	6.274496641455446e+17
19641.0	6.27319404232704e+17
19642.0	6.272347466803882e+17
19643.0	6.27124863045905e+17
19644.0	6.270129553102163e+17
19645.0	6.268953628246015e+17
19646.0	6.267957703344127e+17
19647.0	6.266858144879956e+17
19648.0	6.265757701417641e+17
19649.0	6.26465533207074e+17
19650.0	6.263554409758719e+17
19651.0	6.262451637758633e+17
19652.0	6.261348060452179e+17
19653.0	6.260243063373823e+17
19654.0	6.259138940807848e+17
19655.0	6.258031482372095e+17
19656.0	6.256924334314838e+17
19657.0	6.255820126464682e+17
19658.0	6.254712624687786e+17
19659.0	6.253603922640895e+17
19660.0	6.252495856031059e+17
19661.0	6.251386581461674e+17
19662.0	6.250276730874538e+17
19663.0	6.249149866093226e+17
19664.0	6.248051544249684e+17
19665.0	6.24694425288704e+17
