# Flux units: erg / (cm m2 s)
# Wavelength units: Angstrom
wave	flux
19000.0	4.003487129359701e+17
19001.0	4.002719504618836e+17
19002.0	4.0020176367779834e+17
19003.0	4.001280719235755e+17
19004.0	4.000544932058453e+17
19005.0	3.9998091721441274e+17
19006.0	3.999074840390314e+17
19007.0	3.998329344797354e+17
19008.0	3.997584132319914e+17
19009.0	3.9968643729762976e+17
19010.0	3.9959470744971936e+17
19011.0	3.995392371501738e+17
19012.0	3.994616704182953e+17
19013.0	3.9939320910097056e+17
19014.0	3.9931804689367034e+17
19015.0	3.9924515841856845e+17
19016.0	3.9917124953920845e+17
19017.0	3.990988073380522e+17
19018.0	3.9902586161070074e+17
19019.0	3.9895276817394336e+17
19020.0	3.9887860903444486e+17
19021.0	3.988060189840725e+17
19022.0	3.987330850007723e+17
19023.0	3.986586728049322e+17
19024.0	3.985857464412842e+17
19025.0	3.985133317128191e+17
19026.0	3.984390459053397e+17
19027.0	3.9836482762615456e+17
19028.0	3.9829367531328845e+17
19029.0	3.982199613292543e+17
19030.0	3.9814765348563616e+17
19031.0	3.9807467371451725e+17
19032.0	3.980013644808191e+17
19033.0	3.979252020718249e+17
19034.0	3.9785468813202765e+17
19035.0	3.9778102343106554e+17
19036.0	3.975148659714728e+17
19037.0	3.9763558649910605e+17
19038.0	3.9756214067090765e+17
19039.0	3.9748968595674445e+17
19040.0	3.9741686424098125e+17
19041.0	3.9734360596807674e+17
19042.0	3.972676826344106e+17
19043.0	3.971979010200917e+17
19044.0	3.971245213919914e+17
19045.0	3.970518600384511e+17
19046.0	3.969767299874816e+17
19047.0	3.9690601374242125e+17
19048.0	3.968251030317738e+17
19049.0	3.96757895811345e+17
19050.0	3.9668561495108256e+17
19051.0	3.9658389867506336e+17
19052.0	3.9654027945137485e+17
19053.0	3.9646844780107085e+17
19054.0	3.963958802601301e+17
19055.0	3.9631455487262714e+17
19056.0	3.962493539276117e+17
19057.0	3.9617734206204576e+17
19058.0	3.961039752964778e+17
19059.0	3.960319009357823e+17
19060.0	3.9595847831606605e+17
19061.0	3.958866531669333e+17
19062.0	3.9581368262328314e+17
19063.0	3.957411317197482e+17
19064.0	3.956639723945983e+17
19065.0	3.955899757843796e+17
19066.0	3.9552122771647136e+17
19067.0	3.954501460776276e+17
19068.0	3.95377900659234e+17
19069.0	3.9530531571193165e+17
19070.0	3.9523170637578234e+17
19071.0	3.951599293213354e+17
19072.0	3.950876273497429e+17
19073.0	3.950148163294548e+17
19074.0	3.949425940496383e+17
19075.0	3.9487008047540896e+17
19076.0	3.947967767642112e+17
19077.0	3.9472470352199674e+17
19078.0	3.9465093536153594e+17
19079.0	3.94580103074065e+17
19080.0	3.9450727324931405e+17
19081.0	3.9443370942136314e+17
19082.0	3.943610814824448e+17
19083.0	3.942874206262612e+17
19084.0	3.9421070673619616e+17
19085.0	3.9414526902271994e+17
19086.0	3.9406114792188576e+17
19087.0	3.93995986543138e+17
19088.0	3.9392646896025594e+17
19089.0	3.9384792334772896e+17
19090.0	3.937831539266901e+17
19091.0	3.937112044164436e+17
19092.0	3.936364848480255e+17
19093.0	3.9356737537092256e+17
19094.0	3.9349497672062285e+17
19095.0	3.9342281323096736e+17
19096.0	3.933499820081151e+17
19097.0	3.932785291034624e+17
19098.0	3.932062049020586e+17
19099.0	3.931339805250901e+17
19100.0	3.930614826095957e+17
19101.0	3.9298985655009274e+17
19102.0	3.9291385792866976e+17
19103.0	3.9284552649495885e+17
19104.0	3.927505438943915e+17
19105.0	3.925521773625343e+17
19106.0	3.9247946344038394e+17
19107.0	3.924076984096084e+17
19108.0	3.92336379023633e+17
19109.0	3.9225008765009914e+17
19110.0	3.9219249356472314e+17
19111.0	3.921205090320383e+17
19112.0	3.920486582976512e+17
19113.0	3.919766821535743e+17
19114.0	3.919047657783295e+17
19115.0	3.9183107248619514e+17
19116.0	3.9176047934395725e+17
19117.0	3.9168881183074976e+17
19118.0	3.916142629005995e+17
19119.0	3.913472896488786e+17
19120.0	3.9147191255695354e+17
19121.0	3.9140121294929914e+17
19122.0	3.913304277778431e+17
19123.0	3.9125854537646074e+17
19124.0	3.911860773803348e+17
19125.0	3.911151076595029e+17
19126.0	3.910432472782164e+17
19127.0	3.909104328245246e+17
19128.0	3.908917618802687e+17
19129.0	3.908256017678336e+17
19130.0	3.9075646950167885e+17
19131.0	3.90684903280913e+17
19132.0	3.90613514269491e+17
19133.0	3.905327561616043e+17
19134.0	3.904662274397525e+17
19135.0	3.9039871620218874e+17
19136.0	3.903273878683648e+17
19137.0	3.9025014703390714e+17
19138.0	3.9018335316213754e+17
19139.0	3.901128020328448e+17
19140.0	3.900413426270206e+17
19141.0	3.8996987126743034e+17
19142.0	3.898975493728937e+17
19143.0	3.898246312580436e+17
19144.0	3.897544721563647e+17
19145.0	3.89683966185745e+17
19146.0	3.895921797147306e+17
19147.0	3.895379813378729e+17
19148.0	3.894697528743253e+17
19149.0	3.8939829465688736e+17
19150.0	3.8932687586590714e+17
19151.0	3.8925575277335885e+17
19152.0	3.891842528925013e+17
19153.0	3.891124977882452e+17
19154.0	3.890376668610559e+17
19155.0	3.8897073961041914e+17
19156.0	3.888994492350464e+17
19157.0	3.8882815899948365e+17
19158.0	3.887473114131114e+17
19159.0	3.886850963931136e+17
19160.0	3.886140092317695e+17
19161.0	3.8854266342167885e+17
19162.0	3.8844976958450336e+17
19163.0	3.884010455433215e+17
19164.0	3.883300524741972e+17
19165.0	3.8825810457176736e+17
19166.0	3.8818315019223034e+17
19167.0	3.881146302245546e+17
19168.0	3.880434657482068e+17
19169.0	3.879730447122432e+17
19170.0	3.879034986080938e+17
19171.0	3.8783096322348365e+17
19172.0	3.87761303523601e+17
19173.0	3.876904175490389e+17
19174.0	3.876173385826303e+17
19175.0	3.8754842281246714e+17
19176.0	3.8747736661906765e+17
19177.0	3.874014504856234e+17
19178.0	3.8733547890715296e+17
19179.0	3.872625603029674e+17
19180.0	3.8719255757892256e+17
19181.0	3.8711817502283085e+17
19182.0	3.870510899964587e+17
19183.0	3.8698109747855354e+17
19184.0	3.869085177741312e+17
19185.0	3.868389699922602e+17
19186.0	3.867686085154134e+17
19187.0	3.866955828166654e+17
19188.0	3.8662686998091085e+17
19189.0	3.8655600945179296e+17
19190.0	3.8648515912881485e+17
19191.0	3.8641357689978874e+17
19192.0	3.8634408783817376e+17
19193.0	3.862728513596074e+17
19194.0	3.8620188653213e+17
19195.0	3.861317637111808e+17
19196.0	3.860606403390123e+17
19197.0	3.859902892081151e+17
19198.0	3.8591993367319885e+17
19199.0	3.857163644567551e+17
19200.0	3.8569800829501446e+17
19201.0	3.857080851103744e+17
19202.0	3.8563749063994016e+17
19203.0	3.8556658942607354e+17
19204.0	3.8549534092383565e+17
19205.0	3.854254322920106e+17
19206.0	3.853545952509951e+17
19207.0	3.8528177262646605e+17
19208.0	3.8520533968486394e+17
19209.0	3.851431627631274e+17
19210.0	3.8507273187054925e+17
19211.0	3.850027103420416e+17
19212.0	3.8493216571391994e+17
19213.0	3.8485786634485754e+17
19214.0	3.847868785186133e+17
19215.0	3.8472054161626445e+17
19216.0	3.846502299817302e+17
19217.0	3.8457994113624736e+17
19218.0	3.8448156024067405e+17
19219.0	3.844345027362815e+17
19220.0	3.843681300425386e+17
19221.0	3.8428710860226554e+17
19222.0	3.8422833186297165e+17
19223.0	3.841571153772544e+17
19224.0	3.840857476868778e+17
19225.0	3.840120878093653e+17
19226.0	3.839461665625429e+17
19227.0	3.8387597886969165e+17
19228.0	3.838065979512148e+17
19229.0	3.8373632979763194e+17
19230.0	3.83665472344337e+17
19231.0	3.8359518405809485e+17
19232.0	3.83525049143569e+17
19233.0	3.8345301525790714e+17
19234.0	3.833842051142997e+17
19235.0	3.8331379036979194e+17
19236.0	3.832448448899755e+17
19237.0	3.831740300088661e+17
19238.0	3.8310131035450016e+17
19239.0	3.830344870526976e+17
19240.0	3.829602656277845e+17
19241.0	3.828925508266666e+17
19242.0	3.8282354082447354e+17
19243.0	3.827484677461332e+17
19244.0	3.8268389000478714e+17
19245.0	3.826136875619669e+17
19246.0	3.8254324059122336e+17
19247.0	3.824734901545643e+17
19248.0	3.824037744607232e+17
19249.0	3.823336177358164e+17
19250.0	3.82262999847185e+17
19251.0	3.8219108738662394e+17
19252.0	3.821130243986774e+17
19253.0	3.8205279580105376e+17
19254.0	3.8198314637721594e+17
19255.0	3.8190692930245965e+17
19256.0	3.818432116730537e+17
19257.0	3.817737681895423e+17
19258.0	3.817038899664213e+17
19259.0	3.816314333648212e+17
19260.0	3.81560328098065e+17
19261.0	3.8149399280353274e+17
19262.0	3.8142252116432205e+17
19263.0	3.8135276506535245e+17
19264.0	3.8126602601977165e+17
19265.0	3.8120748975390714e+17
19266.0	3.8113656309459616e+17
19267.0	3.810750966879574e+17
19268.0	3.8100498658973e+17
19269.0	3.809352451708245e+17
19270.0	3.8086550081590605e+17
19271.0	3.807837080431274e+17
19272.0	3.8072454584729594e+17
19273.0	3.805371914605907e+17
19274.0	3.805259838608725e+17
19275.0	3.8051637030638925e+17
19276.0	3.8044587139618125e+17
19277.0	3.8037623581354656e+17
19278.0	3.803065689134421e+17
19279.0	3.8023583456296954e+17
19280.0	3.801639126652245e+17
19281.0	3.8009699044775245e+17
19282.0	3.800276971902293e+17
19283.0	3.799559387305301e+17
19284.0	3.798849706175146e+17
19285.0	3.798117983977471e+17
19286.0	3.797474203052714e+17
19287.0	3.7967885846446074e+17
19288.0	3.7956922285315405e+17
19289.0	3.79398805275716e+17
19290.0	3.794695626948608e+17
19291.0	3.793912874751318e+17
19292.0	3.793299564047018e+17
19293.0	3.7925997353369594e+17
19294.0	3.7919010642548045e+17
19295.0	3.791207009703253e+17
19296.0	3.7905067056387405e+17
19297.0	3.7898031384057165e+17
19298.0	3.789102697327274e+17
19299.0	3.7884146671943674e+17
19300.0	3.787716230993237e+17
19301.0	3.7870168203154765e+17
19302.0	3.7863186238887245e+17
19303.0	3.7855917090624845e+17
19304.0	3.784909067911167e+17
19305.0	3.7842199766193485e+17
19306.0	3.783524086360746e+17
19307.0	3.7828101368272205e+17
19308.0	3.782121543259476e+17
19309.0	3.7813829284222285e+17
19310.0	3.780660622437034e+17
19311.0	3.7800201221570554e+17
19312.0	3.779330284279125e+17
19313.0	3.7786272070806176e+17
19314.0	3.775724739624953e+17
19315.0	3.774850864076123e+17
19316.0	3.775010207083178e+17
19317.0	3.774308713234431e+17
19318.0	3.7736082574759245e+17
19319.0	3.7729136716458656e+17
19320.0	3.772211596886016e+17
19321.0	3.7715138128991565e+17
19322.0	3.770779923644416e+17
19323.0	3.7700876062337696e+17
19324.0	3.769408549115221e+17
19325.0	3.7686660517505696e+17
19326.0	3.7680070098507085e+17
19327.0	3.7672992112639994e+17
19328.0	3.766602399656618e+17
19329.0	3.7659000620537165e+17
19330.0	3.765182029365248e+17
19331.0	3.7644778092189e+17
19332.0	3.763788836066644e+17
19333.0	3.763078417438037e+17
19334.0	3.7623756436275206e+17
19335.0	3.761672758667946e+17
19336.0	3.7609662036923725e+17
19337.0	3.760258997201578e+17
19338.0	3.7594826133558605e+17
19339.0	3.7588442221117434e+17
19340.0	3.75808792199168e+17
19341.0	3.7574227976519674e+17
19342.0	3.756581845991423e+17
19343.0	3.756007745738069e+17
19344.0	3.755292687510186e+17
19345.0	3.753765148557309e+17
19346.0	3.753697420334421e+17
19347.0	3.753135013800619e+17
19348.0	3.752444366422015e+17
19349.0	3.751717638941354e+17
19350.0	3.7510027624666445e+17
19351.0	3.75028006780928e+17
19352.0	3.7495525776643405e+17
19353.0	3.7488577178064205e+17
19354.0	3.748136630965589e+17
19355.0	3.747381389907285e+17
19356.0	3.7466904069843616e+17
19357.0	3.7459645924638714e+17
19358.0	3.745230608837289e+17
19359.0	3.7444479908577274e+17
19360.0	3.743767369962837e+17
19361.0	3.7424944818858643e+17
19362.0	3.740655908028416e+17
19363.0	3.7399185025488205e+17
19364.0	3.739176076487338e+17
19365.0	3.7384378265545376e+17
19366.0	3.737696510585514e+17
19367.0	3.73695129391377e+17
19368.0	3.7362036892849485e+17
19369.0	3.7354245036441594e+17
19370.0	3.7345657870090234e+17
19371.0	3.7339237900615674e+17
19372.0	3.733182759305215e+17
19373.0	3.7324110066701645e+17
19374.0	3.7316507310489594e+17
19375.0	3.7308813453994656e+17
19376.0	3.73010801430801e+17
19377.0	3.729325515167061e+17
19378.0	3.7280259422289914e+17
19379.0	3.7259371746426874e+17
19380.0	3.7251416165362336e+17
19381.0	3.7243377641936205e+17
19382.0	3.723503824710314e+17
19383.0	3.7226821479738016e+17
19384.0	3.7218969658763936e+17
19385.0	3.7210695345547936e+17
19386.0	3.7202361606034765e+17
19387.0	3.7193923323494394e+17
19388.0	3.7175932429707936e+17
19389.0	3.7166856955494394e+17
19390.0	3.7158120464930125e+17
19391.0	3.713151665176573e+17
19392.0	3.714030966756693e+17
19393.0	3.7131270830598816e+17
19394.0	3.7122047402311674e+17
19395.0	3.7112696467182925e+17
19396.0	3.7103242750634656e+17
19397.0	3.7093649175019514e+17
19398.0	3.708375827917482e+17
19399.0	3.7071171347633485e+17
19400.0	3.706352588641621e+17
19401.0	3.705328665362432e+17
19402.0	3.7042702963616416e+17
19403.0	3.703179621433344e+17
19404.0	3.7020752108584954e+17
19405.0	3.7009300756889594e+17
19406.0	3.699763451701931e+17
19407.0	3.698200168890368e+17
19408.0	3.696046684591445e+17
19409.0	3.695029007329963e+17
19410.0	3.693721325404159e+17
19411.0	3.6923536481539405e+17
19412.0	3.690934734684159e+17
19413.0	3.6894659013072205e+17
19414.0	3.687924491791019e+17
19415.0	3.686340024249002e+17
19416.0	3.684626026812756e+17
19417.0	3.6829242368983034e+17
19418.0	3.681131270504447e+17
19419.0	3.6792209460865696e+17
19420.0	3.677225886242132e+17
19421.0	3.675120799318015e+17
19422.0	3.6725666394494285e+17
19423.0	3.6694932163570336e+17
19424.0	3.6669986806169594e+17
19425.0	3.66435637465361e+17
19426.0	3.661542913824085e+17
19427.0	3.657741193183231e+17
19428.0	3.654032355404459e+17
19429.0	3.65050413064738e+17
19430.0	3.645311672472917e+17
19431.0	3.640259797581826e+17
19432.0	3.634753446783657e+17
19433.0	3.6275526216362643e+17
19434.0	3.6190657089372134e+17
19435.0	3.6071888150418765e+17
19436.0	3.590928829426349e+17
19437.0	3.569078740451324e+17
19438.0	3.551919774979411e+17
19439.0	3.542783682587307e+17
19440.0	3.5292580455383034e+17
19441.0	3.5136453500818765e+17
19442.0	3.497498004597419e+17
19443.0	3.479759833006082e+17
19444.0	3.45774591871112e+17
19445.0	3.423120140533762e+17
19446.0	3.35321571594513e+17
19447.0	3.2993952486741286e+17
19448.0	3.2407527508759936e+17
19449.0	3.0976781844479904e+17
19450.0	2.7124652569176646e+17
19451.0	2.5982224004983395e+17
19452.0	2.931811711363772e+17
19453.0	3.1861219741313696e+17
19454.0	3.270179616893609e+17
19455.0	3.320296032086698e+17
19456.0	3.386018817026728e+17
19457.0	3.4365709847538323e+17
19458.0	3.45506114821599e+17
19459.0	3.479520385084075e+17
19460.0	3.494791166470825e+17
19461.0	3.509484918232406e+17
19462.0	3.5226717771530234e+17
19463.0	3.5341936396424525e+17
19464.0	3.544643461447682e+17
19465.0	3.5631188469787334e+17
19466.0	3.5808080116230886e+17
19467.0	3.593078965971627e+17
19468.0	3.601631038581423e+17
19469.0	3.6078501239630483e+17
19470.0	3.612938053790379e+17
19471.0	3.61745928491281e+17
19472.0	3.620505356948821e+17
19473.0	3.6236637573393056e+17
19474.0	3.6256390913720314e+17
19475.0	3.6281679407131283e+17
19476.0	3.6302302023953056e+17
19477.0	3.6316220066802336e+17
19478.0	3.632849675266731e+17
19479.0	3.633929085692586e+17
19480.0	3.635862924077738e+17
19481.0	3.636707493325482e+17
19482.0	3.6374144006225914e+17
19483.0	3.638031988118868e+17
19484.0	3.638542068613119e+17
19485.0	3.638954272926378e+17
19486.0	3.63931491036911e+17
19487.0	3.6396066556695885e+17
19488.0	3.6398277528125434e+17
19489.0	3.6399785177688736e+17
19490.0	3.639541859265193e+17
19491.0	3.6401195896886605e+17
19492.0	3.6401358349271034e+17
19493.0	3.64009507258368e+17
19494.0	3.640012502117034e+17
19495.0	3.6398900039734605e+17
19496.0	3.639936413248169e+17
19497.0	3.640512723899733e+17
19498.0	3.6402630565560314e+17
19499.0	3.6370438911863424e+17
19500.0	3.6397974678405114e+17
19501.0	3.6395067850970445e+17
19502.0	3.639193574746793e+17
19503.0	3.6388654878993056e+17
19504.0	3.63851279307025e+17
19505.0	3.638149600597332e+17
19506.0	3.637769973443242e+17
19507.0	3.63736385716224e+17
19508.0	3.636961777898837e+17
19509.0	3.6365375436226554e+17
19510.0	3.6360322628102816e+17
19511.0	3.6315725942838566e+17
19512.0	3.6348894233231334e+17
19513.0	3.633809707412137e+17
19514.0	3.633731050930174e+17
19515.0	3.6335777449246726e+17
19516.0	3.6332724436336634e+17
19517.0	3.633079946051584e+17
19518.0	3.6332040506135885e+17
19519.0	3.6326841512536736e+17
19520.0	3.632149947919018e+17
19521.0	3.6316318870623565e+17
19522.0	3.631082679304191e+17
19523.0	3.630555823691093e+17
19524.0	3.63000977494289e+17
19525.0	3.6294490524221434e+17
19526.0	3.628904048055637e+17
19527.0	3.628341433903785e+17
19528.0	3.627779937533951e+17
19529.0	3.627212810310997e+17
19530.0	3.627730626499925e+17
19531.0	3.627779441907029e+17
19532.0	3.627199851309738e+17
19533.0	3.626618664080725e+17
19534.0	3.626033376919551e+17
19535.0	3.6254391426088954e+17
19536.0	3.624843052318719e+17
19537.0	3.6242634959749114e+17
19538.0	3.6236606675353594e+17
19539.0	3.6228534954011315e+17
19540.0	3.6224664331441485e+17
19541.0	3.6218750383773e+17
19542.0	3.6212712026057376e+17
19543.0	3.620666817380351e+17
19544.0	3.6200640148056736e+17
19545.0	3.619342627373054e+17
19546.0	3.618486741194069e+17
19547.0	3.6182404887128736e+17
19548.0	3.6176309011524256e+17
19549.0	3.61698446872849e+17
19550.0	3.6164050997302605e+17
19551.0	3.615791615661397e+17
19552.0	3.6151756359816525e+17
19553.0	3.6145533816231245e+17
19554.0	3.613925569811797e+17
19555.0	3.6133192076711245e+17
19556.0	3.6127051524778656e+17
19557.0	3.612083574101333e+17
19558.0	3.6114626584248314e+17
19559.0	3.610838422956714e+17
19560.0	3.6102110962865485e+17
19561.0	3.6095876535418874e+17
19562.0	3.608971085261483e+17
19563.0	3.6083492587219616e+17
19564.0	3.60772396978449e+17
19565.0	3.6083728957221523e+17
19566.0	3.6079879515886925e+17
19567.0	3.607370628333568e+17
19568.0	3.606734702641152e+17
19569.0	3.6061065657712634e+17
19570.0	3.6054845693624314e+17
19571.0	3.6048552028624205e+17
19572.0	3.604213786826069e+17
19573.0	3.603591366792532e+17
19574.0	3.6029323311841274e+17
19575.0	3.602333567025151e+17
19576.0	3.601701986631679e+17
19577.0	3.6010427259289594e+17
19578.0	3.600424321242453e+17
19579.0	3.599798180162218e+17
19580.0	3.599167983190015e+17
19581.0	3.598536725757951e+17
19582.0	3.5979108160634874e+17
19583.0	3.5972778452582394e+17
19584.0	3.5966439670852256e+17
19585.0	3.595972017214805e+17
19586.0	3.595330092269568e+17
19587.0	3.5947334434379085e+17
19588.0	3.593942466210474e+17
19589.0	3.593468313425237e+17
19590.0	3.5928043565001376e+17
19591.0	3.592204759072767e+17
19592.0	3.591571858871637e+17
19593.0	3.5909314921103354e+17
19594.0	3.5902149232339616e+17
19595.0	3.5896609507464525e+17
19596.0	3.588857403189931e+17
19597.0	3.5883935103713274e+17
19598.0	3.587619528463701e+17
19599.0	3.587126273419946e+17
19600.0	3.586493471784959e+17
19601.0	3.58583601533201e+17
19602.0	3.5852098791451296e+17
19603.0	3.58442366734609e+17
19604.0	3.5839397348420256e+17
19605.0	3.583212613096789e+17
19606.0	3.582678383198208e+17
19607.0	3.5820459485648205e+17
19608.0	3.5814055790073165e+17
19609.0	3.5807557303227725e+17
19610.0	3.58013947941137e+17
19611.0	3.579500161226069e+17
19612.0	3.5788692568145914e+17
19613.0	3.578228974638421e+17
19614.0	3.5775847847690234e+17
19615.0	3.5769619606842016e+17
19616.0	3.576311594702165e+17
19617.0	3.575688454646442e+17
19618.0	3.5748725548646394e+17
19619.0	3.574156815761406e+17
19620.0	3.5735496413238605e+17
19621.0	3.573147696278186e+17
19622.0	3.57251373072384e+17
19623.0	3.571879236687189e+17
19624.0	3.571240737090218e+17
19625.0	3.5706083800514554e+17
19626.0	3.5699699000279034e+17
19627.0	3.569338239942655e+17
19628.0	3.568669820278101e+17
19629.0	3.5680370354203296e+17
19630.0	3.567423531778047e+17
19631.0	3.5652911336434323e+17
19632.0	3.56616190890257e+17
19633.0	3.565512943119018e+17
19634.0	3.5648931871675725e+17
19635.0	3.5642463485951994e+17
19636.0	3.563619862882986e+17
19637.0	3.562872073005738e+17
19638.0	3.56235010445585e+17
19639.0	3.5617177061730976e+17
19640.0	3.56106643771665e+17
19641.0	3.5600919359214944e+17
19642.0	3.559814101729279e+17
19643.0	3.559176518587733e+17
19644.0	3.558527707294378e+17
19645.0	3.5578176717455354e+17
19646.0	3.5572804422205434e+17
19647.0	3.5566470645678074e+17
19648.0	3.556011849809919e+17
19649.0	3.5553770384042656e+17
19650.0	3.554745483176618e+17
19651.0	3.5541101006465696e+17
19652.0	3.553476479025152e+17
19653.0	3.552844292554752e+17
19654.0	3.5522095391703034e+17
