# Flux units: erg / (cm m2 s)
# Wavelength units: Angstrom
wave	flux
19000.0	4.312951518745941e+17
19001.0	4.312023559045119e+17
19002.0	4.3114704435937274e+17
19003.0	4.310719845629951e+17
19004.0	4.309838089682943e+17
19005.0	4.3090964815107405e+17
19006.0	4.3082036728736416e+17
19007.0	4.307720555462655e+17
19008.0	4.3068629244532045e+17
19009.0	4.306086203665066e+17
19010.0	4.304495736171175e+17
19011.0	4.304615656215893e+17
19012.0	4.3033558180167674e+17
19013.0	4.3032504640907936e+17
19014.0	4.302346595773098e+17
19015.0	4.301532334566057e+17
19016.0	4.300820671627263e+17
19017.0	4.3002349762205005e+17
19018.0	4.299449145404075e+17
19019.0	4.298709793068372e+17
19020.0	4.2979664044141216e+17
19021.0	4.2972362949263354e+17
19022.0	4.296517957451775e+17
19023.0	4.295568966811646e+17
19024.0	4.294750549049343e+17
19025.0	4.2942263875775136e+17
19026.0	4.293436814043818e+17
19027.0	4.2925402836609696e+17
19028.0	4.2919627790308685e+17
19029.0	4.2911668727971834e+17
19030.0	4.2904219210656416e+17
19031.0	4.289731029019306e+17
19032.0	4.2890265984587085e+17
19033.0	4.2880618043801594e+17
19034.0	4.2874370418278394e+17
19035.0	4.286368293322751e+17
19036.0	4.2721363026247616e+17
19037.0	4.2849466416715085e+17
19038.0	4.2844299628380154e+17
19039.0	4.283743364360874e+17
19040.0	4.282984328855551e+17
19041.0	4.2822577985071776e+17
19042.0	4.271058256745799e+17
19043.0	4.28083889901841e+17
19044.0	4.280118580434261e+17
19045.0	4.2793088749404154e+17
19046.0	4.278487289080489e+17
19047.0	4.277833254480553e+17
19048.0	4.2753936019073696e+17
19049.0	4.2546934582694976e+17
19050.0	4.2755017450455014e+17
19051.0	4.272120346094244e+17
19052.0	4.273998595970389e+17
19053.0	4.273419771532627e+17
19054.0	4.272627215848789e+17
19055.0	4.2683458241167366e+17
19056.0	4.270199879849298e+17
19057.0	4.2704649109285536e+17
19058.0	4.258651035052696e+17
19059.0	4.264488907134289e+17
19060.0	4.2681990360596474e+17
19061.0	4.267450192713045e+17
19062.0	4.266666784107178e+17
19063.0	4.266021521195007e+17
19064.0	4.265089584594943e+17
19065.0	4.2642955797790714e+17
19066.0	4.2595629662208045e+17
19067.0	4.2629008457727994e+17
19068.0	4.262332739878912e+17
19069.0	4.2615849248358394e+17
19070.0	4.260711779794943e+17
19071.0	4.260036223522134e+17
19072.0	4.2550298323626605e+17
19073.0	4.2586373783988896e+17
19074.0	4.2578019520348154e+17
19075.0	4.257150777251157e+17
19076.0	4.256217841008638e+17
19077.0	4.255624457442645e+17
19078.0	4.2548012742519456e+17
19079.0	4.254137714387625e+17
19080.0	4.25342686794001e+17
19081.0	4.2526204395956896e+17
19082.0	4.25192625991407e+17
19083.0	4.251121226874879e+17
19084.0	4.2502260813114016e+17
19085.0	4.2497057653172896e+17
19086.0	4.2432015224886586e+17
19087.0	4.2389603876863885e+17
19088.0	4.2422033920819117e+17
19089.0	4.246382935627093e+17
19090.0	4.2460526838196896e+17
19091.0	4.2446576576102445e+17
19092.0	4.2361162581060506e+17
19093.0	4.243850142242132e+17
19094.0	4.243132905772374e+17
19095.0	4.242344046668459e+17
19096.0	4.2416317839441914e+17
19097.0	4.240907663922516e+17
19098.0	4.23583346554743e+17
19099.0	4.234147667116038e+17
19100.0	4.238646404186112e+17
19101.0	4.237916642825557e+17
19102.0	4.2369777115245216e+17
19103.0	4.2364539317343565e+17
19104.0	4.235805848152746e+17
19105.0	4.225478948814877e+17
19106.0	4.2341692964427085e+17
19107.0	4.2312847134993024e+17
19108.0	4.229243623964673e+17
19109.0	4.231362810041684e+17
19110.0	4.2313468199567354e+17
19111.0	4.227925132618406e+17
19112.0	4.2265682459142765e+17
19113.0	4.2291517533279565e+17
19114.0	4.226641567940604e+17
19115.0	4.227200427491328e+17
19116.0	4.226827554564778e+17
19117.0	4.226145246860628e+17
19118.0	4.2249697561149446e+17
19119.0	4.1971269238783584e+17
19120.0	4.223689570648063e+17
19121.0	4.2231420993317536e+17
19122.0	4.2225965455114234e+17
19123.0	4.221893799662933e+17
19124.0	4.2210803171983354e+17
19125.0	4.220406094015146e+17
19126.0	4.219665349170517e+17
19127.0	4.2157341238012544e+17
19128.0	4.218157425579349e+17
19129.0	4.2173817191137274e+17
19130.0	4.2167604203574605e+17
19131.0	4.2160246590450336e+17
19132.0	4.215247548186623e+17
19133.0	4.2145039267485024e+17
19134.0	4.213822824906751e+17
19135.0	4.2131061637556896e+17
19136.0	4.212338421574315e+17
19137.0	4.2112934282089805e+17
19138.0	4.210903861952511e+17
19139.0	4.2102187846096205e+17
19140.0	4.2094960501063674e+17
19141.0	4.208744135830185e+17
19142.0	4.2079471285917005e+17
19143.0	4.207146288458411e+17
19144.0	4.2064715899207674e+17
19145.0	4.205803733691049e+17
19146.0	4.2041515973454515e+17
19147.0	4.2040557826648736e+17
19148.0	4.200029494094512e+17
19149.0	4.198596756198741e+17
19150.0	4.2021933914521594e+17
19151.0	4.201437721875796e+17
19152.0	4.2007386075955194e+17
19153.0	4.1923125220911654e+17
19154.0	4.198457011776171e+17
19155.0	4.1985723264750925e+17
19156.0	4.1978257389649914e+17
19157.0	4.194677989310472e+17
19158.0	4.190491257427294e+17
19159.0	4.195477810227881e+17
19160.0	4.194870264594431e+17
19161.0	4.1941827978963616e+17
19162.0	4.192340513477974e+17
19163.0	4.192743019162282e+17
19164.0	4.191988107356842e+17
19165.0	4.182959859608221e+17
19166.0	4.1902233043162445e+17
19167.0	4.189668490171731e+17
19168.0	4.1891035866289485e+17
19169.0	4.188341179602261e+17
19170.0	4.1876760615540045e+17
19171.0	4.1868096945083725e+17
19172.0	4.1862016546461e+17
19173.0	4.1855153148177056e+17
19174.0	4.1846620857303034e+17
19175.0	4.184023893016576e+17
19176.0	4.1833367996115616e+17
19177.0	4.1823606620378445e+17
19178.0	4.181736524436821e+17
19179.0	4.180869617724074e+17
19180.0	4.1804206755020806e+17
19181.0	4.179358403701418e+17
19182.0	4.178859193445034e+17
19183.0	4.1782462252755616e+17
19184.0	4.17751131820305e+17
19185.0	4.1767661225028275e+17
19186.0	4.176092213193386e+17
19187.0	4.175294355909291e+17
19188.0	4.174643849418068e+17
19189.0	4.1739460773150714e+17
19190.0	4.173228394850987e+17
19191.0	4.172419261879638e+17
19192.0	4.1717774082375674e+17
19193.0	4.170155960216236e+17
19194.0	4.1688875425682797e+17
19195.0	4.1696184951111674e+17
19196.0	4.168863248460459e+17
19197.0	4.168119193610921e+17
19198.0	4.167399685925546e+17
19199.0	4.1578522008180026e+17
19200.0	4.160482985727321e+17
19201.0	4.1652355033552205e+17
19202.0	4.16459984679731e+17
19203.0	4.163828378675882e+17
19204.0	4.1631310847235405e+17
19205.0	4.162425114853375e+17
19206.0	4.1616958064776525e+17
19207.0	4.160752703941289e+17
19208.0	4.1597483841399443e+17
19209.0	4.159531993006079e+17
19210.0	4.158756039775572e+17
19211.0	4.1581101344358394e+17
19212.0	4.157393133546154e+17
19213.0	4.1564857699751245e+17
19214.0	4.155703232386389e+17
19215.0	4.15521884340224e+17
19216.0	4.1545343987002016e+17
19217.0	4.153842205021525e+17
19218.0	4.15172636530005e+17
19219.0	4.152160555455828e+17
19220.0	4.1516402114996896e+17
19221.0	4.150407634179413e+17
19222.0	4.150172430893055e+17
19223.0	4.149475829000874e+17
19224.0	4.148709405229055e+17
19225.0	4.1478361777001805e+17
19226.0	4.1473676557680634e+17
19227.0	4.146635467303594e+17
19228.0	4.1459504374961485e+17
19229.0	4.1451155633821e+17
19230.0	4.144484726778538e+17
19231.0	4.143822166556672e+17
19232.0	4.1431099422801914e+17
19233.0	4.142277062557696e+17
19234.0	4.141585985961983e+17
19235.0	4.1408982941696e+17
19236.0	4.140234753878697e+17
19237.0	4.1394345736492365e+17
19238.0	4.138597258450261e+17
19239.0	4.138089623934291e+17
19240.0	4.1373326359483725e+17
19241.0	4.1366464387263136e+17
19242.0	4.135841911799806e+17
19243.0	4.135032943105364e+17
19244.0	4.1344950131316045e+17
19245.0	4.133779342535338e+17
19246.0	4.133080367366143e+17
19247.0	4.1323987754898765e+17
19248.0	4.131674942078976e+17
19249.0	4.1307638057314976e+17
19250.0	4.128775333041494e+17
19251.0	4.1279963738931174e+17
19252.0	4.1284431854086816e+17
19253.0	4.128055087158612e+17
19254.0	4.1274077669403296e+17
19255.0	4.1264075316920314e+17
19256.0	4.1258957629904205e+17
19257.0	4.1252540121087994e+17
19258.0	4.1245264017271456e+17
19259.0	4.1237686699513165e+17
19260.0	4.122536979027284e+17
19261.0	4.1224230806050125e+17
19262.0	4.1215714907914234e+17
19263.0	4.120812341340842e+17
19264.0	4.1192836943926586e+17
19265.0	4.119148673455444e+17
19266.0	4.1180246747818675e+17
19267.0	4.118168855379967e+17
19268.0	4.1173933977763834e+17
19269.0	4.116724750221312e+17
19270.0	4.116029420601342e+17
19271.0	4.114646313904813e+17
19272.0	4.114560994770942e+17
19273.0	4.113607611995477e+17
19274.0	4.1126197198847974e+17
19275.0	4.112508914062677e+17
19276.0	4.1117719720536736e+17
19277.0	4.111089221151402e+17
19278.0	4.1102545259943245e+17
19279.0	4.109633182498815e+17
19280.0	4.108825525922474e+17
19281.0	4.1082381996305056e+17
19282.0	4.107562916686506e+17
19283.0	4.106737737706154e+17
19284.0	4.1060900609720314e+17
19285.0	4.1051486927803725e+17
19286.0	4.104640191441579e+17
19287.0	4.103960185012223e+17
19288.0	4.1001478702585165e+17
19289.0	4.0918428568343654e+17
19290.0	4.101906978133333e+17
19291.0	4.100815425197398e+17
19292.0	4.100480633055914e+17
19293.0	4.0997460293713914e+17
19294.0	4.0990385921938765e+17
19295.0	4.098339703706965e+17
19296.0	4.093101800248673e+17
19297.0	4.096203311895896e+17
19298.0	4.0961763271420576e+17
19299.0	4.0904556138550675e+17
19300.0	4.094768843849728e+17
19301.0	4.0941074964807674e+17
19302.0	4.0934215145663136e+17
19303.0	4.0925492279596365e+17
19304.0	4.091944356894038e+17
19305.0	4.0912460073751885e+17
19306.0	4.090580633474389e+17
19307.0	4.0897562080706554e+17
19308.0	4.0891265962038605e+17
19309.0	4.0881068595391136e+17
19310.0	4.087358704058367e+17
19311.0	4.086926515284649e+17
19312.0	4.0862052257191245e+17
19313.0	4.085280264246612e+17
19314.0	4.019626974729494e+17
19315.0	4.0225248319461766e+17
19316.0	4.0773837410795616e+17
19317.0	4.082726309199872e+17
19318.0	4.082094246461438e+17
19319.0	4.081377591601834e+17
19320.0	4.079011558850554e+17
19321.0	4.0760099757970784e+17
19322.0	4.0792607130910714e+17
19323.0	4.0785658077948576e+17
19324.0	4.077959547016532e+17
19325.0	4.076958018524501e+17
19326.0	4.076557588321621e+17
19327.0	4.075840460903765e+17
19328.0	4.066468540973065e+17
19329.0	4.074485616126634e+17
19330.0	4.073730474333523e+17
19331.0	4.0730357514895354e+17
19332.0	4.0723864319863456e+17
19333.0	4.0716932023145805e+17
19334.0	4.070741415471788e+17
19335.0	4.05256882793133e+17
19336.0	4.069447191669419e+17
19337.0	4.068880062349311e+17
19338.0	4.0678529870506656e+17
19339.0	4.0674311603049805e+17
19340.0	4.065938555710121e+17
19341.0	4.0596624459694214e+17
19342.0	4.0630028078503315e+17
19343.0	4.064699368166742e+17
19344.0	4.057533252982112e+17
19345.0	4.056281888675154e+17
19346.0	4.061442509985111e+17
19347.0	4.053847036482899e+17
19348.0	4.061223701534038e+17
19349.0	4.060466601000959e+17
19350.0	4.056898658981206e+17
19351.0	4.058988933720746e+17
19352.0	4.049739220429469e+17
19353.0	4.0577060659964576e+17
19354.0	4.0570431017233056e+17
19355.0	4.056200371677866e+17
19356.0	4.055618847506432e+17
19357.0	4.054947751875925e+17
19358.0	4.0542425943026336e+17
19359.0	4.051677438367054e+17
19360.0	4.0460417583022054e+17
19361.0	4.052079780473514e+17
19362.0	4.051463712713385e+17
19363.0	4.050767307254442e+17
19364.0	4.05009169785378e+17
19365.0	4.0493632528056314e+17
19366.0	4.048590434118314e+17
19367.0	4.0479652996710394e+17
19368.0	4.047298717111636e+17
19369.0	4.046545880787625e+17
19370.0	4.045906269700096e+17
19371.0	4.045111575620266e+17
19372.0	4.044502420772179e+17
19373.0	4.0437491734063776e+17
19374.0	4.0430793940882765e+17
19375.0	4.0424371294044154e+17
19376.0	4.04176007926033e+17
19377.0	4.0410587881362765e+17
19378.0	4.040378669858815e+17
19379.0	4.0396845321202336e+17
19380.0	4.038881813637802e+17
19381.0	4.0381929809947296e+17
19382.0	4.037475850081621e+17
19383.0	4.03670926692625e+17
19384.0	4.0360503284858874e+17
19385.0	4.035497981990229e+17
19386.0	4.034797013827583e+17
19387.0	4.034089024400042e+17
19388.0	4.033337372267861e+17
19389.0	4.03256107790063e+17
19390.0	4.031711999776085e+17
19391.0	4.0184788371373914e+17
19392.0	4.029667893138772e+17
19393.0	4.029729970236074e+17
19394.0	4.029095400002901e+17
19395.0	4.0258064442108646e+17
19396.0	4.0271340434882586e+17
19397.0	4.027020293963776e+17
19398.0	4.0242276396782944e+17
19399.0	4.021121364699816e+17
19400.0	4.0231374876398957e+17
19401.0	4.0242377912920736e+17
19402.0	4.023587224682496e+17
19403.0	4.022867131891711e+17
19404.0	4.022132122058751e+17
19405.0	4.0213921545584634e+17
19406.0	4.020766544057685e+17
19407.0	4.0169247160838765e+17
19408.0	4.0178673935974445e+17
19409.0	4.0186445554865485e+17
19410.0	4.0179828117558605e+17
19411.0	4.017269543097684e+17
19412.0	4.016534032744448e+17
19413.0	4.012603683984726e+17
19414.0	4.015115492567723e+17
19415.0	4.014433351237631e+17
19416.0	4.013420935031466e+17
19417.0	4.0128630870070605e+17
19418.0	4.012328360083455e+17
19419.0	4.0116030160240634e+17
19420.0	4.0108938347151354e+17
19421.0	4.0101715483033594e+17
19422.0	4.0093596631695354e+17
19423.0	4.008731041857535e+17
19424.0	4.0080065415522976e+17
19425.0	4.0072192462247245e+17
19426.0	4.006527992070143e+17
19427.0	4.0057801113163085e+17
19428.0	4.004967905318229e+17
19429.0	4.0042767112820045e+17
19430.0	4.00335987207919e+17
19431.0	3.999488477058396e+17
19432.0	4.0018437381379405e+17
19433.0	4.000981889056767e+17
19434.0	4.00015260594995e+17
19435.0	3.9989579905761274e+17
19436.0	3.996533339630247e+17
19437.0	3.9969636864054605e+17
19438.0	3.9674689827635264e+17
19439.0	3.9928335992968525e+17
19440.0	3.993630570883754e+17
19441.0	3.992334089846783e+17
19442.0	3.990665848072875e+17
19443.0	3.9885006847344634e+17
19444.0	3.985679800685909e+17
19445.0	3.981748018173269e+17
19446.0	3.975716869767168e+17
19447.0	3.9654924470626976e+17
19448.0	3.945171490876076e+17
19449.0	3.894835174615722e+17
19450.0	3.7563228295440986e+17
19451.0	3.652350998041939e+17
19452.0	3.8005250174484486e+17
19453.0	3.9104313878555334e+17
19454.0	3.94777373913907e+17
19455.0	3.963047872473769e+17
19456.0	3.9702411443787085e+17
19457.0	3.97334281331234e+17
19458.0	3.761875258267347e+17
19459.0	3.968386108577149e+17
19460.0	3.978038928037204e+17
19461.0	3.978808540878165e+17
19462.0	3.978942863463766e+17
19463.0	3.978895563598506e+17
19464.0	3.9786176986480634e+17
19465.0	3.9783274521122125e+17
19466.0	3.9779142698270714e+17
19467.0	3.9775139025387514e+17
19468.0	3.977051105132543e+17
19469.0	3.969789470266698e+17
19470.0	3.9759881657384954e+17
19471.0	3.975433020943019e+17
19472.0	3.974765524025343e+17
19473.0	3.9741497568570016e+17
19474.0	3.967157408191818e+17
19475.0	3.9711803371246906e+17
19476.0	3.97232868373299e+17
19477.0	3.971706576874154e+17
19478.0	3.9711787265119565e+17
19479.0	3.9643522856386464e+17
19480.0	3.96986427707665e+17
19481.0	3.968978270202539e+17
19482.0	3.9685018378130765e+17
19483.0	3.9679592717352954e+17
19484.0	3.9672375955947514e+17
19485.0	3.966540958050986e+17
19486.0	3.959353574249831e+17
19487.0	3.9652721503327565e+17
19488.0	3.9646875468431354e+17
19489.0	3.9639982346513056e+17
19490.0	3.9603112450020634e+17
19491.0	3.9625983115919354e+17
19492.0	3.962006105926314e+17
19493.0	3.9613140520577696e+17
19494.0	3.9606327733562016e+17
19495.0	3.959981452470953e+17
19496.0	3.9582908173079866e+17
19497.0	3.95849429417984e+17
19498.0	3.955567350164138e+17
19499.0	3.936843430450506e+17
19500.0	3.956371639413417e+17
19501.0	3.956063407702016e+17
19502.0	3.955452274540544e+17
19503.0	3.954810733374122e+17
19504.0	3.9541248605115725e+17
19505.0	3.9533323034296314e+17
19506.0	3.952804397143381e+17
19507.0	3.952072775609002e+17
19508.0	3.9514070277160954e+17
19509.0	3.950665841770495e+17
19510.0	3.948466636062718e+17
19511.0	3.8472249972707635e+17
19512.0	3.945292649638556e+17
19513.0	3.9406365961092986e+17
19514.0	3.94260250134664e+17
19515.0	3.9457346418988416e+17
19516.0	3.94530031542818e+17
19517.0	3.945126279075156e+17
19518.0	3.9430069629747174e+17
19519.0	3.942277630831271e+17
19520.0	3.9375192271967494e+17
19521.0	3.9427372468578976e+17
19522.0	3.9412119560519654e+17
19523.0	3.940037216086703e+17
19524.0	3.936181711885666e+17
19525.0	3.93994135666688e+17
19526.0	3.939331247614634e+17
19527.0	3.938668841882965e+17
19528.0	3.9375950399406054e+17
19529.0	3.936714892509185e+17
19530.0	3.936679042394795e+17
19531.0	3.9359955414111565e+17
19532.0	3.9353129988259834e+17
19533.0	3.934593854646953e+17
19534.0	3.9340042683241805e+17
19535.0	3.933319089618943e+17
19536.0	3.9325849039667194e+17
19537.0	3.9319497332490234e+17
19538.0	3.925720395590322e+17
19539.0	3.9295034851328045e+17
19540.0	3.9299524553168205e+17
19541.0	3.9281536532479994e+17
19542.0	3.9281429228202656e+17
19543.0	3.922086289823065e+17
19544.0	3.926957163020287e+17
19545.0	3.925939438223355e+17
19546.0	3.9240630995517446e+17
19547.0	3.925323248129365e+17
19548.0	3.924640468566016e+17
19549.0	3.923803693034153e+17
19550.0	3.9232092958446925e+17
19551.0	3.9226433234534394e+17
19552.0	3.9219046946351763e+17
19553.0	3.9212577595938125e+17
19554.0	3.920472826358442e+17
19555.0	3.9192819474104326e+17
19556.0	3.918800098077353e+17
19557.0	3.918549802287104e+17
19558.0	3.91792451055343e+17
19559.0	3.917266881434965e+17
19560.0	3.914533875045713e+17
19561.0	3.915895375484245e+17
19562.0	3.913272674396839e+17
19563.0	3.914622257419604e+17
19564.0	3.913823920586751e+17
19565.0	3.9132335597158394e+17
19566.0	3.9124804451696634e+17
19567.0	3.9119483683471354e+17
19568.0	3.9112551652392954e+17
19569.0	3.9105850147252896e+17
19570.0	3.909916950877525e+17
19571.0	3.909240036349269e+17
19572.0	3.9085638376488954e+17
19573.0	3.907299161320106e+17
19574.0	3.9069231580446714e+17
19575.0	3.9066288024890016e+17
19576.0	3.9056633226417485e+17
19577.0	3.9044094802001914e+17
19578.0	3.9045519935624525e+17
19579.0	3.90393528127761e+17
19580.0	3.9032406017747616e+17
19581.0	3.9025191758943565e+17
19582.0	3.901972604256255e+17
19583.0	3.901333646082047e+17
19584.0	3.90060846420241e+17
19585.0	3.8998258518152525e+17
19586.0	3.899135744103765e+17
19587.0	3.8986166829056e+17
19588.0	3.897122552982187e+17
19589.0	3.89731828437265e+17
19590.0	3.896371710350676e+17
19591.0	3.8959877015470074e+17
19592.0	3.895312032027989e+17
19593.0	3.894173817460052e+17
19594.0	3.89317884256802e+17
19595.0	3.89332050448657e+17
19596.0	3.892595949655381e+17
19597.0	3.892013464289279e+17
19598.0	3.889912452830547e+17
19599.0	3.8906913350833485e+17
19600.0	3.8900020200953165e+17
19601.0	3.889266393000619e+17
19602.0	3.888642789474303e+17
19603.0	3.887162497258835e+17
19604.0	3.8873551730988365e+17
19605.0	3.886229324737195e+17
19606.0	3.8860115515801594e+17
19607.0	3.8854156612184736e+17
19608.0	3.8846291642067616e+17
19609.0	3.883992150092459e+17
19610.0	3.880586516452698e+17
19611.0	3.878476357915992e+17
19612.0	3.882116296562004e+17
19613.0	3.8813632582123514e+17
19614.0	3.880722439864319e+17
19615.0	3.8801424032727034e+17
19616.0	3.876563658823002e+17
19617.0	3.874506105247064e+17
19618.0	3.876936570197331e+17
19619.0	3.875438275330045e+17
19620.0	3.874073079010637e+17
19621.0	3.869961041390247e+17
19622.0	3.8755171387310074e+17
19623.0	3.8746260993911456e+17
19624.0	3.873490408396118e+17
19625.0	3.87354309234961e+17
19626.0	3.872834722638506e+17
19627.0	3.872235117521578e+17
19628.0	3.8713525010432006e+17
19629.0	3.856109574728354e+17
19630.0	3.870209103713621e+17
19631.0	3.8618344270943514e+17
19632.0	3.868903752422742e+17
19633.0	3.868168925042004e+17
19634.0	3.8675944354174285e+17
19635.0	3.8662819090705024e+17
19636.0	3.859196290269177e+17
19637.0	3.858420459372537e+17
19638.0	3.8644920240919846e+17
19639.0	3.8642659692817056e+17
19640.0	3.8635740426403834e+17
19641.0	3.8592938616641e+17
19642.0	3.861969730448042e+17
19643.0	3.861297433848489e+17
19644.0	3.860955644209834e+17
19645.0	3.8599044971014816e+17
19646.0	3.8522685261960416e+17
19647.0	3.858896716300286e+17
19648.0	3.858445187590827e+17
19649.0	3.857735271579648e+17
19650.0	3.8571146215424e+17
19651.0	3.8564670126161914e+17
19652.0	3.855820276105216e+17
19653.0	3.855124880774485e+17
19654.0	3.85452212293905e+17
19655.0	3.853787640190291e+17
