# Flux units: erg / (cm m2 s)
# Wavelength units: Angstrom
wave	flux
19000.0	7.639689866160808e+17
19001.0	7.638246495704404e+17
19002.0	7.636926748164093e+17
19003.0	7.635541997300394e+17
19004.0	7.634156772480339e+17
19005.0	7.632772810145791e+17
19006.0	7.63138600407313e+17
19007.0	7.629935385859412e+17
19008.0	7.62857367151138e+17
19009.0	7.627166465742163e+17
19010.0	7.625558749872125e+17
19011.0	7.62440657735953e+17
19012.0	7.622739516282195e+17
19013.0	7.621643822869161e+17
19014.0	7.620213393238698e+17
19015.0	7.618835602123434e+17
19016.0	7.617436106883071e+17
19017.0	7.616063357321215e+17
19018.0	7.614652368289791e+17
19019.0	7.613266619181738e+17
19020.0	7.611857291094698e+17
19021.0	7.61047802777873e+17
19022.0	7.609080664642899e+17
19023.0	7.607651328327679e+17
19024.0	7.60625855795473e+17
19025.0	7.60484450009088e+17
19026.0	7.603416610810538e+17
19027.0	7.601784479896915e+17
19028.0	7.600652886037844e+17
19029.0	7.599248556163072e+17
19030.0	7.59785380188433e+17
19031.0	7.596446798839808e+17
19032.0	7.595037803500884e+17
19033.0	7.593568619899561e+17
19034.0	7.59219065122543e+17
19035.0	7.590621170630656e+17
19036.0	7.571692870871717e+17
19037.0	7.587868260171773e+17
19038.0	7.586550356727122e+17
19039.0	7.585171623291562e+17
19040.0	7.583765865955327e+17
19041.0	7.582356693057535e+17
19042.0	7.580883095650303e+17
19043.0	7.579806321344511e+17
19044.0	7.578394691982675e+17
19045.0	7.576970953665193e+17
19046.0	7.575538043802964e+17
19047.0	7.574139570574675e+17
19048.0	7.572616031589714e+17
19049.0	7.571250496230739e+17
19050.0	7.569851090468861e+17
19051.0	7.565623738149542e+17
19052.0	7.566475720130557e+17
19053.0	7.56562010448418e+17
19054.0	7.564230453275306e+17
19055.0	7.562654734352384e+17
19056.0	7.561383977680896e+17
19057.0	7.559972380475391e+17
19058.0	7.558524899601064e+17
19059.0	7.557139115540479e+17
19060.0	7.5557068879517e+17
19061.0	7.554299747893247e+17
19062.0	7.552875924291581e+17
19063.0	7.551455108005887e+17
19064.0	7.549968095816361e+17
19065.0	7.548498078946646e+17
19066.0	7.547150237958143e+17
19067.0	7.545767719862271e+17
19068.0	7.544344812016982e+17
19069.0	7.542921874811561e+17
19070.0	7.541483179606015e+17
19071.0	7.540064126326102e+17
19072.0	7.538646968871594e+17
19073.0	7.537222102286333e+17
19074.0	7.535800094818301e+17
19075.0	7.534374727712765e+17
19076.0	7.532937015372458e+17
19077.0	7.531514670962003e+17
19078.0	7.530081551384575e+17
19079.0	7.528669798989821e+17
19080.0	7.527239411302399e+17
19081.0	7.525787808825343e+17
19082.0	7.524361112125437e+17
19083.0	7.52288099676979e+17
19084.0	7.521371663892479e+17
19085.0	7.520090139044522e+17
19086.0	7.518364266834602e+17
19087.0	7.516804656835241e+17
19088.0	7.515639195369471e+17
19089.0	7.514020317058387e+17
19090.0	7.512884039559849e+17
19091.0	7.511483473373866e+17
19092.0	7.5099470313117e+17
19093.0	7.508653863075837e+17
19094.0	7.507231486509055e+17
19095.0	7.50580293173248e+17
19096.0	7.504367091449855e+17
19097.0	7.502944542916608e+17
19098.0	7.501510072773289e+17
19099.0	7.50007764525602e+17
19100.0	7.498622031626241e+17
19101.0	7.497206747627519e+17
19102.0	7.495731694796799e+17
19103.0	7.494353231194794e+17
19104.0	7.492918295483732e+17
19105.0	7.491464657371136e+17
19106.0	7.489969042664106e+17
19107.0	7.488585516537174e+17
19108.0	7.487129772883965e+17
19109.0	7.484284969418751e+17
19110.0	7.484125500582569e+17
19111.0	7.482852158821715e+17
19112.0	7.48143705657617e+17
19113.0	7.480010769519955e+17
19114.0	7.478575921889279e+17
19115.0	7.477079861187923e+17
19116.0	7.475688497304915e+17
19117.0	7.474245526705492e+17
19118.0	7.472705920740012e+17
19119.0	7.46950853149764e+17
19120.0	7.469784860633769e+17
19121.0	7.468401467326464e+17
19122.0	7.467084831959721e+17
19123.0	7.465648159806803e+17
19124.0	7.464098188318036e+17
19125.0	7.462762193442132e+17
19126.0	7.461318723720531e+17
19127.0	7.458887414317053e+17
19128.0	7.458065069288105e+17
19129.0	7.456959361275222e+17
19130.0	7.455566283319977e+17
19131.0	7.454128982021459e+17
19132.0	7.452694167945215e+17
19133.0	7.451147505762301e+17
19134.0	7.449636967721642e+17
19135.0	7.448367207896404e+17
19136.0	7.446932357469523e+17
19137.0	7.445398722794835e+17
19138.0	7.444034726745428e+17
19139.0	7.442606564835325e+17
19140.0	7.441166253424639e+17
19141.0	7.439723714838527e+17
19142.0	7.438264789106688e+17
19143.0	7.436806040933715e+17
19144.0	7.435368050371241e+17
19145.0	7.433945979988649e+17
19146.0	7.432125780677974e+17
19147.0	7.431009503019005e+17
19148.0	7.42959929552623e+17
19149.0	7.428154743674196e+17
19150.0	7.426715988350292e+17
19151.0	7.425272929670483e+17
19152.0	7.423803561519785e+17
19153.0	7.422354594463743e+17
19154.0	7.420851301384191e+17
19155.0	7.419469715821908e+17
19156.0	7.418002662927017e+17
19157.0	7.416436769860266e+17
19158.0	7.414260812480511e+17
19159.0	7.413579830875476e+17
19160.0	7.412174181193044e+17
19161.0	7.410662844836518e+17
19162.0	7.407055551856641e+17
19163.0	7.407597061668863e+17
19164.0	7.406391281756841e+17
19165.0	7.404915514496339e+17
19166.0	7.403402204020735e+17
19167.0	7.401843121105578e+17
19168.0	7.400574707651926e+17
19169.0	7.39911939461393e+17
19170.0	7.397692730070356e+17
19171.0	7.396147064733693e+17
19172.0	7.394764931115688e+17
19173.0	7.393332607057919e+17
19174.0	7.391856104396116e+17
19175.0	7.390431845984938e+17
19176.0	7.388972762267647e+17
19177.0	7.38741304042018e+17
19178.0	7.385974773033642e+17
19179.0	7.384445739510441e+17
19180.0	7.383109681719977e+17
19181.0	7.381609390363987e+17
19182.0	7.380204259377151e+17
19183.0	7.378752118631081e+17
19184.0	7.377277699140264e+17
19185.0	7.375825175314432e+17
19186.0	7.374363025560916e+17
19187.0	7.372848652528298e+17
19188.0	7.371425284707668e+17
19189.0	7.369945604161535e+17
19190.0	7.368462526229161e+17
19191.0	7.366975652451668e+17
19192.0	7.36554357306163e+17
19193.0	7.364055867413844e+17
19194.0	7.362568530864809e+17
19195.0	7.361082557464575e+17
19196.0	7.359548461416447e+17
19197.0	7.357937489368403e+17
19198.0	7.355901462358697e+17
19199.0	7.341141677222568e+17
19200.0	7.342842052258478e+17
19201.0	7.351565533489833e+17
19202.0	7.350587023338152e+17
19203.0	7.349201469964287e+17
19204.0	7.347794185901395e+17
19205.0	7.346355510269268e+17
19206.0	7.344891858954921e+17
19207.0	7.343366354239487e+17
19208.0	7.341833510890153e+17
19209.0	7.340464808831658e+17
19210.0	7.338992402606761e+17
19211.0	7.337507328185683e+17
19212.0	7.336015116457299e+17
19213.0	7.33438477790959e+17
19214.0	7.332830877756074e+17
19215.0	7.331490316681216e+17
19216.0	7.33006289576482e+17
19217.0	7.328571060125696e+17
19218.0	7.326609599452499e+17
19219.0	7.325479751821994e+17
19220.0	7.324074415314259e+17
19221.0	7.322274098402644e+17
19222.0	7.319952114931028e+17
19223.0	7.318462472912896e+17
19224.0	7.316931403754156e+17
19225.0	7.315378557769044e+17
19226.0	7.3139398667578e+17
19227.0	7.312432387762858e+17
19228.0	7.310944580053674e+17
19229.0	7.309434922816851e+17
19230.0	7.307908129051987e+17
19231.0	7.3063934736029e+17
19232.0	7.30489270829056e+17
19233.0	7.303337946906624e+17
19234.0	7.301852542533632e+17
19235.0	7.300332191219711e+17
19236.0	7.298825394498217e+17
19237.0	7.297293423564116e+17
19238.0	7.295703102870868e+17
19239.0	7.294252469278036e+17
19240.0	7.29270859211298e+17
19241.0	7.291174880542719e+17
19242.0	7.289652720085674e+17
19243.0	7.288020060689748e+17
19244.0	7.286594091002538e+17
19245.0	7.285055273566207e+17
19246.0	7.283505748071764e+17
19247.0	7.281970504182441e+17
19248.0	7.280426158653437e+17
19249.0	7.278870148765011e+17
19250.0	7.277314797382314e+17
19251.0	7.275706789309097e+17
19252.0	7.274030573464233e+17
19253.0	7.272647659705684e+17
19254.0	7.271099173000531e+17
19255.0	7.269414623073619e+17
19256.0	7.267943855423487e+17
19257.0	7.266402219414868e+17
19258.0	7.264830405388969e+17
19259.0	7.263205439744681e+17
19260.0	7.259907739527852e+17
19261.0	7.258481286097578e+17
19262.0	7.256865434675881e+17
19263.0	7.25526720492339e+17
19264.0	7.253412422178131e+17
19265.0	7.252008373321727e+17
19266.0	7.25042699768081e+17
19267.0	7.248920179987795e+17
19268.0	7.247314501151402e+17
19269.0	7.245704439267325e+17
19270.0	7.244085695173972e+17
19271.0	7.242284381416105e+17
19272.0	7.240825828977322e+17
19273.0	7.2386196041018e+17
19274.0	7.237116362751999e+17
19275.0	7.235961781310804e+17
19276.0	7.234315644218025e+17
19277.0	7.232677016327508e+17
19278.0	7.23104088264977e+17
19279.0	7.229368149475327e+17
19280.0	7.227690054582271e+17
19281.0	7.225458571608064e+17
19282.0	7.222207646269439e+17
19283.0	7.220393774765398e+17
19284.0	7.218699900900692e+17
19285.0	7.217089170724178e+17
19286.0	7.215471640182783e+17
19287.0	7.213778125630121e+17
19288.0	7.207300768290129e+17
19289.0	7.19896209068303e+17
19290.0	7.2086608426653e+17
19291.0	7.206819952852992e+17
19292.0	7.205270133757268e+17
19293.0	7.203541697429504e+17
19294.0	7.201780079962794e+17
19295.0	7.199887170994175e+17
19296.0	7.196241125441531e+17
19297.0	7.193521861689343e+17
19298.0	7.191751311753215e+17
19299.0	7.189978277391017e+17
19300.0	7.188198012048726e+17
19301.0	7.18640182792465e+17
19302.0	7.184594506525353e+17
19303.0	7.182746773007016e+17
19304.0	7.180952848214697e+17
19305.0	7.179131882744489e+17
19306.0	7.177240318749356e+17
19307.0	7.171812643307519e+17
19308.0	7.169944724002131e+17
19309.0	7.167650642438825e+17
19310.0	7.16555799372322e+17
19311.0	7.164223792611327e+17
19312.0	7.162410937526953e+17
19313.0	7.16048827276766e+17
19314.0	7.147419219962534e+17
19315.0	7.142533367507644e+17
19316.0	7.150140352976212e+17
19317.0	7.148248766611455e+17
19318.0	7.146270634977961e+17
19319.0	7.144289628848127e+17
19320.0	7.142278190246569e+17
19321.0	7.137433172137302e+17
19322.0	7.132744748367872e+17
19323.0	7.130582682522964e+17
19324.0	7.128635478289065e+17
19325.0	7.126259718247763e+17
19326.0	7.124452654099113e+17
19327.0	7.119646129913855e+17
19328.0	7.117048342992211e+17
19329.0	7.114904979548842e+17
19330.0	7.112714610540543e+17
19331.0	7.110523796936019e+17
19332.0	7.108351625614676e+17
19333.0	7.106131622450516e+17
19334.0	7.103910460260351e+17
19335.0	7.101649445191679e+17
19336.0	7.099328585793535e+17
19337.0	7.096692866984617e+17
19338.0	7.094281216283987e+17
19339.0	7.092080224501759e+17
19340.0	7.089686557578578e+17
19341.0	7.087315664328019e+17
19342.0	7.084710775051603e+17
19343.0	7.082512984921428e+17
19344.0	7.080069625282559e+17
19345.0	7.076576020310696e+17
19346.0	7.074684754111144e+17
19347.0	7.072608832279891e+17
19348.0	7.070138306134015e+17
19349.0	7.067577629016063e+17
19350.0	7.065006961065983e+17
19351.0	7.062414826668032e+17
19352.0	7.059758092997971e+17
19353.0	7.057111538903721e+17
19354.0	7.053661997891583e+17
19355.0	7.050896975680852e+17
19356.0	7.048214342183593e+17
19357.0	7.045449005400063e+17
19358.0	7.042647077508436e+17
19359.0	7.039788674711552e+17
19360.0	7.036935934225066e+17
19361.0	7.03406326869743e+17
19362.0	7.031167160505684e+17
19363.0	7.028070923195732e+17
19364.0	7.023866475970559e+17
19365.0	7.02081817186577e+17
19366.0	7.017713248851284e+17
19367.0	7.014571615890089e+17
19368.0	7.011396338319359e+17
19369.0	7.008153333224787e+17
19370.0	7.003688163868668e+17
19371.0	6.999604549648383e+17
19372.0	6.996283975794687e+17
19373.0	6.992882705629183e+17
19374.0	6.98946344259857e+17
19375.0	6.984458913011027e+17
19376.0	6.979680487866367e+17
19377.0	6.976071095637332e+17
19378.0	6.97241842028817e+17
19379.0	6.967657264491177e+17
19380.0	6.961334708426067e+17
19381.0	6.957479543963647e+17
19382.0	6.953517516324863e+17
19383.0	6.946712963426988e+17
19384.0	6.940758302348627e+17
19385.0	6.936460703126867e+17
19386.0	6.927667674742783e+17
19387.0	6.921874941061802e+17
19388.0	6.914785825609046e+17
19389.0	6.905580641845247e+17
19390.0	6.898986097748653e+17
19391.0	6.874450857994903e+17
19392.0	6.87948225140054e+17
19393.0	6.867270999474173e+17
19394.0	6.858971076536998e+17
19395.0	6.850188956139519e+17
19396.0	6.844011366405459e+17
19397.0	6.83773182152977e+17
19398.0	6.831255464531284e+17
19399.0	6.824358934740991e+17
19400.0	6.817913000427519e+17
19401.0	6.811087393521663e+17
19402.0	6.804083316883455e+17
19403.0	6.796920787129683e+17
19404.0	6.789624327656787e+17
19405.0	6.782148796568916e+17
19406.0	6.774260958407337e+17
19407.0	6.76634729591603e+17
19408.0	6.758007198537044e+17
19409.0	6.750119298859008e+17
19410.0	6.741784894548649e+17
19411.0	6.733288640435539e+17
19412.0	6.724494488677034e+17
19413.0	6.71520572711458e+17
19414.0	6.706176213385215e+17
19415.0	6.696815930550954e+17
19416.0	6.686908222537727e+17
19417.0	6.675798217282899e+17
19418.0	6.665598053733716e+17
19419.0	6.654484238652756e+17
19420.0	6.641988985509203e+17
19421.0	6.630227778207744e+17
19422.0	6.615658311712767e+17
19423.0	6.601991191003133e+17
19424.0	6.585737482862592e+17
19425.0	6.56849844253491e+17
19426.0	6.550344794374138e+17
19427.0	6.530440378013015e+17
19428.0	6.508030323589119e+17
19429.0	6.484451618630308e+17
19430.0	6.457736252358661e+17
19431.0	6.427805262107999e+17
19432.0	6.39887675455351e+17
19433.0	6.370613566373889e+17
19434.0	6.344914031170899e+17
19435.0	6.316791714982569e+17
19436.0	6.286984913879039e+17
19437.0	6.255779565447849e+17
19438.0	6.20637855031842e+17
19439.0	6.179527506700973e+17
19440.0	6.134700282216447e+17
19441.0	6.085250391561554e+17
19442.0	6.029045923140951e+17
19443.0	5.964968108578134e+17
19444.0	5.893203061724495e+17
19445.0	5.810062413004804e+17
19446.0	5.713897447926442e+17
19447.0	5.60003789916296e+17
19448.0	5.461999070041435e+17
19449.0	5.2884023660598605e+17
19450.0	5.0570015846782195e+17
19451.0	4.937130480500741e+17
19452.0	5.182319344921261e+17
19453.0	5.37971383424342e+17
19454.0	5.530950284170574e+17
19455.0	5.653216440789674e+17
19456.0	5.755563587665923e+17
19457.0	5.841889655084369e+17
19458.0	5.903517594856129e+17
19459.0	5.981943606804485e+17
19460.0	6.040040295628795e+17
19461.0	6.090042390872063e+17
19462.0	6.134829083000831e+17
19463.0	6.174901607421266e+17
19464.0	6.210561889009664e+17
19465.0	6.241911378193066e+17
19466.0	6.269499767870803e+17
19467.0	6.295989783276201e+17
19468.0	6.320201352085504e+17
19469.0	6.344430665596927e+17
19470.0	6.371710727094272e+17
19471.0	6.39871704734105e+17
19472.0	6.423812645410131e+17
19473.0	6.446193825546236e+17
19474.0	6.466411826948777e+17
19475.0	6.484083447518545e+17
19476.0	6.501116367164756e+17
19477.0	6.51711099105007e+17
19478.0	6.530417644186284e+17
19479.0	6.543266954608639e+17
19480.0	6.554559890937171e+17
19481.0	6.565094211889833e+17
19482.0	6.574499782721536e+17
19483.0	6.58406162702882e+17
19484.0	6.592074354087252e+17
19485.0	6.600216368469332e+17
19486.0	6.608081101608276e+17
19487.0	6.615116943807828e+17
19488.0	6.621710018499923e+17
19489.0	6.628183186429268e+17
19490.0	6.634230086544041e+17
19491.0	6.640797237641215e+17
19492.0	6.6466610165405e+17
19493.0	6.652352144605181e+17
19494.0	6.657866178669226e+17
19495.0	6.663203206813011e+17
19496.0	6.668378622831274e+17
19497.0	6.673542668091392e+17
19498.0	6.676848387118422e+17
19499.0	6.663019982837064e+17
19500.0	6.687377226115753e+17
19501.0	6.691754778558463e+17
19502.0	6.695930585677823e+17
19503.0	6.699980804849663e+17
19504.0	6.703876291952639e+17
19505.0	6.707641448748372e+17
19506.0	6.711249214286505e+17
19507.0	6.715248985767932e+17
19508.0	6.723026296329555e+17
19509.0	6.729084363778721e+17
19510.0	6.737642087514111e+17
19511.0	6.722966205934235e+17
19512.0	6.74716533443788e+17
19513.0	6.748410054268242e+17
19514.0	6.756932137604431e+17
19515.0	6.762960238149632e+17
19516.0	6.769326863067814e+17
19517.0	6.772269279171924e+17
19518.0	6.773922152316927e+17
19519.0	6.779506002668201e+17
19520.0	6.781054592133801e+17
19521.0	6.782321933243732e+17
19522.0	6.784361565257729e+17
19523.0	6.788019108096682e+17
19524.0	6.789049259917311e+17
19525.0	6.790035132470612e+17
19526.0	6.790981079444138e+17
19527.0	6.794283260575741e+17
19528.0	6.795250952918356e+17
19529.0	6.796017398360746e+17
19530.0	6.796743142277119e+17
19531.0	6.797426607609172e+17
19532.0	6.799620318778707e+17
19533.0	6.800505296650239e+17
19534.0	6.801044238150313e+17
19535.0	6.801543567944362e+17
19536.0	6.801999443350867e+17
19537.0	6.802443316756479e+17
19538.0	6.802970052132861e+17
19539.0	6.804106643505152e+17
19540.0	6.804655543681024e+17
19541.0	6.804917535287978e+17
19542.0	6.805130311630847e+17
19543.0	6.805310032663892e+17
19544.0	6.805470070527316e+17
19545.0	6.805344977507667e+17
19546.0	6.805219471349075e+17
19547.0	6.805757712400381e+17
19548.0	6.805797658951679e+17
19549.0	6.806462737154047e+17
19550.0	6.806538331095037e+17
19551.0	6.806488442645161e+17
19552.0	6.806411039561044e+17
19553.0	6.806297149527379e+17
19554.0	6.806164029308927e+17
19555.0	6.806026404407978e+17
19556.0	6.805862818163369e+17
19557.0	6.80566539297314e+17
19558.0	6.805449145843711e+17
19559.0	6.805214710814036e+17
19560.0	6.804948585021439e+17
19561.0	6.804678099249833e+17
19562.0	6.804404995533481e+17
19563.0	6.804087520275113e+17
19564.0	6.803734112414378e+17
19565.0	6.803359328982355e+17
19566.0	6.802958382880084e+17
19567.0	6.802946093569363e+17
19568.0	6.802516440951466e+17
19569.0	6.802090986831872e+17
19570.0	6.801642663269715e+17
19571.0	6.801173638021119e+17
19572.0	6.800674448037204e+17
19573.0	6.800187824188074e+17
19574.0	6.799631181327017e+17
19575.0	6.800398399919441e+17
19576.0	6.801519647129599e+17
19577.0	6.800952836576596e+17
19578.0	6.800359390096042e+17
19579.0	6.79977735421952e+17
19580.0	6.799178350286164e+17
19581.0	6.801651824328704e+17
19582.0	6.802789005699753e+17
19583.0	6.802129656217599e+17
19584.0	6.801450068519593e+17
19585.0	6.80070733767202e+17
19586.0	6.799984200515583e+17
19587.0	6.799309074158931e+17
19588.0	6.802172931648168e+17
19589.0	6.801897288979795e+17
19590.0	6.801112178185556e+17
19591.0	6.800405951763795e+17
19592.0	6.799636023650985e+17
19593.0	6.798842217365503e+17
19594.0	6.797911987148116e+17
19595.0	6.797245193475412e+17
19596.0	6.797628892599638e+17
19597.0	6.798803756995923e+17
19598.0	6.797809360218793e+17
19599.0	6.797140106586793e+17
19600.0	6.796286253247146e+17
19601.0	6.795382673637375e+17
19602.0	6.794515227956564e+17
19603.0	6.79324326891793e+17
19604.0	6.79271673766434e+17
19605.0	6.791718485622783e+17
19606.0	6.790999221906089e+17
19607.0	6.791132727301462e+17
19608.0	6.791670864194217e+17
19609.0	6.790717886169087e+17
19610.0	6.789812813387091e+17
19611.0	6.788869957615615e+17
19612.0	6.787934035028649e+17
19613.0	6.786976604749823e+17
19614.0	6.78600090128657e+17
19615.0	6.785113641014612e+17
19616.0	6.784116104101887e+17
19617.0	6.783271086762666e+17
19618.0	6.781979399116115e+17
19619.0	6.780912451365545e+17
19620.0	6.779954758243667e+17
19621.0	6.779326645141503e+17
19622.0	6.778339986156201e+17
19623.0	6.778704104172202e+17
19624.0	6.778212028426921e+17
19625.0	6.777195599669929e+17
19626.0	6.776171517706239e+17
19627.0	6.775122917938516e+17
19628.0	6.77375393206545e+17
19629.0	6.772885927144105e+17
19630.0	6.770109570525865e+17
19631.0	6.756104014222676e+17
19632.0	6.769714382503935e+17
19633.0	6.768851205925546e+17
19634.0	6.767882202163881e+17
19635.0	6.766821480158548e+17
19636.0	6.765794903982079e+17
19637.0	6.764496845187753e+17
19638.0	6.763687766043305e+17
19639.0	6.762622547045034e+17
19640.0	6.761513176006655e+17
19641.0	6.760105612323498e+17
19642.0	6.759426112705876e+17
19643.0	6.758344992402089e+17
19644.0	6.757233755597482e+17
19645.0	6.756040847305385e+17
19646.0	6.755102637424639e+17
19647.0	6.75518115479552e+17
19648.0	6.754580245250047e+17
19649.0	6.753485338968063e+17
19650.0	6.752390941594964e+17
19651.0	6.751292607867562e+17
19652.0	6.75019189527074e+17
19653.0	6.749080902434815e+17
19654.0	6.747983574641321e+17
19655.0	6.746873385014612e+17
19656.0	6.745762526396415e+17
19657.0	6.74465485754641e+17
19658.0	6.743541089479336e+17
19659.0	6.742424456003583e+17
19660.0	6.741307671532884e+17
19661.0	6.740187781180073e+17
19662.0	6.739065302242644e+17
19663.0	6.737906058133503e+17
19664.0	6.736764330136916e+17
19665.0	6.735689661371731e+17
