# Flux units: erg / (cm m2 s)
# Wavelength units: Angstrom
wave	flux
19000.0	6.336219158588074e+17
19001.0	6.334994405741908e+17
19002.0	6.333845504786431e+17
19003.0	6.332658030914217e+17
19004.0	6.331470246663508e+17
19005.0	6.330282001039359e+17
19006.0	6.329098039896746e+17
19007.0	6.327894726235476e+17
19008.0	6.326700781251241e+17
19009.0	6.325530603290623e+17
19010.0	6.324152728289279e+17
19011.0	6.323153911414783e+17
19012.0	6.321921983512573e+17
19013.0	6.320788223295487e+17
19014.0	6.319580690863444e+17
19015.0	6.318403019778729e+17
19016.0	6.317212421849087e+17
19017.0	6.316035275052372e+17
19018.0	6.314855217408682e+17
19019.0	6.313673219899391e+17
19020.0	6.312474335423146e+17
19021.0	6.311298091799891e+17
19022.0	6.310120605963604e+17
19023.0	6.308918678519807e+17
19024.0	6.307741589744297e+17
19025.0	6.306566366735018e+17
19026.0	6.305369169767082e+17
19027.0	6.304172738259626e+17
19028.0	6.303011313112404e+17
19029.0	6.301822545297407e+17
19030.0	6.300647952132777e+17
19031.0	6.299464137790804e+17
19032.0	6.298279253901311e+17
19033.0	6.297062516370089e+17
19034.0	6.295907940521299e+17
19035.0	6.294716291219455e+17
19036.0	6.291596593769128e+17
19037.0	6.292359733400916e+17
19038.0	6.291171811437225e+17
19039.0	6.289998590509055e+17
19040.0	6.288816110654804e+17
19041.0	6.286945116924585e+17
19042.0	6.285605409390591e+17
19043.0	6.284459109602644e+17
19044.0	6.283272798251689e+17
19045.0	6.282096198811647e+17
19046.0	6.280895665274879e+17
19047.0	6.27973330899217e+17
19048.0	6.27846658794018e+17
19049.0	6.277346139744937e+17
19050.0	6.27617543889442e+17
19051.0	6.27468137817702e+17
19052.0	6.273813624214868e+17
19053.0	6.272646979256319e+17
19054.0	6.271471419304618e+17
19055.0	6.270194563416063e+17
19056.0	6.269100554016084e+17
19057.0	6.267929608497833e+17
19058.0	6.266749146103807e+17
19059.0	6.265574759858176e+17
19060.0	6.264386343665663e+17
19061.0	6.263217357586431e+17
19062.0	6.262037082537983e+17
19063.0	6.260859965800447e+17
19064.0	6.259634276226388e+17
19065.0	6.258436629768874e+17
19066.0	6.257303154065407e+17
19067.0	6.256146422344362e+17
19068.0	6.254971504820223e+17
19069.0	6.253794964100435e+17
19070.0	6.252608364740608e+17
19071.0	6.251441222057983e+17
19072.0	6.250264598151167e+17
19073.0	6.249086099390463e+17
19074.0	6.247911981580287e+17
19075.0	6.246735957458943e+17
19076.0	6.245551172135593e+17
19077.0	6.244380715253759e+17
19078.0	6.243194045289812e+17
19079.0	6.242033498849279e+17
19080.0	6.240853520897363e+17
19081.0	6.239665693305513e+17
19082.0	6.238488795370836e+17
19083.0	6.237294969924265e+17
19084.0	6.236070653984767e+17
19085.0	6.234985998581759e+17
19086.0	6.233668923512148e+17
19087.0	6.232581645970089e+17
19088.0	6.231440138174463e+17
19089.0	6.229723612971007e+17
19090.0	6.228460582207487e+17
19091.0	6.227292098745684e+17
19092.0	6.226094808804009e+17
19093.0	6.224955360411647e+17
19094.0	6.223779227238399e+17
19095.0	6.222606264958975e+17
19096.0	6.221431616569344e+17
19097.0	6.220267927896063e+17
19098.0	6.219096987970218e+17
19099.0	6.217925517464916e+17
19100.0	6.216749821897386e+17
19101.0	6.215584297517055e+17
19102.0	6.214376041567572e+17
19103.0	6.213243513077759e+17
19104.0	6.212073394536447e+17
19105.0	6.210903420698623e+17
19106.0	6.209723251905876e+17
19107.0	6.208558491587924e+17
19108.0	6.20739474629154e+17
19109.0	6.20605417333282e+17
19110.0	6.20505601216785e+17
19111.0	6.203888067674111e+17
19112.0	6.202719568134143e+17
19113.0	6.201551247551146e+17
19114.0	6.2003828242077e+17
19115.0	6.199194868689578e+17
19116.0	6.198038781493247e+17
19117.0	6.196874597193044e+17
19118.0	6.195674505456298e+17
19119.0	6.193102412141907e+17
19120.0	6.19335685190451e+17
19121.0	6.192200903819264e+17
19122.0	6.191044997677056e+17
19123.0	6.189877427175423e+17
19124.0	6.188702061559805e+17
19125.0	6.187545617847635e+17
19126.0	6.18637726650641e+17
19127.0	6.184558393294845e+17
19128.0	6.183956712696489e+17
19129.0	6.182849819792724e+17
19130.0	6.181714146273961e+17
19131.0	6.180553453032788e+17
19132.0	6.17938827608064e+17
19133.0	6.178106521944064e+17
19134.0	6.177008615336618e+17
19135.0	6.175894600504659e+17
19136.0	6.17473333264384e+17
19137.0	6.173507397702995e+17
19138.0	6.172395101137578e+17
19139.0	6.171242680461993e+17
19140.0	6.170079796396031e+17
19141.0	6.168916906038612e+17
19142.0	6.16774461624593e+17
19143.0	6.1665689206784e+17
19144.0	6.16541723959842e+17
19145.0	6.164266690281471e+17
19146.0	6.162880653164543e+17
19147.0	6.161907826294783e+17
19148.0	6.160781213171711e+17
19149.0	6.159617602792105e+17
19150.0	6.158455758214484e+17
19151.0	6.157298624539305e+17
19152.0	6.15613507637521e+17
19153.0	6.154968090978985e+17
19154.0	6.15376774828305e+17
19155.0	6.152655994879999e+17
19156.0	6.151494828381524e+17
19157.0	6.150333810081791e+17
19158.0	6.149057957330941e+17
19159.0	6.148007993016319e+17
19160.0	6.146848761490089e+17
19161.0	6.145687570524842e+17
19162.0	6.144270258580137e+17
19163.0	6.143378371990867e+17
19164.0	6.142220792321364e+17
19165.0	6.14105653322274e+17
19166.0	6.139856162564778e+17
19167.0	6.138720467375444e+17
19168.0	6.137560470388733e+17
19169.0	6.1364108801693e+17
19170.0	6.135271134680404e+17
19171.0	6.134097643918676e+17
19172.0	6.132956521999017e+17
19173.0	6.131798719332351e+17
19174.0	6.13062044426786e+17
19175.0	6.129485379622228e+17
19176.0	6.128328546538835e+17
19177.0	6.127114809333076e+17
19178.0	6.126012066693119e+17
19179.0	6.124834023014399e+17
19180.0	6.123686341902335e+17
19181.0	6.122501079826431e+17
19182.0	6.121378647725396e+17
19183.0	6.120233511856809e+17
19184.0	6.119055459789482e+17
19185.0	6.11792076214545e+17
19186.0	6.116767282408106e+17
19187.0	6.115584436950356e+17
19188.0	6.114456429920255e+17
19189.0	6.113299620604585e+17
19190.0	6.112143021004116e+17
19191.0	6.110978961134932e+17
19192.0	6.109838949307732e+17
19193.0	6.10867899146786e+17
19194.0	6.107522818288298e+17
19195.0	6.106374803030015e+17
19196.0	6.105214598425258e+17
19197.0	6.10406383030545e+17
19198.0	6.102911996832425e+17
19199.0	6.100152989952682e+17
19200.0	6.099609219410601e+17
19201.0	6.099451874290346e+17
19202.0	6.098300230260051e+17
19203.0	6.097143642543444e+17
19204.0	6.09598411252258e+17
19205.0	6.094836852938068e+17
19206.0	6.093683843661824e+17
19207.0	6.092502459919018e+17
19208.0	6.09129441927714e+17
19209.0	6.09022516535842e+17
19210.0	6.089074036528467e+17
19211.0	6.08792456794385e+17
19212.0	6.086772809968297e+17
19213.0	6.085575436839593e+17
19214.0	6.084419135034708e+17
19215.0	6.083310493106175e+17
19216.0	6.082159604050602e+17
19217.0	6.081011533567316e+17
19218.0	6.079549330685951e+17
19219.0	6.078648684292776e+17
19220.0	6.077546419104425e+17
19221.0	6.076279205920767e+17
19222.0	6.0752520558237e+17
19223.0	6.07409085227554e+17
19224.0	6.072925091616084e+17
19225.0	6.0717375960733e+17
19226.0	6.070635205754879e+17
19227.0	6.069482562781183e+17
19228.0	6.068342056026111e+17
19229.0	6.067190242126506e+17
19230.0	6.066032921804799e+17
19231.0	6.06488134558242e+17
19232.0	6.063727837183999e+17
19233.0	6.062555976608425e+17
19234.0	6.061421592139092e+17
19235.0	6.060268036205225e+17
19236.0	6.059128104069801e+17
19237.0	6.057970333559465e+17
19238.0	6.056788788335955e+17
19239.0	6.055673720733696e+17
19240.0	6.054469125712553e+17
19241.0	6.053348091712852e+17
19242.0	6.052210912438954e+17
19243.0	6.05100094521344e+17
19244.0	6.049913231463763e+17
19245.0	6.048759170815316e+17
19246.0	6.047602620847443e+17
19247.0	6.046456588096852e+17
19248.0	6.045304881151999e+17
19249.0	6.044151708297897e+17
19250.0	6.042991447070035e+17
19251.0	6.041817008395603e+17
19252.0	6.040568936617299e+17
19253.0	6.039531400025428e+17
19254.0	6.038379783258111e+17
19255.0	6.037154738907818e+17
19256.0	6.036075597616468e+17
19257.0	6.034927027311956e+17
19258.0	6.033772614341972e+17
19259.0	6.032588872002218e+17
19260.0	6.031429432158889e+17
19261.0	6.030305178331817e+17
19262.0	6.029132311822333e+17
19263.0	6.02798056153634e+17
19264.0	6.026646801525417e+17
19265.0	6.025612891608403e+17
19266.0	6.024463723615572e+17
19267.0	6.023377661023571e+17
19268.0	6.022221248768682e+17
19269.0	6.021064524737193e+17
19270.0	6.019920224234153e+17
19271.0	6.018640831490732e+17
19272.0	6.017595102724095e+17
19273.0	6.014990841894226e+17
19274.0	6.014547250206035e+17
19275.0	6.014132708966399e+17
19276.0	6.012965766212265e+17
19277.0	6.01180751335697e+17
19278.0	6.010648846663679e+17
19279.0	6.009479597741396e+17
19280.0	6.008296317474132e+17
19281.0	6.007162729223508e+17
19282.0	6.006007097808212e+17
19283.0	6.004819567312896e+17
19284.0	6.003641980813312e+17
19285.0	6.002437120851967e+17
19286.0	6.001338922740393e+17
19287.0	6.000186627194879e+17
19288.0	5.998604084139347e+17
19289.0	5.996463413439142e+17
19290.0	5.996686910423039e+17
19291.0	5.995419841942868e+17
19292.0	5.994350035075071e+17
19293.0	5.993177201420969e+17
19294.0	5.992005561046356e+17
19295.0	5.990838651846655e+17
19296.0	5.989666429162835e+17
19297.0	5.988488514808489e+17
19298.0	5.987308239060991e+17
19299.0	5.986144170803199e+17
19300.0	5.984966903070719e+17
19301.0	5.983787481563135e+17
19302.0	5.982609458156884e+17
19303.0	5.981397664311978e+17
19304.0	5.980233273092778e+17
19305.0	5.979062282835284e+17
19306.0	5.977881851199487e+17
19307.0	5.976679783246506e+17
19308.0	5.975505036290729e+17
19309.0	5.974271506164394e+17
19310.0	5.973055287328767e+17
19311.0	5.971933878637908e+17
19312.0	5.97075247042833e+17
19313.0	5.969553522338474e+17
19314.0	5.966942187814907e+17
19315.0	5.965889322440022e+17
19316.0	5.965973781741567e+17
19317.0	5.964772089178796e+17
19318.0	5.963568569996627e+17
19319.0	5.962372132896768e+17
19320.0	5.96116267597824e+17
19321.0	5.959957767782399e+17
19322.0	5.958707638697983e+17
19323.0	5.957508208263168e+17
19324.0	5.956319416680447e+17
19325.0	5.955052340510719e+17
19326.0	5.953881833996287e+17
19327.0	5.952652955353087e+17
19328.0	5.951434079425876e+17
19329.0	5.950205822238719e+17
19330.0	5.948958288030378e+17
19331.0	5.947723188535295e+17
19332.0	5.946502485289641e+17
19333.0	5.945258690303316e+17
19334.0	5.944013597179903e+17
19335.0	5.942770072726186e+17
19336.0	5.941517555684694e+17
19337.0	5.93967530062643e+17
19338.0	5.93793942430242e+17
19339.0	5.936753391872682e+17
19340.0	5.935451121298089e+17
19341.0	5.934210244149247e+17
19342.0	5.932786273047892e+17
19343.0	5.931652002523818e+17
19344.0	5.930363756303699e+17
19345.0	5.928222560616444e+17
19346.0	5.927576997112492e+17
19347.0	5.926445176061952e+17
19348.0	5.92516228456994e+17
19349.0	5.923833871597568e+17
19350.0	5.922513509591721e+17
19351.0	5.921179933431124e+17
19352.0	5.91983079849984e+17
19353.0	5.918515730404692e+17
19354.0	5.917165054765737e+17
19355.0	5.915769735654057e+17
19356.0	5.914438775341055e+17
19357.0	5.913063240062292e+17
19358.0	5.911669551136767e+17
19359.0	5.910207618088959e+17
19360.0	5.908868670423039e+17
19361.0	5.907452069412863e+17
19362.0	5.906046593094995e+17
19363.0	5.904611133794985e+17
19364.0	5.903162675647828e+17
19365.0	5.901705856155647e+17
19366.0	5.900234572606121e+17
19367.0	5.898750541168639e+17
19368.0	5.896090467434496e+17
19369.0	5.894418359910399e+17
19370.0	5.892752072682154e+17
19371.0	5.891351571507882e+17
19372.0	5.889808459803306e+17
19373.0	5.888216764776447e+17
19374.0	5.88662614069521e+17
19375.0	5.88500556718626e+17
19376.0	5.883366996617898e+17
19377.0	5.881701435703295e+17
19378.0	5.880019712038227e+17
19379.0	5.878315209807188e+17
19380.0	5.876583480251731e+17
19381.0	5.873335033746771e+17
19382.0	5.871373299744767e+17
19383.0	5.869543254305449e+17
19384.0	5.86773088576034e+17
19385.0	5.865844873625599e+17
19386.0	5.863927308440916e+17
19387.0	5.861972330064554e+17
19388.0	5.859450219571884e+17
19389.0	5.855940275688788e+17
19390.0	5.853850567180287e+17
19391.0	5.84997463671876e+17
19392.0	5.849532005526186e+17
19393.0	5.847122644216489e+17
19394.0	5.842600546970282e+17
19395.0	5.840233643201875e+17
19396.0	5.837809596235775e+17
19397.0	5.834656805027837e+17
19398.0	5.829897990351529e+17
19399.0	5.826969697867092e+17
19400.0	5.823704377677139e+17
19401.0	5.818339435042132e+17
19402.0	5.815382108886356e+17
19403.0	5.808937067260585e+17
19404.0	5.80492344758545e+17
19405.0	5.798141956369065e+17
19406.0	5.793534306506071e+17
19407.0	5.787641272336383e+17
19408.0	5.783565550398122e+17
19409.0	5.779852903492265e+17
19410.0	5.775727804809215e+17
19411.0	5.771417265460563e+17
19412.0	5.76692789776657e+17
19413.0	5.7622488853162656e+17
19414.0	5.7573558731844256e+17
19415.0	5.7522683390197754e+17
19416.0	5.746892639393108e+17
19417.0	5.741357182921386e+17
19418.0	5.734843333039445e+17
19419.0	5.728746223610537e+17
19420.0	5.7223741817487354e+17
19421.0	5.7156892888487245e+17
19422.0	5.7085901245426323e+17
19423.0	5.700146448826366e+17
19424.0	5.6923987535462394e+17
19425.0	5.6837742082566816e+17
19426.0	5.6740238299845965e+17
19427.0	5.663898576704852e+17
19428.0	5.653018194913961e+17
19429.0	5.640292747182079e+17
19430.0	5.625683037039273e+17
19431.0	5.608479096045569e+17
19432.0	5.5881297919563066e+17
19433.0	5.561494596310359e+17
19434.0	5.529383537562967e+17
19435.0	5.507097614964052e+17
19436.0	5.485907529782613e+17
19437.0	5.463328984574634e+17
19438.0	5.435618333032445e+17
19439.0	5.41123390926575e+17
19440.0	5.381041067917312e+17
19441.0	5.346316711013035e+17
19442.0	5.302847459557378e+17
19443.0	5.241259516668595e+17
19444.0	5.166287474218319e+17
19445.0	5.1032946911477786e+17
19446.0	5.027363155520171e+17
19447.0	4.9203954941515014e+17
19448.0	4.7798395143017875e+17
19449.0	4.582985619035473e+17
19450.0	4.1883451348309203e+17
19451.0	4.07459725731429e+17
19452.0	4.401659860658871e+17
19453.0	4.697748642551131e+17
19454.0	4.848095479900842e+17
19455.0	4.974920421343237e+17
19456.0	5.059717744645465e+17
19457.0	5.1260750585746746e+17
19458.0	5.1875376162406406e+17
19459.0	5.2615063993494234e+17
19460.0	5.3098066592399366e+17
19461.0	5.34599859822046e+17
19462.0	5.375967240738133e+17
19463.0	5.402459992926889e+17
19464.0	5.4261440315392e+17
19465.0	5.448026341856598e+17
19466.0	5.467729923058345e+17
19467.0	5.4859543878478515e+17
19468.0	5.512380770069173e+17
19469.0	5.5399093454766125e+17
19470.0	5.5612999868962074e+17
19471.0	5.5778502861564544e+17
19472.0	5.5910442642090656e+17
19473.0	5.602173840785406e+17
19474.0	5.611456875025749e+17
19475.0	5.6203463793923405e+17
19476.0	5.6276339406493e+17
19477.0	5.6351378357179725e+17
19478.0	5.64091400888866e+17
19479.0	5.6467554139723085e+17
19480.0	5.6524428063102285e+17
19481.0	5.657122639446015e+17
19482.0	5.6614706304341325e+17
19483.0	5.665533463276202e+17
19484.0	5.6695795000279034e+17
19485.0	5.673501486743552e+17
19486.0	5.6767631159459834e+17
19487.0	5.6797928763337363e+17
19488.0	5.6825973054286496e+17
19489.0	5.6851822738582176e+17
19490.0	5.687059215111508e+17
19491.0	5.689778527797248e+17
19492.0	5.691830147132074e+17
19493.0	5.693703344969045e+17
19494.0	5.695383864868864e+17
19495.0	5.69768430080273e+17
19496.0	5.700566915918505e+17
19497.0	5.704351690173101e+17
19498.0	5.7071706735028896e+17
19499.0	5.7071644058146125e+17
19500.0	5.712988343719252e+17
19501.0	5.7138076192167226e+17
19502.0	5.717556998438911e+17
19503.0	5.718078376290985e+17
19504.0	5.718516610454868e+17
19505.0	5.721393199753896e+17
19506.0	5.721870038990847e+17
19507.0	5.722071765439828e+17
19508.0	5.72223230382353e+17
19509.0	5.724395633552039e+17
19510.0	5.7245620593404576e+17
19511.0	5.721600019486034e+17
19512.0	5.7242209372951866e+17
19513.0	5.7235157342836026e+17
19514.0	5.724534230133418e+17
19515.0	5.725755175949654e+17
19516.0	5.7257105219911686e+17
19517.0	5.725407226276521e+17
19518.0	5.7251220960925005e+17
19519.0	5.724778281304062e+17
19520.0	5.724394765331113e+17
19521.0	5.7240061959208954e+17
19522.0	5.723680861934933e+17
19523.0	5.724651087637161e+17
19524.0	5.724167212455251e+17
19525.0	5.7236491578900474e+17
19526.0	5.723131020836863e+17
19527.0	5.7225816578894496e+17
19528.0	5.7220122356831565e+17
19529.0	5.7214291994651296e+17
19530.0	5.7208270665809914e+17
19531.0	5.72020648714786e+17
19532.0	5.719569814170281e+17
19533.0	5.7189179340445005e+17
19534.0	5.7182508118179834e+17
19535.0	5.7175654066203296e+17
19536.0	5.7168613731205114e+17
19537.0	5.7161703503517005e+17
19538.0	5.716540990510419e+17
19539.0	5.71567659478767e+17
19540.0	5.715150876530004e+17
19541.0	5.7144054284724896e+17
19542.0	5.713637403175594e+17
19543.0	5.712863285652137e+17
19544.0	5.712079183588009e+17
19545.0	5.711161913769981e+17
19546.0	5.710104564684116e+17
19547.0	5.709674842860202e+17
19548.0	5.708858397119828e+17
19549.0	5.707994748682238e+17
19550.0	5.7072006620774394e+17
19551.0	5.706362432520192e+17
19552.0	5.7055162694369274e+17
19553.0	5.7046574535365965e+17
19554.0	5.703790358779221e+17
19555.0	5.7029368997041485e+17
19556.0	5.7020730359589536e+17
19557.0	5.7011963823827616e+17
19558.0	5.700317078006441e+17
19559.0	5.699428287512575e+17
19560.0	5.6985322303870285e+17
19561.0	5.697637502855849e+17
19562.0	5.696749955274068e+17
19563.0	5.6958463889462605e+17
19564.0	5.6949399180629325e+17
19565.0	5.6940289054474234e+17
19566.0	5.6931021243460256e+17
19567.0	5.692195045987668e+17
19568.0	5.6912630415796896e+17
19569.0	5.690339722177194e+17
19570.0	5.689419993098921e+17
19571.0	5.6884879334659405e+17
19572.0	5.6875412315176954e+17
19573.0	5.6866105727822496e+17
19574.0	5.685637144029866e+17
19575.0	5.684732520038399e+17
19576.0	5.683787152577876e+17
19577.0	5.6828173113535123e+17
19578.0	5.681872996663296e+17
19579.0	5.680923856426324e+17
19580.0	5.679971082523988e+17
19581.0	5.679016248519338e+17
19582.0	5.678064042246143e+17
19583.0	5.677102741323774e+17
19584.0	5.6761392719462394e+17
19585.0	5.6751311017738234e+17
19586.0	5.674465037210964e+17
19587.0	5.674103176429566e+17
19588.0	5.672964924811945e+17
19589.0	5.672162303497558e+17
19590.0	5.671163252441087e+17
19591.0	5.6702188489714336e+17
19592.0	5.669243623658836e+17
19593.0	5.6682575623618554e+17
19594.0	5.667190787975849e+17
19595.0	5.6662963093067085e+17
19596.0	5.665086983110656e+17
19597.0	5.6643311450630816e+17
19598.0	5.663227071430655e+17
19599.0	5.6623639997098656e+17
19600.0	5.661380331263316e+17
19601.0	5.6603663184254285e+17
19602.0	5.659387258819924e+17
19603.0	5.6582362117789005e+17
19604.0	5.657405041934335e+17
19605.0	5.656312855658496e+17
19606.0	5.655432490123263e+17
19607.0	5.654443033537194e+17
19608.0	5.653441845482836e+17
19609.0	5.6524316690350074e+17
19610.0	5.651457001564842e+17
19611.0	5.650457700947284e+17
19612.0	5.649462605119487e+17
19613.0	5.6484593359912954e+17
19614.0	5.647449696414377e+17
19615.0	5.646465900041556e+17
19616.0	5.645450747052031e+17
19617.0	5.644463374335999e+17
19618.0	5.643271195852799e+17
19619.0	5.642186743873534e+17
19620.0	5.641210681797289e+17
19621.0	5.6404568507241805e+17
19622.0	5.639453522176683e+17
19623.0	5.6384497525282125e+17
19624.0	5.637441757118463e+17
19625.0	5.6364405438982816e+17
19626.0	5.6354356732450125e+17
19627.0	5.634430144086015e+17
19628.0	5.633387366711296e+17
19629.0	5.632384842072063e+17
19630.0	5.6313935099330554e+17
19631.0	5.6286501813616614e+17
19632.0	5.629396106870783e+17
19633.0	5.628374517022719e+17
19634.0	5.627381471510526e+17
19635.0	5.626358415753215e+17
19636.0	5.6253621993472e+17
19637.0	5.6242139156534605e+17
19638.0	5.6233441672997536e+17
19639.0	5.622334708776958e+17
19640.0	5.621305308435797e+17
19641.0	5.620021773118124e+17
19642.0	5.619305322381311e+17
19643.0	5.618291689127935e+17
19644.0	5.617265499526484e+17
19645.0	5.616175220959915e+17
19646.0	5.615268027258195e+17
19647.0	5.614257301356543e+17
19648.0	5.6132464055855776e+17
19649.0	5.6122343521867085e+17
19650.0	5.6112241967104e+17
19651.0	5.6102101342399136e+17
19652.0	5.6092008413921274e+17
19653.0	5.608189244473343e+17
19654.0	5.6071749359370234e+17
19655.0	5.6061623030251514e+17
19656.0	5.605151976281428e+17
19657.0	5.604142953966249e+17
19658.0	5.6031310375813114e+17
19659.0	5.6021183941836794e+17
19660.0	5.601106933579775e+17
19661.0	5.6000947934986234e+17
19662.0	5.599082612872533e+17
