# Flux units: erg / (cm m2 s)
# Wavelength units: Angstrom
wave	flux
19000.0	7.140274357316266e+17
19001.0	7.138719169511423e+17
19002.0	7.137600196313088e+17
19003.0	7.136247797514239e+17
19004.0	7.134904475189247e+17
19005.0	7.133562057435817e+17
19006.0	7.132218712741203e+17
19007.0	7.130568420491264e+17
19008.0	7.129392699757908e+17
19009.0	7.128028759632553e+17
19010.0	7.125851193038161e+17
19011.0	7.125432868536319e+17
19012.0	7.123629920397993e+17
19013.0	7.122813300594004e+17
19014.0	7.121335665470121e+17
19015.0	7.120052629274624e+17
19016.0	7.118688780025855e+17
19017.0	7.117253861092008e+17
19018.0	7.116058323670355e+17
19019.0	7.114739451341481e+17
19020.0	7.113307967542612e+17
19021.0	7.112030003658752e+17
19022.0	7.110734497797459e+17
19023.0	7.109305160084138e+17
19024.0	7.108012275662847e+17
19025.0	7.1066654357149e+17
19026.0	7.105282801576617e+17
19027.0	7.103687067435007e+17
19028.0	7.102687187304447e+17
19029.0	7.101305758329513e+17
19030.0	7.100029275034964e+17
19031.0	7.09870221262848e+17
19032.0	7.097356675710973e+17
19033.0	7.09581207712563e+17
19034.0	7.094634591988393e+17
19035.0	7.093249427286697e+17
19036.0	7.065741210331813e+17
19037.0	7.09062265213201e+17
19038.0	7.089259511720617e+17
19039.0	7.087963731831466e+17
19040.0	7.086636236013565e+17
19041.0	7.085278070046719e+17
19042.0	7.083750840074237e+17
19043.0	7.082621083320319e+17
19044.0	7.081249994702847e+17
19045.0	7.079925550940159e+17
19046.0	7.07845673643759e+17
19047.0	7.077229635480233e+17
19048.0	7.075452778708991e+17
19049.0	7.074424507334655e+17
19050.0	7.073129156662611e+17
19051.0	7.067944511777444e+17
19052.0	7.069951366004735e+17
19053.0	7.069145869494953e+17
19054.0	7.067881201554772e+17
19055.0	7.065977543983105e+17
19056.0	7.065149630316543e+17
19057.0	7.06384927863603e+17
19058.0	7.062428986638335e+17
19059.0	7.061190458998783e+17
19060.0	7.059808083509247e+17
19061.0	7.058528392970237e+17
19062.0	7.057174967965012e+17
19063.0	7.055848453614249e+17
19064.0	7.05421135245039e+17
19065.0	7.052763043900074e+17
19066.0	7.051700166721533e+17
19067.0	7.050471704013481e+17
19068.0	7.049164400973139e+17
19069.0	7.047829172256765e+17
19070.0	7.046426615174484e+17
19071.0	7.045135744019113e+17
19072.0	7.043823599353855e+17
19073.0	7.042471102687914e+17
19074.0	7.041157646603603e+17
19075.0	7.039822543716351e+17
19076.0	7.038439284626772e+17
19077.0	7.03712709452322e+17
19078.0	7.035700408309076e+17
19079.0	7.034473770822313e+17
19080.0	7.03310922462003e+17
19081.0	7.031714215187795e+17
19082.0	7.030360408500906e+17
19083.0	7.028875475288061e+17
19084.0	7.027254703248724e+17
19085.0	7.026444805515945e+17
19086.0	7.024236300337152e+17
19087.0	7.022986984248662e+17
19088.0	7.022277017206783e+17
19089.0	7.020299069423615e+17
19090.0	7.019738007863296e+17
19091.0	7.018409492130474e+17
19092.0	7.016826631006889e+17
19093.0	7.015809212394153e+17
19094.0	7.014470893174784e+17
19095.0	7.013140845821951e+17
19096.0	7.011762077433855e+17
19097.0	7.010480088416255e+17
19098.0	7.009148336777898e+17
19099.0	7.007811518420307e+17
19100.0	7.006446580050601e+17
19101.0	7.005148547121151e+17
19102.0	7.003629709251923e+17
19103.0	7.002489807874729e+17
19104.0	7.001176618827775e+17
19105.0	6.999837653685588e+17
19106.0	6.998361201355433e+17
19107.0	6.997140767244287e+17
19108.0	6.995853656282452e+17
19109.0	6.991884668895228e+17
19110.0	6.993145544485545e+17
19111.0	6.991860026660179e+17
19112.0	6.990540202224297e+17
19113.0	6.989208863724884e+17
19114.0	6.987871493816319e+17
19115.0	6.986401907561812e+17
19116.0	6.985174859033257e+17
19117.0	6.983840495042559e+17
19118.0	6.982258480469331e+17
19119.0	6.97504815312622e+17
19120.0	6.979666702587219e+17
19121.0	6.978434399294803e+17
19122.0	6.977263670482259e+17
19123.0	6.975916109813076e+17
19124.0	6.974467458028884e+17
19125.0	6.973245123198973e+17
19126.0	6.971906868292265e+17
19127.0	6.966876495500627e+17
19128.0	6.967334661696166e+17
19129.0	6.967780639244287e+17
19130.0	6.966605954504019e+17
19131.0	6.965252163196244e+17
19132.0	6.963989467977044e+17
19133.0	6.961481744646144e+17
19134.0	6.960444587638785e+17
19135.0	6.960005244780543e+17
19136.0	6.958703278292991e+17
19137.0	6.957019198827178e+17
19138.0	6.955863146583382e+17
19139.0	6.954723859671721e+17
19140.0	6.953406801379327e+17
19141.0	6.952083376133459e+17
19142.0	6.950695078286675e+17
19143.0	6.949304646937258e+17
19144.0	6.948018154635264e+17
19145.0	6.946765164336468e+17
19146.0	6.944103742832641e+17
19147.0	6.943930598468265e+17
19148.0	6.942797512835072e+17
19149.0	6.941305834482346e+17
19150.0	6.939925449889108e+17
19151.0	6.938619966477652e+17
19152.0	6.937254389874687e+17
19153.0	6.935945008556713e+17
19154.0	6.934383629260116e+17
19155.0	6.933338306641919e+17
19156.0	6.932016852019881e+17
19157.0	6.930654416251562e+17
19158.0	6.927544615261522e+17
19159.0	6.928009332260864e+17
19160.0	6.926654960041983e+17
19161.0	6.925224745020074e+17
19162.0	6.920024001697114e+17
19163.0	6.922692740863316e+17
19164.0	6.921455626704212e+17
19165.0	6.920047676446036e+17
19166.0	6.918501454665044e+17
19167.0	6.91711044100642e+17
19168.0	6.915933452195155e+17
19169.0	6.914658037749076e+17
19170.0	6.913532337586175e+17
19171.0	6.911979944585898e+17
19172.0	6.910872871327059e+17
19173.0	6.909568319051092e+17
19174.0	6.908129697944916e+17
19175.0	6.906940654703955e+17
19176.0	6.905610972954623e+17
19177.0	6.903968448555689e+17
19178.0	6.902900928282623e+17
19179.0	6.9013419341469e+17
19180.0	6.900030850640553e+17
19181.0	6.898800276100436e+17
19182.0	6.897568149667839e+17
19183.0	6.896350525041321e+17
19184.0	6.894834126858921e+17
19185.0	6.893711998145876e+17
19186.0	6.892432302014463e+17
19187.0	6.890931010316969e+17
19188.0	6.889771158732799e+17
19189.0	6.888394560197971e+17
19190.0	6.887059891421183e+17
19191.0	6.885730214565204e+17
19192.0	6.88450294583569e+17
19193.0	6.883011507956393e+17
19194.0	6.881764429529087e+17
19195.0	6.880540509951316e+17
19196.0	6.879206537428991e+17
19197.0	6.877896921929044e+17
19198.0	6.876546986584745e+17
19199.0	6.851694986002424e+17
19200.0	6.857918385225736e+17
19201.0	6.87260551033651e+17
19202.0	6.871336378258771e+17
19203.0	6.8699758278301e+17
19204.0	6.868651474244948e+17
19205.0	6.867372758881622e+17
19206.0	6.866036029303466e+17
19207.0	6.864536669782015e+17
19208.0	6.863007523711657e+17
19209.0	6.862078673420287e+17
19210.0	6.860781993153876e+17
19211.0	6.859491627412138e+17
19212.0	6.858175028396032e+17
19213.0	6.856483754300756e+17
19214.0	6.855005362804052e+17
19215.0	6.854133940224e+17
19216.0	6.852867470830249e+17
19217.0	6.851578965961386e+17
19218.0	6.848460867239932e+17
19219.0	6.848591531693396e+17
19220.0	6.847565846107476e+17
19221.0	6.845571127399766e+17
19222.0	6.844994555303252e+17
19223.0	6.843626428563453e+17
19224.0	6.842192008751785e+17
19225.0	6.840690601710932e+17
19226.0	6.839664125498708e+17
19227.0	6.838342477938687e+17
19228.0	6.837086645299881e+17
19229.0	6.835772107784191e+17
19230.0	6.8343465784989e+17
19231.0	6.833040349899433e+17
19232.0	6.831732003875498e+17
19233.0	6.830324452775252e+17
19234.0	6.829108849803263e+17
19235.0	6.827761895211005e+17
19236.0	6.826529199751168e+17
19237.0	6.825165642006527e+17
19238.0	6.823654521656662e+17
19239.0	6.822570452058111e+17
19240.0	6.820800984951465e+17
19241.0	6.819731847075155e+17
19242.0	6.818546459869183e+17
19243.0	6.816868281789097e+17
19244.0	6.815954978384553e+17
19245.0	6.814622541676543e+17
19246.0	6.813270834238803e+17
19247.0	6.811963928259242e+17
19248.0	6.810660853776383e+17
19249.0	6.809326322013523e+17
19250.0	6.80796940734737e+17
19251.0	6.806396694342313e+17
19252.0	6.804692481518249e+17
19253.0	6.803986850687658e+17
19254.0	6.802642008626516e+17
19255.0	6.800957883023359e+17
19256.0	6.799919654371328e+17
19257.0	6.798716352593919e+17
19258.0	6.797394274418687e+17
19259.0	6.795903931951785e+17
19260.0	6.794304331360937e+17
19261.0	6.793375139932842e+17
19262.0	6.791943107379199e+17
19263.0	6.79062265729297e+17
19264.0	6.788260339995986e+17
19265.0	6.787674151758505e+17
19266.0	6.786421822062592e+17
19267.0	6.785415211472212e+17
19268.0	6.784062813372415e+17
19269.0	6.782734802354175e+17
19270.0	6.781400336302079e+17
19271.0	6.779335210609324e+17
19272.0	6.778642762476201e+17
19273.0	6.765442727848605e+17
19274.0	6.769607145335457e+17
19275.0	6.774708579423572e+17
19276.0	6.773323448975359e+17
19277.0	6.771985065443327e+17
19278.0	6.770647209694548e+17
19279.0	6.769190667725481e+17
19280.0	6.767769295694506e+17
19281.0	6.766598782888618e+17
19282.0	6.765285363853994e+17
19283.0	6.763546657772884e+17
19284.0	6.761696432138921e+17
19285.0	6.76034193339187e+17
19286.0	6.759397192979796e+17
19287.0	6.758126947314346e+17
19288.0	6.749568588840951e+17
19289.0	6.73851229863933e+17
19290.0	6.754057493763412e+17
19291.0	6.75209924382993e+17
19292.0	6.751335857433257e+17
19293.0	6.749953511303849e+17
19294.0	6.748580323437225e+17
19295.0	6.747239554744319e+17
19296.0	6.745855654625279e+17
19297.0	6.744434351800319e+17
19298.0	6.743055673589759e+17
19299.0	6.74174833210163e+17
19300.0	6.740369626628095e+17
19301.0	6.738974435442687e+17
19302.0	6.737571839912617e+17
19303.0	6.736025746756948e+17
19304.0	6.734715644717738e+17
19305.0	6.733404640204116e+17
19306.0	6.732018052235264e+17
19307.0	6.730543685173247e+17
19308.0	6.729202864750591e+17
19309.0	6.727052107448319e+17
19310.0	6.725315757867005e+17
19311.0	6.724925757500074e+17
19312.0	6.723636536104276e+17
19313.0	6.722132884411734e+17
19314.0	6.707915300448942e+17
19315.0	6.707120542056463e+17
19316.0	6.71796217127458e+17
19317.0	6.716578884922026e+17
19318.0	6.715139778674687e+17
19319.0	6.713743257195859e+17
19320.0	6.712282394394623e+17
19321.0	6.710871586417321e+17
19322.0	6.709123330605055e+17
19323.0	6.707577046608556e+17
19324.0	6.706501285926227e+17
19325.0	6.704360560700074e+17
19326.0	6.703595198087165e+17
19327.0	6.702111407822163e+17
19328.0	6.700677564727295e+17
19329.0	6.699202902665897e+17
19330.0	6.697632482547027e+17
19331.0	6.69613336629521e+17
19332.0	6.694720428310527e+17
19333.0	6.692840374883668e+17
19334.0	6.691148015861759e+17
19335.0	6.689681793439059e+17
19336.0	6.688145939278506e+17
19337.0	6.686618487007914e+17
19338.0	6.684628519747583e+17
19339.0	6.683542502593876e+17
19340.0	6.681869057785855e+17
19341.0	6.68040715969058e+17
19342.0	6.677965400877736e+17
19343.0	6.677290136808106e+17
19344.0	6.675684102853972e+17
19345.0	6.669985384497142e+17
19346.0	6.670774494560253e+17
19347.0	6.670749949493247e+17
19348.0	6.66927472050176e+17
19349.0	6.667552284125865e+17
19350.0	6.665920363626496e+17
19351.0	6.664244868502867e+17
19352.0	6.662472842171732e+17
19353.0	6.660288267594409e+17
19354.0	6.658589932388351e+17
19355.0	6.656656427450367e+17
19356.0	6.65514453115426e+17
19357.0	6.653390006954665e+17
19358.0	6.651505771107668e+17
19359.0	6.64923079250193e+17
19360.0	6.647970579611647e+17
19361.0	6.64616531202321e+17
19362.0	6.644438271699625e+17
19363.0	6.642583619676842e+17
19364.0	6.640106526649002e+17
19365.0	6.637909263603028e+17
19366.0	6.635658846142463e+17
19367.0	6.633722147241983e+17
19368.0	6.63176056283682e+17
19369.0	6.629443217566378e+17
19370.0	6.626335839485951e+17
19371.0	6.625519618839891e+17
19372.0	6.622558051543721e+17
19373.0	6.62039309722146e+17
19374.0	6.618301630600532e+17
19375.0	6.616140205086036e+17
19376.0	6.613938452736682e+17
19377.0	6.61112051868194e+17
19378.0	6.608101851529215e+17
19379.0	6.60577660698624e+17
19380.0	6.603420377022463e+17
19381.0	6.600928937377792e+17
19382.0	6.596835036626944e+17
19383.0	6.59425092313634e+17
19384.0	6.591943541435049e+17
19385.0	6.588347256406015e+17
19386.0	6.58427130028578e+17
19387.0	6.581503490960042e+17
19388.0	6.578019620967764e+17
19389.0	6.574770492189353e+17
19390.0	6.571822394900479e+17
19391.0	6.546516407746527e+17
19392.0	6.565416749673126e+17
19393.0	6.562564713829716e+17
19394.0	6.559286241700522e+17
19395.0	6.555108621942784e+17
19396.0	6.551597317707091e+17
19397.0	6.548114057986047e+17
19398.0	6.544398950421844e+17
19399.0	6.539213594602153e+17
19400.0	6.536121504060756e+17
19401.0	6.531561824452607e+17
19402.0	6.527398701607593e+17
19403.0	6.523032025694207e+17
19404.0	6.517757758319272e+17
19405.0	6.512433905882452e+17
19406.0	6.507600550035455e+17
19407.0	6.501318120876716e+17
19408.0	6.494008527639896e+17
19409.0	6.48895289045811e+17
19410.0	6.482049801475412e+17
19411.0	6.474581144152745e+17
19412.0	6.467007801196544e+17
19413.0	6.457391268757503e+17
19414.0	6.447954665668609e+17
19415.0	6.437435008002725e+17
19416.0	6.425057995784188e+17
19417.0	6.413064510723411e+17
19418.0	6.403418372090538e+17
19419.0	6.393922157456042e+17
19420.0	6.384339074591401e+17
19421.0	6.37419412066577e+17
19422.0	6.363473216798719e+17
19423.0	6.352328231048531e+17
19424.0	6.340175207945558e+17
19425.0	6.327599138952531e+17
19426.0	6.314388880708948e+17
19427.0	6.299471464540841e+17
19428.0	6.284871117482665e+17
19429.0	6.268028990433961e+17
19430.0	6.249623193299628e+17
19431.0	6.226584211379547e+17
19432.0	6.208535840948219e+17
19433.0	6.182938778883411e+17
19434.0	6.153096288447146e+17
19435.0	6.116066348498943e+17
19436.0	6.079119923434833e+17
19437.0	6.050264033263616e+17
19438.0	5.993495507151537e+17
19439.0	5.980383695514285e+17
19440.0	5.940658957189121e+17
19441.0	5.894498889848146e+17
19442.0	5.83923945474185e+17
19443.0	5.769452700303363e+17
19444.0	5.6982379552221824e+17
19445.0	5.6238708551406957e+17
19446.0	5.533516979415722e+17
19447.0	5.4205331621806e+17
19448.0	5.2929653437890605e+17
19449.0	5.124129590782635e+17
19450.0	4.844515828782387e+17
19451.0	4.749172238450688e+17
19452.0	4.9956285257700717e+17
19453.0	5.2154375105850086e+17
19454.0	5.356576566498639e+17
19455.0	5.472768757159252e+17
19456.0	5.572924701758807e+17
19457.0	5.651688249622524e+17
19458.0	5.705074937080514e+17
19459.0	5.790906648450396e+17
19460.0	5.85056113253854e+17
19461.0	5.898322046877695e+17
19462.0	5.939015938561364e+17
19463.0	5.974706157693608e+17
19464.0	6.006710262388052e+17
19465.0	6.036218416463872e+17
19466.0	6.064753581490172e+17
19467.0	6.101279512898226e+17
19468.0	6.131691329770835e+17
19469.0	6.155399021461501e+17
19470.0	6.177795146601812e+17
19471.0	6.196297221188265e+17
19472.0	6.212686267635027e+17
19473.0	6.227181968905556e+17
19474.0	6.240625633875284e+17
19475.0	6.251636305428476e+17
19476.0	6.264310150638249e+17
19477.0	6.274742404601172e+17
19478.0	6.284797870254761e+17
19479.0	6.293910316559018e+17
19480.0	6.302320829311657e+17
19481.0	6.310284613036713e+17
19482.0	6.317713579660628e+17
19483.0	6.324742921388032e+17
19484.0	6.331537295409151e+17
19485.0	6.339970323185661e+17
19486.0	6.349980600107007e+17
19487.0	6.358997077240492e+17
19488.0	6.366576959815681e+17
19489.0	6.37276779586082e+17
19490.0	6.375850733731835e+17
19491.0	6.38440227296597e+17
19492.0	6.388215379045034e+17
19493.0	6.393389101263529e+17
19494.0	6.396262069480105e+17
19495.0	6.400165928413866e+17
19496.0	6.402372781735933e+17
19497.0	6.405345838628863e+17
19498.0	6.406140088811521e+17
19499.0	6.375651762241518e+17
19500.0	6.41255294963985e+17
19501.0	6.414166465533268e+17
19502.0	6.416550312891731e+17
19503.0	6.418095214166015e+17
19504.0	6.41929954005265e+17
19505.0	6.420453747501738e+17
19506.0	6.421495071550122e+17
19507.0	6.422497965288106e+17
19508.0	6.424032626868224e+17
19509.0	6.424752354055508e+17
19510.0	6.424997600602794e+17
19511.0	6.395394259593884e+17
19512.0	6.420899458711542e+17
19513.0	6.416500178376004e+17
19514.0	6.420441059732129e+17
19515.0	6.427201897496577e+17
19516.0	6.428671973086548e+17
19517.0	6.430056291936938e+17
19518.0	6.43128492032e+17
19519.0	6.431314409772372e+17
19520.0	6.43126145458722e+17
19521.0	6.432595669680125e+17
19522.0	6.432546487970474e+17
19523.0	6.432505571136852e+17
19524.0	6.432325748741459e+17
19525.0	6.432356950168916e+17
19526.0	6.433044367933439e+17
19527.0	6.432741077112148e+17
19528.0	6.432418177919657e+17
19529.0	6.432050065528148e+17
19530.0	6.431684606732969e+17
19531.0	6.431561341730815e+17
19532.0	6.431821626955091e+17
19533.0	6.431352294124202e+17
19534.0	6.430840164712447e+17
19535.0	6.430273682713258e+17
19536.0	6.429682512341672e+17
19537.0	6.429189316717226e+17
19538.0	6.428400303123114e+17
19539.0	6.426848608474456e+17
19540.0	6.428284338307072e+17
19541.0	6.427835543584767e+17
19542.0	6.427152004153343e+17
19543.0	6.426455850352637e+17
19544.0	6.425760186586454e+17
19545.0	6.424069320037714e+17
19546.0	6.42243629294114e+17
19547.0	6.423541055837523e+17
19548.0	6.422786631270399e+17
19549.0	6.421774640786089e+17
19550.0	6.421213355529556e+17
19551.0	6.420413092812116e+17
19552.0	6.419592473040212e+17
19553.0	6.419257882924371e+17
19554.0	6.418464075240788e+17
19555.0	6.417668759704916e+17
19556.0	6.416834760802303e+17
19557.0	6.415959214522367e+17
19558.0	6.415076049289215e+17
19559.0	6.414149879857151e+17
19560.0	6.413231590124202e+17
19561.0	6.412324830532948e+17
19562.0	6.411457899353428e+17
19563.0	6.41054697132305e+17
19564.0	6.409616606887933e+17
19565.0	6.408670632651434e+17
19566.0	6.407671515884202e+17
19567.0	6.406781899811497e+17
19568.0	6.405759537512447e+17
19569.0	6.404818269984084e+17
19570.0	6.403891978218153e+17
19571.0	6.402909868654591e+17
19572.0	6.40185792602658e+17
19573.0	6.400902553053865e+17
19574.0	6.399746421118291e+17
19575.0	6.398952600152746e+17
19576.0	6.397953354760191e+17
19577.0	6.396826849989972e+17
19578.0	6.396038608846847e+17
19579.0	6.395332748028585e+17
19580.0	6.394316289911465e+17
19581.0	6.393321707186857e+17
19582.0	6.392329588615849e+17
19583.0	6.391297661905578e+17
19584.0	6.390240240118442e+17
19585.0	6.388971058408105e+17
19586.0	6.387829295458985e+17
19587.0	6.386942172200959e+17
19588.0	6.385031397594454e+17
19589.0	6.384916456188585e+17
19590.0	6.383788948979711e+17
19591.0	6.382899183310164e+17
19592.0	6.381854537373012e+17
19593.0	6.380745406109012e+17
19594.0	6.379162524013907e+17
19595.0	6.378564664426495e+17
19596.0	6.37314575088572e+17
19597.0	6.37637800038673e+17
19598.0	6.374807142662143e+17
19599.0	6.374345350490794e+17
19600.0	6.373279884727636e+17
19601.0	6.372050504166057e+17
19602.0	6.371012989244756e+17
19603.0	6.36881180242739e+17
19604.0	6.368790248598185e+17
19605.0	6.36717509972241e+17
19606.0	6.366729593334441e+17
19607.0	6.365657109801642e+17
19608.0	6.364530613420031e+17
19609.0	6.3633401329309e+17
19610.0	6.362373124259839e+17
19611.0	6.361255340146687e+17
19612.0	6.360176927965183e+17
19613.0	6.359045058680148e+17
19614.0	6.357874926157823e+17
19615.0	6.356855524338344e+17
19616.0	6.355559095031124e+17
19617.0	6.354643459593556e+17
19618.0	6.352361466713427e+17
19619.0	6.35098159801958e+17
19620.0	6.349904379117565e+17
19621.0	6.350191374368768e+17
19622.0	6.349087742536361e+17
19623.0	6.347978583310336e+17
19624.0	6.346840112190804e+17
19625.0	6.345742065074175e+17
19626.0	6.344602158803625e+17
19627.0	6.343507272095059e+17
19628.0	6.341807944936106e+17
19629.0	6.341063488831487e+17
19630.0	6.338986691089748e+17
19631.0	6.313959021172052e+17
19632.0	6.337874832829097e+17
19633.0	6.336665423446015e+17
19634.0	6.335654743681706e+17
19635.0	6.334437609788756e+17
19636.0	6.333380457136127e+17
19637.0	6.331376874465962e+17
19638.0	6.331129615351808e+17
19639.0	6.329976468362579e+17
19640.0	6.328704767972691e+17
19641.0	6.326438426137944e+17
19642.0	6.326615260091732e+17
19643.0	6.325449061826559e+17
19644.0	6.324243010682877e+17
19645.0	6.322670488518653e+17
19646.0	6.322121886138365e+17
19647.0	6.320990535548927e+17
19648.0	6.319847948419072e+17
19649.0	6.318709069053951e+17
19650.0	6.317593491144701e+17
19651.0	6.316445656940543e+17
19652.0	6.315304988704767e+17
19653.0	6.31417832804625e+17
19654.0	6.313034911143252e+17
19655.0	6.311887086026751e+17
19656.0	6.310769496948735e+17
19657.0	6.309632863633405e+17
19658.0	6.308508702081023e+17
19659.0	6.307372500779007e+17
19660.0	6.306245975736319e+17
19661.0	6.305103423558995e+17
19662.0	6.303972740562941e+17
19663.0	6.302722224204457e+17
19664.0	6.301578380181501e+17
19665.0	6.300561246082388e+17
