# Flux units: erg / (cm m2 s)
# Wavelength units: Angstrom
wave	flux
19000.0	7.939543200869033e+17
19001.0	7.93808317063714e+17
19002.0	7.936729419874301e+17
19003.0	7.935319410911912e+17
19004.0	7.933908626003283e+17
19005.0	7.932497316806653e+17
19006.0	7.931083402947242e+17
19007.0	7.929665821868032e+17
19008.0	7.928228252134057e+17
19009.0	7.926754082903382e+17
19010.0	7.925254735265791e+17
19011.0	7.923977270504105e+17
19012.0	7.922524467058004e+17
19013.0	7.92114960356693e+17
19014.0	7.919695059484672e+17
19015.0	7.918285688056489e+17
19016.0	7.916869430979242e+17
19017.0	7.915456571288233e+17
19018.0	7.914025193745064e+17
19019.0	7.912599397422419e+17
19020.0	7.911162530933416e+17
19021.0	7.909749953658879e+17
19022.0	7.908319900117673e+17
19023.0	7.90686304777011e+17
19024.0	7.905440936842579e+17
19025.0	7.904014610639528e+17
19026.0	7.902575147876352e+17
19027.0	7.901133873173846e+17
19028.0	7.899714245274281e+17
19029.0	7.89826957877794e+17
19030.0	7.897187132375039e+17
19031.0	7.895820358298281e+17
19032.0	7.894378542530557e+17
19033.0	7.89288542623061e+17
19034.0	7.891474055517523e+17
19035.0	7.889941781195433e+17
19036.0	7.887417663029245e+17
19037.0	7.887094430389587e+17
19038.0	7.885694132639059e+17
19039.0	7.884271231784275e+17
19040.0	7.88282781798673e+17
19041.0	7.881381886208681e+17
19042.0	7.879890282654377e+17
19043.0	7.878486222613161e+17
19044.0	7.877036089540605e+17
19045.0	7.875584559764819e+17
19046.0	7.874115460049576e+17
19047.0	7.872656274270889e+17
19048.0	7.871163785718441e+17
19049.0	7.869737379823616e+17
19050.0	7.868289664068266e+17
19051.0	7.866673127576915e+17
19052.0	7.865334926497108e+17
19053.0	7.863956489459028e+17
19054.0	7.862508288562515e+17
19055.0	7.860915803608403e+17
19056.0	7.859586653836628e+17
19057.0	7.8581369681565e+17
19058.0	7.856677519534761e+17
19059.0	7.855224033815209e+17
19060.0	7.853761379347114e+17
19061.0	7.852307918793385e+17
19062.0	7.850846356242432e+17
19063.0	7.8493835605661e+17
19064.0	7.847884186364586e+17
19065.0	7.846369940559187e+17
19066.0	7.844966193692671e+17
19067.0	7.843542117034666e+17
19068.0	7.842080091712169e+17
19069.0	7.840617114282666e+17
19070.0	7.839143353297577e+17
19071.0	7.837689695611561e+17
19072.0	7.836225396976297e+17
19073.0	7.834759475145386e+17
19074.0	7.833295316320253e+17
19075.0	7.831829030982995e+17
19076.0	7.830356891795455e+17
19077.0	7.828887449545385e+17
19078.0	7.827419559187796e+17
19079.0	7.825960798431916e+17
19080.0	7.824490699074216e+17
19081.0	7.822998671895209e+17
19082.0	7.821541959357779e+17
19083.0	7.820016938385408e+17
19084.0	7.818477786802858e+17
19085.0	7.817143103346003e+17
19086.0	7.815455413283498e+17
19087.0	7.81418822316851e+17
19088.0	7.812685027956051e+17
19089.0	7.811146118245033e+17
19090.0	7.809765367349247e+17
19091.0	7.808301065917779e+17
19092.0	7.806811298070527e+17
19093.0	7.805368112163497e+17
19094.0	7.803894869874003e+17
19095.0	7.802420839055357e+17
19096.0	7.800942530046634e+17
19097.0	7.799470306973012e+17
19098.0	7.797997607146834e+17
19099.0	7.796521958724947e+17
19100.0	7.795045408527699e+17
19101.0	7.793562078937087e+17
19102.0	7.792056238516906e+17
19103.0	7.790613266519379e+17
19104.0	7.789135930589183e+17
19105.0	7.787656757553834e+17
19106.0	7.786174770140502e+17
19107.0	7.784691176308735e+17
19108.0	7.783206714256041e+17
19109.0	7.781679628287999e+17
19110.0	7.78023366435362e+17
19111.0	7.778775100730026e+17
19112.0	7.77729890984482e+17
19113.0	7.775819065720832e+17
19114.0	7.774336793094825e+17
19115.0	7.772839309126314e+17
19116.0	7.771357170718036e+17
19117.0	7.769873581080575e+17
19118.0	7.768326352666624e+17
19119.0	7.765570351005692e+17
19120.0	7.765397696675837e+17
19121.0	7.763941003711827e+17
19122.0	7.762467933388799e+17
19123.0	7.760983211289257e+17
19124.0	7.759484667559935e+17
19125.0	7.757998678780586e+17
19126.0	7.756453541926227e+17
19127.0	7.754402804094291e+17
19128.0	7.7534607718045e+17
19129.0	7.752001124652372e+17
19130.0	7.750570103625044e+17
19131.0	7.749086203609087e+17
19132.0	7.747595684981417e+17
19133.0	7.746078926787923e+17
19134.0	7.744614844858367e+17
19135.0	7.743126905727658e+17
19136.0	7.741633452485289e+17
19137.0	7.740096214903466e+17
19138.0	7.738603889928873e+17
19139.0	7.737096669582676e+17
19140.0	7.735606514461353e+17
19141.0	7.734113633042432e+17
19142.0	7.73260597928482e+17
19143.0	7.731108040933373e+17
19144.0	7.729605685979817e+17
19145.0	7.72813442200371e+17
19146.0	7.72631934393822e+17
19147.0	7.725116831389011e+17
19148.0	7.723645515683156e+17
19149.0	7.722149791924221e+17
19150.0	7.720651526417064e+17
19151.0	7.719153898444115e+17
19152.0	7.717653642040659e+17
19153.0	7.716138835596628e+17
19154.0	7.714614615736319e+17
19155.0	7.713145973200212e+17
19156.0	7.711648599681705e+17
19157.0	7.710139585571498e+17
19158.0	7.708618921082879e+17
19159.0	7.707130192024915e+17
19160.0	7.705634975776765e+17
19161.0	7.704118537748479e+17
19162.0	7.702537373220863e+17
19163.0	7.701089907725651e+17
19164.0	7.699617188326058e+17
19165.0	7.698114676785152e+17
19166.0	7.696569535736489e+17
19167.0	7.695094049494358e+17
19168.0	7.693593607143421e+17
19169.0	7.692087323525119e+17
19170.0	7.69058106926694e+17
19171.0	7.689069958004735e+17
19172.0	7.687561034771114e+17
19173.0	7.686048754696192e+17
19174.0	7.684518455891283e+17
19175.0	7.683022031683583e+17
19176.0	7.68151130489924e+17
19177.0	7.679917044356436e+17
19178.0	7.678478266662911e+17
19179.0	7.676961761525757e+17
19180.0	7.675445961031679e+17
19181.0	7.673891168889513e+17
19182.0	7.6723997652637e+17
19183.0	7.67089300629094e+17
19184.0	7.669371441425064e+17
19185.0	7.667850409235796e+17
19186.0	7.666329196691453e+17
19187.0	7.664763218340522e+17
19188.0	7.663280408843604e+17
19189.0	7.661756637773824e+17
19190.0	7.660229045693098e+17
19191.0	7.65868279734818e+17
19192.0	7.65716990210867e+17
19193.0	7.65563632755234e+17
19194.0	7.654092291003732e+17
19195.0	7.652555925837139e+17
19196.0	7.650999858626557e+17
19197.0	7.649423351174484e+17
19198.0	7.647764320791209e+17
19199.0	7.645702908455594e+17
19200.0	7.644215304869204e+17
19201.0	7.643135748341757e+17
19202.0	7.641711066305875e+17
19203.0	7.640212568713897e+17
19204.0	7.638682580287487e+17
19205.0	7.637155487328938e+17
19206.0	7.635614509826045e+17
19207.0	7.634010919753044e+17
19208.0	7.632460844804778e+17
19209.0	7.63097360053043e+17
19210.0	7.629330403644756e+17
19211.0	7.627778613226153e+17
19212.0	7.626223642127017e+17
19213.0	7.624624232377e+17
19214.0	7.623072566389416e+17
19215.0	7.62154774115123e+17
19216.0	7.619987130111315e+17
19217.0	7.618396415153494e+17
19218.0	7.616600700791466e+17
19219.0	7.615166359273471e+17
19220.0	7.613710661757612e+17
19221.0	7.612075174002688e+17
19222.0	7.610572461135187e+17
19223.0	7.609030496572758e+17
19224.0	7.607429041400489e+17
19225.0	7.605846502539263e+17
19226.0	7.604297171380904e+17
19227.0	7.602721579685204e+17
19228.0	7.601160303149055e+17
19229.0	7.599578081656832e+17
19230.0	7.597993887443625e+17
19231.0	7.596400474150227e+17
19232.0	7.5948166769978e+17
19233.0	7.593195579899903e+17
19234.0	7.591635434427731e+17
19235.0	7.59003671953408e+17
19236.0	7.588454107971583e+17
19237.0	7.586852571709439e+17
19238.0	7.585214617703764e+17
19239.0	7.583658077934932e+17
19240.0	7.58205191954978e+17
19241.0	7.580435143983103e+17
19242.0	7.578831535734783e+17
19243.0	7.577127276773377e+17
19244.0	7.575457518758568e+17
19245.0	7.573841668734973e+17
19246.0	7.572219741164883e+17
19247.0	7.570601630411432e+17
19248.0	7.568979858030591e+17
19249.0	7.567353077650772e+17
19250.0	7.565713859761494e+17
19251.0	7.564039244742655e+17
19252.0	7.562287748131497e+17
19253.0	7.560809086801236e+17
19254.0	7.559179426332672e+17
19255.0	7.557425295698602e+17
19256.0	7.555877478683987e+17
19257.0	7.554239419820714e+17
19258.0	7.552584441135103e+17
19259.0	7.550880024188244e+17
19260.0	7.549233892687872e+17
19261.0	7.5475870313786e+17
19262.0	7.545884799664125e+17
19263.0	7.544181014659071e+17
19264.0	7.542358472130557e+17
19265.0	7.540787295638867e+17
19266.0	7.539031225838249e+17
19267.0	7.537272605900799e+17
19268.0	7.535579204594344e+17
19269.0	7.533847154174634e+17
19270.0	7.532120745093802e+17
19271.0	7.53031421362176e+17
19272.0	7.528687951937536e+17
19273.0	7.526763173249024e+17
19274.0	7.524991694973608e+17
19275.0	7.5235432885562e+17
19276.0	7.52174269062622e+17
19277.0	7.519987640041471e+17
19278.0	7.518248143334057e+17
19279.0	7.516480301520211e+17
19280.0	7.514709845256874e+17
19281.0	7.512953768465748e+17
19282.0	7.511193887440893e+17
19283.0	7.509410793739603e+17
19284.0	7.507409186586621e+17
19285.0	7.505503675132585e+17
19286.0	7.50372491694353e+17
19287.0	7.501936071453353e+17
19288.0	7.499703883836074e+17
19289.0	7.497601347747837e+17
19290.0	7.496503197870761e+17
19291.0	7.494559342089555e+17
19292.0	7.492875461853183e+17
19293.0	7.49103917039616e+17
19294.0	7.489196788809727e+17
19295.0	7.487346186387456e+17
19296.0	7.485487785355945e+17
19297.0	7.483621486450004e+17
19298.0	7.481592585562794e+17
19299.0	7.479489424523263e+17
19300.0	7.477600739218772e+17
19301.0	7.475708793541972e+17
19302.0	7.473803321234772e+17
19303.0	7.471871923934547e+17
19304.0	7.469983588155392e+17
19305.0	7.468060213160617e+17
19306.0	7.466133570803028e+17
19307.0	7.464171209752573e+17
19308.0	7.462065504168616e+17
19309.0	7.460105286407508e+17
19310.0	7.457956782145535e+17
19311.0	7.45570239128098e+17
19312.0	7.453736044243626e+17
19313.0	7.451733027804499e+17
19314.0	7.448870879494143e+17
19315.0	7.446893662218922e+17
19316.0	7.445629016648361e+17
19317.0	7.443575569296042e+17
19318.0	7.441501980895914e+17
19319.0	7.439427383066624e+17
19320.0	7.437327131475968e+17
19321.0	7.435148538675199e+17
19322.0	7.432791829162664e+17
19323.0	7.430664146823849e+17
19324.0	7.428513353869993e+17
19325.0	7.426336570212351e+17
19326.0	7.42415374815505e+17
19327.0	7.421946934678867e+17
19328.0	7.41950674313762e+17
19329.0	7.417215152990889e+17
19330.0	7.414947059335168e+17
19331.0	7.412653139951612e+17
19332.0	7.410361074450432e+17
19333.0	7.408012096438272e+17
19334.0	7.405652115368617e+17
19335.0	7.403273592679081e+17
19336.0	7.400874035554986e+17
19337.0	7.39845423252548e+17
19338.0	7.395912737357825e+17
19339.0	7.393468017366355e+17
19340.0	7.390907247973718e+17
19341.0	7.388398357927251e+17
19342.0	7.385794525615444e+17
19343.0	7.383024693936127e+17
19344.0	7.380360214784681e+17
19345.0	7.377153969968467e+17
19346.0	7.374743289550163e+17
19347.0	7.372537152755028e+17
19348.0	7.36993334141474e+17
19349.0	7.367256195465212e+17
19350.0	7.364564285565609e+17
19351.0	7.361845326599508e+17
19352.0	7.359084098835795e+17
19353.0	7.356355499961002e+17
19354.0	7.353571464970239e+17
19355.0	7.350552012084564e+17
19356.0	7.347330023249236e+17
19357.0	7.344361248740692e+17
19358.0	7.341349323232595e+17
19359.0	7.338286694181548e+17
19360.0	7.335194486898687e+17
19361.0	7.332071252951037e+17
19362.0	7.328908545010345e+17
19363.0	7.325649544238422e+17
19364.0	7.322087053415764e+17
19365.0	7.318779513361747e+17
19366.0	7.315200505369939e+17
19367.0	7.311380854778538e+17
19368.0	7.307928846117545e+17
19369.0	7.304403546188458e+17
19370.0	7.300842310860799e+17
19371.0	7.297215887660372e+17
19372.0	7.293565678561961e+17
19373.0	7.289814985124521e+17
19374.0	7.286018701000704e+17
19375.0	7.282142376973651e+17
19376.0	7.278177688748032e+17
19377.0	7.273959057784832e+17
19378.0	7.269322070163456e+17
19379.0	7.26464685285922e+17
19380.0	7.260246261803688e+17
19381.0	7.255878617006079e+17
19382.0	7.251355731230719e+17
19383.0	7.246791587485012e+17
19384.0	7.242170048883369e+17
19385.0	7.237336625228458e+17
19386.0	7.232490613069139e+17
19387.0	7.227566557495293e+17
19388.0	7.222549016477696e+17
19389.0	7.217435365780138e+17
19390.0	7.211891559847251e+17
19391.0	7.204977382522879e+17
19392.0	7.199907089743872e+17
19393.0	7.194506269032447e+17
19394.0	7.188907010206378e+17
19395.0	7.183141111682387e+17
19396.0	7.177113710886911e+17
19397.0	7.170925149552639e+17
19398.0	7.164560333777577e+17
19399.0	7.15786787575125e+17
19400.0	7.151317004845055e+17
19401.0	7.144456146911232e+17
19402.0	7.137156963237887e+17
19403.0	7.129193709393236e+17
19404.0	7.121375845504339e+17
19405.0	7.11363404112418e+17
19406.0	7.105630733074432e+17
19407.0	7.097335792271359e+17
19408.0	7.088584758657023e+17
19409.0	7.079971510725289e+17
19410.0	7.07096279585041e+17
19411.0	7.061667572263593e+17
19412.0	7.052123669790719e+17
19413.0	7.042063501623296e+17
19414.0	7.031585977139199e+17
19415.0	7.02101531463953e+17
19416.0	7.009964108633427e+17
19417.0	6.998435936862207e+17
19418.0	6.986421991986516e+17
19419.0	6.973919267389439e+17
19420.0	6.960921310833321e+17
19421.0	6.947445769852244e+17
19422.0	6.933432109454676e+17
19423.0	6.918771041457491e+17
19424.0	6.903408201389398e+17
19425.0	6.887499290203476e+17
19426.0	6.870890135770451e+17
19427.0	6.853389335221588e+17
19428.0	6.835107424545449e+17
19429.0	6.815714346270717e+17
19430.0	6.79516892631313e+17
19431.0	6.773666453564074e+17
19432.0	6.751383234194089e+17
19433.0	6.72756209147358e+17
19434.0	6.702027717476351e+17
19435.0	6.67524128711202e+17
19436.0	6.646779985876308e+17
19437.0	6.616151315797332e+17
19438.0	6.582310236673363e+17
19439.0	6.548043755858605e+17
19440.0	6.510178891464703e+17
19441.0	6.468950967014739e+17
19442.0	6.423880168112129e+17
19443.0	6.374424362789546e+17
19444.0	6.31962150982997e+17
19445.0	6.258370384232449e+17
19446.0	6.189173262953129e+17
19447.0	6.10999417211016e+17
19448.0	6.017959071143256e+17
19449.0	5.908420546789375e+17
19450.0	5.770073017592481e+17
19451.0	5.687692512373418e+17
19452.0	5.844209140148905e+17
19453.0	5.963129364851374e+17
19454.0	6.060701923672059e+17
19455.0	6.143424275851946e+17
19456.0	6.214850285229399e+17
19457.0	6.27739476640836e+17
19458.0	6.331678633667244e+17
19459.0	6.382280833149612e+17
19460.0	6.427074346614781e+17
19461.0	6.467632111463082e+17
19462.0	6.504756507137366e+17
19463.0	6.538680594333695e+17
19464.0	6.570090181601962e+17
19465.0	6.599349667976534e+17
19466.0	6.626230326176425e+17
19467.0	6.651152557583017e+17
19468.0	6.674749485394602e+17
19469.0	6.696825136349181e+17
19470.0	6.717271367308627e+17
19471.0	6.736577299131049e+17
19472.0	6.754897263329277e+17
19473.0	6.77226494435874e+17
19474.0	6.788349680069289e+17
19475.0	6.803389488125268e+17
19476.0	6.817993128411136e+17
19477.0	6.831577269709482e+17
19478.0	6.844554897173161e+17
19479.0	6.85691915870754e+17
19480.0	6.868554223714304e+17
19481.0	6.879573220960937e+17
19482.0	6.89014085657122e+17
19483.0	6.900189423992831e+17
19484.0	6.909750823004841e+17
19485.0	6.918833431030441e+17
19486.0	6.927411883715242e+17
19487.0	6.935518986807977e+17
19488.0	6.943188623294463e+17
19489.0	6.9508324144797e+17
19490.0	6.957537456117075e+17
19491.0	6.964579922520746e+17
19492.0	6.971064051564543e+17
19493.0	6.977258638715561e+17
19494.0	6.983198163249833e+17
19495.0	6.988880925076138e+17
19496.0	6.994175683024211e+17
19497.0	6.999380535366995e+17
19498.0	7.003980969629012e+17
19499.0	7.008478233100287e+17
19500.0	7.014390559670271e+17
19501.0	7.018874750894079e+17
19502.0	7.022909841211391e+17
19503.0	7.026764387013972e+17
19504.0	7.030446064577194e+17
19505.0	7.033971154791081e+17
19506.0	7.037337466830847e+17
19507.0	7.040500281726292e+17
19508.0	7.043420084939433e+17
19509.0	7.046231015205545e+17
19510.0	7.048871602203305e+17
19511.0	7.050902986118483e+17
19512.0	7.055126282545833e+17
19513.0	7.057347843194879e+17
19514.0	7.05979504202001e+17
19515.0	7.062282577466708e+17
19516.0	7.064537274515455e+17
19517.0	7.066624676156756e+17
19518.0	7.068641911286441e+17
19519.0	7.070497044955135e+17
19520.0	7.072256786169855e+17
19521.0	7.073938850272595e+17
19522.0	7.075474910653097e+17
19523.0	7.077364746594985e+17
19524.0	7.079164892938239e+17
19525.0	7.080925466023251e+17
19526.0	7.082179607658493e+17
19527.0	7.083340247072768e+17
19528.0	7.084418065760253e+17
19529.0	7.085438411298131e+17
19530.0	7.086394272208211e+17
19531.0	7.087286446806355e+17
19532.0	7.088119578187092e+17
19533.0	7.088895377626451e+17
19534.0	7.089614889506131e+17
19535.0	7.090398806321833e+17
19536.0	7.091484441793875e+17
19537.0	7.092073878519807e+17
19538.0	7.092555215448745e+17
19539.0	7.093235488216403e+17
19540.0	7.093817660407808e+17
19541.0	7.094232493850623e+17
19542.0	7.094582490344105e+17
19543.0	7.094891684648276e+17
19544.0	7.095148844417023e+17
19545.0	7.095168644328105e+17
19546.0	7.095371957622099e+17
19547.0	7.09614814433553e+17
19548.0	7.096210119371434e+17
19549.0	7.096183376489129e+17
19550.0	7.096236900002474e+17
19551.0	7.096214338841257e+17
19552.0	7.096166691547817e+17
19553.0	7.096087503088297e+17
19554.0	7.095992289591293e+17
19555.0	7.095881838187859e+17
19556.0	7.09575186789171e+17
19557.0	7.095590227804159e+17
19558.0	7.095408115318781e+17
19559.0	7.095410994009428e+17
19560.0	7.095330817092265e+17
19561.0	7.095083316805632e+17
19562.0	7.094828413572436e+17
19563.0	7.094540503962964e+17
19564.0	7.094362539644244e+17
19565.0	7.094033745357481e+17
19566.0	7.09367933365999e+17
19567.0	7.093315807739901e+17
19568.0	7.092914752585725e+17
19569.0	7.09252244255539e+17
19570.0	7.092100990500863e+17
19571.0	7.091642603405311e+17
19572.0	7.091142829714089e+17
19573.0	7.090655781541204e+17
19574.0	7.090167640053076e+17
19575.0	7.089848422760447e+17
19576.0	7.089293275867817e+17
19577.0	7.088718674395135e+17
19578.0	7.088121682329599e+17
19579.0	7.087517845159935e+17
19580.0	7.087053305020416e+17
19581.0	7.086521770661204e+17
19582.0	7.085882811787945e+17
19583.0	7.085224928215039e+17
19584.0	7.084552322635091e+17
19585.0	7.083808191589033e+17
19586.0	7.083096493697705e+17
19587.0	7.082441781018623e+17
19588.0	7.081578972140884e+17
19589.0	7.080976271627604e+17
19590.0	7.080213425597097e+17
19591.0	7.079656930934783e+17
19592.0	7.079110910847658e+17
19593.0	7.078312933326847e+17
19594.0	7.077402791728467e+17
19595.0	7.076800997184851e+17
19596.0	7.076012437274623e+17
19597.0	7.075223638289065e+17
19598.0	7.074272069550079e+17
19599.0	7.073562770800639e+17
19600.0	7.072718721646591e+17
19601.0	7.071833478834858e+17
19602.0	7.070956723896319e+17
19603.0	7.070119844205908e+17
19604.0	7.069559850095956e+17
19605.0	7.068589604121258e+17
19606.0	7.067841136164863e+17
19607.0	7.066954528806228e+17
19608.0	7.066053088990547e+17
19609.0	7.065129247397203e+17
19610.0	7.064237994147839e+17
19611.0	7.063319164747773e+17
19612.0	7.062396208152573e+17
19613.0	7.061464317689855e+17
19614.0	7.060502379233279e+17
19615.0	7.059578416005119e+17
19616.0	7.058617280058708e+17
19617.0	7.057656246173696e+17
19618.0	7.056709594557097e+17
19619.0	7.055676558453417e+17
19620.0	7.054784548831232e+17
19621.0	7.054031290979668e+17
19622.0	7.053067158902102e+17
19623.0	7.052083566652074e+17
19624.0	7.051091799703551e+17
19625.0	7.050091096091305e+17
19626.0	7.049080321955156e+17
19627.0	7.048058546159616e+17
19628.0	7.047037733655892e+17
19629.0	7.045991972033876e+17
19630.0	7.044748830659923e+17
19631.0	7.043299565808297e+17
19632.0	7.042896639994538e+17
19633.0	7.041918566050474e+17
19634.0	7.041321905334953e+17
19635.0	7.04042938400768e+17
19636.0	7.039404352034132e+17
19637.0	7.038131317855574e+17
19638.0	7.037287974043645e+17
19639.0	7.036218634840746e+17
19640.0	7.035086067204093e+17
19641.0	7.033823337032361e+17
19642.0	7.033027720205652e+17
19643.0	7.031957589677396e+17
19644.0	7.030837472133119e+17
19645.0	7.029703286893225e+17
19646.0	7.028701633970175e+17
19647.0	7.027614683583828e+17
19648.0	7.026519625607849e+17
19649.0	7.025420439737684e+17
19650.0	7.024319515328511e+17
19651.0	7.023215067703978e+17
19652.0	7.022107677775188e+17
19653.0	7.020997173575679e+17
19654.0	7.019884882602666e+17
19655.0	7.018767833890816e+17
19656.0	7.017689231567529e+17
19657.0	7.016661789267284e+17
19658.0	7.015539457130495e+17
19659.0	7.014414339276799e+17
19660.0	7.013287661142015e+17
19661.0	7.012158063771647e+17
19662.0	7.011024567096659e+17
19663.0	7.009877715757736e+17
19664.0	7.008752802725887e+17
19665.0	7.007618214133759e+17
