# Flux units: erg / (cm m2 s)
# Wavelength units: Angstrom
wave	flux
19000.0	6.058373285238099e+17
19001.0	6.056706398923433e+17
19002.0	6.056135439504724e+17
19003.0	6.054984944713727e+17
19004.0	6.053852912549887e+17
19005.0	6.052717082443775e+17
19006.0	6.051589393481727e+17
19007.0	6.05021427134191e+17
19008.0	6.049001009490601e+17
19009.0	6.047298503049213e+17
19010.0	6.044746624182952e+17
19011.0	6.045646956702378e+17
19012.0	6.043880766745257e+17
19013.0	6.043667227039059e+17
19014.0	6.042229718821546e+17
19015.0	6.041219209625599e+17
19016.0	6.040001317961727e+17
19017.0	6.039017639728467e+17
19018.0	6.037945436514986e+17
19019.0	6.03682497503778e+17
19020.0	6.035620612800512e+17
19021.0	6.034603327007402e+17
19022.0	6.033492336268628e+17
19023.0	6.032186055240362e+17
19024.0	6.031158590570495e+17
19025.0	6.030038538037929e+17
19026.0	6.028818876377769e+17
19027.0	6.027283821931177e+17
19028.0	6.026751031377919e+17
19029.0	6.025534292448595e+17
19030.0	6.024548389137065e+17
19031.0	6.023462064401065e+17
19032.0	6.022306314147156e+17
19033.0	6.020671301746687e+17
19034.0	6.019988090869076e+17
19035.0	6.018266234705235e+17
19036.0	5.970708424643932e+17
19037.0	6.016491766590121e+17
19038.0	6.015436332204032e+17
19039.0	6.014425548281171e+17
19040.0	6.013327825524052e+17
19041.0	6.012120432203092e+17
19042.0	6.010578171942227e+17
19043.0	6.009940520992767e+17
19044.0	6.008762502479871e+17
19045.0	6.007686235684863e+17
19046.0	6.006220817170431e+17
19047.0	6.005194461194921e+17
19048.0	6.003247512114515e+17
19049.0	6.002771236312403e+17
19050.0	6.001801323085823e+17
19051.0	5.9947068976442e+17
19052.0	5.997681045056169e+17
19053.0	5.998646518611967e+17
19054.0	5.997478886593876e+17
19055.0	5.995031279523158e+17
19056.0	5.995204851706537e+17
19057.0	5.994166095970301e+17
19058.0	5.992957775009108e+17
19059.0	5.991933432998569e+17
19060.0	5.990737124524031e+17
19061.0	5.989740341886976e+17
19062.0	5.988585638810964e+17
19063.0	5.987475619752618e+17
19064.0	5.98560304407074e+17
19065.0	5.984256727012692e+17
19066.0	5.98383493521954e+17
19067.0	5.982893090275327e+17
19068.0	5.981865046092458e+17
19069.0	5.980754550281556e+17
19070.0	5.979489024606207e+17
19071.0	5.978488100793001e+17
19072.0	5.977387511928148e+17
19073.0	5.976251323209043e+17
19074.0	5.975179757529769e+17
19075.0	5.974062343913471e+17
19076.0	5.972838515212287e+17
19077.0	5.971707646268756e+17
19078.0	5.970467798821544e+17
19079.0	5.969544056493396e+17
19080.0	5.968340176601087e+17
19081.0	5.967129954921129e+17
19082.0	5.965979256706388e+17
19083.0	5.964484993963347e+17
19084.0	5.962693977920854e+17
19085.0	5.962784086949888e+17
19086.0	5.959771905589247e+17
19087.0	5.959099252473856e+17
19088.0	5.958896001395369e+17
19089.0	5.95680809713664e+17
19090.0	5.957104057013587e+17
19091.0	5.955970928039252e+17
19092.0	5.954450917862057e+17
19093.0	5.953913473728511e+17
19094.0	5.952806337555114e+17
19095.0	5.951702060498944e+17
19096.0	5.950496390337876e+17
19097.0	5.949442776279721e+17
19098.0	5.948325508765012e+17
19099.0	5.947197107470335e+17
19100.0	5.946020231905279e+17
19101.0	5.944911274704895e+17
19102.0	5.943341789216767e+17
19103.0	5.942746853059241e+17
19104.0	5.941670626809172e+17
19105.0	5.940518024380415e+17
19106.0	5.939181603782655e+17
19107.0	5.938208153359699e+17
19108.0	5.937201580518057e+17
19109.0	5.932471904370684e+17
19110.0	5.9346244351645e+17
19111.0	5.933854083426986e+17
19112.0	5.932749820351828e+17
19113.0	5.931633499351721e+17
19114.0	5.930490141868032e+17
19115.0	5.929076973196628e+17
19116.0	5.928174642091348e+17
19117.0	5.927011494483284e+17
19118.0	5.924961954125142e+17
19119.0	5.898989915690307e+17
19120.0	5.923399330518356e+17
19121.0	5.922431203366227e+17
19122.0	5.921638540727636e+17
19123.0	5.920507399853395e+17
19124.0	5.919215117314729e+17
19125.0	5.91822264013073e+17
19126.0	5.917129063443114e+17
19127.0	5.906007641292801e+17
19128.0	5.913078001216168e+17
19129.0	5.913448681919827e+17
19130.0	5.912578057655636e+17
19131.0	5.911555252158463e+17
19132.0	5.910480856722089e+17
19133.0	5.907993941333334e+17
19134.0	5.907537948486314e+17
19135.0	5.907155217547263e+17
19136.0	5.906088912923305e+17
19137.0	5.904103748840106e+17
19138.0	5.903665884474025e+17
19139.0	5.902749616395606e+17
19140.0	5.901662514315263e+17
19141.0	5.900542891698858e+17
19142.0	5.899303022581076e+17
19143.0	5.898025645899776e+17
19144.0	5.89696923144465e+17
19145.0	5.896068528428371e+17
19146.0	5.891877433070934e+17
19147.0	5.893031541953876e+17
19148.0	5.892755211419648e+17
19149.0	5.891630388565332e+17
19150.0	5.890523561372329e+17
19151.0	5.889438092973395e+17
19152.0	5.888273517903871e+17
19153.0	5.887156965517994e+17
19154.0	5.885429132470954e+17
19155.0	5.885031003542868e+17
19156.0	5.883931228372992e+17
19157.0	5.882708255309823e+17
19158.0	5.87906994615091e+17
19159.0	5.88052010369024e+17
19160.0	5.879396078452736e+17
19161.0	5.878244550464852e+17
19162.0	5.871641075296941e+17
19163.0	5.875649545764863e+17
19164.0	5.875095449545386e+17
19165.0	5.873823464641876e+17
19166.0	5.87209999716625e+17
19167.0	5.871228573188095e+17
19168.0	5.87039816950306e+17
19169.0	5.869303830850218e+17
19170.0	5.868465823591082e+17
19171.0	5.86699518316817e+17
19172.0	5.866200994501971e+17
19173.0	5.865143291696467e+17
19174.0	5.863720548128084e+17
19175.0	5.862943321227263e+17
19176.0	5.861831641923583e+17
19177.0	5.859887879815168e+17
19178.0	5.859451339451052e+17
19179.0	5.858069666507434e+17
19180.0	5.857242363112105e+17
19181.0	5.855760140118697e+17
19182.0	5.854964364607487e+17
19183.0	5.854099011884372e+17
19184.0	5.852797941579775e+17
19185.0	5.85184057631266e+17
19186.0	5.850814523026089e+17
19187.0	5.849317369708543e+17
19188.0	5.848562552973993e+17
19189.0	5.847447435040084e+17
19190.0	5.846320618493268e+17
19191.0	5.845110618412372e+17
19192.0	5.844191147283798e+17
19193.0	5.843016084357119e+17
19194.0	5.841890880520191e+17
19195.0	5.840876142067711e+17
19196.0	5.83971393118754e+17
19197.0	5.838645922977108e+17
19198.0	5.83754634633762e+17
19199.0	5.803564720280906e+17
19200.0	5.810424089935884e+17
19201.0	5.834260928441001e+17
19202.0	5.833202614665215e+17
19203.0	5.832020888387583e+17
19204.0	5.830862528577535e+17
19205.0	5.829821933638996e+17
19206.0	5.828648989534889e+17
19207.0	5.82694076625715e+17
19208.0	5.82553367023889e+17
19209.0	5.82541884138018e+17
19210.0	5.824343045046271e+17
19211.0	5.823309465780223e+17
19212.0	5.822199560667135e+17
19213.0	5.820444554821632e+17
19214.0	5.818953674085718e+17
19215.0	5.81876511285794e+17
19216.0	5.817784170009939e+17
19217.0	5.816671067439103e+17
19218.0	5.810874324003494e+17
19219.0	5.813657589339476e+17
19220.0	5.813266176191146e+17
19221.0	5.810591843221504e+17
19222.0	5.810992371291476e+17
19223.0	5.80997503656482e+17
19224.0	5.808688311478953e+17
19225.0	5.807037806018559e+17
19226.0	5.80668316782865e+17
19227.0	5.805584080524628e+17
19228.0	5.804595857063935e+17
19229.0	5.80349825454353e+17
19230.0	5.802290130714621e+17
19231.0	5.801204797232468e+17
19232.0	5.80009691587106e+17
19233.0	5.798717033895252e+17
19234.0	5.797860760442195e+17
19235.0	5.796720639563092e+17
19236.0	5.795804021260287e+17
19237.0	5.794601242372777e+17
19238.0	5.793086665916416e+17
19239.0	5.792492270824106e+17
19240.0	5.790981195912532e+17
19241.0	5.790016129204223e+17
19242.0	5.789023094177791e+17
19243.0	5.787226873004031e+17
19244.0	5.787012797125971e+17
19245.0	5.785888881639423e+17
19246.0	5.78470995366161e+17
19247.0	5.78364483043328e+17
19248.0	5.782605128881492e+17
19249.0	5.781468597627561e+17
19250.0	5.780294133787305e+17
19251.0	5.778385095622655e+17
19252.0	5.776804169471316e+17
19253.0	5.776961023858006e+17
19254.0	5.775927759863808e+17
19255.0	5.774014094682793e+17
19256.0	5.773375471353855e+17
19257.0	5.7726633260701e+17
19258.0	5.771572625975978e+17
19259.0	5.770130896890537e+17
19260.0	5.768367435328169e+17
19261.0	5.768167920675497e+17
19262.0	5.766840000533844e+17
19263.0	5.765502216088233e+17
19264.0	5.7619618285486035e+17
19265.0	5.76261955203891e+17
19266.0	5.761674042671103e+17
19267.0	5.7616351446958074e+17
19268.0	5.7604890602154656e+17
19269.0	5.759382061055999e+17
19270.0	5.758217117586772e+17
19271.0	5.755292565722455e+17
19272.0	5.755870417081684e+17
19273.0	5.7420185142121754e+17
19274.0	5.7451109703570694e+17
19275.0	5.7527560771556685e+17
19276.0	5.751536291763541e+17
19277.0	5.7504407926865914e+17
19278.0	5.7493345436084896e+17
19279.0	5.748068948727124e+17
19280.0	5.746666460850857e+17
19281.0	5.7459573249802234e+17
19282.0	5.744956064224596e+17
19283.0	5.743248543492777e+17
19284.0	5.7420221010411514e+17
19285.0	5.7405269379208506e+17
19286.0	5.740288186952362e+17
19287.0	5.739360601942698e+17
19288.0	5.7216653786262e+17
19289.0	5.7094333725846035e+17
19290.0	5.7360236430404256e+17
19291.0	5.733494643403435e+17
19292.0	5.7337168163853645e+17
19293.0	5.7326103107556685e+17
19294.0	5.731475684414804e+17
19295.0	5.7304037720064e+17
19296.0	5.7292323749014176e+17
19297.0	5.727973543335253e+17
19298.0	5.7268620695524685e+17
19299.0	5.7258768233485645e+17
19300.0	5.7247309583701325e+17
19301.0	5.72358930866722e+17
19302.0	5.722325641068543e+17
19303.0	5.720934489696938e+17
19304.0	5.7199666624375456e+17
19305.0	5.718950532874239e+17
19306.0	5.717860459828564e+17
19307.0	5.716479339134974e+17
19308.0	5.715411458850815e+17
19309.0	5.713136386572287e+17
19310.0	5.711580417228798e+17
19311.0	5.7118040379446605e+17
19312.0	5.7109706835667616e+17
19313.0	5.7098030403638624e+17
19314.0	5.666786149487991e+17
19315.0	5.6669051943212397e+17
19316.0	5.7062681382748154e+17
19317.0	5.705227750255273e+17
19318.0	5.704047538820436e+17
19319.0	5.702940970276181e+17
19320.0	5.701778012110847e+17
19321.0	5.7006176586082963e+17
19322.0	5.6984484212026016e+17
19323.0	5.69734780227857e+17
19324.0	5.6966624173533856e+17
19325.0	5.6943600569330336e+17
19326.0	5.6943263298355194e+17
19327.0	5.693094759847253e+17
19328.0	5.6919645417198925e+17
19329.0	5.6908061861041485e+17
19330.0	5.6894038562133325e+17
19331.0	5.6881584527114234e+17
19332.0	5.6871577980327245e+17
19333.0	5.685903524276905e+17
19334.0	5.684766282787499e+17
19335.0	5.683544282103807e+17
19336.0	5.682329692755284e+17
19337.0	5.6811093404330656e+17
19338.0	5.6787259921967763e+17
19339.0	5.678650794617513e+17
19340.0	5.676943164833792e+17
19341.0	5.6758206481476256e+17
19342.0	5.6727918370706746e+17
19343.0	5.673657124083028e+17
19344.0	5.672361618920788e+17
19345.0	5.6612324883387654e+17
19346.0	5.663664071770105e+17
19347.0	5.6682242211403085e+17
19348.0	5.6673450376997536e+17
19349.0	5.6658590754843296e+17
19350.0	5.664580625061204e+17
19351.0	5.663244899319807e+17
19352.0	5.661723736408063e+17
19353.0	5.660825900897621e+17
19354.0	5.659508540615338e+17
19355.0	5.657640819840341e+17
19356.0	5.656832415279786e+17
19357.0	5.6554689197506554e+17
19358.0	5.6539029791484576e+17
19359.0	5.652042118157653e+17
19360.0	5.6510690654945274e+17
19361.0	5.6497642986100045e+17
19362.0	5.648575783851349e+17
19363.0	5.647143590516052e+17
19364.0	5.645698926815915e+17
19365.0	5.6442489720012794e+17
19366.0	5.642807466612052e+17
19367.0	5.6413452784107514e+17
19368.0	5.6398693021341005e+17
19369.0	5.6377538329094816e+17
19370.0	5.635385377248597e+17
19371.0	5.6350401342996474e+17
19372.0	5.633749084187307e+17
19373.0	5.6320584455290874e+17
19374.0	5.6305669020931405e+17
19375.0	5.6289879158074016e+17
19376.0	5.6273774065309005e+17
19377.0	5.625665942454271e+17
19378.0	5.6240158704052896e+17
19379.0	5.622338835273043e+17
19380.0	5.62060796764706e+17
19381.0	5.6188438832305485e+17
19382.0	5.616716927205375e+17
19383.0	5.61466172174063e+17
19384.0	5.6134166125390496e+17
19385.0	5.6116091897774074e+17
19386.0	5.6097377696262816e+17
19387.0	5.6077992678741325e+17
19388.0	5.605821910089728e+17
19389.0	5.6038563704558925e+17
19390.0	5.6018035578415776e+17
19391.0	5.560465500056204e+17
19392.0	5.5937055004644634e+17
19393.0	5.5954458940538874e+17
19394.0	5.593172631617535e+17
19395.0	5.590873920940713e+17
19396.0	5.5885743839860045e+17
19397.0	5.586313489154047e+17
19398.0	5.5836378370757965e+17
19399.0	5.5770096050285216e+17
19400.0	5.577340216147966e+17
19401.0	5.575506838334122e+17
19402.0	5.5729233847473485e+17
19403.0	5.570108265769641e+17
19404.0	5.5673996408695456e+17
19405.0	5.5644577455581856e+17
19406.0	5.561533544617301e+17
19407.0	5.558564303142911e+17
19408.0	5.551233434299053e+17
19409.0	5.5515613799383034e+17
19410.0	5.5478133561753594e+17
19411.0	5.544400906092543e+17
19412.0	5.5408650183420576e+17
19413.0	5.537269063963989e+17
19414.0	5.5332970336092154e+17
19415.0	5.5279415211677005e+17
19416.0	5.522944558104575e+17
19417.0	5.519187703933609e+17
19418.0	5.513829701473622e+17
19419.0	5.508784238974292e+17
19420.0	5.502850884261207e+17
19421.0	5.496534983857492e+17
19422.0	5.488606709110097e+17
19423.0	5.481184923833682e+17
19424.0	5.471798033732951e+17
19425.0	5.460464744704681e+17
19426.0	5.4467637836513344e+17
19427.0	5.430371114724016e+17
19428.0	5.4103603364058426e+17
19429.0	5.398141767516158e+17
19430.0	5.3855936395782835e+17
19431.0	5.368637565872813e+17
19432.0	5.3630534352022176e+17
19433.0	5.349807368787285e+17
19434.0	5.3357518771978234e+17
19435.0	5.318465559374503e+17
19436.0	5.30054120682291e+17
19437.0	5.285223729550677e+17
19438.0	5.204511055063747e+17
19439.0	5.230648924394833e+17
19440.0	5.204849448015196e+17
19441.0	5.151582923871558e+17
19442.0	5.096839469247147e+17
19443.0	5.0550037607874554e+17
19444.0	5.0077989426517306e+17
19445.0	4.953488566692522e+17
19446.0	4.88204991498376e+17
19447.0	4.762323031949309e+17
19448.0	4.6403448925934976e+17
19449.0	4.4270247665991635e+17
19450.0	3.963189249878662e+17
19451.0	3.835673231141544e+17
19452.0	4.2128998431457376e+17
19453.0	4.556720956593501e+17
19454.0	4.699838796354896e+17
19455.0	4.821317810738523e+17
19456.0	4.913943706686804e+17
19457.0	4.972324849014097e+17
19458.0	4.942082655387682e+17
19459.0	5.049166852696772e+17
19460.0	5.105170536988656e+17
19461.0	5.164371430866946e+17
19462.0	5.2038778465812525e+17
19463.0	5.230496193008975e+17
19464.0	5.251053182255105e+17
19465.0	5.268455132146345e+17
19466.0	5.2829561392114323e+17
19467.0	5.297643590778879e+17
19468.0	5.310679025538389e+17
19469.0	5.319835680505855e+17
19470.0	5.332866674196479e+17
19471.0	5.3432886765813754e+17
19472.0	5.352528952688639e+17
19473.0	5.360816805117951e+17
19474.0	5.375840982401024e+17
19475.0	5.387996545155067e+17
19476.0	5.4047543051769146e+17
19477.0	5.415132738529965e+17
19478.0	5.4230489707315155e+17
19479.0	5.429841727848447e+17
19480.0	5.4354276956241926e+17
19481.0	5.4393400508197523e+17
19482.0	5.444759580923219e+17
19483.0	5.4474614117498874e+17
19484.0	5.4511500217985683e+17
19485.0	5.4537342499334816e+17
19486.0	5.4558091763165856e+17
19487.0	5.458525276165462e+17
19488.0	5.4612717651449165e+17
19489.0	5.461267744904531e+17
19490.0	5.4574203189329914e+17
19491.0	5.4655517937281696e+17
19492.0	5.4670790998971725e+17
19493.0	5.46932226400802e+17
19494.0	5.4703832153019725e+17
19495.0	5.471327890003285e+17
19496.0	5.4700745564706106e+17
19497.0	5.4728979920541e+17
19498.0	5.460943246284104e+17
19499.0	5.4150435242857926e+17
19500.0	5.4751293030618445e+17
19501.0	5.47567327912482e+17
19502.0	5.4761156348914323e+17
19503.0	5.4765478935702176e+17
19504.0	5.477182414170793e+17
19505.0	5.477899610794666e+17
19506.0	5.478204354243242e+17
19507.0	5.478294481447594e+17
19508.0	5.4785591671958176e+17
19509.0	5.4786365611922765e+17
19510.0	5.4774906214154234e+17
19511.0	5.3999449414478426e+17
19512.0	5.464440433890649e+17
19513.0	5.459137370521587e+17
19514.0	5.4631689131567654e+17
19515.0	5.47574061587934e+17
19516.0	5.4780924187552403e+17
19517.0	5.4777252011485856e+17
19518.0	5.4778016143769594e+17
19519.0	5.4774782055765325e+17
19520.0	5.4770542858731514e+17
19521.0	5.476911972439381e+17
19522.0	5.476359313468074e+17
19523.0	5.476191212055209e+17
19524.0	5.4757835410855245e+17
19525.0	5.4752536229314554e+17
19526.0	5.4749118766339405e+17
19527.0	5.474410471358462e+17
19528.0	5.473930865978025e+17
19529.0	5.4734049673652896e+17
19530.0	5.472951658173779e+17
19531.0	5.472435757383679e+17
19532.0	5.4718724889204045e+17
19533.0	5.471328075950762e+17
19534.0	5.470707710427136e+17
19535.0	5.470039452243283e+17
19536.0	5.469296641703935e+17
19537.0	5.46887881003281e+17
19538.0	5.467177151539883e+17
19539.0	5.464933237347671e+17
19540.0	5.466786384314367e+17
19541.0	5.4662497972169376e+17
19542.0	5.4655482432498336e+17
19543.0	5.464833242344106e+17
19544.0	5.4641597189106336e+17
19545.0	5.460223899380396e+17
19546.0	5.458132990601897e+17
19547.0	5.4620099955042976e+17
19548.0	5.4612024514751136e+17
19549.0	5.4600244077963936e+17
19550.0	5.4597605455298554e+17
19551.0	5.4590145836701e+17
19552.0	5.4582329198946976e+17
19553.0	5.45728828993263e+17
19554.0	5.4564634625747616e+17
19555.0	5.455798901669887e+17
19556.0	5.4550747215298554e+17
19557.0	5.4542594564860576e+17
19558.0	5.453441748260181e+17
19559.0	5.452591347531775e+17
19560.0	5.451680608944126e+17
19561.0	5.4508425995878394e+17
19562.0	5.450124677349374e+17
19563.0	5.4493402194684576e+17
19564.0	5.4484911776945485e+17
19565.0	5.4476474759686816e+17
19566.0	5.446636844438868e+17
19567.0	5.4459347039682554e+17
19568.0	5.4449346120253434e+17
19569.0	5.4441095372035405e+17
19570.0	5.4433663540701856e+17
19571.0	5.4424524935222605e+17
19572.0	5.441456337234602e+17
19573.0	5.4405908020592634e+17
19574.0	5.439438353421652e+17
19575.0	5.43896855781922e+17
19576.0	5.4381069072684365e+17
19577.0	5.436990336008191e+17
19578.0	5.436057183059968e+17
19579.0	5.435298158739455e+17
19580.0	5.4343845750155936e+17
19581.0	5.433587346877097e+17
19582.0	5.432772016122538e+17
19583.0	5.431870747574271e+17
19584.0	5.430834949521407e+17
19585.0	5.429472838811646e+17
19586.0	5.42835540562193e+17
19587.0	5.428006537396223e+17
19588.0	5.42463293845231e+17
19589.0	5.4262305817012896e+17
19590.0	5.424948547245396e+17
19591.0	5.424528507273215e+17
19592.0	5.4236526016812365e+17
19593.0	5.4226300205793274e+17
19594.0	5.420621543156392e+17
19595.0	5.4204587580238496e+17
19596.0	5.416418238879062e+17
19597.0	5.4184823278796794e+17
19598.0	5.416019584264873e+17
19599.0	5.4171290056349e+17
19600.0	5.416255487999999e+17
19601.0	5.4149533691194016e+17
19602.0	5.4138907946298003e+17
19603.0	5.4109091855510163e+17
19604.0	5.411992577769471e+17
19605.0	5.410011160597845e+17
19606.0	5.410594904255145e+17
19607.0	5.4096823558253216e+17
19608.0	5.408664319950847e+17
19609.0	5.407535969686868e+17
19610.0	5.4068720183541754e+17
19611.0	5.405890779807743e+17
19612.0	5.4050170182041594e+17
19613.0	5.4040155749963085e+17
19614.0	5.4029142066899616e+17
19615.0	5.4021390923202554e+17
19616.0	5.400904977088511e+17
19617.0	5.4002612639716685e+17
19618.0	5.39590188824439e+17
19619.0	5.394344306191016e+17
19620.0	5.3937849041769786e+17
19621.0	5.3964568778506234e+17
19622.0	5.395551315733163e+17
19623.0	5.394612223650474e+17
19624.0	5.393609579473578e+17
19625.0	5.392708263389867e+17
19626.0	5.3916998352677536e+17
19627.0	5.3907746158455456e+17
19628.0	5.3889611274212685e+17
19629.0	5.38837333975586e+17
19630.0	5.382053207299407e+17
19631.0	5.352527105097739e+17
19632.0	5.385981288338772e+17
19633.0	5.3848102694202016e+17
19634.0	5.3841138793403725e+17
19635.0	5.382957216825343e+17
19636.0	5.382119594044074e+17
19637.0	5.3792284742778874e+17
19638.0	5.380186491759274e+17
19639.0	5.379219504059732e+17
19640.0	5.377166618045099e+17
19641.0	5.373207608208045e+17
19642.0	5.376414728235689e+17
19643.0	5.3754113025201485e+17
19644.0	5.374111767330815e+17
19645.0	5.3720976234031763e+17
19646.0	5.372629635213994e+17
19647.0	5.371688019558399e+17
19648.0	5.370705717056854e+17
19649.0	5.369727015365289e+17
19650.0	5.3688067046768634e+17
19651.0	5.367821598283092e+17
19652.0	5.3668382276321274e+17
19653.0	5.3659042749699405e+17
19654.0	5.364908850588329e+17
19655.0	5.3639138309570554e+17
19656.0	5.363002446446591e+17
19657.0	5.3620433915740154e+17
19658.0	5.361106019155966e+17
19659.0	5.3601463952561485e+17
