# Flux units: erg / (cm m2 s)
# Wavelength units: Angstrom
wave	flux
19000.0	5.951081191658835e+17
19001.0	5.94988390031906e+17
19002.0	5.948924983858516e+17
19003.0	5.947840705942868e+17
19004.0	5.946761368218282e+17
19005.0	5.945653660221437e+17
19006.0	5.944579598931283e+17
19007.0	5.943512707104767e+17
19008.0	5.942409952580948e+17
19009.0	5.941186945264297e+17
19010.0	5.940082890506239e+17
19011.0	5.939065145436842e+17
19012.0	5.937677397742931e+17
19013.0	5.937043651690495e+17
19014.0	5.935954845324628e+17
19015.0	5.934892874115754e+17
19016.0	5.933844282037588e+17
19017.0	5.932779242695337e+17
19018.0	5.931692910968832e+17
19019.0	5.930626204390739e+17
19020.0	5.929544193496404e+17
19021.0	5.928482229278035e+17
19022.0	5.927398856633001e+17
19023.0	5.926256676350633e+17
19024.0	5.92512742920465e+17
19025.0	5.924054340293971e+17
19026.0	5.922868867803818e+17
19027.0	5.921676497780735e+17
19028.0	5.920814736779945e+17
19029.0	5.919770599751679e+17
19030.0	5.918712023831892e+17
19031.0	5.917601178495658e+17
19032.0	5.91642918789666e+17
19033.0	5.915068468297727e+17
19034.0	5.913428815598931e+17
19035.0	5.908555463568042e+17
19036.0	5.888245437038591e+17
19037.0	5.907257346752511e+17
19038.0	5.909223829405695e+17
19039.0	5.908730075938815e+17
19040.0	5.907850652024831e+17
19041.0	5.906862627094527e+17
19042.0	5.903698645483515e+17
19043.0	5.904817295021396e+17
19044.0	5.903740215929514e+17
19045.0	5.902633904635901e+17
19046.0	5.90157134832162e+17
19047.0	5.900456393266516e+17
19048.0	5.898968866575699e+17
19049.0	5.893759354361167e+17
19050.0	5.896488750153727e+17
19051.0	5.892923777002154e+17
19052.0	5.892864361190739e+17
19053.0	5.893568997971284e+17
19054.0	5.892883778721108e+17
19055.0	5.89112500359441e+17
19056.0	5.890714214858751e+17
19057.0	5.889886938027347e+17
19058.0	5.88662961427797e+17
19059.0	5.88696366682385e+17
19060.0	5.886715285733375e+17
19061.0	5.88565270635042e+17
19062.0	5.884599401971711e+17
19063.0	5.883528575888042e+17
19064.0	5.882409645331796e+17
19065.0	5.881277860631892e+17
19066.0	5.879509640631638e+17
19067.0	5.879264661820756e+17
19068.0	5.878219431477247e+17
19069.0	5.877155314182826e+17
19070.0	5.876070848222548e+17
19071.0	5.874987664321194e+17
19072.0	5.873150258577407e+17
19073.0	5.872896693327188e+17
19074.0	5.871832481660927e+17
19075.0	5.870766212688554e+17
19076.0	5.869694969271635e+17
19077.0	5.868619831443456e+17
19078.0	5.867536275647145e+17
19079.0	5.866499258449919e+17
19080.0	5.865421643885225e+17
19081.0	5.864315250103635e+17
19082.0	5.863279103923539e+17
19083.0	5.86212972831266e+17
19084.0	5.860932231451988e+17
19085.0	5.86000711688738e+17
19086.0	5.857369813330601e+17
19087.0	5.855843610263548e+17
19088.0	5.855465888022527e+17
19089.0	5.855480629602986e+17
19090.0	5.854619321587028e+17
19091.0	5.853463827884714e+17
19092.0	5.850805345888942e+17
19093.0	5.851566582704808e+17
19094.0	5.850534460260351e+17
19095.0	5.849490904143188e+17
19096.0	5.848437246044841e+17
19097.0	5.8473856892928e+17
19098.0	5.845413060586154e+17
19099.0	5.844163651523924e+17
19100.0	5.84412570915089e+17
19101.0	5.843098429030399e+17
19102.0	5.84202655506978e+17
19103.0	5.841011552376148e+17
19104.0	5.839946441730729e+17
19105.0	5.836851673825285e+17
19106.0	5.837722823076521e+17
19107.0	5.836121434314067e+17
19108.0	5.834633193193472e+17
19109.0	5.833986962096127e+17
19110.0	5.833159491627689e+17
19111.0	5.831769393026388e+17
19112.0	5.830708754208083e+17
19113.0	5.830396427457875e+17
19114.0	5.828930212025684e+17
19115.0	5.828154534920192e+17
19116.0	5.827212362121215e+17
19117.0	5.826119144046591e+17
19118.0	5.824659921917268e+17
19119.0	5.819188703308454e+17
19120.0	5.822579161956351e+17
19121.0	5.821741260253865e+17
19122.0	5.820884521233066e+17
19123.0	5.819874394417833e+17
19124.0	5.818561099814228e+17
19125.0	5.817736098392746e+17
19126.0	5.816539049623551e+17
19127.0	5.814944449342121e+17
19128.0	5.81434623533602e+17
19129.0	5.813466839384063e+17
19130.0	5.812514822553599e+17
19131.0	5.81148798423313e+17
19132.0	5.810440287638867e+17
19133.0	5.809351817516372e+17
19134.0	5.808303310722388e+17
19135.0	5.807282154984788e+17
19136.0	5.806226264118611e+17
19137.0	5.805131637456895e+17
19138.0	5.804113426819754e+17
19139.0	5.803084779356159e+17
19140.0	5.802039393823401e+17
19141.0	5.800987362415956e+17
19142.0	5.799904526641834e+17
19143.0	5.798863252226047e+17
19144.0	5.797795906016596e+17
19145.0	5.79677844546082e+17
19146.0	5.795176327588524e+17
19147.0	5.794642440224767e+17
19148.0	5.792912921067521e+17
19149.0	5.791736158748672e+17
19150.0	5.791518296113151e+17
19151.0	5.790457897768276e+17
19152.0	5.789348646267562e+17
19153.0	5.786826784636924e+17
19154.0	5.787096034486954e+17
19155.0	5.786150798447956e+17
19156.0	5.785067485921279e+17
19157.0	5.783436863558998e+17
19158.0	5.78168161234671e+17
19159.0	5.781750099039572e+17
19160.0	5.780659499608745e+17
19161.0	5.779388514347689e+17
19162.0	5.777766960769705e+17
19163.0	5.777099063296e+17
19164.0	5.776450149242196e+17
19165.0	5.773943527615142e+17
19166.0	5.774497932815018e+17
19167.0	5.773487653606739e+17
19168.0	5.772511476187136e+17
19169.0	5.771511891055956e+17
19170.0	5.770487041534634e+17
19171.0	5.769440465518592e+17
19172.0	5.76838259773713e+17
19173.0	5.767375130809683e+17
19174.0	5.766327098671103e+17
19175.0	5.765299358575274e+17
19176.0	5.7642527650829645e+17
19177.0	5.7630626089533434e+17
19178.0	5.7621052856292685e+17
19179.0	5.7610613974630394e+17
19180.0	5.760039787342505e+17
19181.0	5.758953491267582e+17
19182.0	5.757925586195796e+17
19183.0	5.756934393866922e+17
19184.0	5.7558890041398605e+17
19185.0	5.754822339504809e+17
19186.0	5.753774157070335e+17
19187.0	5.752637321030313e+17
19188.0	5.751624388924756e+17
19189.0	5.750532645847039e+17
19190.0	5.749435413823487e+17
19191.0	5.7482913391138125e+17
19192.0	5.747163183884969e+17
19193.0	5.745750291338579e+17
19194.0	5.744335163927211e+17
19195.0	5.7432416473579514e+17
19196.0	5.741509488585385e+17
19197.0	5.7392125856535885e+17
19198.0	5.7356527442329594e+17
19199.0	5.7295850347779405e+17
19200.0	5.7290623755659936e+17
19201.0	5.732781426475007e+17
19202.0	5.734154427695103e+17
19203.0	5.734227120575828e+17
19204.0	5.7339175026469536e+17
19205.0	5.733272675243349e+17
19206.0	5.73247422796049e+17
19207.0	5.731470708572158e+17
19208.0	5.730569001719124e+17
19209.0	5.729690885728938e+17
19210.0	5.7287118275215354e+17
19211.0	5.727722923185492e+17
19212.0	5.726692307894271e+17
19213.0	5.725545445370537e+17
19214.0	5.7245308369414816e+17
19215.0	5.723604805222399e+17
19216.0	5.722607396934996e+17
19217.0	5.7215291881772365e+17
19218.0	5.7203115132190714e+17
19219.0	5.719347962751658e+17
19220.0	5.718478619148287e+17
19221.0	5.717434835140607e+17
19222.0	5.7164606535106554e+17
19223.0	5.7154631662305274e+17
19224.0	5.714412145650345e+17
19225.0	5.7133955561117005e+17
19226.0	5.7123872258566816e+17
19227.0	5.711367336099839e+17
19228.0	5.7103634455156045e+17
19229.0	5.709333848042154e+17
19230.0	5.708299255152639e+17
19231.0	5.707260472153428e+17
19232.0	5.706232480399358e+17
19233.0	5.7051508959259296e+17
19234.0	5.704173458117973e+17
19235.0	5.703117463792298e+17
19236.0	5.7021154941992954e+17
19237.0	5.701075687789908e+17
19238.0	5.699982487890602e+17
19239.0	5.699021738519209e+17
19240.0	5.697997191686826e+17
19241.0	5.6969471211165005e+17
19242.0	5.6959241520414726e+17
19243.0	5.6947665898482336e+17
19244.0	5.6938794008794445e+17
19245.0	5.69284266959394e+17
19246.0	5.69181331399202e+17
19247.0	5.690779007014228e+17
19248.0	5.6897471425194656e+17
19249.0	5.68864698217267e+17
19250.0	5.687345004500309e+17
19251.0	5.686257293546835e+17
19252.0	5.6853667274642765e+17
19253.0	5.684589636179284e+17
19254.0	5.683572801972906e+17
19255.0	5.682370009104383e+17
19256.0	5.6815035735517856e+17
19257.0	5.680480066207743e+17
19258.0	5.6794340291597645e+17
19259.0	5.6782363757117434e+17
19260.0	5.676621542107817e+17
19261.0	5.67624804213282e+17
19262.0	5.67520592606003e+17
19263.0	5.674139797596841e+17
19264.0	5.6729858571851085e+17
19265.0	5.672059789814441e+17
19266.0	5.671019521332564e+17
19267.0	5.670165368799231e+17
19268.0	5.669137576274602e+17
19269.0	5.6681062157953696e+17
19270.0	5.667037054151337e+17
19271.0	5.665913490986324e+17
19272.0	5.6649867644108794e+17
19273.0	5.663827373501098e+17
19274.0	5.6626167617508685e+17
19275.0	5.661939879378943e+17
19276.0	5.6608945756351136e+17
19277.0	5.659866719496874e+17
19278.0	5.6587744835884365e+17
19279.0	5.657754941259775e+17
19280.0	5.656719130624e+17
19281.0	5.655680637730815e+17
19282.0	5.6546403580641274e+17
19283.0	5.653554284986367e+17
19284.0	5.65242726921011e+17
19285.0	5.6512999388610554e+17
19286.0	5.649994417700863e+17
19287.0	5.647954083140949e+17
19288.0	5.636533454023335e+17
19289.0	5.631225287584421e+17
19290.0	5.644562731106303e+17
19291.0	5.6446260392318285e+17
19292.0	5.6441604903621965e+17
19293.0	5.643266933041834e+17
19294.0	5.6422729745694714e+17
19295.0	5.6413154030824096e+17
19296.0	5.639294974689281e+17
19297.0	5.639085806146901e+17
19298.0	5.638245391357268e+17
19299.0	5.6361033064775686e+17
19300.0	5.636197614004906e+17
19301.0	5.6351864148459514e+17
19302.0	5.634138606403583e+17
19303.0	5.633044027277311e+17
19304.0	5.632060207136767e+17
19305.0	5.630998187693396e+17
19306.0	5.6299279725800096e+17
19307.0	5.628798219321344e+17
19308.0	5.627674349972137e+17
19309.0	5.626366906422613e+17
19310.0	5.625173524873215e+17
19311.0	5.624182013777237e+17
19312.0	5.62289137750289e+17
19313.0	5.620232760590335e+17
19314.0	5.556893528708448e+17
19315.0	5.559696608635602e+17
19316.0	5.615891408486401e+17
19317.0	5.617820177356117e+17
19318.0	5.6172258731403936e+17
19319.0	5.616383497513642e+17
19320.0	5.615022094942206e+17
19321.0	5.613505727518037e+17
19322.0	5.6133543739610445e+17
19323.0	5.612305779785726e+17
19324.0	5.6112632128252576e+17
19325.0	5.6102247646713165e+17
19326.0	5.609274897421652e+17
19327.0	5.608281872880979e+17
19328.0	5.605509692391425e+17
19329.0	5.606286098606762e+17
19330.0	5.605255351194964e+17
19331.0	5.604197040914431e+17
19332.0	5.6031994620586643e+17
19333.0	5.60214187319842e+17
19334.0	5.601098019285674e+17
19335.0	5.5964705268695066e+17
19336.0	5.599011374716245e+17
19337.0	5.59801303249715e+17
19338.0	5.5967931149844474e+17
19339.0	5.5959006488821754e+17
19340.0	5.5947485371869856e+17
19341.0	5.59236538748109e+17
19342.0	5.592158496445782e+17
19343.0	5.591624885207039e+17
19344.0	5.589148370294103e+17
19345.0	5.588048220433067e+17
19346.0	5.5877293414809594e+17
19347.0	5.5856226551289165e+17
19348.0	5.5863971808979616e+17
19349.0	5.585335759142911e+17
19350.0	5.583627615556949e+17
19351.0	5.58322320216337e+17
19352.0	5.580331105823399e+17
19353.0	5.5811574990547616e+17
19354.0	5.580099165006506e+17
19355.0	5.57894397329408e+17
19356.0	5.5779537351693645e+17
19357.0	5.5768843148765856e+17
19358.0	5.5757868941093555e+17
19359.0	5.574300818647721e+17
19360.0	5.5721918051560083e+17
19361.0	5.572538460187306e+17
19362.0	5.5714715893323085e+17
19363.0	5.57038451241779e+17
19364.0	5.569275758641151e+17
19365.0	5.5681732306097485e+17
19366.0	5.567076203408041e+17
19367.0	5.565961915247274e+17
19368.0	5.564860834250751e+17
19369.0	5.563697436382549e+17
19370.0	5.562593485083988e+17
19371.0	5.5614545323185485e+17
19372.0	5.560368631207252e+17
19373.0	5.559220462856874e+17
19374.0	5.5581045577919136e+17
19375.0	5.55695714930961e+17
19376.0	5.5558129977043616e+17
19377.0	5.554623884558336e+17
19378.0	5.5534520351675706e+17
19379.0	5.5522794356954445e+17
19380.0	5.5510850768732154e+17
19381.0	5.54989420351761e+17
19382.0	5.548615797134677e+17
19383.0	5.54742127403554e+17
19384.0	5.546221700994388e+17
19385.0	5.544984924476756e+17
19386.0	5.5436954094796794e+17
19387.0	5.5423367891298976e+17
19388.0	5.540924755716777e+17
19389.0	5.5392354256814074e+17
19390.0	5.5360322077545805e+17
19391.0	5.516564938533537e+17
19392.0	5.52913692996403e+17
19393.0	5.533512198608213e+17
19394.0	5.5328470721713485e+17
19395.0	5.5311999661943475e+17
19396.0	5.5303111924776954e+17
19397.0	5.529078903865343e+17
19398.0	5.5271193341242016e+17
19399.0	5.525341975434581e+17
19400.0	5.5240928921299616e+17
19401.0	5.5231451954326176e+17
19402.0	5.5216242317503136e+17
19403.0	5.520041962023593e+17
19404.0	5.518434420916223e+17
19405.0	5.516713262404949e+17
19406.0	5.514982496840361e+17
19407.0	5.512606156587007e+17
19408.0	5.5111701876790605e+17
19409.0	5.5095438344192e+17
19410.0	5.507792590165333e+17
19411.0	5.505868144224939e+17
19412.0	5.5038385841329485e+17
19413.0	5.50109177848354e+17
19414.0	5.499492001731924e+17
19415.0	5.4971938922386765e+17
19416.0	5.494655129660073e+17
19417.0	5.492273991122943e+17
19418.0	5.4897879215854925e+17
19419.0	5.487124459552767e+17
19420.0	5.4842599729179296e+17
19421.0	5.481348679248554e+17
19422.0	5.4782590766284794e+17
19423.0	5.4750044365346125e+17
19424.0	5.47151576895761e+17
19425.0	5.467814019552596e+17
19426.0	5.463819820204031e+17
19427.0	5.4594678502195194e+17
19428.0	5.4547364285426336e+17
19429.0	5.449466833622356e+17
19430.0	5.442755385884671e+17
19431.0	5.436135926923264e+17
19432.0	5.432305048879103e+17
19433.0	5.426331260376404e+17
19434.0	5.4189944160474445e+17
19435.0	5.4098876488308045e+17
19436.0	5.4000217650189645e+17
19437.0	5.388132090380287e+17
19438.0	5.34372839762603e+17
19439.0	5.357094876916391e+17
19440.0	5.3563847462966605e+17
19441.0	5.343278744469502e+17
19442.0	5.326922347883178e+17
19443.0	5.30843006350131e+17
19444.0	5.286185737213267e+17
19445.0	5.259663097113258e+17
19446.0	5.2280365909278726e+17
19447.0	5.1880321806062906e+17
19448.0	5.135653342456493e+17
19449.0	5.0602571510142285e+17
19450.0	4.922609464508405e+17
19451.0	4.8068441603222266e+17
19452.0	5.004657630554795e+17
19453.0	5.0991664670091974e+17
19454.0	5.1587246233135763e+17
19455.0	5.201814393017685e+17
19456.0	5.234206235951105e+17
19457.0	5.2570014064749216e+17
19458.0	5.1113534513918125e+17
19459.0	5.2712763594288154e+17
19460.0	5.316094084513791e+17
19461.0	5.3319727596612256e+17
19462.0	5.344487277942101e+17
19463.0	5.354974122868735e+17
19464.0	5.3639652447354874e+17
19465.0	5.3720108173885446e+17
19466.0	5.379131128676351e+17
19467.0	5.385487216803839e+17
19468.0	5.3910138456637434e+17
19469.0	5.394481076153e+17
19470.0	5.3999948424806394e+17
19471.0	5.403795571168596e+17
19472.0	5.4071117955290445e+17
19473.0	5.410099099773609e+17
19474.0	5.411513714081789e+17
19475.0	5.414800950209194e+17
19476.0	5.4172730911621114e+17
19477.0	5.419174974543189e+17
19478.0	5.4208065832659616e+17
19479.0	5.420986563646801e+17
19480.0	5.4233502224220154e+17
19481.0	5.4243442249345696e+17
19482.0	5.425271704387583e+17
19483.0	5.4261037047043405e+17
19484.0	5.4267334500898125e+17
19485.0	5.427252013563904e+17
19486.0	5.426387085863598e+17
19487.0	5.427993133798741e+17
19488.0	5.4281819033436154e+17
19489.0	5.428079403641513e+17
19490.0	5.427866521042943e+17
19491.0	5.4283333303009274e+17
19492.0	5.428342140436479e+17
19493.0	5.428160924134058e+17
19494.0	5.4278693885487776e+17
19495.0	5.4274000480283296e+17
19496.0	5.4264708656878925e+17
19497.0	5.4248612057579514e+17
19498.0	5.412376512473768e+17
19499.0	5.394021705493162e+17
19500.0	5.4221150152731296e+17
19501.0	5.424560516803242e+17
19502.0	5.424771432972287e+17
19503.0	5.4245919202563405e+17
19504.0	5.4241578132875936e+17
19505.0	5.4235831600851616e+17
19506.0	5.4230147151517005e+17
19507.0	5.422286167343104e+17
19508.0	5.4213836307169274e+17
19509.0	5.4199617707485856e+17
19510.0	5.41470213939746e+17
19511.0	5.323811322855389e+17
19512.0	5.4025259630373523e+17
19513.0	5.4052198183949606e+17
19514.0	5.407013024563196e+17
19515.0	5.4154316742656e+17
19516.0	5.415741511696382e+17
19517.0	5.415572251956564e+17
19518.0	5.4146447207738003e+17
19519.0	5.4139390619811834e+17
19520.0	5.412308265555282e+17
19521.0	5.412959896119977e+17
19522.0	5.411954795479039e+17
19523.0	5.411060700588715e+17
19524.0	5.4096155244844397e+17
19525.0	5.409809966825471e+17
19526.0	5.4090704446204576e+17
19527.0	5.4082608020411725e+17
19528.0	5.407326760599551e+17
19529.0	5.406431754846207e+17
19530.0	5.405784663916542e+17
19531.0	5.4049442994585594e+17
19532.0	5.404098796279124e+17
19533.0	5.403245740556287e+17
19534.0	5.402392647084713e+17
19535.0	5.4015173210057376e+17
19536.0	5.400634728994132e+17
19537.0	5.3997508178739194e+17
19538.0	5.397510774325248e+17
19539.0	5.3978253778834765e+17
19540.0	5.397123749817002e+17
19541.0	5.395977445834752e+17
19542.0	5.395280918041941e+17
19543.0	5.393164234566315e+17
19544.0	5.393539540888234e+17
19545.0	5.392401169033898e+17
19546.0	5.3914856195795616e+17
19547.0	5.390955406426111e+17
19548.0	5.390120142940842e+17
19549.0	5.389152637244757e+17
19550.0	5.388347906195455e+17
19551.0	5.3874514583005856e+17
19552.0	5.386547282400596e+17
19553.0	5.3856299510661114e+17
19554.0	5.384717857019221e+17
19555.0	5.3836510015433376e+17
19556.0	5.382794277901652e+17
19557.0	5.381985200854357e+17
19558.0	5.3810926382830925e+17
19559.0	5.380185448775679e+17
19560.0	5.378756466879145e+17
19561.0	5.3783312846902605e+17
19562.0	5.376940542962345e+17
19563.0	5.376521134931967e+17
19564.0	5.375598410421588e+17
19565.0	5.3746801954870605e+17
19566.0	5.373743794749439e+17
19567.0	5.3728371966388896e+17
19568.0	5.3719007972993683e+17
19569.0	5.370983918949717e+17
19570.0	5.3700546862776314e+17
19571.0	5.369136230170623e+17
19572.0	5.368191602305706e+17
19573.0	5.367110202381652e+17
19574.0	5.366220868026367e+17
19575.0	5.365443532772692e+17
19576.0	5.364413773818538e+17
19577.0	5.363293587767296e+17
19578.0	5.362639572740778e+17
19579.0	5.361695827776853e+17
19580.0	5.3607694290561696e+17
19581.0	5.3598567778658976e+17
19582.0	5.358929981385386e+17
19583.0	5.35799627968239e+17
19584.0	5.357040050372606e+17
19585.0	5.3560132623837856e+17
19586.0	5.3550422747163296e+17
19587.0	5.354175869921962e+17
19588.0	5.3531122699250336e+17
19589.0	5.3523094717508256e+17
19590.0	5.351343478101332e+17
19591.0	5.350511802843135e+17
19592.0	5.3495954543738874e+17
19593.0	5.348509686781268e+17
19594.0	5.347381384751785e+17
19595.0	5.346775299435179e+17
19596.0	5.3456942455412045e+17
19597.0	5.344890219134975e+17
19598.0	5.3436701205681485e+17
19599.0	5.343006658570922e+17
19600.0	5.3420946127585274e+17
19601.0	5.341100368374441e+17
19602.0	5.340097453664938e+17
19603.0	5.339012993297066e+17
19604.0	5.338190530827605e+17
19605.0	5.337188227088384e+17
19606.0	5.336462376217258e+17
19607.0	5.335551023863125e+17
19608.0	5.3346080191938554e+17
19609.0	5.3336540736826016e+17
19610.0	5.332112292970497e+17
19611.0	5.330877103996928e+17
19612.0	5.330871410229246e+17
19613.0	5.32991974641937e+17
19614.0	5.328944017091241e+17
19615.0	5.327976709925547e+17
19616.0	5.3262777232042675e+17
19617.0	5.3251195136901114e+17
19618.0	5.3247258419090765e+17
19619.0	5.3235704733368314e+17
19620.0	5.3226194890042003e+17
19621.0	5.320941329798483e+17
19622.0	5.3213810487459834e+17
19623.0	5.320347697370453e+17
19624.0	5.319210444696235e+17
19625.0	5.318428234263209e+17
19626.0	5.31734405980706e+17
19627.0	5.316114510774271e+17
19628.0	5.314588660028756e+17
19629.0	5.309324584812542e+17
19630.0	5.307978035669673e+17
19631.0	5.304118665718442e+17
19632.0	5.3087507823547725e+17
19633.0	5.309649695801343e+17
19634.0	5.309513938064725e+17
19635.0	5.308711243350014e+17
19636.0	5.3066223107877523e+17
19637.0	5.305538605394599e+17
19638.0	5.306281082486782e+17
19639.0	5.305465027515733e+17
19640.0	5.304331585366698e+17
19641.0	5.30299470409455e+17
19642.0	5.302591602819071e+17
19643.0	5.30167801909521e+17
19644.0	5.300815696756736e+17
19645.0	5.299861525452117e+17
19646.0	5.297443210002429e+17
19647.0	5.2980901604229114e+17
19648.0	5.2971887206072314e+17
19649.0	5.2962593355421005e+17
19650.0	5.2953339287743136e+17
19651.0	5.2943971449569274e+17
19652.0	5.293464935028053e+17
19653.0	5.292525839450111e+17
19654.0	5.29160027050257e+17
19655.0	5.290667128739157e+17
19656.0	5.2897407460966394e+17
19657.0	5.2888045487827616e+17
19658.0	5.287871111320917e+17
19659.0	5.2869452949094394e+17
