# Flux units: erg / (cm m2 s)
# Wavelength units: Angstrom
wave	flux
19000.0	5.956957283636563e+17
19001.0	5.955779670573055e+17
19002.0	5.954792790687743e+17
19003.0	5.953708701515775e+17
19004.0	5.952625830789119e+17
19005.0	5.951535076868095e+17
19006.0	5.950459793637373e+17
19007.0	5.949370732817065e+17
19008.0	5.948242862800895e+17
19009.0	5.94703745688098e+17
19010.0	5.945814951482708e+17
19011.0	5.945002776242858e+17
19012.0	5.943867306147839e+17
19013.0	5.942875450419882e+17
19014.0	5.941747504207188e+17
19015.0	5.940676271276031e+17
19016.0	5.939610428025513e+17
19017.0	5.938554098155519e+17
19018.0	5.937468607386963e+17
19019.0	5.936390964161194e+17
19020.0	5.935303797768191e+17
19021.0	5.934240337581395e+17
19022.0	5.933155450093567e+17
19023.0	5.932043808538623e+17
19024.0	5.930982316179455e+17
19025.0	5.929915638262442e+17
19026.0	5.928825013665791e+17
19027.0	5.92773882454562e+17
19028.0	5.926678371674794e+17
19029.0	5.925587919044607e+17
19030.0	5.924532044256595e+17
19031.0	5.923457133619882e+17
19032.0	5.922370528564564e+17
19033.0	5.92120358371328e+17
19034.0	5.920176197337088e+17
19035.0	5.918898805975721e+17
19036.0	5.915799463482707e+17
19037.0	5.916813720988329e+17
19038.0	5.915862194891433e+17
19039.0	5.914825304222377e+17
19040.0	5.913760852781737e+17
19041.0	5.912680244882089e+17
19042.0	5.911417428028074e+17
19043.0	5.910538048154282e+17
19044.0	5.909451812896767e+17
19045.0	5.908381664892244e+17
19046.0	5.90726436032785e+17
19047.0	5.906174812968276e+17
19048.0	5.905008058957823e+17
19049.0	5.903781845794815e+17
19050.0	5.902929162665983e+17
19051.0	5.901577812443135e+17
19052.0	5.900688062851754e+17
19053.0	5.899770877618857e+17
19054.0	5.898713497774762e+17
19055.0	5.897370766147584e+17
19056.0	5.896534582711636e+17
19057.0	5.895494344288938e+17
19058.0	5.894304657222314e+17
19059.0	5.893304925989546e+17
19060.0	5.892272665832106e+17
19061.0	5.891210615630506e+17
19062.0	5.890135265290921e+17
19063.0	5.889058151246506e+17
19064.0	5.887909936758783e+17
19065.0	5.886766811359914e+17
19066.0	5.885752690169171e+17
19067.0	5.884770548449279e+17
19068.0	5.883713314706772e+17
19069.0	5.882643191868074e+17
19070.0	5.881549347444052e+17
19071.0	5.880497625017001e+17
19072.0	5.879392077086719e+17
19073.0	5.878362609636694e+17
19074.0	5.877295142491476e+17
19075.0	5.876225009866067e+17
19076.0	5.875146037045929e+17
19077.0	5.874067905183744e+17
19078.0	5.872984714990934e+17
19079.0	5.871947095911081e+17
19080.0	5.870869280718848e+17
19081.0	5.86976638149154e+17
19082.0	5.868723964826963e+17
19083.0	5.867582108904105e+17
19084.0	5.866399564038143e+17
19085.0	5.865527236187476e+17
19086.0	5.864067809236307e+17
19087.0	5.863284665570644e+17
19088.0	5.862198488334335e+17
19089.0	5.861088750294356e+17
19090.0	5.860172149467818e+17
19091.0	5.859113869246463e+17
19092.0	5.857938848961876e+17
19093.0	5.857010814462634e+17
19094.0	5.855947955459412e+17
19095.0	5.854883183154516e+17
19096.0	5.853810586375508e+17
19097.0	5.85274999369455e+17
19098.0	5.851642590483795e+17
19099.0	5.850564230731092e+17
19100.0	5.849544462609065e+17
19101.0	5.848479333788329e+17
19102.0	5.847350495586986e+17
19103.0	5.846363566069075e+17
19104.0	5.845305721356287e+17
19105.0	5.844137235098282e+17
19106.0	5.843172073319082e+17
19107.0	5.842071743102976e+17
19108.0	5.840992193566035e+17
19109.0	5.839910428737535e+17
19110.0	5.838889300961962e+17
19111.0	5.837828610413908e+17
19112.0	5.836766866396499e+17
19113.0	5.835739291975679e+17
19114.0	5.834656107375273e+17
19115.0	5.83357390983441e+17
19116.0	5.832523994453332e+17
19117.0	5.831446713335808e+17
19118.0	5.830135921333588e+17
19119.0	5.823562508839588e+17
19120.0	5.828155516387327e+17
19121.0	5.827211995818666e+17
19122.0	5.826185689475754e+17
19123.0	5.825130748619434e+17
19124.0	5.824049670957737e+17
19125.0	5.822986318424746e+17
19126.0	5.821797895940778e+17
19127.0	5.819733349761023e+17
19128.0	5.81964905054208e+17
19129.0	5.818674931826687e+17
19130.0	5.817706916522665e+17
19131.0	5.816669130369706e+17
19132.0	5.815612555831978e+17
19133.0	5.814520089935871e+17
19134.0	5.813497224320339e+17
19135.0	5.81244317405457e+17
19136.0	5.811379325195604e+17
19137.0	5.810244310182569e+17
19138.0	5.809252153163776e+17
19139.0	5.808222113191252e+17
19140.0	5.807171579150336e+17
19141.0	5.806116911622825e+17
19142.0	5.805036323995648e+17
19143.0	5.803971123871743e+17
19144.0	5.80290648997888e+17
19145.0	5.801893904602452e+17
19146.0	5.800241666195455e+17
19147.0	5.799734164499112e+17
19148.0	5.798694023943508e+17
19149.0	5.797630263863978e+17
19150.0	5.796624798318591e+17
19151.0	5.795566684471295e+17
19152.0	5.794516423759188e+17
19153.0	5.793356372945577e+17
19154.0	5.792335122836138e+17
19155.0	5.791340716971348e+17
19156.0	5.790296063344639e+17
19157.0	5.789207538696192e+17
19158.0	5.78810038854178e+17
19159.0	5.787119239473833e+17
19160.0	5.786074162222419e+17
19161.0	5.78501073838626e+17
19162.0	5.783860702172499e+17
19163.0	5.782881355956224e+17
19164.0	5.781877051533993e+17
19165.0	5.780738642629972e+17
19166.0	5.779697170382848e+17
19167.0	5.778719223666004e+17
19168.0	5.777686241389225e+17
19169.0	5.776639612944383e+17
19170.0	5.775593306062848e+17
19171.0	5.774542123302912e+17
19172.0	5.77349613658658e+17
19173.0	5.772445843019092e+17
19174.0	5.771365484680531e+17
19175.0	5.770342874917546e+17
19176.0	5.769298625342122e+17
19177.0	5.768111274502825e+17
19178.0	5.767201048319316e+17
19179.0	5.766150341612884e+17
19180.0	5.765098164802899e+17
19181.0	5.763968180857513e+17
19182.0	5.7629854127882234e+17
19183.0	5.7619696523236685e+17
19184.0	5.7609224240933536e+17
19185.0	5.759868918388051e+17
19186.0	5.7588295705559034e+17
19187.0	5.7577239841778336e+17
19188.0	5.7567341843578874e+17
19189.0	5.755690712126805e+17
19190.0	5.7546427086493005e+17
19191.0	5.753566494283092e+17
19192.0	5.752545879610709e+17
19193.0	5.7514784921572685e+17
19194.0	5.7504087062609914e+17
19195.0	5.749376071412393e+17
19196.0	5.748288375138986e+17
19197.0	5.747182366534313e+17
19198.0	5.74592765726993e+17
19199.0	5.744096491252394e+17
19200.0	5.743167980000596e+17
19201.0	5.742824903409664e+17
19202.0	5.7419751723717965e+17
19203.0	5.740991988367358e+17
19204.0	5.739970873174698e+17
19205.0	5.7389416203332256e+17
19206.0	5.7379137697873914e+17
19207.0	5.7367421343061325e+17
19208.0	5.7356954450438816e+17
19209.0	5.7347920646635514e+17
19210.0	5.733756632913236e+17
19211.0	5.732730018988031e+17
19212.0	5.7316862258926925e+17
19213.0	5.7305522279983776e+17
19214.0	5.729533781082111e+17
19215.0	5.728549159829503e+17
19216.0	5.727505254187007e+17
19217.0	5.726396819177471e+17
19218.0	5.7249749242565965e+17
19219.0	5.7241561178221216e+17
19220.0	5.723300191797247e+17
19221.0	5.722143262244863e+17
19222.0	5.721215027118079e+17
19223.0	5.7202130106886816e+17
19224.0	5.71914289484049e+17
19225.0	5.718086297234089e+17
19226.0	5.717099972395006e+17
19227.0	5.7160699261310285e+17
19228.0	5.715058013940393e+17
19229.0	5.714019038003198e+17
19230.0	5.712975602122751e+17
19231.0	5.7119297754890234e+17
19232.0	5.710897607606271e+17
19233.0	5.7098061791013536e+17
19234.0	5.708817374729556e+17
19235.0	5.7077576076274336e+17
19236.0	5.706751626881705e+17
19237.0	5.705705422760617e+17
19238.0	5.7046005605990394e+17
19239.0	5.7036429366831776e+17
19240.0	5.702607120454995e+17
19241.0	5.7015512876100256e+17
19242.0	5.700519003684863e+17
19243.0	5.699344224572756e+17
19244.0	5.6984626853314554e+17
19245.0	5.6974195129931085e+17
19246.0	5.6963810047208096e+17
19247.0	5.6953429039950496e+17
19248.0	5.694317767163902e+17
19249.0	5.6932809219331386e+17
19250.0	5.692210351002965e+17
19251.0	5.6911108023255014e+17
19252.0	5.689886770899627e+17
19253.0	5.689117634811221e+17
19254.0	5.68810438533666e+17
19255.0	5.6868804245149005e+17
19256.0	5.686019593251498e+17
19257.0	5.684999346978815e+17
19258.0	5.683963397231956e+17
19259.0	5.682852488282111e+17
19260.0	5.681820508443988e+17
19261.0	5.6808381451250336e+17
19262.0	5.679752836109652e+17
19263.0	5.678657617352021e+17
19264.0	5.6773540591261005e+17
19265.0	5.676516323797674e+17
19266.0	5.675457565425663e+17
19267.0	5.674640927446356e+17
19268.0	5.6736057613352954e+17
19269.0	5.672571363480916e+17
19270.0	5.6714976838724256e+17
19271.0	5.6702864059269114e+17
19272.0	5.6694337200018765e+17
19273.0	5.66822623580433e+17
19274.0	5.667017623339007e+17
19275.0	5.666376368084308e+17
19276.0	5.665327661361834e+17
19277.0	5.6642999205669536e+17
19278.0	5.663268895632042e+17
19279.0	5.6622092298922656e+17
19280.0	5.661152065355775e+17
19281.0	5.660151093308073e+17
19282.0	5.6591364981609805e+17
19283.0	5.658092431037781e+17
19284.0	5.6570269352154445e+17
19285.0	5.655952501331285e+17
19286.0	5.654936641601535e+17
19287.0	5.653908671518037e+17
19288.0	5.652009575951018e+17
19289.0	5.65044042810436e+17
19290.0	5.650801155724628e+17
19291.0	5.649582572699648e+17
19292.0	5.6487999351466643e+17
19293.0	5.647769759558313e+17
19294.0	5.646729307925162e+17
19295.0	5.645707576868862e+17
19296.0	5.6446163720601594e+17
19297.0	5.6436152294440954e+17
19298.0	5.6425747848014496e+17
19299.0	5.6415120208691194e+17
19300.0	5.640527723976021e+17
19301.0	5.6394959664360096e+17
19302.0	5.6384459902375245e+17
19303.0	5.6373608909373434e+17
19304.0	5.636373349051049e+17
19305.0	5.6353303339991034e+17
19306.0	5.63429294350882e+17
19307.0	5.633222178242558e+17
19308.0	5.632193813894484e+17
19309.0	5.6311413364927136e+17
19310.0	5.6300757497937914e+17
19311.0	5.629056454929066e+17
19312.0	5.628040020579669e+17
19313.0	5.6269616000095565e+17
19314.0	5.6211347876085734e+17
19315.0	5.620471303940783e+17
19316.0	5.6237743987316045e+17
19317.0	5.6228497126850554e+17
19318.0	5.621823797111467e+17
19319.0	5.6208072425253536e+17
19320.0	5.619746904298836e+17
19321.0	5.618674180292607e+17
19322.0	5.617646241666387e+17
19323.0	5.616619486532947e+17
19324.0	5.61558518374946e+17
19325.0	5.6145398282758816e+17
19326.0	5.61350615114274e+17
19327.0	5.612459943526399e+17
19328.0	5.6113298428395514e+17
19329.0	5.610378766931284e+17
19330.0	5.6093137296861856e+17
19331.0	5.6082363660806816e+17
19332.0	5.6072368536507725e+17
19333.0	5.606177039712255e+17
19334.0	5.605136697131007e+17
19335.0	5.603899919914324e+17
19336.0	5.6030294648203936e+17
19337.0	5.601972979761151e+17
19338.0	5.6007251869040634e+17
19339.0	5.599853950271487e+17
19340.0	5.5986625526278816e+17
19341.0	5.5975660322379085e+17
19342.0	5.596430060224511e+17
19343.0	5.595540936283476e+17
19344.0	5.5943436106902176e+17
19345.0	5.5920725768273914e+17
19346.0	5.591396548695379e+17
19347.0	5.591125917521236e+17
19348.0	5.5902438847501645e+17
19349.0	5.5891651607920634e+17
19350.0	5.588076229296126e+17
19351.0	5.5870236812902394e+17
19352.0	5.585835621613567e+17
19353.0	5.584912053349034e+17
19354.0	5.5838362108777805e+17
19355.0	5.582659661070335e+17
19356.0	5.581664917564073e+17
19357.0	5.580569181508949e+17
19358.0	5.5794740452392954e+17
19359.0	5.5783252393547085e+17
19360.0	5.57714687201553e+17
19361.0	5.5761339028602874e+17
19362.0	5.5750513250358605e+17
19363.0	5.5739464272226976e+17
19364.0	5.572835098143402e+17
19365.0	5.571719630684158e+17
19366.0	5.5706000863614285e+17
19367.0	5.569476085590697e+17
19368.0	5.568346574203562e+17
19369.0	5.5671822060530336e+17
19370.0	5.566029877652138e+17
19371.0	5.56483117982242e+17
19372.0	5.563735657676798e+17
19373.0	5.562563006474922e+17
19374.0	5.5614119077041485e+17
19375.0	5.5602465608826874e+17
19376.0	5.5590735853213005e+17
19377.0	5.55788264345873e+17
19378.0	5.556637139992575e+17
19379.0	5.55543525588992e+17
19380.0	5.5542306405963085e+17
19381.0	5.553009078217385e+17
19382.0	5.5517086265726285e+17
19383.0	5.5504763065029965e+17
19384.0	5.549179186533715e+17
19385.0	5.5479400339428685e+17
19386.0	5.5466725089826125e+17
19387.0	5.5453866842740045e+17
19388.0	5.5440653107418445e+17
19389.0	5.5426941354420896e+17
19390.0	5.541283598696447e+17
19391.0	5.5380610366395706e+17
19392.0	5.5382985831437645e+17
19393.0	5.5372386447742285e+17
19394.0	5.535853738721279e+17
19395.0	5.5343894016382285e+17
19396.0	5.532939058850473e+17
19397.0	5.5314667141420365e+17
19398.0	5.52989047722257e+17
19399.0	5.527945923788799e+17
19400.0	5.5266696201502714e+17
19401.0	5.525276849078271e+17
19402.0	5.523678611636223e+17
19403.0	5.5219571965733536e+17
19404.0	5.520271271613781e+17
19405.0	5.518499778658303e+17
19406.0	5.5167009241606816e+17
19407.0	5.514790392823807e+17
19408.0	5.5123423446521165e+17
19409.0	5.510740202313045e+17
19410.0	5.508803021766656e+17
19411.0	5.506693744732842e+17
19412.0	5.50438745285154e+17
19413.0	5.502035277381631e+17
19414.0	5.4996662659754643e+17
19415.0	5.4971844361803085e+17
19416.0	5.4943996888569165e+17
19417.0	5.491911063590228e+17
19418.0	5.4890889638925645e+17
19419.0	5.485941549782356e+17
19420.0	5.48281559163426e+17
19421.0	5.479372479791102e+17
19422.0	5.475710899934549e+17
19423.0	5.47204488040721e+17
19424.0	5.467834740812457e+17
19425.0	5.4634944750332576e+17
19426.0	5.459056601508521e+17
19427.0	5.4542983544613536e+17
19428.0	5.449281542553598e+17
19429.0	5.443685633578323e+17
19430.0	5.43771358850799e+17
19431.0	5.4310740178589005e+17
19432.0	5.4240413402617165e+17
19433.0	5.416358865709738e+17
19434.0	5.407877049789098e+17
19435.0	5.3983274961906323e+17
19436.0	5.3880877300230816e+17
19437.0	5.376813168241322e+17
19438.0	5.3604573665471136e+17
19439.0	5.3487938466829645e+17
19440.0	5.3329706342154234e+17
19441.0	5.3146115245779616e+17
19442.0	5.293613056873813e+17
19443.0	5.268761166741503e+17
19444.0	5.2391060141943443e+17
19445.0	5.2039675781229216e+17
19446.0	5.160717063815167e+17
19447.0	5.105624318039377e+17
19448.0	5.031391800590339e+17
19449.0	4.921054552129536e+17
19450.0	4.7098186442997696e+17
19451.0	4.534036463965539e+17
19452.0	4.837886933336067e+17
19453.0	4.9807128020036294e+17
19454.0	5.067373845413884e+17
19455.0	5.1283221911961594e+17
19456.0	5.174943696289793e+17
19457.0	5.211453630622378e+17
19458.0	5.227485982272189e+17
19459.0	5.26573158181547e+17
19460.0	5.287852443871913e+17
19461.0	5.3053825863734605e+17
19462.0	5.3208961746206726e+17
19463.0	5.3344397451154765e+17
19464.0	5.3461854181130234e+17
19465.0	5.3561885591251616e+17
19466.0	5.364852650409982e+17
19467.0	5.372595120286378e+17
19468.0	5.3795936925996365e+17
19469.0	5.385463837753343e+17
19470.0	5.3911178797820576e+17
19471.0	5.396094682223957e+17
19472.0	5.400190589250217e+17
19473.0	5.40384151277841e+17
19474.0	5.407132380474026e+17
19475.0	5.409392988695209e+17
19476.0	5.4125573687650976e+17
19477.0	5.415013693696683e+17
19478.0	5.417379511140351e+17
19479.0	5.4192481644489376e+17
19480.0	5.420877237015892e+17
19481.0	5.422530183561215e+17
19482.0	5.423807191842815e+17
19483.0	5.4249142049832954e+17
19484.0	5.425963644310869e+17
19485.0	5.4266365483854496e+17
19486.0	5.4271774241587194e+17
19487.0	5.4279017937414816e+17
19488.0	5.4282884316747085e+17
19489.0	5.428316590833662e+17
19490.0	5.428103647417685e+17
19491.0	5.4291361005131085e+17
19492.0	5.429329527133524e+17
19493.0	5.4293717344146765e+17
19494.0	5.429367408689151e+17
19495.0	5.429294789208745e+17
19496.0	5.428816941241683e+17
19497.0	5.428805885755391e+17
19498.0	5.427785951259306e+17
19499.0	5.425260755156991e+17
19500.0	5.4279416550085965e+17
19501.0	5.427678092634794e+17
19502.0	5.4272874708118176e+17
19503.0	5.4268644738553165e+17
19504.0	5.426398200070143e+17
19505.0	5.425904667503274e+17
19506.0	5.4253908785452365e+17
19507.0	5.424855486824447e+17
19508.0	5.424308130851498e+17
19509.0	5.423677534022313e+17
19510.0	5.4227930245147296e+17
19511.0	5.414912613766481e+17
19512.0	5.420823888265215e+17
19513.0	5.419922686126761e+17
19514.0	5.419588223937193e+17
19515.0	5.419572801481386e+17
19516.0	5.419135358642858e+17
19517.0	5.4184397074595834e+17
19518.0	5.4177518681675085e+17
19519.0	5.4171073476471456e+17
19520.0	5.416308416621225e+17
19521.0	5.4156437417710925e+17
19522.0	5.414835063881728e+17
19523.0	5.414087011860479e+17
19524.0	5.413269082035541e+17
19525.0	5.4125844388031136e+17
19526.0	5.411794529026047e+17
19527.0	5.4109842600973645e+17
19528.0	5.4101637759412896e+17
19529.0	5.409341396658858e+17
19530.0	5.4085410968917325e+17
19531.0	5.407712286343167e+17
19532.0	5.40687798964497e+17
19533.0	5.4060787950769485e+17
19534.0	5.405231416344574e+17
19535.0	5.4043611772573e+17
19536.0	5.403487242289152e+17
19537.0	5.4026496908110496e+17
19538.0	5.401552884509354e+17
19539.0	5.4005905867407366e+17
19540.0	5.400017679766868e+17
19541.0	5.399170561780394e+17
19542.0	5.398300296828245e+17
19543.0	5.3973533348331514e+17
19544.0	5.3965074094271136e+17
19545.0	5.395202257365674e+17
19546.0	5.394187743308457e+17
19547.0	5.393870849660245e+17
19548.0	5.393049938384213e+17
19549.0	5.392077889557845e+17
19550.0	5.391285587629396e+17
19551.0	5.390393626940756e+17
19552.0	5.3894916146025805e+17
19553.0	5.388570439188479e+17
19554.0	5.387661474092372e+17
19555.0	5.3867592429513363e+17
19556.0	5.385871002610345e+17
19557.0	5.384965929828351e+17
19558.0	5.3840538483643725e+17
19559.0	5.383144375058432e+17
19560.0	5.3821823282490016e+17
19561.0	5.3812915992876365e+17
19562.0	5.380374144920234e+17
19563.0	5.3794946678784e+17
19564.0	5.378583878260051e+17
19565.0	5.3776637031874554e+17
19566.0	5.376722592246442e+17
19567.0	5.375818592507221e+17
19568.0	5.374876151272787e+17
19569.0	5.3739581579373216e+17
19570.0	5.3730533053562874e+17
19571.0	5.372127297404928e+17
19572.0	5.3711666018604365e+17
19573.0	5.370258303658666e+17
19574.0	5.3692539880516256e+17
19575.0	5.3684220338722125e+17
19576.0	5.367483668103167e+17
19577.0	5.366527875001002e+17
19578.0	5.365608243789823e+17
19579.0	5.36467333063202e+17
19580.0	5.3637453017251834e+17
19581.0	5.3628319871358285e+17
19582.0	5.3619100176001696e+17
19583.0	5.360977960763392e+17
19584.0	5.3600436438958074e+17
19585.0	5.358998050045951e+17
19586.0	5.3580384603996154e+17
19587.0	5.3571975199238816e+17
19588.0	5.35599934218786e+17
19589.0	5.355304369083732e+17
19590.0	5.3543350919932576e+17
19591.0	5.3534915160965114e+17
19592.0	5.352566811874644e+17
19593.0	5.3516068321580365e+17
19594.0	5.3504475034637645e+17
19595.0	5.3497377740991136e+17
19596.0	5.348799516682921e+17
19597.0	5.3478617479031456e+17
19598.0	5.3465611452634445e+17
19599.0	5.345984359956479e+17
19600.0	5.3450672257542816e+17
19601.0	5.344072127829332e+17
19602.0	5.343087865189717e+17
19603.0	5.341997216126292e+17
19604.0	5.341237481570304e+17
19605.0	5.340137351981738e+17
19606.0	5.339431575049556e+17
19607.0	5.3385091546262176e+17
19608.0	5.337558236703402e+17
19609.0	5.3365954509974176e+17
19610.0	5.335660226762068e+17
19611.0	5.334700407128062e+17
19612.0	5.333819828382378e+17
19613.0	5.3328702743074125e+17
19614.0	5.3319014068606285e+17
19615.0	5.3309930967749965e+17
19616.0	5.329998225342462e+17
19617.0	5.329016902909951e+17
19618.0	5.3276570046955514e+17
19619.0	5.326574783386963e+17
19620.0	5.3258113606396576e+17
19621.0	5.325242058670079e+17
19622.0	5.324419230597119e+17
19623.0	5.3234857623770445e+17
19624.0	5.3225328304892576e+17
19625.0	5.321613460023978e+17
19626.0	5.3206655151636474e+17
19627.0	5.319716255389013e+17
19628.0	5.318735604045141e+17
19629.0	5.317506933719039e+17
19630.0	5.3164210731526816e+17
19631.0	5.314950214625962e+17
19632.0	5.314858194392404e+17
19633.0	5.314017643986943e+17
19634.0	5.313147258798079e+17
19635.0	5.3121801215016954e+17
19636.0	5.311206579503103e+17
19637.0	5.309953489939115e+17
19638.0	5.3094027673381536e+17
19639.0	5.308460821031593e+17
19640.0	5.3073291831323296e+17
19641.0	5.305725430180524e+17
19642.0	5.305631272250025e+17
19643.0	5.304700202472789e+17
19644.0	5.303696732717055e+17
19645.0	5.30267601178897e+17
19646.0	5.301820266818217e+17
19647.0	5.3009779687860896e+17
19648.0	5.30004098224401e+17
19649.0	5.299103606330709e+17
19650.0	5.298172746268672e+17
19651.0	5.297229963897513e+17
19652.0	5.296292032238932e+17
19653.0	5.2953617433012896e+17
19654.0	5.2944179885506554e+17
19655.0	5.2934790167046816e+17
19656.0	5.292548508964181e+17
19657.0	5.2916096545587194e+17
19658.0	5.2906781324957e+17
