# Flux units: erg / (cm m2 s)
# Wavelength units: Angstrom
wave	flux
19000.0	7.656409730646016e+17
19001.0	7.654438540585641e+17
19002.0	7.653661512215209e+17
19003.0	7.652254021233324e+17
19004.0	7.650869707975338e+17
19005.0	7.649449620100436e+17
19006.0	7.648068673470463e+17
19007.0	7.646659243322025e+17
19008.0	7.644940929247914e+17
19009.0	7.643383856802474e+17
19010.0	7.639844549296122e+17
19011.0	7.64093575480388e+17
19012.0	7.639054037636434e+17
19013.0	7.638281133664938e+17
19014.0	7.636519991552681e+17
19015.0	7.635275394755242e+17
19016.0	7.633847620119209e+17
19017.0	7.632606531158015e+17
19018.0	7.631230591128915e+17
19019.0	7.629834894529876e+17
19020.0	7.628361705368233e+17
19021.0	7.627083240964096e+17
19022.0	7.625680332958376e+17
19023.0	7.624037603038546e+17
19024.0	7.622763850235903e+17
19025.0	7.621458027784874e+17
19026.0	7.6199230453405e+17
19027.0	7.618476352995327e+17
19028.0	7.617245155601064e+17
19029.0	7.615740785983487e+17
19030.0	7.614500443608403e+17
19031.0	7.613126452532563e+17
19032.0	7.611695814585002e+17
19033.0	7.609710400241661e+17
19034.0	7.608755429922131e+17
19035.0	7.607088729554944e+17
19036.0	7.588670700432036e+17
19037.0	7.60445430818406e+17
19038.0	7.603068975710207e+17
19039.0	7.601787628421119e+17
19040.0	7.600408130224127e+17
19041.0	7.59895769236548e+17
19042.0	7.5970156443293e+17
19043.0	7.596316158853117e+17
19044.0	7.594967455236092e+17
19045.0	7.59361271182131e+17
19046.0	7.591826612202153e+17
19047.0	7.5906578120704e+17
19048.0	7.588151372895569e+17
19049.0	7.587468492668927e+17
19050.0	7.586187472535551e+17
19051.0	7.581939124928507e+17
19052.0	7.583081384902655e+17
19053.0	7.582237138616319e+17
19054.0	7.580785930403839e+17
19055.0	7.577840993523034e+17
19056.0	7.577830924397225e+17
19057.0	7.576525247348736e+17
19058.0	7.57504927876164e+17
19059.0	7.57370668065314e+17
19060.0	7.572181449965565e+17
19061.0	7.570891544898217e+17
19062.0	7.569435394397523e+17
19063.0	7.568024726929408e+17
19064.0	7.565851761486506e+17
19065.0	7.564051819266047e+17
19066.0	7.563368585319763e+17
19067.0	7.562253164696915e+17
19068.0	7.560899995544233e+17
19069.0	7.559488496205821e+17
19070.0	7.557886231532884e+17
19071.0	7.55660056830498e+17
19072.0	7.555209040844115e+17
19073.0	7.553742713563817e+17
19074.0	7.552370654664019e+17
19075.0	7.550941704224768e+17
19076.0	7.549395878106451e+17
19077.0	7.548005691424765e+17
19078.0	7.546399418395304e+17
19079.0	7.545204322773676e+17
19080.0	7.543692580967764e+17
19081.0	7.542071250386943e+17
19082.0	7.540677582432938e+17
19083.0	7.5387531966109e+17
19084.0	7.536553454731265e+17
19085.0	7.536538160900777e+17
19086.0	7.532741453152255e+17
19087.0	7.53331830137378e+17
19088.0	7.531758723530751e+17
19089.0	7.529513230183085e+17
19090.0	7.52922881303074e+17
19091.0	7.527853043570003e+17
19092.0	7.526133246110377e+17
19093.0	7.525138819973117e+17
19094.0	7.523720780316672e+17
19095.0	7.522313922674688e+17
19096.0	7.520790194946047e+17
19097.0	7.519433228550144e+17
19098.0	7.517979017215999e+17
19099.0	7.51653755237171e+17
19100.0	7.515092026043049e+17
19101.0	7.513683931081385e+17
19102.0	7.51171719676996e+17
19103.0	7.510792547074047e+17
19104.0	7.509403049656317e+17
19105.0	7.507916537987072e+17
19106.0	7.506443483043156e+17
19107.0	7.504958098243583e+17
19108.0	7.503602216774313e+17
19109.0	7.500774168155475e+17
19110.0	7.500598804305236e+17
19111.0	7.499316844647763e+17
19112.0	7.49789801086976e+17
19113.0	7.496454852924756e+17
19114.0	7.494993672055466e+17
19115.0	7.493282225455103e+17
19116.0	7.491997890423466e+17
19117.0	7.490548257871187e+17
19118.0	7.488693612139859e+17
19119.0	7.469932326769979e+17
19120.0	7.486088555091283e+17
19121.0	7.484817864130557e+17
19122.0	7.483507588726783e+17
19123.0	7.482048583303168e+17
19124.0	7.48049656779025e+17
19125.0	7.479129632931837e+17
19126.0	7.477593910891859e+17
19127.0	7.466468164414116e+17
19128.0	7.474263573397501e+17
19129.0	7.472834399262035e+17
19130.0	7.471858637777577e+17
19131.0	7.470503413415936e+17
19132.0	7.469046921778514e+17
19133.0	7.466966359648938e+17
19134.0	7.465965665823402e+17
19135.0	7.464718187539113e+17
19136.0	7.463299556485802e+17
19137.0	7.460957293554345e+17
19138.0	7.460319088257705e+17
19139.0	7.458966292398079e+17
19140.0	7.457537737621503e+17
19141.0	7.456092510486527e+17
19142.0	7.454481427988479e+17
19143.0	7.452859273925972e+17
19144.0	7.45148372816145e+17
19145.0	7.450273628116308e+17
19146.0	7.445220344638127e+17
19147.0	7.446899439173632e+17
19148.0	7.445923874821459e+17
19149.0	7.44445427458594e+17
19150.0	7.443002361730387e+17
19151.0	7.441563574250153e+17
19152.0	7.440113624328874e+17
19153.0	7.438545864796842e+17
19154.0	7.436519866367999e+17
19155.0	7.435773723454122e+17
19156.0	7.434298883134803e+17
19157.0	7.432724100939775e+17
19158.0	7.430531444637693e+17
19159.0	7.429796669685757e+17
19160.0	7.428404480922963e+17
19161.0	7.426942577235283e+17
19162.0	7.423331570898263e+17
19163.0	7.423882578012842e+17
19164.0	7.422685076258815e+17
19165.0	7.421150113387862e+17
19166.0	7.419140766345896e+17
19167.0	7.418110660662612e+17
19168.0	7.416747997003773e+17
19169.0	7.415311115135657e+17
19170.0	7.413957690130432e+17
19171.0	7.412384655562067e+17
19172.0	7.4109996264762e+17
19173.0	7.409593628666538e+17
19174.0	7.407799238306474e+17
19175.0	7.406663260001619e+17
19176.0	7.405185567555583e+17
19177.0	7.402833614383786e+17
19178.0	7.402217553614163e+17
19179.0	7.400672583133866e+17
19180.0	7.399276271370237e+17
19181.0	7.397284060856319e+17
19182.0	7.396326681608191e+17
19183.0	7.39496832270336e+17
19184.0	7.393411350921216e+17
19185.0	7.391945205394088e+17
19186.0	7.390559556949331e+17
19187.0	7.388598248669184e+17
19188.0	7.387606322337108e+17
19189.0	7.38614216770628e+17
19190.0	7.384666001986902e+17
19191.0	7.383003719619926e+17
19192.0	7.381734875551059e+17
19193.0	7.380205635108863e+17
19194.0	7.378642164951722e+17
19195.0	7.377238703297875e+17
19196.0	7.375614896679594e+17
19197.0	7.37408075309602e+17
19198.0	7.372076230901757e+17
19199.0	7.357317776758095e+17
19200.0	7.35916361445103e+17
19201.0	7.367744363517268e+17
19202.0	7.36675006320913e+17
19203.0	7.365357552883028e+17
19204.0	7.363798339944447e+17
19205.0	7.362410471314772e+17
19206.0	7.360912766446249e+17
19207.0	7.358897945837565e+17
19208.0	7.356897339725137e+17
19209.0	7.356484920803327e+17
19210.0	7.355019689634472e+17
19211.0	7.35343181561856e+17
19212.0	7.351011658869417e+17
19213.0	7.348952170321236e+17
19214.0	7.347367619592191e+17
19215.0	7.346488704587092e+17
19216.0	7.345037288057513e+17
19217.0	7.343438104799913e+17
19218.0	7.337452222021623e+17
19219.0	7.339459961247059e+17
19220.0	7.338880334998186e+17
19221.0	7.335740897056084e+17
19222.0	7.335926841737215e+17
19223.0	7.334394377273343e+17
19224.0	7.332734355636224e+17
19225.0	7.33069790360371e+17
19226.0	7.329855470654803e+17
19227.0	7.328351587576489e+17
19228.0	7.327006983192575e+17
19229.0	7.325491686014975e+17
19230.0	7.323932031276372e+17
19231.0	7.322383835376297e+17
19232.0	7.320904356156756e+17
19233.0	7.318989740266836e+17
19234.0	7.317766047880531e+17
19235.0	7.316149997928447e+17
19236.0	7.31486375309039e+17
19237.0	7.313228567325353e+17
19238.0	7.311262690050047e+17
19239.0	7.310289893938516e+17
19240.0	7.308571379935913e+17
19241.0	7.307015641279145e+17
19242.0	7.305577899578706e+17
19243.0	7.303042105868284e+17
19244.0	7.302603974464851e+17
19245.0	7.301028654000808e+17
19246.0	7.299419590361087e+17
19247.0	7.297895620760916e+17
19248.0	7.296418592413012e+17
19249.0	7.2948545238685e+17
19250.0	7.293187964709545e+17
19251.0	7.2910694818775e+17
19252.0	7.288329327695187e+17
19253.0	7.288486370825556e+17
19254.0	7.285779648042322e+17
19255.0	7.282730137376082e+17
19256.0	7.282197978065578e+17
19257.0	7.280779398742016e+17
19258.0	7.279214769558868e+17
19259.0	7.27715558020437e+17
19260.0	7.275643825815551e+17
19261.0	7.274371738151594e+17
19262.0	7.272495368721747e+17
19263.0	7.270876659580925e+17
19264.0	7.26667869255543e+17
19265.0	7.266961967458985e+17
19266.0	7.26554466460194e+17
19267.0	7.264866100314111e+17
19268.0	7.263209238386004e+17
19269.0	7.261590765524308e+17
19270.0	7.259948066362708e+17
19271.0	7.256490986788186e+17
19272.0	7.256480994557952e+17
19273.0	7.249079397165733e+17
19274.0	7.24882054569437e+17
19275.0	7.251822372716543e+17
19276.0	7.250092332766547e+17
19277.0	7.246960511680511e+17
19278.0	7.244742776236713e+17
19279.0	7.242924791518547e+17
19280.0	7.24092110958319e+17
19281.0	7.239694254691667e+17
19282.0	7.23810944950818e+17
19283.0	7.236285005561855e+17
19284.0	7.234385403882153e+17
19285.0	7.232090174477651e+17
19286.0	7.231109655254355e+17
19287.0	7.2296610950458e+17
19288.0	7.223237821857788e+17
19289.0	7.215036861426327e+17
19290.0	7.224544852268372e+17
19291.0	7.221205094367236e+17
19292.0	7.220386540989097e+17
19293.0	7.216447338752681e+17
19294.0	7.214665820711593e+17
19295.0	7.212985200847529e+17
19296.0	7.21117678613299e+17
19297.0	7.209269444564306e+17
19298.0	7.207481720351402e+17
19299.0	7.205873078938281e+17
19300.0	7.204077698722476e+17
19301.0	7.202257513392808e+17
19302.0	7.200385819213823e+17
19303.0	7.198048897029459e+17
19304.0	7.193144398097066e+17
19305.0	7.191386017234944e+17
19306.0	7.189579494151508e+17
19307.0	7.187459959947261e+17
19308.0	7.185695191160147e+17
19309.0	7.183486442711721e+17
19310.0	7.181290078644905e+17
19311.0	7.179941807041194e+17
19312.0	7.175566896310953e+17
19313.0	7.17205058757154e+17
19314.0	7.159281393947983e+17
19315.0	7.1581025806145e+17
19316.0	7.16612439253538e+17
19317.0	7.164148437745663e+17
19318.0	7.16214256079121e+17
19319.0	7.155275558202025e+17
19320.0	7.153007913336832e+17
19321.0	7.150947081213267e+17
19322.0	7.148458383944361e+17
19323.0	7.146588995234474e+17
19324.0	7.144162540038824e+17
19325.0	7.139240198537212e+17
19326.0	7.137382081320275e+17
19327.0	7.135216861358761e+17
19328.0	7.133155669923156e+17
19329.0	7.131008292530857e+17
19330.0	7.128625040064511e+17
19331.0	7.126377920724991e+17
19332.0	7.124435595864745e+17
19333.0	7.122123413083475e+17
19334.0	7.119964459412136e+17
19335.0	7.117356745971028e+17
19336.0	7.11502217818931e+17
19337.0	7.112736198623232e+17
19338.0	7.109259397431293e+17
19339.0	7.108080651206655e+17
19340.0	7.105342451570003e+17
19341.0	7.103167474259284e+17
19342.0	7.098864873330002e+17
19343.0	7.098452754999977e+17
19344.0	7.095898909005139e+17
19345.0	7.08330395795454e+17
19346.0	7.086621943223635e+17
19347.0	7.088213116758697e+17
19348.0	7.086070944497663e+17
19349.0	7.083334791681363e+17
19350.0	7.080806470822569e+17
19351.0	7.078130871173119e+17
19352.0	7.075045922832381e+17
19353.0	7.072295183624874e+17
19354.0	7.069606545282387e+17
19355.0	7.066327652324694e+17
19356.0	7.064135795736575e+17
19357.0	7.061353284676266e+17
19358.0	7.058484486995968e+17
19359.0	7.055374785271123e+17
19360.0	7.052586711165608e+17
19361.0	7.049763544716628e+17
19362.0	7.046841732431873e+17
19363.0	7.04276868436241e+17
19364.0	7.039744863808169e+17
19365.0	7.0366448334493e+17
19366.0	7.033547334352895e+17
19367.0	7.030395937051987e+17
19368.0	7.027213142589437e+17
19369.0	7.0227010767203e+17
19370.0	7.018204322157908e+17
19371.0	7.015155209950548e+17
19372.0	7.012098348766547e+17
19373.0	7.008571913579178e+17
19374.0	7.004160856337064e+17
19375.0	6.999053653682857e+17
19376.0	6.995482361812308e+17
19377.0	6.99180406346001e+17
19378.0	6.987791057551359e+17
19379.0	6.980940153399978e+17
19380.0	6.977123448608084e+17
19381.0	6.973210071400447e+17
19382.0	6.967301015688535e+17
19383.0	6.96020723966498e+17
19384.0	6.956500294915411e+17
19385.0	6.94961237673028e+17
19386.0	6.942254387516755e+17
19387.0	6.937527883661315e+17
19388.0	6.926360420635987e+17
19389.0	6.92144925975074e+17
19390.0	6.910024669812045e+17
19391.0	6.890674814539073e+17
19392.0	6.890128398090228e+17
19393.0	6.882986944015013e+17
19394.0	6.872418099047082e+17
19395.0	6.866367311511551e+17
19396.0	6.860222819030355e+17
19397.0	6.85394704203776e+17
19398.0	6.847366609676969e+17
19399.0	6.83774245688661e+17
19400.0	6.833800190711123e+17
19401.0	6.827254633988095e+17
19402.0	6.820321636821672e+17
19403.0	6.813087070595753e+17
19404.0	6.805876096630783e+17
19405.0	6.798134671136084e+17
19406.0	6.790378003540649e+17
19407.0	6.782576659617108e+17
19408.0	6.771413962719237e+17
19409.0	6.766258986942463e+17
19410.0	6.758073905446911e+17
19411.0	6.749576063090687e+17
19412.0	6.740318596628479e+17
19413.0	6.731512240843434e+17
19414.0	6.722298429396308e+17
19415.0	6.712890209861631e+17
19416.0	6.701757549073748e+17
19417.0	6.691884565703336e+17
19418.0	6.681569320938153e+17
19419.0	6.669342803842386e+17
19420.0	6.657797521407997e+17
19421.0	6.644616323399677e+17
19422.0	6.631032716176041e+17
19423.0	6.615685561406804e+17
19424.0	6.600140326436867e+17
19425.0	6.582111355360596e+17
19426.0	6.562962029062826e+17
19427.0	6.542661018888869e+17
19428.0	6.520536329530024e+17
19429.0	6.49614184432708e+17
19430.0	6.468990421434367e+17
19431.0	6.438297023457971e+17
19432.0	6.411219367187799e+17
19433.0	6.385049275116202e+17
19434.0	6.359091147789652e+17
19435.0	6.330680027906045e+17
19436.0	6.300833527715156e+17
19437.0	6.269188655371604e+17
19438.0	6.219265243174227e+17
19439.0	6.191507626612054e+17
19440.0	6.146549214085119e+17
19441.0	6.096670052493993e+17
19442.0	6.039697934166701e+17
19443.0	5.975280188041898e+17
19444.0	5.903122885683878e+17
19445.0	5.82028581719245e+17
19446.0	5.723812808447315e+17
19447.0	5.6104361946425965e+17
19448.0	5.473110624392538e+17
19449.0	5.301228437940906e+17
19450.0	5.0727886897807264e+17
19451.0	4.954118413440344e+17
19452.0	5.196450938661544e+17
19453.0	5.391474858393606e+17
19454.0	5.5415948475105216e+17
19455.0	5.6635147335761914e+17
19456.0	5.765281255260164e+17
19457.0	5.851894893947557e+17
19458.0	5.91476487478752e+17
19459.0	5.992295059597997e+17
19460.0	6.050817391285587e+17
19461.0	6.101507281081684e+17
19462.0	6.146520260105556e+17
19463.0	6.187424437414568e+17
19464.0	6.223504655515647e+17
19465.0	6.255333378184534e+17
19466.0	6.283479725637631e+17
19467.0	6.309761897201663e+17
19468.0	6.334392574148608e+17
19469.0	6.356184779631273e+17
19470.0	6.382594111307785e+17
19471.0	6.410149400237404e+17
19472.0	6.435295836067151e+17
19473.0	6.458121497083896e+17
19474.0	6.478440748984998e+17
19475.0	6.494891172080294e+17
19476.0	6.514690124764499e+17
19477.0	6.530104972804096e+17
19478.0	6.544487205568511e+17
19479.0	6.557903609659391e+17
19480.0	6.568705158807551e+17
19481.0	6.580521359725907e+17
19482.0	6.589627739668479e+17
19483.0	6.599386952542889e+17
19484.0	6.60787608682496e+17
19485.0	6.615415681712127e+17
19486.0	6.623669809840128e+17
19487.0	6.631042239343273e+17
19488.0	6.637774766953812e+17
19489.0	6.643690005069823e+17
19490.0	6.644867049106083e+17
19491.0	6.65666719003443e+17
19492.0	6.66271582659106e+17
19493.0	6.668382083132074e+17
19494.0	6.673864782249983e+17
19495.0	6.679154786653523e+17
19496.0	6.682727501092178e+17
19497.0	6.689351218670249e+17
19498.0	6.692923879981056e+17
19499.0	6.679297063037597e+17
19500.0	6.703321610627753e+17
19501.0	6.707674465610409e+17
19502.0	6.711830983125674e+17
19503.0	6.715868306909866e+17
19504.0	6.719748876970666e+17
19505.0	6.723495715842729e+17
19506.0	6.7271469315741e+17
19507.0	6.730499059875839e+17
19508.0	6.736392804281006e+17
19509.0	6.741891992606036e+17
19510.0	6.750196637630467e+17
19511.0	6.735336362562888e+17
19512.0	6.761185985342113e+17
19513.0	6.760915393314807e+17
19514.0	6.769546234254676e+17
19515.0	6.776532292861958e+17
19516.0	6.781041581402797e+17
19517.0	6.787416095107753e+17
19518.0	6.789359799194964e+17
19519.0	6.791711260934141e+17
19520.0	6.796320761883306e+17
19521.0	6.797753988415487e+17
19522.0	6.798750952805716e+17
19523.0	6.801471342029484e+17
19524.0	6.804441316108969e+17
19525.0	6.805369748368041e+17
19526.0	6.806397049460052e+17
19527.0	6.807479194572119e+17
19528.0	6.810586133648724e+17
19529.0	6.811333410422783e+17
19530.0	6.812113330765823e+17
19531.0	6.812835539582975e+17
19532.0	6.813473473647955e+17
19533.0	6.815776842099368e+17
19534.0	6.816429393313791e+17
19535.0	6.816822448532137e+17
19536.0	6.817202758658729e+17
19537.0	6.817829037451945e+17
19538.0	6.817675147739137e+17
19539.0	6.815934265513307e+17
19540.0	6.819891248802474e+17
19541.0	6.820313259398484e+17
19542.0	6.820502231668052e+17
19543.0	6.820665750803795e+17
19544.0	6.820831484532054e+17
19545.0	6.818531019238052e+17
19546.0	6.816474087817216e+17
19547.0	6.82116360769809e+17
19548.0	6.821230218838015e+17
19549.0	6.820641895699795e+17
19550.0	6.82170950824755e+17
19551.0	6.821927749069481e+17
19552.0	6.821843639293267e+17
19553.0	6.821626945470463e+17
19554.0	6.82140529328128e+17
19555.0	6.821393712807935e+17
19556.0	6.821300694330025e+17
19557.0	6.821099387311444e+17
19558.0	6.820876672565247e+17
19559.0	6.820637741940735e+17
19560.0	6.820250182658729e+17
19561.0	6.819975710201172e+17
19562.0	6.819812864950271e+17
19563.0	6.819550558071465e+17
19564.0	6.819192493135188e+17
19565.0	6.818820257043796e+17
19566.0	6.818264396420436e+17
19567.0	6.818034328360276e+17
19568.0	6.817507702035796e+17
19569.0	6.817421555225939e+17
19570.0	6.817094296753494e+17
19571.0	6.816620589263529e+17
19572.0	6.81592447041536e+17
19573.0	6.815562383840598e+17
19574.0	6.814573699705514e+17
19575.0	6.814611584057343e+17
19576.0	6.814071201813843e+17
19577.0	6.813644307649874e+17
19578.0	6.815541450069332e+17
19579.0	6.815008538580308e+17
19580.0	6.814423090637481e+17
19581.0	6.813888156095828e+17
19582.0	6.813353682927615e+17
19583.0	6.813537240350715e+17
19584.0	6.816722138256723e+17
19585.0	6.815385639365289e+17
19586.0	6.814538180941142e+17
19587.0	6.814556508651519e+17
19588.0	6.811471191911086e+17
19589.0	6.813058089353215e+17
19590.0	6.813183704563712e+17
19591.0	6.815540326694911e+17
19592.0	6.814813240601257e+17
19593.0	6.813913238033748e+17
19594.0	6.811796230897661e+17
19595.0	6.812264304738303e+17
19596.0	6.810711625826303e+17
19597.0	6.810721581006847e+17
19598.0	6.808267144910163e+17
19599.0	6.810697955890514e+17
19600.0	6.811382116078934e+17
19601.0	6.81013489434624e+17
19602.0	6.809323302114644e+17
19603.0	6.806441067981478e+17
19604.0	6.807549857409706e+17
19605.0	6.805212484337665e+17
19606.0	6.80605503332898e+17
19607.0	6.805164470741673e+17
19608.0	6.804199522871978e+17
19609.0	6.803045149747881e+17
19610.0	6.802440981228202e+17
19611.0	6.803192898999638e+17
19612.0	6.802990329495551e+17
19613.0	6.801970643162452e+17
19614.0	6.800826885122729e+17
19615.0	6.800104419753983e+17
19616.0	6.799015040865619e+17
19617.0	6.798126066521427e+17
19618.0	6.794054064231761e+17
19619.0	6.792314663294286e+17
19620.0	6.791696392825512e+17
19621.0	6.794286592950272e+17
19622.0	6.793372844250452e+17
19623.0	6.792393263852201e+17
19624.0	6.791328098680831e+17
19625.0	6.790379338028372e+17
19626.0	6.7892849161885e+17
19627.0	6.788317275575636e+17
19628.0	6.78866045492702e+17
19629.0	6.787408504815613e+17
19630.0	6.78519467287074e+17
19631.0	6.77107421291042e+17
19632.0	6.784684757352447e+17
19633.0	6.783594629081769e+17
19634.0	6.78288065368337e+17
19635.0	6.781593279179433e+17
19636.0	6.780722686372522e+17
19637.0	6.77730697521835e+17
19638.0	6.77861362045201e+17
19639.0	6.777540595853994e+17
19640.0	6.776050194666838e+17
19641.0	6.77166847098881e+17
19642.0	6.774334864140969e+17
19643.0	6.773246145855487e+17
19644.0	6.771861202053801e+17
19645.0	6.769674856781139e+17
19646.0	6.770080190824447e+17
19647.0	6.769022716608511e+17
19648.0	6.768197327912959e+17
19649.0	6.767090477651284e+17
19650.0	6.766035940846249e+17
19651.0	6.764903356432383e+17
19652.0	6.764638442793641e+17
19653.0	6.764021599087274e+17
19654.0	6.762857887345321e+17
19655.0	6.761715500143955e+17
19656.0	6.760663191213398e+17
19657.0	6.759546082383187e+17
19658.0	6.758466014150656e+17
19659.0	6.757341345786538e+17
19660.0	6.756252649870676e+17
19661.0	6.755102600374953e+17
19662.0	6.754004766468777e+17
19663.0	6.752607897561769e+17
19664.0	6.751655337568937e+17
19665.0	6.750628693584553e+17
19666.0	6.749405294799529e+17
