# Flux units: erg / (cm m2 s)
# Wavelength units: Angstrom
wave	flux
19000.0	3.8342540939755514e+17
19001.0	3.8335637527811405e+17
19002.0	3.832919471336106e+17
19003.0	3.8322508209848314e+17
19004.0	3.831579025604606e+17
19005.0	3.830902886323542e+17
19006.0	3.830216827513514e+17
19007.0	3.829579105959935e+17
19008.0	3.828900162087593e+17
19009.0	3.828225777423701e+17
19010.0	3.8274644469350394e+17
19011.0	3.826904253595646e+17
19012.0	3.826190586478591e+17
19013.0	3.8255811638941e+17
19014.0	3.824902668812287e+17
19015.0	3.824222412122795e+17
19016.0	3.8235575429365754e+17
19017.0	3.822916484115114e+17
19018.0	3.822247287805268e+17
19019.0	3.821579541326506e+17
19020.0	3.8209146931118074e+17
19021.0	3.820252946584916e+17
19022.0	3.8195885939971405e+17
19023.0	3.8189090803985056e+17
19024.0	3.818233301827584e+17
19025.0	3.8175900507832314e+17
19026.0	3.8169180708536314e+17
19027.0	3.816245744893951e+17
19028.0	3.815597768267093e+17
19029.0	3.81493092356369e+17
19030.0	3.814265240682495e+17
19031.0	3.8136043889404576e+17
19032.0	3.812939217764351e+17
19033.0	3.812260243133781e+17
19034.0	3.811613602392746e+17
19035.0	3.810945786707967e+17
19036.0	3.808899833877843e+17
19037.0	3.809620391537322e+17
19038.0	3.8089541759795194e+17
19039.0	3.808292710470997e+17
19040.0	3.807626975860053e+17
19041.0	3.8069662268784634e+17
19042.0	3.805052993710761e+17
19043.0	3.80564678971665e+17
19044.0	3.8049855500014925e+17
19045.0	3.8043180272189434e+17
19046.0	3.8036500381696e+17
19047.0	3.802997238792192e+17
19048.0	3.8021246222336e+17
19049.0	3.7991110840156115e+17
19050.0	3.8009886628031136e+17
19051.0	3.80015481070114e+17
19052.0	3.7996758624283296e+17
19053.0	3.79903195287825e+17
19054.0	3.7983688648731296e+17
19055.0	3.7972840423970125e+17
19056.0	3.796918381576191e+17
19057.0	3.796389740587691e+17
19058.0	3.794408615619241e+17
19059.0	3.794529874345983e+17
19060.0	3.7944059487409485e+17
19061.0	3.7937459386559136e+17
19062.0	3.7930842990837754e+17
19063.0	3.7924297688569165e+17
19064.0	3.791749998007638e+17
19065.0	3.791083915968511e+17
19066.0	3.7899370408618675e+17
19067.0	3.7897858648637434e+17
19068.0	3.789136347529216e+17
19069.0	3.7884753105387514e+17
19070.0	3.787807578041002e+17
19071.0	3.7871546458439674e+17
19072.0	3.785973539624276e+17
19073.0	3.785841946831531e+17
19074.0	3.78517899514129e+17
19075.0	3.784526007020202e+17
19076.0	3.783852159227221e+17
19077.0	3.783206358046036e+17
19078.0	3.7825426157294925e+17
19079.0	3.78189162549521e+17
19080.0	3.7812376363335674e+17
19081.0	3.780567559918933e+17
19082.0	3.779916714388138e+17
19083.0	3.7792575613392205e+17
19084.0	3.7785797688033274e+17
19085.0	3.7779519905464314e+17
19086.0	3.776636645627221e+17
19087.0	3.775562995378857e+17
19088.0	3.775375961576788e+17
19089.0	3.775288085315584e+17
19090.0	3.774671997282985e+17
19091.0	3.773921335006549e+17
19092.0	3.7723936499520877e+17
19093.0	3.7727069791409485e+17
19094.0	3.772053610037248e+17
19095.0	3.7713960634067616e+17
19096.0	3.770738716005717e+17
19097.0	3.770086593309354e+17
19098.0	3.768914219630591e+17
19099.0	3.76816063672047e+17
19100.0	3.768113978583722e+17
19101.0	3.7674598412233376e+17
19102.0	3.766782247217834e+17
19103.0	3.7661589554681165e+17
19104.0	3.765510032326655e+17
19105.0	3.763732560390829e+17
19106.0	3.764187926189397e+17
19107.0	3.763279035192661e+17
19108.0	3.762489998529878e+17
19109.0	3.7621804141554336e+17
19110.0	3.7615860463261e+17
19111.0	3.760626776145919e+17
19112.0	3.75990267220241e+17
19113.0	3.7596251309124256e+17
19114.0	3.75878173397265e+17
19115.0	3.7582688062450336e+17
19116.0	3.7576609481359366e+17
19117.0	3.757017599923542e+17
19118.0	3.756352258878122e+17
19119.0	3.751136967611725e+17
19120.0	3.7550568725544954e+17
19121.0	3.7544045233657165e+17
19122.0	3.7537649549202765e+17
19123.0	3.7531138437502285e+17
19124.0	3.752457307947008e+17
19125.0	3.7518102652518394e+17
19126.0	3.7511600957030394e+17
19127.0	3.750115822359893e+17
19128.0	3.749857021919232e+17
19129.0	3.749197229238955e+17
19130.0	3.7485587135638176e+17
19131.0	3.7479087781969914e+17
19132.0	3.7472567918155085e+17
19133.0	3.746601588402859e+17
19134.0	3.745959301349376e+17
19135.0	3.7453084893730125e+17
19136.0	3.744658542122325e+17
19137.0	3.74396997022515e+17
19138.0	3.74335885873425e+17
19139.0	3.7427135405970765e+17
19140.0	3.742063417884671e+17
19141.0	3.7414134839159456e+17
19142.0	3.7407614437075616e+17
19143.0	3.7401039194466976e+17
19144.0	3.739466116803242e+17
19145.0	3.7388199395328e+17
19146.0	3.738057817019733e+17
19147.0	3.7374885926447776e+17
19148.0	3.736441021879637e+17
19149.0	3.735720761316693e+17
19150.0	3.735583142008149e+17
19151.0	3.7349354261271885e+17
19152.0	3.73428790038801e+17
19153.0	3.73273432109875e+17
19154.0	3.732874562546346e+17
19155.0	3.7323475894927354e+17
19156.0	3.731700411880789e+17
19157.0	3.730751332461227e+17
19158.0	3.729730827539798e+17
19159.0	3.72974360199168e+17
19160.0	3.729114784945493e+17
19161.0	3.7284676415870285e+17
19162.0	3.7277297271985485e+17
19163.0	3.727177737917781e+17
19164.0	3.726524825294165e+17
19165.0	3.724897915589971e+17
19166.0	3.7252062591494816e+17
19167.0	3.724576212473172e+17
19168.0	3.7239513835110394e+17
19169.0	3.7233046630782285e+17
19170.0	3.722660343185408e+17
19171.0	3.7220090838166176e+17
19172.0	3.72137209696529e+17
19173.0	3.720728199998123e+17
19174.0	3.72007057297681e+17
19175.0	3.719437416224085e+17
19176.0	3.718796226680149e+17
19177.0	3.718123915400533e+17
19178.0	3.717490323139242e+17
19179.0	3.716838771567274e+17
19180.0	3.7162207953988256e+17
19181.0	3.7155314370696525e+17
19182.0	3.7149222591528954e+17
19183.0	3.7142893498641056e+17
19184.0	3.7136434452234246e+17
19185.0	3.713002007516501e+17
19186.0	3.7123623398058656e+17
19187.0	3.7117150573363194e+17
19188.0	3.711076310974463e+17
19189.0	3.710435337437183e+17
19190.0	3.7097950175122765e+17
19191.0	3.709150984929279e+17
19192.0	3.70850977091857e+17
19193.0	3.7077682759925754e+17
19194.0	3.707070244541781e+17
19195.0	3.7065852438882976e+17
19196.0	3.705940492681215e+17
19197.0	3.705300283905365e+17
19198.0	3.7046587245636256e+17
19199.0	3.703383529619455e+17
19200.0	3.7029735699578874e+17
19201.0	3.702733309739008e+17
19202.0	3.702100622049279e+17
19203.0	3.701457223505237e+17
19204.0	3.700815173429929e+17
19205.0	3.700181310636032e+17
19206.0	3.6995373591429114e+17
19207.0	3.6988753134223354e+17
19208.0	3.698196129076566e+17
19209.0	3.6976208523209376e+17
19210.0	3.6969762667888634e+17
19211.0	3.696340798275582e+17
19212.0	3.6957033954891085e+17
19213.0	3.6950480452758176e+17
19214.0	3.6944019735620256e+17
19215.0	3.693784975365461e+17
19216.0	3.693149167812608e+17
19217.0	3.692511611234986e+17
19218.0	3.6917080210363725e+17
19219.0	3.691208587083776e+17
19220.0	3.6905920055214074e+17
19221.0	3.6898932869038074e+17
19222.0	3.68931691823104e+17
19223.0	3.6886817314351776e+17
19224.0	3.688037680676863e+17
19225.0	3.6873774357108045e+17
19226.0	3.686772013793279e+17
19227.0	3.6861338560320845e+17
19228.0	3.685497210317482e+17
19229.0	3.684853547532287e+17
19230.0	3.6842217637150714e+17
19231.0	3.6835880735866874e+17
19232.0	3.6829505428739405e+17
19233.0	3.682303035310079e+17
19234.0	3.681672137190058e+17
19235.0	3.68103756136448e+17
19236.0	3.680406713576106e+17
19237.0	3.6797641867482445e+17
19238.0	3.679108316441259e+17
19239.0	3.6784996767935136e+17
19240.0	3.677860873808554e+17
19241.0	3.677226781026986e+17
19242.0	3.6765861059843405e+17
19243.0	3.6759346683576314e+17
19244.0	3.6753233702202016e+17
19245.0	3.674687348058795e+17
19246.0	3.674052569508522e+17
19247.0	3.673421143605248e+17
19248.0	3.6727852969055565e+17
19249.0	3.6721350952004256e+17
19250.0	3.671356918289749e+17
19251.0	3.6707114225937056e+17
19252.0	3.6702071365304314e+17
19253.0	3.6696098781265914e+17
19254.0	3.6689846346274125e+17
19255.0	3.6683199583791776e+17
19256.0	3.667712739202389e+17
19257.0	3.667083381790036e+17
19258.0	3.6664495847069e+17
19259.0	3.665807608031914e+17
19260.0	3.665136727709013e+17
19261.0	3.6645536341688314e+17
19262.0	3.6639073401569274e+17
19263.0	3.6632679136187725e+17
19264.0	3.662531764333227e+17
19265.0	3.6619698485329914e+17
19266.0	3.6612673578379936e+17
19267.0	3.6607544454894925e+17
19268.0	3.66012047364369e+17
19269.0	3.659492942850731e+17
19270.0	3.658861591046825e+17
19271.0	3.658149650584917e+17
19272.0	3.65759099375889e+17
19273.0	3.6569210389790714e+17
19274.0	3.656266907910144e+17
19275.0	3.6557076638815565e+17
19276.0	3.655071836056234e+17
19277.0	3.6544459990630394e+17
19278.0	3.653804964708351e+17
19279.0	3.6531850193141754e+17
19280.0	3.65254158651665e+17
19281.0	3.6519240703235405e+17
19282.0	3.6512953385615354e+17
19283.0	3.6506589619814394e+17
19284.0	3.6500319051448314e+17
19285.0	3.6493761907261434e+17
19286.0	3.648768795388586e+17
19287.0	3.648143578453333e+17
19288.0	3.6471866025574394e+17
19289.0	3.6459179381445946e+17
19290.0	3.6462617990703776e+17
19291.0	3.645590764257279e+17
19292.0	3.645003440761514e+17
19293.0	3.6443729788491085e+17
19294.0	3.6437447336263674e+17
19295.0	3.6431171077625165e+17
19296.0	3.64198770962159e+17
19297.0	3.641770304165204e+17
19298.0	3.6412329956474874e+17
19299.0	3.640032045476523e+17
19300.0	3.639964436092245e+17
19301.0	3.639352721320618e+17
19302.0	3.6387238923905696e+17
19303.0	3.6380817863912096e+17
19304.0	3.63746590527761e+17
19305.0	3.636841439821823e+17
19306.0	3.6362198810187085e+17
19307.0	3.635578043454806e+17
19308.0	3.6349596366711456e+17
19309.0	3.634311645364223e+17
19310.0	3.633680011842901e+17
19311.0	3.633075953074176e+17
19312.0	3.63245563089169e+17
19313.0	3.631828367835136e+17
19314.0	3.62343468542634e+17
19315.0	3.623260574274914e+17
19316.0	3.629291970843989e+17
19317.0	3.629329079249578e+17
19318.0	3.6287059224166394e+17
19319.0	3.628082307705514e+17
19320.0	3.6272482347035296e+17
19321.0	3.62638267715857e+17
19322.0	3.6261969477850445e+17
19323.0	3.625577051324415e+17
19324.0	3.62496067178769e+17
19325.0	3.6243162547268256e+17
19326.0	3.6237129998663674e+17
19327.0	3.6230786777961805e+17
19328.0	3.621443577315328e+17
19329.0	3.6218401927987194e+17
19330.0	3.621210552270848e+17
19331.0	3.6205875939682976e+17
19332.0	3.6199713192891725e+17
19333.0	3.6193484973015034e+17
19334.0	3.618690308942507e+17
19335.0	3.616031485110956e+17
19336.0	3.617458431371946e+17
19337.0	3.616856089471658e+17
19338.0	3.616192607201963e+17
19339.0	3.615607495502506e+17
19340.0	3.614865552485034e+17
19341.0	3.613624450940929e+17
19342.0	3.613448354485589e+17
19343.0	3.613122515085995e+17
19344.0	3.6117558612459526e+17
19345.0	3.611036031997268e+17
19346.0	3.611079368245247e+17
19347.0	3.6097031919370234e+17
19348.0	3.610014956650495e+17
19349.0	3.609389398578517e+17
19350.0	3.608455793344512e+17
19351.0	3.608135938517674e+17
19352.0	3.606521921404926e+17
19353.0	3.6069046488487245e+17
19354.0	3.606289075317418e+17
19355.0	3.6056527029316256e+17
19356.0	3.60504601153809e+17
19357.0	3.604428068924074e+17
19358.0	3.6038071770152954e+17
19359.0	3.6029482870155936e+17
19360.0	3.6017973706970445e+17
19361.0	3.6019388592510285e+17
19362.0	3.601327207393963e+17
19363.0	3.6007074815016954e+17
19364.0	3.600088717503146e+17
19365.0	3.599468050688682e+17
19366.0	3.5988439906822816e+17
19367.0	3.59822916653329e+17
19368.0	3.597611388895231e+17
19369.0	3.5969861118416205e+17
19370.0	3.596372990580053e+17
19371.0	3.5957449718497274e+17
19372.0	3.5951351983418016e+17
19373.0	3.5945164588100256e+17
19374.0	3.593896953118719e+17
19375.0	3.5932817759491405e+17
19376.0	3.592663485207893e+17
19377.0	3.5920459347613e+17
19378.0	3.5914281976681805e+17
19379.0	3.590810221499732e+17
19380.0	3.5901858539110394e+17
19381.0	3.589564135025322e+17
19382.0	3.5889436136133965e+17
19383.0	3.5883182834319354e+17
19384.0	3.58770557391121e+17
19385.0	3.5871037576970234e+17
19386.0	3.586486519726079e+17
19387.0	3.585868646318079e+17
19388.0	3.585248506587818e+17
19389.0	3.584634280127146e+17
19390.0	3.584016660474538e+17
19391.0	3.5820966199514426e+17
19392.0	3.5827779748495354e+17
19393.0	3.5821657057307296e+17
19394.0	3.5815495701626874e+17
19395.0	3.5806323996098554e+17
19396.0	3.580238759985152e+17
19397.0	3.579697296310271e+17
19398.0	3.5788380805529594e+17
19399.0	3.577927589429247e+17
19400.0	3.57764676190208e+17
19401.0	3.5772318431750816e+17
19402.0	3.5766182130046285e+17
19403.0	3.5760000089456634e+17
19404.0	3.575379901371733e+17
19405.0	3.574759154166442e+17
19406.0	3.5741500873987405e+17
19407.0	3.5731556402899616e+17
19408.0	3.572725704556544e+17
19409.0	3.5722951928053754e+17
19410.0	3.5716812019247776e+17
19411.0	3.5710623393600845e+17
19412.0	3.57043865124864e+17
19413.0	3.569436672567978e+17
19414.0	3.569200953382229e+17
19415.0	3.568586482253823e+17
19416.0	3.5679365643632634e+17
19417.0	3.5673422881095674e+17
19418.0	3.5667293010657274e+17
19419.0	3.566107418602153e+17
19420.0	3.5654870754481485e+17
19421.0	3.5648627498024954e+17
19422.0	3.564230239671637e+17
19423.0	3.5636135546497696e+17
19424.0	3.5629876841021434e+17
19425.0	3.5623572270830925e+17
19426.0	3.561725104925354e+17
19427.0	3.5610933434777594e+17
19428.0	3.560455909234005e+17
19429.0	3.55982054068497e+17
19430.0	3.5591667947929594e+17
19431.0	3.558298388616534e+17
19432.0	3.557874419280554e+17
19433.0	3.5572140624663885e+17
19434.0	3.5565447004815354e+17
19435.0	3.555840162966186e+17
19436.0	3.5550481826010445e+17
19437.0	3.5544532737064954e+17
19438.0	3.550698701236906e+17
19439.0	3.5529090728809805e+17
19440.0	3.552109157591722e+17
19441.0	3.5512220720824314e+17
19442.0	3.5502280318211405e+17
19443.0	3.549077757930154e+17
19444.0	3.5476765660938234e+17
19445.0	3.5458353910688416e+17
19446.0	3.543164911266474e+17
19447.0	3.538685912591018e+17
19448.0	3.52936091783441e+17
19449.0	3.4983948554949965e+17
19450.0	3.269629605576693e+17
19451.0	3.0290682548934e+17
19452.0	3.363200379650058e+17
19453.0	3.509273325382317e+17
19454.0	3.528810664995497e+17
19455.0	3.5351116686295034e+17
19456.0	3.537741481858389e+17
19457.0	3.5389088097894394e+17
19458.0	3.508499971571767e+17
19459.0	3.538992899293189e+17
19460.0	3.539399727906815e+17
19461.0	3.5391569238425594e+17
19462.0	3.538808649809919e+17
19463.0	3.538405229068287e+17
19464.0	3.5379489146579616e+17
19465.0	3.537469577712981e+17
19466.0	3.536961288186538e+17
19467.0	3.536440988969642e+17
19468.0	3.535905374251689e+17
19469.0	3.534555164879529e+17
19470.0	3.534798054927018e+17
19471.0	3.534234434841258e+17
19472.0	3.5336470470328314e+17
19473.0	3.5330722498259616e+17
19474.0	3.531748937127252e+17
19475.0	3.5317049262953805e+17
19476.0	3.5313341316464634e+17
19477.0	3.530748810930858e+17
19478.0	3.5301746351800314e+17
19479.0	3.5288544682093203e+17
19480.0	3.5289880595879245e+17
19481.0	3.528360934244351e+17
19482.0	3.527801867774634e+17
19483.0	3.5272140095051085e+17
19484.0	3.52661373190144e+17
19485.0	3.5260089370323616e+17
19486.0	3.524646422271319e+17
19487.0	3.5248278615709e+17
19488.0	3.524235959992319e+17
19489.0	3.523629613230763e+17
19490.0	3.522668640862206e+17
19491.0	3.5224339730486605e+17
19492.0	3.5218441546410656e+17
19493.0	3.521245235292842e+17
19494.0	3.5206451226651296e+17
19495.0	3.520046643718826e+17
19496.0	3.5193272996113056e+17
19497.0	3.518846103890602e+17
19498.0	3.51819297001745e+17
19499.0	3.515485697780392e+17
19500.0	3.517053122816683e+17
19501.0	3.5164961098082976e+17
19502.0	3.51591633326353e+17
19503.0	3.5153174380325536e+17
19504.0	3.5147160555793056e+17
19505.0	3.514103371224405e+17
19506.0	3.5135138750791674e+17
19507.0	3.5129074423343776e+17
19508.0	3.512312060532053e+17
19509.0	3.511707837835946e+17
19510.0	3.5109890550661114e+17
19511.0	3.49896640840771e+17
19512.0	3.509622098537129e+17
19513.0	3.5086097088948896e+17
19514.0	3.5082390428712954e+17
19515.0	3.507992281481216e+17
19516.0	3.507429670125567e+17
19517.0	3.506875419415893e+17
19518.0	3.5061199997501434e+17
19519.0	3.5055153328073376e+17
19520.0	3.504458101861033e+17
19521.0	3.5045106903941114e+17
19522.0	3.5038298964841805e+17
19523.0	3.503154946288299e+17
19524.0	3.5022177363995315e+17
19525.0	3.502108058495658e+17
19526.0	3.501518020236629e+17
19527.0	3.5009167398447776e+17
19528.0	3.500282458669055e+17
19529.0	3.49966025429265e+17
19530.0	3.4991282012378445e+17
19531.0	3.4985284667965434e+17
19532.0	3.4979301273108474e+17
19533.0	3.4973283355634336e+17
19534.0	3.4967375580583245e+17
19535.0	3.49614120177937e+17
19536.0	3.4955373303562234e+17
19537.0	3.4949425752528205e+17
19538.0	3.493708251703979e+17
19539.0	3.493613869028693e+17
19540.0	3.4931506015109114e+17
19541.0	3.49244226605329e+17
19542.0	3.49191146115345e+17
19543.0	3.490706574977706e+17
19544.0	3.4907321721159674e+17
19545.0	3.490077269295103e+17
19546.0	3.4893576085176314e+17
19547.0	3.488983642625365e+17
19548.0	3.4883878550241274e+17
19549.0	3.487775124531882e+17
19550.0	3.487192477685077e+17
19551.0	3.4866010650924365e+17
19552.0	3.486002560980309e+17
19553.0	3.4854085496668154e+17
19554.0	3.4848003318961485e+17
19555.0	3.4841524989242016e+17
19556.0	3.4835776573276154e+17
19557.0	3.4830272192402765e+17
19558.0	3.482435602524842e+17
19559.0	3.4818425024238925e+17
19560.0	3.481020358721535e+17
19561.0	3.4806509639215776e+17
19562.0	3.479838596093269e+17
19563.0	3.4794680031204685e+17
19564.0	3.478864480523605e+17
19565.0	3.4782782070019405e+17
19566.0	3.4776771527529805e+17
19567.0	3.477092842165589e+17
19568.0	3.4765008689343136e+17
19569.0	3.4759053892648954e+17
19570.0	3.4753112433841485e+17
19571.0	3.4747176158494714e+17
19572.0	3.47412326584593e+17
19573.0	3.4734667289941325e+17
19574.0	3.4729054122803194e+17
19575.0	3.4723515030568954e+17
19576.0	3.471727900229632e+17
19577.0	3.4710777236903245e+17
19578.0	3.4705655100429645e+17
19579.0	3.4699800848192845e+17
19580.0	3.4693861710233594e+17
19581.0	3.46878944284945e+17
19582.0	3.4682076516406605e+17
19583.0	3.4676178912542714e+17
19584.0	3.4670227111280634e+17
19585.0	3.466415007858687e+17
19586.0	3.465821079382698e+17
19587.0	3.4652495984721914e+17
19588.0	3.4645544873055565e+17
19589.0	3.4640700542812154e+17
19590.0	3.463442342783658e+17
19591.0	3.4628901581182285e+17
19592.0	3.462299221928618e+17
19593.0	3.461655955155626e+17
19594.0	3.461029767588521e+17
19595.0	3.460524905507498e+17
19596.0	3.4599354817140045e+17
19597.0	3.4593498506199034e+17
19598.0	3.4585653228339194e+17
19599.0	3.458173170789034e+17
19600.0	3.4575813604365645e+17
19601.0	3.456981099260586e+17
19602.0	3.4563950099387725e+17
19603.0	3.4557133114572794e+17
19604.0	3.4552212378091514e+17
19605.0	3.4545803002729805e+17
19606.0	3.454046631013034e+17
19607.0	3.4534618751303674e+17
19608.0	3.452866659702101e+17
19609.0	3.452274415938218e+17
19610.0	3.451363507481258e+17
19611.0	3.4506249831710714e+17
19612.0	3.4505225596654925e+17
19613.0	3.4499294805360634e+17
19614.0	3.4493408540098554e+17
19615.0	3.4487598401454074e+17
19616.0	3.447831127217493e+17
19617.0	3.447091442133675e+17
19618.0	3.4468450585804794e+17
19619.0	3.4461694194701645e+17
19620.0	3.445478695545513e+17
19621.0	3.4445471168593914e+17
19622.0	3.444650622495402e+17
19623.0	3.444039298143573e+17
19624.0	3.443405767049216e+17
19625.0	3.442891128744618e+17
19626.0	3.4423030544684365e+17
19627.0	3.4417204778762234e+17
19628.0	3.441109270964906e+17
19629.0	3.438838452409684e+17
19630.0	3.439951498706944e+17
19631.0	3.4387237790897485e+17
19632.0	3.4387891805224954e+17
19633.0	3.438199084591786e+17
19634.0	3.4376197460022605e+17
19635.0	3.436938996132521e+17
19636.0	3.435647334350846e+17
19637.0	3.4350441326182394e+17
19638.0	3.435211219009535e+17
19639.0	3.4346922756014074e+17
19640.0	3.4340949679144954e+17
19641.0	3.4329979595871584e+17
19642.0	3.4329014521473696e+17
19643.0	3.4323166018928634e+17
19644.0	3.431764803802453e+17
19645.0	3.431128774650538e+17
19646.0	3.4297464652212883e+17
19647.0	3.43000203464977e+17
19648.0	3.429442625645226e+17
19649.0	3.4288568980821325e+17
19650.0	3.428274969160362e+17
19651.0	3.427693126221823e+17
19652.0	3.42710987329809e+17
19653.0	3.42652466827537e+17
19654.0	3.425945334229674e+17
19655.0	3.4253588800034125e+17
