# Flux units: erg / (cm m2 s)
# Wavelength units: Angstrom
wave	flux
19000.0	6.671921927509331e+17
19001.0	6.670603438959273e+17
19002.0	6.669446307381245e+17
19003.0	6.668206141166931e+17
19004.0	6.666966318885546e+17
19005.0	6.665729671692287e+17
19006.0	6.664490382087508e+17
19007.0	6.663239746890409e+17
19008.0	6.661961773918889e+17
19009.0	6.660706114644649e+17
19010.0	6.659146855568723e+17
19011.0	6.658263428191572e+17
19012.0	6.656938525152595e+17
19013.0	6.655799936592554e+17
19014.0	6.654514241208319e+17
19015.0	6.653289963017555e+17
19016.0	6.652038527407444e+17
19017.0	6.650839631746388e+17
19018.0	6.6495889028765e+17
19019.0	6.648351915944617e+17
19020.0	6.647095805782698e+17
19021.0	6.645871452793513e+17
19022.0	6.644640597934079e+17
19023.0	6.643365454719658e+17
19024.0	6.642166266156372e+17
19025.0	6.641007313551359e+17
19026.0	6.639742962281129e+17
19027.0	6.638470524392788e+17
19028.0	6.637280673748308e+17
19029.0	6.636035205933738e+17
19030.0	6.634806081224701e+17
19031.0	6.633563697621674e+17
19032.0	6.632321086128127e+17
19033.0	6.631004933805395e+17
19034.0	6.629823932443306e+17
19035.0	6.628556434746026e+17
19036.0	6.623377436093097e+17
19037.0	6.626093359082153e+17
19038.0	6.624844797968383e+17
19039.0	6.623622742758739e+17
19040.0	6.622380289250644e+17
19041.0	6.621137328930815e+17
19042.0	6.619815637330601e+17
19043.0	6.618652516985514e+17
19044.0	6.617399809802237e+17
19045.0	6.616166914413908e+17
19046.0	6.614882867391146e+17
19047.0	6.613670063418026e+17
19048.0	6.612267274250921e+17
19049.0	6.611131630791337e+17
19050.0	6.609917948111529e+17
19051.0	6.608030800718504e+17
19052.0	6.607364659959124e+17
19053.0	6.606225153545555e+17
19054.0	6.604982727300436e+17
19055.0	6.603533059096576e+17
19056.0	6.602480268520106e+17
19057.0	6.60124858458658e+17
19058.0	6.599999705404756e+17
19059.0	6.598770064097279e+17
19060.0	6.597509380745897e+17
19061.0	6.59628643914001e+17
19062.0	6.595040157630463e+17
19063.0	6.593799519556947e+17
19064.0	6.592466118159017e+17
19065.0	6.591174259245055e+17
19066.0	6.590026499839316e+17
19067.0	6.588832043149994e+17
19068.0	6.587590768940372e+17
19069.0	6.586349547159551e+17
19070.0	6.585087840397993e+17
19071.0	6.58386627662097e+17
19072.0	6.582624552921769e+17
19073.0	6.581378632821417e+17
19074.0	6.580141390036991e+17
19075.0	6.578899862771028e+17
19076.0	6.577641340185257e+17
19077.0	6.576406003711999e+17
19078.0	6.575153894217044e+17
19079.0	6.573933066540372e+17
19080.0	6.572679881206442e+17
19081.0	6.571417395003391e+17
19082.0	6.570174469636095e+17
19083.0	6.568882412890793e+17
19084.0	6.567541419103572e+17
19085.0	6.566488023149225e+17
19086.0	6.564946029226666e+17
19087.0	6.563889028967082e+17
19088.0	6.562703013314559e+17
19089.0	6.561318928646143e+17
19090.0	6.560259439067135e+17
19091.0	6.559022671637162e+17
19092.0	6.557741586492074e+17
19093.0	6.556564415228586e+17
19094.0	6.555322483911338e+17
19095.0	6.554082005221375e+17
19096.0	6.552831472784723e+17
19097.0	6.551603449080489e+17
19098.0	6.550363894535507e+17
19099.0	6.549123889102847e+17
19100.0	6.547881148983978e+17
19101.0	6.546645359525887e+17
19102.0	6.545325755290964e+17
19103.0	6.544168712492372e+17
19104.0	6.542929487200255e+17
19105.0	6.541685574773417e+17
19106.0	6.540429354161492e+17
19107.0	6.539199596811603e+17
19108.0	6.53797142700578e+17
19109.0	6.536399097779539e+17
19110.0	6.535482678706175e+17
19111.0	6.534256940198569e+17
19112.0	6.53301903331601e+17
19113.0	6.53178074824704e+17
19114.0	6.530540909188436e+17
19115.0	6.529261305331711e+17
19116.0	6.528047466064553e+17
19117.0	6.526810648302931e+17
19118.0	6.525508836305578e+17
19119.0	6.520789924140369e+17
19120.0	6.523067327053823e+17
19121.0	6.521849405330772e+17
19122.0	6.520638921506813e+17
19123.0	6.519400881105578e+17
19124.0	6.518142355024554e+17
19125.0	6.516923340685311e+17
19126.0	6.515682186712404e+17
19127.0	6.513038688867668e+17
19128.0	6.51313694113792e+17
19129.0	6.511909734623914e+17
19130.0	6.510724614455295e+17
19131.0	6.509500835386708e+17
19132.0	6.508262890056361e+17
19133.0	6.506929448812541e+17
19134.0	6.505755161133055e+17
19135.0	6.504551001620479e+17
19136.0	6.503320002756607e+17
19137.0	6.501952830220969e+17
19138.0	6.500833985647956e+17
19139.0	6.499610139470506e+17
19140.0	6.498375048364031e+17
19141.0	6.497138761880916e+17
19142.0	6.495882294504106e+17
19143.0	6.494622472383146e+17
19144.0	6.493400195574442e+17
19145.0	6.49219428913425e+17
19146.0	6.490484205682687e+17
19147.0	6.489643475621203e+17
19148.0	6.488484669816831e+17
19149.0	6.487249385772372e+17
19150.0	6.486007799786153e+17
19151.0	6.48477928395025e+17
19152.0	6.483539809097043e+17
19153.0	6.482290905448445e+17
19154.0	6.480969326395391e+17
19155.0	6.479836162468522e+17
19156.0	6.478598042375508e+17
19157.0	6.477354691286356e+17
19158.0	6.475903591426729e+17
19159.0	6.474875212398591e+17
19160.0	6.473652623114239e+17
19161.0	6.47241226396194e+17
19162.0	6.470662921824938e+17
19163.0	6.469933872797012e+17
19164.0	6.468716922055337e+17
19165.0	6.467470984478719e+17
19166.0	6.466143584430761e+17
19167.0	6.464962484502527e+17
19168.0	6.463760528397652e+17
19169.0	6.462521389787817e+17
19170.0	6.461304715870207e+17
19171.0	6.460039509661011e+17
19172.0	6.458834342816425e+17
19173.0	6.457599617313449e+17
19174.0	6.456319270365866e+17
19175.0	6.455130714363222e+17
19176.0	6.453895519098198e+17
19177.0	6.452537403462996e+17
19178.0	6.451409597060436e+17
19179.0	6.450146072068096e+17
19180.0	6.448945707002538e+17
19181.0	6.4476232038045e+17
19182.0	6.446466082712234e+17
19183.0	6.445245868802047e+17
19184.0	6.443997130129407e+17
19185.0	6.44277002637585e+17
19186.0	6.441537220466004e+17
19187.0	6.440244238876672e+17
19188.0	6.439063964527273e+17
19189.0	6.437828933539156e+17
19190.0	6.436589884407808e+17
19191.0	6.435329349954217e+17
19192.0	6.434122397734228e+17
19193.0	6.43288265794082e+17
19194.0	6.431637505398099e+17
19195.0	6.430410342225236e+17
19196.0	6.429162787744425e+17
19197.0	6.427922299966804e+17
19198.0	6.426667413143551e+17
19199.0	6.422325411621544e+17
19200.0	6.422051722799788e+17
19201.0	6.422960561367721e+17
19202.0	6.421744943016617e+17
19203.0	6.420504431471273e+17
19204.0	6.419255606815401e+17
19205.0	6.418029569813161e+17
19206.0	6.416790488525482e+17
19207.0	6.415482935225002e+17
19208.0	6.414152208394921e+17
19209.0	6.413076677001213e+17
19210.0	6.411848697337172e+17
19211.0	6.410609332933972e+17
19212.0	6.409369853187412e+17
19213.0	6.408044446831958e+17
19214.0	6.406780082279764e+17
19215.0	6.405637474877439e+17
19216.0	6.404407875513001e+17
19217.0	6.403167297557844e+17
19218.0	6.401269939830781e+17
19219.0	6.400560717277865e+17
19220.0	6.399425338059434e+17
19221.0	6.397944658569897e+17
19222.0	6.396955169827497e+17
19223.0	6.395700400444756e+17
19224.0	6.394436823023615e+17
19225.0	6.393116628789929e+17
19226.0	6.391970098315263e+17
19227.0	6.390724239032319e+17
19228.0	6.389502318739455e+17
19229.0	6.388257146623316e+17
19230.0	6.387009005638996e+17
19231.0	6.385755676300627e+17
19232.0	6.384512819440298e+17
19233.0	6.383216989219498e+17
19234.0	6.382008041908906e+17
19235.0	6.380761957531648e+17
19236.0	6.379531860443133e+17
19237.0	6.378270777933823e+17
19238.0	6.376958675910655e+17
19239.0	6.375786863569578e+17
19240.0	6.374509314921811e+17
19241.0	6.373259906558633e+17
19242.0	6.372021439037439e+17
19243.0	6.370649429071187e+17
19244.0	6.369532629221376e+17
19245.0	6.368279799005183e+17
19246.0	6.367013637193727e+17
19247.0	6.365771549289129e+17
19248.0	6.364517583115603e+17
19249.0	6.363259913371647e+17
19250.0	6.361989116854271e+17
19251.0	6.360652445297321e+17
19252.0	6.359263433020756e+17
19253.0	6.358212789927935e+17
19254.0	6.356969227725482e+17
19255.0	6.355563784262995e+17
19256.0	6.354423320150015e+17
19257.0	6.35319090291234e+17
19258.0	6.351927596722857e+17
19259.0	6.350606198024873e+17
19260.0	6.349312382468095e+17
19261.0	6.348122961040723e+17
19262.0	6.346819541226836e+17
19263.0	6.345550425227263e+17
19264.0	6.343441135610534e+17
19265.0	6.341111242380628e+17
19266.0	6.339835585363967e+17
19267.0	6.338722593942185e+17
19268.0	6.337447343773012e+17
19269.0	6.336170671035732e+17
19270.0	6.3348904834717e+17
19271.0	6.333344674829654e+17
19272.0	6.332302876824916e+17
19273.0	6.330126083380563e+17
19274.0	6.329118243160063e+17
19275.0	6.328481642883754e+17
19276.0	6.327180127982931e+17
19277.0	6.325896177429161e+17
19278.0	6.324609834724009e+17
19279.0	6.323315235531433e+17
19280.0	6.321964652167167e+17
19281.0	6.320725277977257e+17
19282.0	6.31944327078434e+17
19283.0	6.318099570971988e+17
19284.0	6.316804124530003e+17
19285.0	6.315390457435475e+17
19286.0	6.314209226784767e+17
19287.0	6.31293231637026e+17
19288.0	6.310476942846633e+17
19289.0	6.307590923354107e+17
19290.0	6.309002801577983e+17
19291.0	6.307482200702976e+17
19292.0	6.30637395513617e+17
19293.0	6.305048840983892e+17
19294.0	6.303724609732607e+17
19295.0	6.30241005474065e+17
19296.0	6.301083216030378e+17
19297.0	6.299744389999274e+17
19298.0	6.298399826160298e+17
19299.0	6.297087865345363e+17
19300.0	6.295748683497472e+17
19301.0	6.294403561816061e+17
19302.0	6.293052586284372e+17
19303.0	6.291656704436905e+17
19304.0	6.288889587171327e+17
19305.0	6.286675154042879e+17
19306.0	6.285318328156159e+17
19307.0	6.283916122696361e+17
19308.0	6.282561956697427e+17
19309.0	6.281094578044927e+17
19310.0	6.279673696747519e+17
19311.0	6.278413297909759e+17
19312.0	6.277053877846015e+17
19313.0	6.27567058030865e+17
19314.0	6.270526694271658e+17
19315.0	6.26937984363179e+17
19316.0	6.271462822379519e+17
19317.0	6.270058742065833e+17
19318.0	6.26858812121634e+17
19319.0	6.267171325870079e+17
19320.0	6.265745866489855e+17
19321.0	6.264316764356608e+17
19322.0	6.26281327694097e+17
19323.0	6.26139258229009e+17
19324.0	6.257750139644588e+17
19325.0	6.255501139159722e+17
19326.0	6.254123396278953e+17
19327.0	6.252633613052585e+17
19328.0	6.251158681856682e+17
19329.0	6.249664965771263e+17
19330.0	6.248131575764308e+17
19331.0	6.246616777708886e+17
19332.0	6.245132275810303e+17
19333.0	6.243609018542762e+17
19334.0	6.242072722582185e+17
19335.0	6.240527709459795e+17
19336.0	6.237840899833852e+17
19337.0	6.23379000398097e+17
19338.0	6.232032787737257e+17
19339.0	6.23058967662865e+17
19340.0	6.228905620930559e+17
19341.0	6.227325485405524e+17
19342.0	6.225411999181482e+17
19343.0	6.224050999263231e+17
19344.0	6.222383931894441e+17
19345.0	6.216625547466068e+17
19346.0	6.213974167126015e+17
19347.0	6.212841613470377e+17
19348.0	6.211145393591635e+17
19349.0	6.209357575006889e+17
19350.0	6.207572382056447e+17
19351.0	6.205771473048915e+17
19352.0	6.199111886482094e+17
19353.0	6.196893497425919e+17
19354.0	6.194986352989524e+17
19355.0	6.192981853164886e+17
19356.0	6.191103879413759e+17
19357.0	6.186990217898666e+17
19358.0	6.184059448677716e+17
19359.0	6.18195467702545e+17
19360.0	6.179891823247359e+17
19361.0	6.177784537808895e+17
19362.0	6.175676443568809e+17
19363.0	6.173508200912211e+17
19364.0	6.171309336341162e+17
19365.0	6.169080655162026e+17
19366.0	6.166819306646186e+17
19367.0	6.164525772439551e+17
19368.0	6.162206276190207e+17
19369.0	6.159809306951679e+17
19370.0	6.157372751172948e+17
19371.0	6.154999579716265e+17
19372.0	6.152574432444413e+17
19373.0	6.150055015393962e+17
19374.0	6.147522862339412e+17
19375.0	6.144931175333887e+17
19376.0	6.142300000354304e+17
19377.0	6.139618221796009e+17
19378.0	6.136894489711956e+17
19379.0	6.134119831786836e+17
19380.0	6.131294659761492e+17
19381.0	6.128417528698196e+17
19382.0	6.1254277267456e+17
19383.0	6.122414205304832e+17
19384.0	6.119453708255232e+17
19385.0	6.116372160795988e+17
19386.0	6.113249318316714e+17
19387.0	6.110060834979839e+17
19388.0	6.106807956493652e+17
19389.0	6.103489867765076e+17
19390.0	6.100103028102484e+17
19391.0	6.093201618938533e+17
19392.0	6.093076242104317e+17
19393.0	6.089536611636563e+17
19394.0	6.085864639692799e+17
19395.0	6.082122978689023e+17
19396.0	6.078303272173567e+17
19397.0	6.074413487226879e+17
19398.0	6.070412993626111e+17
19399.0	6.065775553019903e+17
19400.0	6.061975059912022e+17
19401.0	6.057573827827027e+17
19402.0	6.053266082583892e+17
19403.0	6.04889030852608e+17
19404.0	6.044492642997588e+17
19405.0	6.040023810615977e+17
19406.0	6.035534821807444e+17
19407.0	6.030998126985215e+17
19408.0	6.025860258376362e+17
19409.0	6.021702829998079e+17
19410.0	6.016560705568767e+17
19411.0	6.011206074630143e+17
19412.0	6.006117214366377e+17
19413.0	6.000933231482196e+17
19414.0	5.995617696350205e+17
19415.0	5.989495002365952e+17
19416.0	5.983512606452393e+17
19417.0	5.977918145910099e+17
19418.0	5.971014917117268e+17
19419.0	5.964491834174122e+17
19420.0	5.956964588716032e+17
19421.0	5.949514627503444e+17
19422.0	5.939773923393535e+17
19423.0	5.930050030054056e+17
19424.0	5.918515078889472e+17
19425.0	5.904612875829249e+17
19426.0	5.88675743009996e+17
19427.0	5.864259946807287e+17
19428.0	5.835727009655461e+17
19429.0	5.818521415406931e+17
19430.0	5.80370465624337e+17
19431.0	5.787755369289046e+17
19432.0	5.772564966146047e+17
19433.0	5.755926598385663e+17
19434.0	5.7381764632412154e+17
19435.0	5.718911660064766e+17
19436.0	5.699072964253013e+17
19437.0	5.677818718104235e+17
19438.0	5.648644514512899e+17
19439.0	5.624436923301894e+17
19440.0	5.5861368712069165e+17
19441.0	5.530994327158786e+17
19442.0	5.467033590999721e+17
19443.0	5.4200320567978643e+17
19444.0	5.367954139687591e+17
19445.0	5.3067426838173024e+17
19446.0	5.224444348508842e+17
19447.0	5.104028809691134e+17
19448.0	4.96286009096056e+17
19449.0	4.756747445775017e+17
19450.0	4.3637794612620026e+17
19451.0	4.2181235488849517e+17
19452.0	4.5825477141244704e+17
19453.0	4.874337005163868e+17
19454.0	5.032075186929651e+17
19455.0	5.1640107696565056e+17
19456.0	5.261446503290199e+17
19457.0	5.328659872568658e+17
19458.0	5.375205986446005e+17
19459.0	5.4290992542515226e+17
19460.0	5.4797001702768646e+17
19461.0	5.5429674845252224e+17
19462.0	5.5857939253384544e+17
19463.0	5.616357281715537e+17
19464.0	5.640523923936595e+17
19465.0	5.6607945086293344e+17
19466.0	5.679251251178151e+17
19467.0	5.69642668139042e+17
19468.0	5.7126874303692794e+17
19469.0	5.727591884040872e+17
19470.0	5.74157248143906e+17
19471.0	5.7551258470318086e+17
19472.0	5.767935561826301e+17
19473.0	5.780333869225299e+17
19474.0	5.802052536674984e+17
19475.0	5.826207884334426e+17
19476.0	5.843109055299581e+17
19477.0	5.856670570425007e+17
19478.0	5.86742821220079e+17
19479.0	5.875965801179817e+17
19480.0	5.882807337353215e+17
19481.0	5.888542334342484e+17
19482.0	5.894763585383081e+17
19483.0	5.898750971084799e+17
19484.0	5.90378996806451e+17
19485.0	5.907516990248275e+17
19486.0	5.910881079306921e+17
19487.0	5.914970338361344e+17
19488.0	5.918271077351423e+17
19489.0	5.921185200078848e+17
19490.0	5.923121235580243e+17
19491.0	5.926892650277545e+17
19492.0	5.930203830288383e+17
19493.0	5.932743556857855e+17
19494.0	5.935093574358356e+17
19495.0	5.937384447978153e+17
19496.0	5.939345647905448e+17
19497.0	5.941800434925567e+17
19498.0	5.943602936370516e+17
19499.0	5.940530526901586e+17
19500.0	5.948114261245951e+17
19501.0	5.950109219728041e+17
19502.0	5.95226941071906e+17
19503.0	5.954165863874559e+17
19504.0	5.955912517462698e+17
19505.0	5.957548743415126e+17
19506.0	5.959103140593663e+17
19507.0	5.960561511279273e+17
19508.0	5.961975627164329e+17
19509.0	5.963295150309376e+17
19510.0	5.964392465519956e+17
19511.0	5.958827553849339e+17
19512.0	5.965978304599379e+17
19513.0	5.966097977879206e+17
19514.0	5.967683496793427e+17
19515.0	5.969371207128404e+17
19516.0	5.970574571820372e+17
19517.0	5.971325722034176e+17
19518.0	5.972125432501588e+17
19519.0	5.972820367157929e+17
19520.0	5.97344097665024e+17
19521.0	5.974050577492649e+17
19522.0	5.974560727192915e+17
19523.0	5.975067179614207e+17
19524.0	5.975500138741759e+17
19525.0	5.975874543288319e+17
19526.0	5.976223161253887e+17
19527.0	5.976514935914495e+17
19528.0	5.976761091227645e+17
19529.0	5.97697457291264e+17
19530.0	5.977147619409919e+17
19531.0	5.977277349232639e+17
19532.0	5.977368110475945e+17
19533.0	5.977421956950698e+17
19534.0	5.977438543325865e+17
19535.0	5.977424272206505e+17
19536.0	5.977363946930176e+17
19537.0	5.977324534453588e+17
19538.0	5.977146943427924e+17
19539.0	5.97667101994735e+17
19540.0	5.976907360589139e+17
19541.0	5.976737652757844e+17
19542.0	5.976518351476052e+17
19543.0	5.976277252396374e+17
19544.0	5.976009314664447e+17
19545.0	5.975545713349974e+17
19546.0	5.977520248367785e+17
19547.0	5.977838720472403e+17
19548.0	5.977446877407914e+17
19549.0	5.976961025310719e+17
19550.0	5.97660464648465e+17
19551.0	5.978332295681364e+17
19552.0	5.980435207159808e+17
19553.0	5.979886077695316e+17
19554.0	5.979327813735764e+17
19555.0	5.978784638784852e+17
19556.0	5.978220971163647e+17
19557.0	5.977630072023721e+17
19558.0	5.97829081820911e+17
19559.0	5.98039538573858e+17
19560.0	5.979715639356074e+17
19561.0	5.979043616784383e+17
19562.0	5.978384715393706e+17
19563.0	5.977691534655487e+17
19564.0	5.976988212090196e+17
19565.0	5.976274543575039e+17
19566.0	5.975526627868672e+17
19567.0	5.974817234747391e+17
19568.0	5.976201626998095e+17
19569.0	5.976576925630463e+17
19570.0	5.975803398105769e+17
19571.0	5.975011810607103e+17
19572.0	5.974195120198995e+17
19573.0	5.973398715542185e+17
19574.0	5.972531759196841e+17
19575.0	5.971787426824191e+17
19576.0	5.970963595613526e+17
19577.0	5.970124189554004e+17
19578.0	5.969262882237097e+17
19579.0	5.968429198606336e+17
19580.0	5.967581222185642e+17
19581.0	5.966735610653354e+17
19582.0	5.966558168525484e+17
19583.0	5.967640208080895e+17
19584.0	5.966753227429204e+17
19585.0	5.965781408590506e+17
19586.0	5.964865046839295e+17
19587.0	5.964059593670655e+17
19588.0	5.962810938884095e+17
19589.0	5.962257879356756e+17
19590.0	5.961292000351572e+17
19591.0	5.960448769086804e+17
19592.0	5.959529156050944e+17
19593.0	5.958592102399999e+17
19594.0	5.957495327555583e+17
19595.0	5.956724552892415e+17
19596.0	5.955626073762473e+17
19597.0	5.954869319259476e+17
19598.0	5.9536574527133e+17
19599.0	5.952997167202303e+17
19600.0	5.952058100984489e+17
19601.0	5.951054405435391e+17
19602.0	5.950116750600873e+17
19603.0	5.948838920934739e+17
19604.0	5.948200464678911e+17
19605.0	5.947045845488979e+17
19606.0	5.946318160308905e+17
19607.0	5.945355377399124e+17
19608.0	5.946339146508969e+17
19609.0	5.945398394879997e+17
19610.0	5.944462980502868e+17
19611.0	5.943476868874239e+17
19612.0	5.942499212962473e+17
19613.0	5.941505670425257e+17
19614.0	5.940494131527679e+17
19615.0	5.939537215051092e+17
19616.0	5.938514993261225e+17
19617.0	5.937548561306964e+17
19618.0	5.936106277175293e+17
19619.0	5.934999170362025e+17
19620.0	5.934031567497897e+17
19621.0	5.933563497851562e+17
19622.0	5.932562868338687e+17
19623.0	5.931559867645951e+17
19624.0	5.930547234734079e+17
19625.0	5.929548640157695e+17
19626.0	5.928540716750163e+17
19627.0	5.92753027256593e+17
19628.0	5.926488517203284e+17
19629.0	5.925545059549183e+17
19630.0	5.924401967704746e+17
19631.0	5.920186678902781e+17
19632.0	5.922564849969834e+17
19633.0	5.92152542454306e+17
19634.0	5.920539880543574e+17
19635.0	5.919490362223273e+17
19636.0	5.918501264949248e+17
19637.0	5.917184300329642e+17
19638.0	5.916449851834367e+17
19639.0	5.915420787037524e+17
19640.0	5.91433150042385e+17
19641.0	5.912716057247744e+17
19642.0	5.912347379324243e+17
19643.0	5.911317119849812e+17
19644.0	5.910248044189012e+17
19645.0	5.909049209345363e+17
19646.0	5.908239641564499e+17
19647.0	5.907208855704916e+17
19648.0	5.906176964646227e+17
19649.0	5.90514207396113e+17
19650.0	5.904110817640447e+17
19651.0	5.903076591752531e+17
19652.0	5.902041661221546e+17
19653.0	5.901004430114815e+17
19654.0	5.899969684133203e+17
19655.0	5.898928979443712e+17
19656.0	5.897889495296681e+17
19657.0	5.896856891905364e+17
19658.0	5.895818062069759e+17
19659.0	5.894777333612543e+17
19660.0	5.893738656169983e+17
19661.0	5.892698117155498e+17
19662.0	5.891656909149524e+17
19663.0	5.890580276051968e+17
19664.0	5.889560863047679e+17
