# Flux units: erg / (cm m2 s)
# Wavelength units: Angstrom
wave	flux
19000.0	6.112186934667946e+17
19001.0	6.110942483972095e+17
19002.0	6.1099047124992e+17
19003.0	6.108749171261439e+17
19004.0	6.107599989986644e+17
19005.0	6.106470254204244e+17
19006.0	6.105337695655252e+17
19007.0	6.104059273893204e+17
19008.0	6.102984051479892e+17
19009.0	6.101826350175572e+17
19010.0	6.100260996775933e+17
19011.0	6.099559150605652e+17
19012.0	6.097544304831144e+17
19013.0	6.097335301963776e+17
19014.0	6.096139340218365e+17
19015.0	6.09501494378496e+17
19016.0	6.093857460584447e+17
19017.0	6.092773967003647e+17
19018.0	6.091576390451199e+17
19019.0	6.09048546316561e+17
19020.0	6.089328569963859e+17
19021.0	6.088208314007551e+17
19022.0	6.087064406370986e+17
19023.0	6.085889288219305e+17
19024.0	6.08476343636241e+17
19025.0	6.083566310697642e+17
19026.0	6.082391307190272e+17
19027.0	6.080558544541011e+17
19028.0	6.080224910726484e+17
19029.0	6.079065998666409e+17
19030.0	6.077955314810879e+17
19031.0	6.076818796139859e+17
19032.0	6.075673010853204e+17
19033.0	6.074441544324436e+17
19034.0	6.073373450130771e+17
19035.0	6.072129996281171e+17
19036.0	6.016477875754314e+17
19037.0	6.069903003309395e+17
19038.0	6.068808134077097e+17
19039.0	6.067702554689535e+17
19040.0	6.066566764429312e+17
19041.0	6.065420456252756e+17
19042.0	6.064054402198186e+17
19043.0	6.063156384235519e+17
19044.0	6.062002431939924e+17
19045.0	6.060850501298857e+17
19046.0	6.059688164589567e+17
19047.0	6.058588743139327e+17
19048.0	6.057207930028031e+17
19049.0	6.055970848724307e+17
19050.0	6.055125763577172e+17
19051.0	6.045806416450888e+17
19052.0	6.051562530362708e+17
19053.0	6.051741703340031e+17
19054.0	6.050644239231657e+17
19055.0	6.04920700923631e+17
19056.0	6.048328100522666e+17
19057.0	6.047226780450815e+17
19058.0	6.045908259045375e+17
19059.0	6.04490575258146e+17
19060.0	6.043797960698537e+17
19061.0	6.042696307179519e+17
19062.0	6.041555672498175e+17
19063.0	6.040422675644415e+17
19064.0	6.039154290152788e+17
19065.0	6.037976262552234e+17
19066.0	6.036908226379773e+17
19067.0	6.035878108812628e+17
19068.0	6.034750619779071e+17
19069.0	6.033618015791786e+17
19070.0	6.032458279550976e+17
19071.0	6.031318321550676e+17
19072.0	6.030153457773225e+17
19073.0	6.029077743927295e+17
19074.0	6.027949971079167e+17
19075.0	6.026816712081407e+17
19076.0	6.025661627323734e+17
19077.0	6.024535274946559e+17
19078.0	6.023381045127849e+17
19079.0	6.022283325865983e+17
19080.0	6.021136156459007e+17
19081.0	6.019976152481791e+17
19082.0	6.018841094826666e+17
19083.0	6.01765116518946e+17
19084.0	6.016392880979967e+17
19085.0	6.015479990015316e+17
19086.0	6.013848198141268e+17
19087.0	6.011614372648279e+17
19088.0	6.011853158569299e+17
19089.0	6.009987948085245e+17
19090.0	6.009778290207401e+17
19091.0	6.00865093259537e+17
19092.0	6.00705595482658e+17
19093.0	6.006439854211072e+17
19094.0	6.005314790883327e+17
19095.0	6.004185585680383e+17
19096.0	6.003037392863231e+17
19097.0	6.00192515641617e+17
19098.0	6.000735026850473e+17
19099.0	5.99959550365969e+17
19100.0	5.998449342283776e+17
19101.0	5.997378626650111e+17
19102.0	5.996163981377536e+17
19103.0	5.995151744827391e+17
19104.0	5.994026513727487e+17
19105.0	5.992756830797823e+17
19106.0	5.991483805706922e+17
19107.0	5.990581719968426e+17
19108.0	5.989445092944553e+17
19109.0	5.984219777990648e+17
19110.0	5.987125824585727e+17
19111.0	5.986068763508733e+17
19112.0	5.984955463106559e+17
19113.0	5.983876621008895e+17
19114.0	5.982724194041855e+17
19115.0	5.98145303052288e+17
19116.0	5.980478660848297e+17
19117.0	5.97934899077666e+17
19118.0	5.977911075012608e+17
19119.0	5.971154564371788e+17
19120.0	5.975524722256553e+17
19121.0	5.974540254096041e+17
19122.0	5.973749035696127e+17
19123.0	5.972624319796564e+17
19124.0	5.97123558154786e+17
19125.0	5.970344667338067e+17
19126.0	5.969238971209044e+17
19127.0	5.966260955949737e+17
19128.0	5.966134273987924e+17
19129.0	5.965795735633919e+17
19130.0	5.964735701494441e+17
19131.0	5.963601867177983e+17
19132.0	5.962504007406931e+17
19133.0	5.961167418337961e+17
19134.0	5.959865193900714e+17
19135.0	5.959116609202857e+17
19136.0	5.958016657872212e+17
19137.0	5.956722192897364e+17
19138.0	5.955732714640724e+17
19139.0	5.954647794297514e+17
19140.0	5.9535284240384e+17
19141.0	5.952406700774739e+17
19142.0	5.951243906187263e+17
19143.0	5.95010404815121e+17
19144.0	5.949004358964563e+17
19145.0	5.94791485284898e+17
19146.0	5.946161658243754e+17
19147.0	5.945573299453951e+17
19148.0	5.944482358187348e+17
19149.0	5.943355310953812e+17
19150.0	5.94230707888674e+17
19151.0	5.941194809584298e+17
19152.0	5.940017091663188e+17
19153.0	5.938838677487615e+17
19154.0	5.937686786692436e+17
19155.0	5.936695733474644e+17
19156.0	5.935583288710484e+17
19157.0	5.934343244130986e+17
19158.0	5.93052529153365e+17
19159.0	5.930281454272511e+17
19160.0	5.929093247096148e+17
19161.0	5.927953225482239e+17
19162.0	5.92093126503083e+17
19163.0	5.925620513680042e+17
19164.0	5.924686054206121e+17
19165.0	5.923333380680361e+17
19166.0	5.922167996809215e+17
19167.0	5.920732835304788e+17
19168.0	5.920197951793834e+17
19169.0	5.918980610282836e+17
19170.0	5.917987852080467e+17
19171.0	5.916477271397716e+17
19172.0	5.915717548725588e+17
19173.0	5.914622172681556e+17
19174.0	5.913474560775508e+17
19175.0	5.91241703203362e+17
19176.0	5.91130365193967e+17
19177.0	5.910026796750166e+17
19178.0	5.908903203525972e+17
19179.0	5.907389648382636e+17
19180.0	5.906778933952512e+17
19181.0	5.905587982303231e+17
19182.0	5.90457494184482e+17
19183.0	5.903487897086633e+17
19184.0	5.902355232980992e+17
19185.0	5.901258731465386e+17
19186.0	5.900147361142099e+17
19187.0	5.898948978584233e+17
19188.0	5.897898961141759e+17
19189.0	5.896766198469972e+17
19190.0	5.895624397772116e+17
19191.0	5.894465457050964e+17
19192.0	5.893454399100244e+17
19193.0	5.892303914095958e+17
19194.0	5.891175877006676e+17
19195.0	5.890092599432531e+17
19196.0	5.888946842806954e+17
19197.0	5.887796119426388e+17
19198.0	5.886488067702781e+17
19199.0	5.84871146684415e+17
19200.0	5.85896758660302e+17
19201.0	5.883181565739008e+17
19202.0	5.882244585488383e+17
19203.0	5.881067120623615e+17
19204.0	5.880031679086591e+17
19205.0	5.878961027765588e+17
19206.0	5.877850075474602e+17
19207.0	5.876640647217151e+17
19208.0	5.875407233133225e+17
19209.0	5.874519552731818e+17
19210.0	5.873411493112489e+17
19211.0	5.872307781588307e+17
19212.0	5.87119259025408e+17
19213.0	5.869668485737129e+17
19214.0	5.868390714092202e+17
19215.0	5.867701624198484e+17
19216.0	5.866741072658432e+17
19217.0	5.865627033359699e+17
19218.0	5.863644296380413e+17
19219.0	5.863249290111657e+17
19220.0	5.862249937764351e+17
19221.0	5.860834157439658e+17
19222.0	5.860059801539924e+17
19223.0	5.8589350199296e+17
19224.0	5.8577972611427e+17
19225.0	5.856575282828627e+17
19226.0	5.855596339964586e+17
19227.0	5.854481947645268e+17
19228.0	5.853395724271615e+17
19229.0	5.852282032401066e+17
19230.0	5.851135857743188e+17
19231.0	5.850020796432383e+17
19232.0	5.848928131306835e+17
19233.0	5.847749337546751e+17
19234.0	5.846691484445353e+17
19235.0	5.845572892229632e+17
19236.0	5.844489513992191e+17
19237.0	5.843359402819581e+17
19238.0	5.842108432777215e+17
19239.0	5.841150178317652e+17
19240.0	5.840011015137961e+17
19241.0	5.838893193975124e+17
19242.0	5.837791706830164e+17
19243.0	5.836529890317651e+17
19244.0	5.835581924485801e+17
19245.0	5.834461530816511e+17
19246.0	5.833333738394966e+17
19247.0	5.832237560539818e+17
19248.0	5.831112234369023e+17
19249.0	5.829983007495508e+17
19250.0	5.82884871250466e+17
19251.0	5.827632648159231e+17
19252.0	5.826380433107625e+17
19253.0	5.825519673846441e+17
19254.0	5.824421962274132e+17
19255.0	5.823127160356863e+17
19256.0	5.822138606245203e+17
19257.0	5.821078275708244e+17
19258.0	5.819962563581268e+17
19259.0	5.818772460579498e+17
19260.0	5.816643482899794e+17
19261.0	5.816595041484799e+17
19262.0	5.815428792188927e+17
19263.0	5.814305972813823e+17
19264.0	5.812677276336127e+17
19265.0	5.811922623878484e+17
19266.0	5.81076771807778e+17
19267.0	5.809894992467284e+17
19268.0	5.808767084003327e+17
19269.0	5.807649311074986e+17
19270.0	5.806529403245908e+17
19271.0	5.804506332441258e+17
19272.0	5.801924022501376e+17
19273.0	5.799883148973395e+17
19274.0	5.798985849634813e+17
19275.0	5.798590725925546e+17
19276.0	5.797446029759828e+17
19277.0	5.796326316965887e+17
19278.0	5.795199008986452e+17
19279.0	5.79402376220945e+17
19280.0	5.792867684799828e+17
19281.0	5.791813548550825e+17
19282.0	5.790694444630015e+17
19283.0	5.789010047795199e+17
19284.0	5.788135085222569e+17
19285.0	5.78711977075234e+17
19286.0	5.78613969822242e+17
19287.0	5.785029901462186e+17
19288.0	5.768846774370286e+17
19289.0	5.747244521925231e+17
19290.0	5.781625005320874e+17
19291.0	5.780249399437993e+17
19292.0	5.77937831240226e+17
19293.0	5.778234743805268e+17
19294.0	5.77709389521442e+17
19295.0	5.775965885388115e+17
19296.0	5.774754272597331e+17
19297.0	5.773628370408787e+17
19298.0	5.772512972854612e+17
19299.0	5.771321021562879e+17
19300.0	5.770242587011754e+17
19301.0	5.768847587366227e+17
19302.0	5.767444515083603e+17
19303.0	5.766216504661332e+17
19304.0	5.765120528831828e+17
19305.0	5.7639823478183245e+17
19306.0	5.7628093519844685e+17
19307.0	5.7594921314768237e+17
19308.0	5.757640758001663e+17
19309.0	5.7551584899017363e+17
19310.0	5.7535694561607654e+17
19311.0	5.7540258998954643e+17
19312.0	5.753040560018773e+17
19313.0	5.751870978348372e+17
19314.0	5.690234800264563e+17
19315.0	5.6932672862509075e+17
19316.0	5.748136110718975e+17
19317.0	5.7471816549007354e+17
19318.0	5.746006016655358e+17
19319.0	5.7448456100249594e+17
19320.0	5.7436311940410016e+17
19321.0	5.742417008743764e+17
19322.0	5.7411263969361914e+17
19323.0	5.7394968944530765e+17
19324.0	5.738841544239785e+17
19325.0	5.736389678552406e+17
19326.0	5.733416965592409e+17
19327.0	5.731900978451796e+17
19328.0	5.730593163706367e+17
19329.0	5.729500757229566e+17
19330.0	5.728242747047934e+17
19331.0	5.727015742559573e+17
19332.0	5.725819439677439e+17
19333.0	5.7245751581518496e+17
19334.0	5.723366058448211e+17
19335.0	5.7218987846533114e+17
19336.0	5.720864558066345e+17
19337.0	5.719641440299689e+17
19338.0	5.7167362318663654e+17
19339.0	5.7151292527957325e+17
19340.0	5.7137494316373325e+17
19341.0	5.712485275402239e+17
19342.0	5.710845078842024e+17
19343.0	5.710044706373631e+17
19344.0	5.7086724866921805e+17
19345.0	5.705342890191526e+17
19346.0	5.7052734800527334e+17
19347.0	5.704677363897685e+17
19348.0	5.7035515407018656e+17
19349.0	5.7021758397480954e+17
19350.0	5.700813159312041e+17
19351.0	5.6995243825124685e+17
19352.0	5.698021422880084e+17
19353.0	5.6968689588633594e+17
19354.0	5.6955116198734496e+17
19355.0	5.694043114351274e+17
19356.0	5.69276057587985e+17
19357.0	5.691374465362602e+17
19358.0	5.689951705716053e+17
19359.0	5.688472775950335e+17
19360.0	5.687015256009385e+17
19361.0	5.68567294730786e+17
19362.0	5.683736631487145e+17
19363.0	5.682005024964607e+17
19364.0	5.680534165738836e+17
19365.0	5.6790523789530445e+17
19366.0	5.6775558848402765e+17
19367.0	5.6760381025375565e+17
19368.0	5.6745226921137485e+17
19369.0	5.672900901557588e+17
19370.0	5.6713058049501856e+17
19371.0	5.669801629668692e+17
19372.0	5.6682662571540474e+17
19373.0	5.666629753678506e+17
19374.0	5.665029192592041e+17
19375.0	5.663382406081194e+17
19376.0	5.661728903091541e+17
19377.0	5.6600340177005216e+17
19378.0	5.6583347828162554e+17
19379.0	5.65546538954479e+17
19380.0	5.653612989164202e+17
19381.0	5.651823488663551e+17
19382.0	5.6499445390376954e+17
19383.0	5.648069800493056e+17
19384.0	5.646316694667263e+17
19385.0	5.6444280352276474e+17
19386.0	5.6425116947797325e+17
19387.0	5.640266986465961e+17
19388.0	5.636824675035817e+17
19389.0	5.6347767816410445e+17
19390.0	5.632666095321087e+17
19391.0	5.582573161938873e+17
19392.0	5.627677980142243e+17
19393.0	5.62488184598255e+17
19394.0	5.6216395133747174e+17
19395.0	5.619212096285354e+17
19396.0	5.6168763813614925e+17
19397.0	5.6128176316743635e+17
19398.0	5.609023621562367e+17
19399.0	5.605734060392447e+17
19400.0	5.60181338369775e+17
19401.0	5.597408113197055e+17
19402.0	5.594214445001381e+17
19403.0	5.5870660626350074e+17
19404.0	5.583427557042851e+17
19405.0	5.575266322961749e+17
19406.0	5.5691614582647405e+17
19407.0	5.561681442766847e+17
19408.0	5.549882556634451e+17
19409.0	5.54322066529758e+17
19410.0	5.5372242317475834e+17
19411.0	5.5323099915441485e+17
19412.0	5.527191876709034e+17
19413.0	5.521827988941483e+17
19414.0	5.5162796021295776e+17
19415.0	5.510504292286464e+17
19416.0	5.504111687150249e+17
19417.0	5.497613698028883e+17
19418.0	5.4918077208330234e+17
19419.0	5.485066480954026e+17
19420.0	5.478122314356052e+17
19421.0	5.470885144166399e+17
19422.0	5.463129830632106e+17
19423.0	5.455302226171219e+17
19424.0	5.447061439425194e+17
19425.0	5.438557999770281e+17
19426.0	5.4299446211160723e+17
19427.0	5.4212342247150925e+17
19428.0	5.412572981362687e+17
19429.0	5.4034806851938976e+17
19430.0	5.393091069826391e+17
19431.0	5.3761696047213357e+17
19432.0	5.37402590573363e+17
19433.0	5.3635720147544723e+17
19434.0	5.351787889076905e+17
19435.0	5.337106419985063e+17
19436.0	5.31821630936405e+17
19437.0	5.298869624984922e+17
19438.0	5.1938252526278195e+17
19439.0	5.2104894901562003e+17
19440.0	5.1822012836522656e+17
19441.0	5.153447299689128e+17
19442.0	5.121258454078805e+17
19443.0	5.0866962286946976e+17
19444.0	5.0477422818099194e+17
19445.0	4.99349779137604e+17
19446.0	4.894456641748996e+17
19447.0	4.7986098719511866e+17
19448.0	4.690759782847833e+17
19449.0	4.4886002614927296e+17
19450.0	4.042783206320843e+17
19451.0	3.857310204734099e+17
19452.0	4.304764645583541e+17
19453.0	4.60726009401617e+17
19454.0	4.7468165859027565e+17
19455.0	4.8368501817780954e+17
19456.0	4.944066899520187e+17
19457.0	5.014111279994191e+17
19458.0	4.923255205571438e+17
19459.0	5.085858197667881e+17
19460.0	5.121914299919017e+17
19461.0	5.150363862695934e+17
19462.0	5.176770294011221e+17
19463.0	5.2151843941253216e+17
19464.0	5.2594858933616755e+17
19465.0	5.2855346456166406e+17
19466.0	5.3022977582694406e+17
19467.0	5.3150398483005434e+17
19468.0	5.325310654414847e+17
19469.0	5.334074554755753e+17
19470.0	5.343013920309249e+17
19471.0	5.3508468137874765e+17
19472.0	5.358228925142355e+17
19473.0	5.3657345524585805e+17
19474.0	5.372386877986132e+17
19475.0	5.378312833946963e+17
19476.0	5.385643226737321e+17
19477.0	5.392202203135999e+17
19478.0	5.3985667323002874e+17
19479.0	5.404423544460628e+17
19480.0	5.410169478097578e+17
19481.0	5.4155818310478496e+17
19482.0	5.420616177243477e+17
19483.0	5.4254020130242554e+17
19484.0	5.429875989020671e+17
19485.0	5.434064300059305e+17
19486.0	5.438034930914645e+17
19487.0	5.4419590525310285e+17
19488.0	5.445540522579283e+17
19489.0	5.448781010392405e+17
19490.0	5.450597798335827e+17
19491.0	5.4548635306338976e+17
19492.0	5.4576217461882874e+17
19493.0	5.463299148393131e+17
19494.0	5.469823124723024e+17
19495.0	5.4754862620999725e+17
19496.0	5.4822048331639443e+17
19497.0	5.485810754606419e+17
19498.0	5.4850051343646765e+17
19499.0	5.420455283741999e+17
19500.0	5.4963547539155616e+17
19501.0	5.4971185779179514e+17
19502.0	5.500788723242324e+17
19503.0	5.5018299592103245e+17
19504.0	5.5022819457979725e+17
19505.0	5.5047900759763584e+17
19506.0	5.505815818185386e+17
19507.0	5.5060377052555936e+17
19508.0	5.506259993580884e+17
19509.0	5.5078012143534074e+17
19510.0	5.5084211017263776e+17
19511.0	5.397185564770248e+17
19512.0	5.496765010673644e+17
19513.0	5.487642466582493e+17
19514.0	5.493007744761835e+17
19515.0	5.508865484739926e+17
19516.0	5.5099711591983776e+17
19517.0	5.509749271429119e+17
19518.0	5.509578967307604e+17
19519.0	5.5092964445825696e+17
19520.0	5.508968564654079e+17
19521.0	5.5087946513339725e+17
19522.0	5.508429341436585e+17
19523.0	5.508101098700799e+17
19524.0	5.508288832252585e+17
19525.0	5.5085100153787725e+17
19526.0	5.5081027778205e+17
19527.0	5.507658241015807e+17
19528.0	5.5071858393524896e+17
19529.0	5.50670569640209e+17
19530.0	5.506232858531155e+17
19531.0	5.505720499830783e+17
19532.0	5.5051917889372154e+17
19533.0	5.5046472480413e+17
19534.0	5.504084363356841e+17
19535.0	5.503501289390079e+17
19536.0	5.502882465972223e+17
19537.0	5.502321712693247e+17
19538.0	5.5015155381043194e+17
19539.0	5.5004995301758304e+17
19540.0	5.500409179974313e+17
19541.0	5.4997607517607245e+17
19542.0	5.4991054686562976e+17
19543.0	5.498815572344831e+17
19544.0	5.498502733889535e+17
19545.0	5.4973199758131174e+17
19546.0	5.496172676382719e+17
19547.0	5.496397211456852e+17
19548.0	5.4956720114018976e+17
19549.0	5.494844069773311e+17
19550.0	5.49419870130449e+17
19551.0	5.493452212360533e+17
19552.0	5.492694539304958e+17
19553.0	5.491906622521343e+17
19554.0	5.4911193048241485e+17
19555.0	5.4903556576815776e+17
19556.0	5.489591484852905e+17
19557.0	5.4888036687325856e+17
19558.0	5.488008697129641e+17
19559.0	5.4872065225086285e+17
19560.0	5.486338560229375e+17
19561.0	5.485556721691305e+17
19562.0	5.484733776876885e+17
19563.0	5.483943150572885e+17
19564.0	5.4831141484844365e+17
19565.0	5.482280319451136e+17
19566.0	5.4814099929825274e+17
19567.0	5.48095132906291e+17
19568.0	5.48153492312337e+17
19569.0	5.480683684932266e+17
19570.0	5.4798475818871456e+17
19571.0	5.478980703835477e+17
19572.0	5.478088769710762e+17
19573.0	5.4772140657868794e+17
19574.0	5.476279181290154e+17
19575.0	5.4754985653917e+17
19576.0	5.474608335552511e+17
19577.0	5.473690078674943e+17
19578.0	5.472806938607615e+17
19579.0	5.4719328393625594e+17
19580.0	5.471042445246462e+17
19581.0	5.470158918604115e+17
19582.0	5.4705968955173523e+17
19583.0	5.471404338883241e+17
19584.0	5.470473584377855e+17
19585.0	5.4694756119565645e+17
19586.0	5.468520826186411e+17
19587.0	5.4675295751372794e+17
19588.0	5.466358426195285e+17
19589.0	5.465905031020543e+17
19590.0	5.4648866260473165e+17
19591.0	5.464082094926505e+17
19592.0	5.463169883439103e+17
19593.0	5.462217345116842e+17
19594.0	5.4610553306699085e+17
19595.0	5.460354680575317e+17
19596.0	5.457684427964416e+17
19597.0	5.458481434503849e+17
19598.0	5.457172247521961e+17
19599.0	5.4566639838603936e+17
19600.0	5.455746666506921e+17
19601.0	5.454791607407956e+17
19602.0	5.4538715092309325e+17
19603.0	5.451946774582611e+17
19604.0	5.451928739774462e+17
19605.0	5.450796316841301e+17
19606.0	5.4501544911612576e+17
19607.0	5.449950196400128e+17
19608.0	5.4507300803925325e+17
19609.0	5.449745634601641e+17
19610.0	5.4488069864161274e+17
19611.0	5.4478337974381216e+17
19612.0	5.4469519583040845e+17
19613.0	5.445989994681685e+17
19614.0	5.4450070406649165e+17
19615.0	5.444082555245909e+17
19616.0	5.442654930206719e+17
19617.0	5.442114910071466e+17
19618.0	5.4406213296018746e+17
19619.0	5.4395118054714003e+17
19620.0	5.438579858385577e+17
19621.0	5.438269813336745e+17
19622.0	5.437401270845438e+17
19623.0	5.4364366354513914e+17
19624.0	5.4354565545328634e+17
19625.0	5.434519197493931e+17
19626.0	5.4335573205538125e+17
19627.0	5.4325840330096634e+17
19628.0	5.430687114286422e+17
19629.0	5.4303137939674445e+17
19630.0	5.427377116370262e+17
19631.0	5.388121645165227e+17
19632.0	5.427672812006058e+17
19633.0	5.426697487428266e+17
19634.0	5.4258492775246496e+17
19635.0	5.424837449220094e+17
19636.0	5.4238212168963405e+17
19637.0	5.4225167932456954e+17
19638.0	5.4219789010206714e+17
19639.0	5.4210148821893114e+17
19640.0	5.419962700485973e+17
19641.0	5.418075720166061e+17
19642.0	5.418118339887104e+17
19643.0	5.417137429195434e+17
19644.0	5.416135937753087e+17
19645.0	5.414941751596372e+17
19646.0	5.414161486621354e+17
19647.0	5.413293876663636e+17
19648.0	5.412330003234816e+17
19649.0	5.411358431860053e+17
19650.0	5.410392254360234e+17
19651.0	5.409416857780223e+17
19652.0	5.4084509675902285e+17
19653.0	5.4074619010744314e+17
19654.0	5.4065056759589536e+17
19655.0	5.405532012325545e+17
19656.0	5.4045667820393805e+17
19657.0	5.4036037810257914e+17
19658.0	5.4026284802157216e+17
19659.0	5.4016608458943136e+17
19660.0	5.400691963767466e+17
