# Flux units: erg / (cm m2 s)
# Wavelength units: Angstrom
wave	flux
19000.0	7.202651685694121e+17
19001.0	7.201280844540586e+17
19002.0	7.200033651468969e+17
19003.0	7.198721786423977e+17
19004.0	7.197409580242259e+17
19005.0	7.196099148251135e+17
19006.0	7.194786048682666e+17
19007.0	7.193461616104786e+17
19008.0	7.192119991074815e+17
19009.0	7.190796636433064e+17
19010.0	7.189238203635025e+17
19011.0	7.188189409531219e+17
19012.0	7.186807415723348e+17
19013.0	7.185574634280276e+17
19014.0	7.184211035291647e+17
19015.0	7.182907947526825e+17
19016.0	7.181580770476032e+17
19017.0	7.18028692136482e+17
19018.0	7.1789613968698e+17
19019.0	7.177642802763092e+17
19020.0	7.176307523715071e+17
19021.0	7.175004419173033e+17
19022.0	7.173685106442239e+17
19023.0	7.172333484987732e+17
19024.0	7.171018488195752e+17
19025.0	7.169706409241258e+17
19026.0	7.168365421745491e+17
19027.0	7.167013344509951e+17
19028.0	7.165733567288659e+17
19029.0	7.164396205069651e+17
19030.0	7.1630793488029e+17
19031.0	7.161751499265363e+17
19032.0	7.160423051340457e+17
19033.0	7.159037544103935e+17
19034.0	7.157755240513535e+17
19035.0	7.156404919293267e+17
19036.0	7.152062490651305e+17
19037.0	7.153768982380543e+17
19038.0	7.152427522326527e+17
19039.0	7.151112750628863e+17
19040.0	7.149781361098752e+17
19041.0	7.148449243157844e+17
19042.0	7.147065971485353e+17
19043.0	7.1457846605469e+17
19044.0	7.144450139269802e+17
19045.0	7.143117950025727e+17
19046.0	7.141753219973119e+17
19047.0	7.140441978481321e+17
19048.0	7.138988994680148e+17
19049.0	7.137740646776832e+17
19050.0	7.13641826661171e+17
19051.0	7.134594973302783e+17
19052.0	7.133793761973586e+17
19053.0	7.132665147468458e+17
19054.0	7.131328503873533e+17
19055.0	7.129831278553769e+17
19056.0	7.128640187094355e+17
19057.0	7.127310440333311e+17
19058.0	7.125970818782547e+17
19059.0	7.124639166409385e+17
19060.0	7.123286542516223e+17
19061.0	7.123538620186623e+17
19062.0	7.124161092648957e+17
19063.0	7.122820869914624e+17
19064.0	7.121409564912298e+17
19065.0	7.120026332386642e+17
19066.0	7.118758304808959e+17
19067.0	7.117455054864381e+17
19068.0	7.116113134835028e+17
19069.0	7.11477122319428e+17
19070.0	7.113413218009087e+17
19071.0	7.112085838233599e+17
19072.0	7.110743031807999e+17
19073.0	7.109396664418304e+17
19074.0	7.108056533958655e+17
19075.0	7.106713043861501e+17
19076.0	7.105356210285225e+17
19077.0	7.104017710011731e+17
19078.0	7.102664999436287e+17
19079.0	7.101337246367744e+17
19080.0	7.099989085214035e+17
19081.0	7.098622485899945e+17
19082.0	7.097275134246911e+17
19083.0	7.095886215643135e+17
19084.0	7.094462178131965e+17
19085.0	7.093267883622399e+17
19086.0	7.091680863846399e+17
19087.0	7.090490331627519e+17
19088.0	7.086779774883158e+17
19089.0	7.084222683895123e+17
19090.0	7.083017257702739e+17
19091.0	7.081676479922175e+17
19092.0	7.080299661885439e+17
19093.0	7.079003185741823e+17
19094.0	7.077651288861353e+17
19095.0	7.076304190264659e+17
19096.0	7.074956483493887e+17
19097.0	7.073619628785663e+17
19098.0	7.072275126463145e+17
19099.0	7.070928615069011e+17
19100.0	7.069582225309696e+17
19101.0	7.068234382923092e+17
19102.0	7.066829938404008e+17
19103.0	7.065541646745599e+17
19104.0	7.064194385969151e+17
19105.0	7.062846382800896e+17
19106.0	7.061483032674304e+17
19107.0	7.060141501317119e+17
19108.0	7.058801404411904e+17
19109.0	7.057192606411433e+17
19110.0	7.056094360065363e+17
19111.0	7.054758682558463e+17
19112.0	7.053410897494016e+17
19113.0	7.05206242456371e+17
19114.0	7.050713536397311e+17
19115.0	7.049337369875798e+17
19116.0	7.048000663366314e+17
19117.0	7.046652548349952e+17
19118.0	7.045254255476735e+17
19119.0	7.041810635423739e+17
19120.0	7.042589274406911e+17
19121.0	7.041246732222463e+17
19122.0	7.039916710035455e+17
19123.0	7.038565825380351e+17
19124.0	7.03719860740642e+17
19125.0	7.035862569189375e+17
19126.0	7.034507782433449e+17
19127.0	7.032106060349437e+17
19128.0	7.031738494615551e+17
19129.0	7.030405416878079e+17
19130.0	7.029103750283263e+17
19131.0	7.027754897069398e+17
19132.0	7.026401132325545e+17
19133.0	7.02496150458641e+17
19134.0	7.023663998042111e+17
19135.0	7.022342621713748e+17
19136.0	7.02099391320337e+17
19137.0	7.019542268783274e+17
19138.0	7.018277453343401e+17
19139.0	7.016933536126294e+17
19140.0	7.015580800385023e+17
19141.0	7.014226825226921e+17
19142.0	7.012856966938624e+17
19143.0	7.011485457492649e+17
19144.0	7.010147548616019e+17
19145.0	7.008808389836799e+17
19146.0	7.007090491697834e+17
19147.0	7.006043204048211e+17
19148.0	7.004740451827711e+17
19149.0	7.003384975108778e+17
19150.0	7.002024331007316e+17
19151.0	7.000673219859795e+17
19152.0	6.999313486621353e+17
19153.0	6.997946000211968e+17
19154.0	6.996523680268287e+17
19155.0	6.995243525559635e+17
19156.0	6.993883351919274e+17
19157.0	6.992516229016233e+17
19158.0	6.990995301684563e+17
19159.0	6.989793699299327e+17
19160.0	6.988445331226623e+17
19161.0	6.987080097857535e+17
19162.0	6.985320214036479e+17
19163.0	6.98435285164578e+17
19164.0	6.983010290586964e+17
19165.0	6.981642037318996e+17
19166.0	6.980214663238996e+17
19167.0	6.978889235212969e+17
19168.0	6.977550215544831e+17
19169.0	6.976187505748649e+17
19170.0	6.974840184154794e+17
19171.0	6.973455810079401e+17
19172.0	6.97211370410257e+17
19173.0	6.970750909721257e+17
19174.0	6.969353126455978e+17
19175.0	6.968023362218665e+17
19176.0	6.966658373517312e+17
19177.0	6.965198635488595e+17
19178.0	6.963914357080064e+17
19179.0	6.96252871282961e+17
19180.0	6.9611862636189e+17
19181.0	6.959758448437929e+17
19182.0	6.958445501961555e+17
19183.0	6.957088806797311e+17
19184.0	6.955707215642624e+17
19185.0	6.954347024525993e+17
19186.0	6.952979602429268e+17
19187.0	6.951562193316522e+17
19188.0	6.950236943548415e+17
19189.0	6.948865338332499e+17
19190.0	6.947490590184787e+17
19191.0	6.946099313683113e+17
19192.0	6.944748854050815e+17
19193.0	6.943371412460884e+17
19194.0	6.941990209279315e+17
19195.0	6.940622132172116e+17
19196.0	6.939236818572627e+17
19197.0	6.937115505983487e+17
19198.0	6.934424986495657e+17
19199.0	6.930620143894527e+17
19200.0	6.929968345557674e+17
19201.0	6.930289525085524e+17
19202.0	6.928934762097321e+17
19203.0	6.927558838146387e+17
19204.0	6.926162204819456e+17
19205.0	6.924794467450879e+17
19206.0	6.92340204310801e+17
19207.0	6.921965154948435e+17
19208.0	6.920511814631423e+17
19209.0	6.919242387554303e+17
19210.0	6.917862419595261e+17
19211.0	6.916472578244607e+17
19212.0	6.915082207712596e+17
19213.0	6.913630094928553e+17
19214.0	6.912215806377983e+17
19215.0	6.910894994183508e+17
19216.0	6.909508859898538e+17
19217.0	6.908113493950463e+17
19218.0	6.906222219362301e+17
19219.0	6.905219933798399e+17
19220.0	6.90390673007138e+17
19221.0	6.902327304781823e+17
19222.0	6.901116684642985e+17
19223.0	6.899717345290921e+17
19224.0	6.898285226754047e+17
19225.0	6.896823223801171e+17
19226.0	6.895493883188564e+17
19227.0	6.894084386630313e+17
19228.0	6.892690176212991e+17
19229.0	6.891279634573993e+17
19230.0	6.889865903166804e+17
19231.0	6.888446637375487e+17
19232.0	6.887034465550333e+17
19233.0	6.885580528943103e+17
19234.0	6.884193143357439e+17
19235.0	6.882774766059519e+17
19236.0	6.88136814329856e+17
19237.0	6.879936449085439e+17
19238.0	6.878464495845375e+17
19239.0	6.877098046128128e+17
19240.0	6.875643748810751e+17
19241.0	6.874219071668224e+17
19242.0	6.872800507723775e+17
19243.0	6.871272227078143e+17
19244.0	6.869945354114388e+17
19245.0	6.868509105586175e+17
19246.0	6.867061261904553e+17
19247.0	6.86563007799842e+17
19248.0	6.864188603367423e+17
19249.0	6.862742756174506e+17
19250.0	6.861235849702057e+17
19251.0	6.859649586997929e+17
19252.0	6.858089664522921e+17
19253.0	6.856803095325353e+17
19254.0	6.855358287620777e+17
19255.0	6.853786019211946e+17
19256.0	6.852423835101866e+17
19257.0	6.85098180682274e+17
19258.0	6.849516005228543e+17
19259.0	6.848002285109248e+17
19260.0	6.846521949552639e+17
19261.0	6.845105629560832e+17
19262.0	6.8436001568413e+17
19263.0	6.842116885271891e+17
19264.0	6.840353746670931e+17
19265.0	6.839073478716073e+17
19266.0	6.837598479712255e+17
19267.0	6.836214360790356e+17
19268.0	6.834721892510378e+17
19269.0	6.833226060398592e+17
19270.0	6.831724886840659e+17
19271.0	6.830025366743722e+17
19272.0	6.828694841240233e+17
19273.0	6.826351011736233e+17
19274.0	6.82512161579554e+17
19275.0	6.824178202880682e+17
19276.0	6.822646951968765e+17
19277.0	6.821125589128531e+17
19278.0	6.819607420949844e+17
19279.0	6.818064655275348e+17
19280.0	6.816492460965887e+17
19281.0	6.814986412228607e+17
19282.0	6.813452184059903e+17
19283.0	6.81187042603827e+17
19284.0	6.810317422766762e+17
19285.0	6.808674392954196e+17
19286.0	6.807204780834815e+17
19287.0	6.805659788683946e+17
19288.0	6.803275942024531e+17
19289.0	6.800535901787474e+17
19290.0	6.800927411404799e+17
19291.0	6.799179385580202e+17
19292.0	6.797747870324052e+17
19293.0	6.796144273260543e+17
19294.0	6.794544350407337e+17
19295.0	6.792933989329577e+17
19296.0	6.791317487091711e+17
19297.0	6.789693743387987e+17
19298.0	6.788054800924672e+17
19299.0	6.786431125028863e+17
19300.0	6.784791015849983e+17
19301.0	6.783142970348884e+17
19302.0	6.781486542531242e+17
19303.0	6.779789715177471e+17
19304.0	6.77814818832384e+17
19305.0	6.776485942307497e+17
19306.0	6.774810821875028e+17
19307.0	6.773096137971027e+17
19308.0	6.771413620184404e+17
19309.0	6.769647704954195e+17
19310.0	6.767894084627114e+17
19311.0	6.766269876054698e+17
19312.0	6.764562844658345e+17
19313.0	6.762831150055423e+17
19314.0	6.758966261099177e+17
19315.0	6.757351226168662e+17
19316.0	6.757561246154751e+17
19317.0	6.755791999948116e+17
19318.0	6.754003717892778e+17
19319.0	6.752221689544701e+17
19320.0	6.750416294729043e+17
19321.0	6.748602194635433e+17
19322.0	6.746723274369705e+17
19323.0	6.744903358174547e+17
19324.0	6.743087898427392e+17
19325.0	6.74115992298018e+17
19326.0	6.739357185955156e+17
19327.0	6.737467842843988e+17
19328.0	6.735581641266516e+17
19329.0	6.733673848810153e+17
19330.0	6.731728884334591e+17
19331.0	6.729796562889385e+17
19332.0	6.727884780251817e+17
19333.0	6.725935485856425e+17
19334.0	6.723968645289302e+17
19335.0	6.721990856889684e+17
19336.0	6.71999491973666e+17
19337.0	6.717983038636031e+17
19338.0	6.715834880404138e+17
19339.0	6.713922215564627e+17
19340.0	6.711824924453546e+17
19341.0	6.709778062857555e+17
19342.0	6.707477940797437e+17
19343.0	6.705589793761961e+17
19344.0	6.703464158243497e+17
19345.0	6.70017825031236e+17
19346.0	6.698689073162921e+17
19347.0	6.696945449959423e+17
19348.0	6.694789019161939e+17
19349.0	6.692554841347412e+17
19350.0	6.690315340262057e+17
19351.0	6.688054867656701e+17
19352.0	6.685745349656575e+17
19353.0	6.683487573988691e+17
19354.0	6.681163853376169e+17
19355.0	6.678764529734996e+17
19356.0	6.676420696735743e+17
19357.0	6.674002750384809e+17
19358.0	6.671397482921983e+17
19359.0	6.668720552979114e+17
19360.0	6.66626374640162e+17
19361.0	6.663766599008256e+17
19362.0	6.661270421198163e+17
19363.0	6.65872997880081e+17
19364.0	6.656168741044223e+17
19365.0	6.653587439834452e+17
19366.0	6.650985253087914e+17
19367.0	6.648363259439785e+17
19368.0	6.645722843709439e+17
19369.0	6.643023319749972e+17
19370.0	6.640289016621738e+17
19371.0	6.637641305598634e+17
19372.0	6.634946236689065e+17
19373.0	6.632186058899455e+17
19374.0	6.629424582273705e+17
19375.0	6.626586152752467e+17
19376.0	6.623688050868223e+17
19377.0	6.620292875725481e+17
19378.0	6.617119742842196e+17
19379.0	6.61411009204497e+17
19380.0	6.611063720116223e+17
19381.0	6.607979580577107e+17
19382.0	6.60480879230976e+17
19383.0	6.601626200571904e+17
19384.0	6.598485585428479e+17
19385.0	6.595240120374611e+17
19386.0	6.591391441704276e+17
19387.0	6.587514302584148e+17
19388.0	6.584112681495212e+17
19389.0	6.580657912283135e+17
19390.0	6.577145909695827e+17
19391.0	6.571085445201915e+17
19392.0	6.568729962523304e+17
19393.0	6.564597606995284e+17
19394.0	6.560798451171327e+17
19395.0	6.556930950561791e+17
19396.0	6.55153507283763e+17
19397.0	6.546677482302121e+17
19398.0	6.54250481951266e+17
19399.0	6.536334395047935e+17
19400.0	6.530885916557311e+17
19401.0	6.526372147800744e+17
19402.0	6.518007081030994e+17
19403.0	6.513119626351956e+17
19404.0	6.503811090044247e+17
19405.0	6.49716258972194e+17
19406.0	6.487228570839721e+17
19407.0	6.476938187112449e+17
19408.0	6.465387605874013e+17
19409.0	6.452063604397395e+17
19410.0	6.437356711531858e+17
19411.0	6.426345409434963e+17
19412.0	6.41842978890274e+17
19413.0	6.410308307036842e+17
19414.0	6.401980532523005e+17
19415.0	6.393495403102208e+17
19416.0	6.384771127749289e+17
19417.0	6.375945482360148e+17
19418.0	6.366606115820883e+17
19419.0	6.356483203661823e+17
19420.0	6.346296848460457e+17
19421.0	6.33589210353937e+17
19422.0	6.325181447755091e+17
19423.0	6.313516499730431e+17
19424.0	6.301865281759914e+17
19425.0	6.289590113533951e+17
19426.0	6.276251601163603e+17
19427.0	6.262074269237248e+17
19428.0	6.246644351063379e+17
19429.0	6.22931869346475e+17
19430.0	6.209664101733718e+17
19431.0	6.18707085269401e+17
19432.0	6.159843115838111e+17
19433.0	6.126166245113848e+17
19434.0	6.085492653162495e+17
19435.0	6.056071273644031e+17
19436.0	6.029044083938644e+17
19437.0	6.000368799099561e+17
19438.0	5.966186260987901e+17
19439.0	5.935291335092909e+17
19440.0	5.89797011121766e+17
19441.0	5.854082998031702e+17
19442.0	5.800231641109847e+17
19443.0	5.7338749703072435e+17
19444.0	5.6545145750814637e+17
19445.0	5.574999237372589e+17
19446.0	5.484813277113002e+17
19447.0	5.369000654187171e+17
19448.0	5.2189197021566374e+17
19449.0	5.0165172439176525e+17
19450.0	4.721680376485204e+17
19451.0	4.61357377842925e+17
19452.0	4.8772998041873024e+17
19453.0	5.126249418588168e+17
19454.0	5.2958714861540634e+17
19455.0	5.424774062800894e+17
19456.0	5.5239801429469894e+17
19457.0	5.6040630706503616e+17
19458.0	5.67977389780719e+17
19459.0	5.7535408307350246e+17
19460.0	5.811062455315113e+17
19461.0	5.857106604676434e+17
19462.0	5.894935964286976e+17
19463.0	5.92795571340356e+17
19464.0	5.957936125837312e+17
19465.0	5.985812039947606e+17
19466.0	6.011193165261481e+17
19467.0	6.035472567151277e+17
19468.0	6.069727963818668e+17
19469.0	6.105441661266597e+17
19470.0	6.13300093548407e+17
19471.0	6.154757239122601e+17
19472.0	6.173801960177663e+17
19473.0	6.189507962819924e+17
19474.0	6.20342899970321e+17
19475.0	6.215705321362772e+17
19476.0	6.226793130360831e+17
19477.0	6.237608827595433e+17
19478.0	6.246837105896105e+17
19479.0	6.256311159226368e+17
19480.0	6.264948486657366e+17
19481.0	6.273092489838591e+17
19482.0	6.280913848281769e+17
19483.0	6.288732329432404e+17
19484.0	6.296029972398079e+17
19485.0	6.302649033599657e+17
19486.0	6.30895903121954e+17
19487.0	6.315112301679956e+17
19488.0	6.321061350080511e+17
19489.0	6.326782528236202e+17
19490.0	6.331689843643731e+17
19491.0	6.338847357009912e+17
19492.0	6.349523587345074e+17
19493.0	6.361278454956035e+17
19494.0	6.371451171678889e+17
19495.0	6.38014457625532e+17
19496.0	6.386139030093819e+17
19497.0	6.392659045602644e+17
19498.0	6.397724667325094e+17
19499.0	6.398321002982056e+17
19500.0	6.406453650784252e+17
19501.0	6.410325642794323e+17
19502.0	6.412323711352831e+17
19503.0	6.416915573156521e+17
19504.0	6.418745729045843e+17
19505.0	6.420395459958102e+17
19506.0	6.42368948736273e+17
19507.0	6.425515590156287e+17
19508.0	6.426880017519956e+17
19509.0	6.428165287182333e+17
19510.0	6.43030328820804e+17
19511.0	6.42780629530487e+17
19512.0	6.432505922759336e+17
19513.0	6.432825461615272e+17
19514.0	6.434229658670419e+17
19515.0	6.435670303528276e+17
19516.0	6.437571761886547e+17
19517.0	6.438571379873108e+17
19518.0	6.439346606789972e+17
19519.0	6.440042613790036e+17
19520.0	6.4406822074013e+17
19521.0	6.441314079997951e+17
19522.0	6.441870329293482e+17
19523.0	6.442425305617748e+17
19524.0	6.442924345305769e+17
19525.0	6.443554169683965e+17
19526.0	6.444426820496042e+17
19527.0	6.444806521050452e+17
19528.0	6.445103453306879e+17
19529.0	6.445372970893311e+17
19530.0	6.445618688600745e+17
19531.0	6.445837696980307e+17
19532.0	6.446033580064767e+17
19533.0	6.446206642640212e+17
19534.0	6.446355365669544e+17
19535.0	6.446479106725203e+17
19536.0	6.446571686898344e+17
19537.0	6.446682793312255e+17
19538.0	6.446695206354943e+17
19539.0	6.446477221385556e+17
19540.0	6.446797158001321e+17
19541.0	6.44681425887778e+17
19542.0	6.446792277928617e+17
19543.0	6.446753056292863e+17
19544.0	6.446691993518079e+17
19545.0	6.446407638581247e+17
19546.0	6.446299243085823e+17
19547.0	6.446674359965012e+17
19548.0	6.446499704952148e+17
19549.0	6.446243395229012e+17
19550.0	6.446083780291241e+17
19551.0	6.445844610591401e+17
19552.0	6.445582261070506e+17
19553.0	6.445286956903082e+17
19554.0	6.444976051322879e+17
19555.0	6.444667567953235e+17
19556.0	6.444335353910612e+17
19557.0	6.443972572479487e+17
19558.0	6.443595930970793e+17
19559.0	6.443199908981417e+17
19560.0	6.442771502770857e+17
19561.0	6.442341295106729e+17
19562.0	6.441912867225597e+17
19563.0	6.441450039760211e+17
19564.0	6.440971693370025e+17
19565.0	6.440477768635732e+17
19566.0	6.43995683398178e+17
19567.0	6.43944439489058e+17
19568.0	6.438890040721407e+17
19569.0	6.43834977521937e+17
19570.0	6.437788947141972e+17
19571.0	6.437208251345577e+17
19572.0	6.436607097831423e+17
19573.0	6.436017872917844e+17
19574.0	6.435364022867284e+17
19575.0	6.434800907496106e+17
19576.0	6.434168382685183e+17
19577.0	6.433517493114196e+17
19578.0	6.432843604776275e+17
19579.0	6.432184836904276e+17
19580.0	6.431508214579199e+17
19581.0	6.430823425944233e+17
19582.0	6.430134168278356e+17
19583.0	6.429424601792511e+17
19584.0	6.428702650925055e+17
19585.0	6.427908058906623e+17
19586.0	6.427150945091584e+17
19587.0	6.426472947733844e+17
19588.0	6.425459435416234e+17
19589.0	6.424954067921578e+17
19590.0	6.424142207254527e+17
19591.0	6.423408404682068e+17
19592.0	6.422616407539711e+17
19593.0	6.421805415093588e+17
19594.0	6.420867507202729e+17
19595.0	6.420176787122857e+17
19596.0	6.419189761135956e+17
19597.0	6.418534378766335e+17
19598.0	6.41751860711697e+17
19599.0	6.416868588563113e+17
19600.0	6.416019091008169e+17
19601.0	6.415121207263231e+17
19602.0	6.414269999830356e+17
19603.0	6.413162889521833e+17
19604.0	6.41252749091362e+17
19605.0	6.411501243290963e+17
19606.0	6.4107983156893e+17
19607.0	6.409911087573674e+17
19608.0	6.409010059498835e+17
19609.0	6.40808220046131e+17
19610.0	6.407209148394152e+17
19611.0	6.406294474151252e+17
19612.0	6.40538204176384e+17
19613.0	6.404460751705428e+17
19614.0	6.403508626522111e+17
19615.0	6.40260297003281e+17
19616.0	6.401645094458708e+17
19617.0	6.40072701583906e+17
19618.0	6.399452025017684e+17
19619.0	6.398418129081683e+17
19620.0	6.397487819871572e+17
19621.0	6.39692360000034e+17
19622.0	6.395963490959359e+17
19623.0	6.394998605305172e+17
19624.0	6.394029751839402e+17
19625.0	6.393056923571539e+17
19626.0	6.39208042528768e+17
19627.0	6.39109917066308e+17
19628.0	6.390058001803946e+17
19629.0	6.389070365545812e+17
19630.0	6.387968579207168e+17
19631.0	6.384496491713875e+17
19632.0	6.386137256602282e+17
19633.0	6.385125931614207e+17
19634.0	6.384147153027071e+17
19635.0	6.38311754436881e+17
19636.0	6.382134666548564e+17
19637.0	6.380885633575594e+17
19638.0	6.380104490592938e+17
19639.0	6.379083093682857e+17
19640.0	6.378020373091667e+17
19641.0	6.376616317244756e+17
19642.0	6.376026579227988e+17
19643.0	6.374993397022719e+17
19644.0	6.373933718700031e+17
19645.0	6.372778611572736e+17
19646.0	6.371909038680745e+17
19647.0	6.370874051526656e+17
19648.0	6.369836541498708e+17
19649.0	6.368795201372159e+17
19650.0	6.367755016776361e+17
19651.0	6.366711111832916e+17
19652.0	6.365665166360576e+17
19653.0	6.364616084946941e+17
19654.0	6.363567374729215e+17
19655.0	6.36251283792418e+17
19656.0	6.361457783122601e+17
19657.0	6.360539011743743e+17
19658.0	6.35957547246114e+17
19659.0	6.358515202042538e+17
19660.0	6.357455193767935e+17
19661.0	6.356392576636244e+17
19662.0	6.355328243335167e+17
19663.0	6.354235969677993e+17
19664.0	6.353185500648788e+17
19665.0	6.352126348711252e+17
