# Flux units: erg / (cm m2 s)
# Wavelength units: Angstrom
wave	flux
19000.0	6.154453944107007e+17
19001.0	6.153153765791059e+17
19002.0	6.152151979349331e+17
19003.0	6.150989303600468e+17
19004.0	6.149833611367763e+17
19005.0	6.148676686009684e+17
19006.0	6.147525406184788e+17
19007.0	6.146229284459862e+17
19008.0	6.145115499615572e+17
19009.0	6.1440287323805e+17
19010.0	6.142133478096893e+17
19011.0	6.14171797426449e+17
19012.0	6.140320774706516e+17
19013.0	6.139443701699924e+17
19014.0	6.138200973464916e+17
19015.0	6.137085422818644e+17
19016.0	6.135916373824851e+17
19017.0	6.134649135475369e+17
19018.0	6.133654252158975e+17
19019.0	6.132516042484393e+17
19020.0	6.131287842619391e+17
19021.0	6.130177632720212e+17
19022.0	6.12907323822353e+17
19023.0	6.127862258772649e+17
19024.0	6.126738942372521e+17
19025.0	6.125603674303146e+17
19026.0	6.124416954007551e+17
19027.0	6.123189081298259e+17
19028.0	6.122169018176852e+17
19029.0	6.12099211534882e+17
19030.0	6.119885383226707e+17
19031.0	6.118744593356116e+17
19032.0	6.117588648067072e+17
19033.0	6.116297876875946e+17
19034.0	6.115265346884948e+17
19035.0	6.11408853143825e+17
19036.0	6.101213531602932e+17
19037.0	6.111827961664852e+17
19038.0	6.110661277559465e+17
19039.0	6.109542148472831e+17
19040.0	6.108401949300052e+17
19041.0	6.107244537402708e+17
19042.0	6.105966809797972e+17
19043.0	6.104955324028244e+17
19044.0	6.103795675867817e+17
19045.0	6.102661147394047e+17
19046.0	6.101419223766356e+17
19047.0	6.100370466712233e+17
19048.0	6.098885992775679e+17
19049.0	6.097968329392125e+17
19050.0	6.096855080719702e+17
19051.0	6.093973331028645e+17
19052.0	6.09453558866466e+17
19053.0	6.093455605017257e+17
19054.0	6.092337398677504e+17
19055.0	6.090810398692694e+17
19056.0	6.090017109704704e+17
19057.0	6.088900760742569e+17
19058.0	6.087706452251988e+17
19059.0	6.086617689227263e+17
19060.0	6.085442424973994e+17
19061.0	6.084339663459668e+17
19062.0	6.083184691948201e+17
19063.0	6.082050102657023e+17
19064.0	6.08070454546705e+17
19065.0	6.079483494793215e+17
19066.0	6.078524942538068e+17
19067.0	6.077458424703658e+17
19068.0	6.076333850012329e+17
19069.0	6.075193966111401e+17
19070.0	6.074006996254719e+17
19071.0	6.072897529446399e+17
19072.0	6.071769754501119e+17
19073.0	6.070616274064724e+17
19074.0	6.069491425345535e+17
19075.0	6.068350564870825e+17
19076.0	6.06717386686464e+17
19077.0	6.066053733941247e+17
19078.0	6.064835171188735e+17
19079.0	6.063784572835156e+17
19080.0	6.06262632836847e+17
19081.0	6.06143221211682e+17
19082.0	6.060270260584445e+17
19083.0	6.059061799114067e+17
19084.0	6.057718752914089e+17
19085.0	6.0569298155165e+17
19086.0	6.055208217302356e+17
19087.0	6.054335917413716e+17
19088.0	6.053423379469652e+17
19089.0	6.051935599023444e+17
19090.0	6.051206777886036e+17
19091.0	6.05008355725585e+17
19092.0	6.048810360198484e+17
19093.0	6.04784147038208e+17
19094.0	6.046699734695935e+17
19095.0	6.045568134545407e+17
19096.0	6.044392827650047e+17
19097.0	6.043300510651732e+17
19098.0	6.042159007050409e+17
19099.0	6.041017381814271e+17
19100.0	6.039870386470912e+17
19101.0	6.0387541123072e+17
19102.0	6.037476808327167e+17
19103.0	6.036479325241344e+17
19104.0	6.035356321316864e+17
19105.0	6.034028618579967e+17
19106.0	6.032795825253034e+17
19107.0	6.031700271650131e+17
19108.0	6.030596541251583e+17
19109.0	6.02834895983957e+17
19110.0	6.028326345550506e+17
19111.0	6.027192796446719e+17
19112.0	6.026064212000767e+17
19113.0	6.024924814639101e+17
19114.0	6.023786681860095e+17
19115.0	6.022568291773098e+17
19116.0	6.021494122829139e+17
19117.0	6.020369234264063e+17
19118.0	6.019086837000874e+17
19119.0	6.013389108499789e+17
19120.0	6.016885168537599e+17
19121.0	6.015813842632701e+17
19122.0	6.014742349654697e+17
19123.0	6.013592192505171e+17
19124.0	6.012416850657279e+17
19125.0	6.011336293089279e+17
19126.0	6.010180741365759e+17
19127.0	6.00649569158212e+17
19128.0	6.007019490945705e+17
19129.0	6.006689587964586e+17
19130.0	6.005681280778239e+17
19131.0	6.004538804797439e+17
19132.0	6.003439123300351e+17
19133.0	6.001447984431107e+17
19134.0	6.000718477524992e+17
19135.0	6.000051048415232e+17
19136.0	5.998935380328448e+17
19137.0	5.997557935243263e+17
19138.0	5.996553485418495e+17
19139.0	5.995551176785919e+17
19140.0	5.994424843283113e+17
19141.0	5.993298186818899e+17
19142.0	5.99212810183202e+17
19143.0	5.990948546106707e+17
19144.0	5.989859016922452e+17
19145.0	5.988785601555113e+17
19146.0	5.986740672135168e+17
19147.0	5.98640423792367e+17
19148.0	5.985407657312255e+17
19149.0	5.984279616727721e+17
19150.0	5.983147327313236e+17
19151.0	5.982036204453887e+17
19152.0	5.980883005734912e+17
19153.0	5.979760100376576e+17
19154.0	5.978476769880746e+17
19155.0	5.977545947567444e+17
19156.0	5.976419651813375e+17
19157.0	5.975284869584211e+17
19158.0	5.973384194162685e+17
19159.0	5.973023113521833e+17
19160.0	5.971873466679295e+17
19161.0	5.970713053757439e+17
19162.0	5.967921952063489e+17
19163.0	5.968555785497256e+17
19164.0	5.967445274307242e+17
19165.0	5.966280553835177e+17
19166.0	5.965004524923561e+17
19167.0	5.963912707047423e+17
19168.0	5.962747335759188e+17
19169.0	5.961705411226281e+17
19170.0	5.960715956737364e+17
19171.0	5.959493770805247e+17
19172.0	5.958462210397524e+17
19173.0	5.957353726454442e+17
19174.0	5.956146439389183e+17
19175.0	5.955114609147903e+17
19176.0	5.953989548616361e+17
19177.0	5.95264873308706e+17
19178.0	5.951741073118548e+17
19179.0	5.95049400307985e+17
19180.0	5.949313419051008e+17
19181.0	5.948227769597951e+17
19182.0	5.947158593972906e+17
19183.0	5.946143956882772e+17
19184.0	5.94485137584947e+17
19185.0	5.943901351313407e+17
19186.0	5.942809404112896e+17
19187.0	5.941567237914623e+17
19188.0	5.940561048152745e+17
19189.0	5.93941917475362e+17
19190.0	5.938296202985471e+17
19191.0	5.937156628064938e+17
19192.0	5.936101840999763e+17
19193.0	5.934809015298729e+17
19194.0	5.933733540528127e+17
19195.0	5.932606224160084e+17
19196.0	5.931481581660842e+17
19197.0	5.930379413640532e+17
19198.0	5.92926978605056e+17
19199.0	5.917702002573308e+17
19200.0	5.920506176514733e+17
19201.0	5.925928317572435e+17
19202.0	5.924820748686676e+17
19203.0	5.923685247833428e+17
19204.0	5.922546546726227e+17
19205.0	5.921458586211667e+17
19206.0	5.920334816127657e+17
19207.0	5.919116206538751e+17
19208.0	5.917787897025875e+17
19209.0	5.916987969852756e+17
19210.0	5.915886275089747e+17
19211.0	5.914789839983956e+17
19212.0	5.913679693698388e+17
19213.0	5.912348436288852e+17
19214.0	5.911184542094676e+17
19215.0	5.910309815801171e+17
19216.0	5.909185113183572e+17
19217.0	5.908105016989011e+17
19218.0	5.905762137494867e+17
19219.0	5.90565017264674e+17
19220.0	5.904736981789354e+17
19221.0	5.90315125875234e+17
19222.0	5.90255455469568e+17
19223.0	5.901405026691754e+17
19224.0	5.900190256988159e+17
19225.0	5.898972335265108e+17
19226.0	5.898065731562154e+17
19227.0	5.896954808631295e+17
19228.0	5.895884327179604e+17
19229.0	5.894773349023743e+17
19230.0	5.893608075602601e+17
19231.0	5.892498875831636e+17
19232.0	5.89137018233378e+17
19233.0	5.890216734752767e+17
19234.0	5.889176602585769e+17
19235.0	5.88805065286178e+17
19236.0	5.886999618300586e+17
19237.0	5.885859670786045e+17
19238.0	5.884628908900351e+17
19239.0	5.883669937214803e+17
19240.0	5.88215159427345e+17
19241.0	5.881311895311702e+17
19242.0	5.880295863615487e+17
19243.0	5.878950191082154e+17
19244.0	5.878112492803412e+17
19245.0	5.876999375552511e+17
19246.0	5.875872429681321e+17
19247.0	5.874764213474644e+17
19248.0	5.873677870563327e+17
19249.0	5.872565594270377e+17
19250.0	5.871428533136041e+17
19251.0	5.870216540760745e+17
19252.0	5.868718354246313e+17
19253.0	5.868094162818388e+17
19254.0	5.866959038054399e+17
19255.0	5.865587939650216e+17
19256.0	5.864754298661546e+17
19257.0	5.863686433756499e+17
19258.0	5.862578632785919e+17
19259.0	5.861346370038441e+17
19260.0	5.860172252228266e+17
19261.0	5.859232356936362e+17
19262.0	5.858047696044031e+17
19263.0	5.856955144863743e+17
19264.0	5.855123158859773e+17
19265.0	5.854511084776105e+17
19266.0	5.85345485836561e+17
19267.0	5.852592759024298e+17
19268.0	5.851470319932756e+17
19269.0	5.850360158967124e+17
19270.0	5.84925280608802e+17
19271.0	5.847638109498028e+17
19272.0	5.846979406637737e+17
19273.0	5.835206140013211e+17
19274.0	5.839687569287844e+17
19275.0	5.843704250105855e+17
19276.0	5.842562081707348e+17
19277.0	5.84145149432081e+17
19278.0	5.840347361968127e+17
19279.0	5.83915521843746e+17
19280.0	5.837984875500884e+17
19281.0	5.837003940342441e+17
19282.0	5.835912978104319e+17
19283.0	5.834634768853673e+17
19284.0	5.833338275932842e+17
19285.0	5.832237784935081e+17
19286.0	5.831408306793129e+17
19287.0	5.830348571847338e+17
19288.0	5.826673287801513e+17
19289.0	5.819788965532995e+17
19290.0	5.82700445606434e+17
19291.0	5.825484167664982e+17
19292.0	5.824770919279273e+17
19293.0	5.823644085256192e+17
19294.0	5.822520988357971e+17
19295.0	5.821421865402367e+17
19296.0	5.820294676261546e+17
19297.0	5.819091421320532e+17
19298.0	5.81794378354961e+17
19299.0	5.816869707579391e+17
19300.0	5.815751522211156e+17
19301.0	5.81461582492467e+17
19302.0	5.813490894416554e+17
19303.0	5.812229355427156e+17
19304.0	5.811166378284372e+17
19305.0	5.810108849542484e+17
19306.0	5.808991522608467e+17
19307.0	5.807792678677161e+17
19308.0	5.806711914190163e+17
19309.0	5.805280963067903e+17
19310.0	5.803970948410025e+17
19311.0	5.803304180602196e+17
19312.0	5.802214043942911e+17
19313.0	5.800970757865471e+17
19314.0	5.793637911407259e+17
19315.0	5.793088504419683e+17
19316.0	5.797713740999337e+17
19317.0	5.796579492844884e+17
19318.0	5.795438917582848e+17
19319.0	5.794328448335872e+17
19320.0	5.793157637734399e+17
19321.0	5.792062205067263e+17
19322.0	5.790716131278848e+17
19323.0	5.789592713516374e+17
19324.0	5.788627760753322e+17
19325.0	5.787200624350548e+17
19326.0	5.786342898270207e+17
19327.0	5.785174424595114e+17
19328.0	5.784054653080916e+17
19329.0	5.782902309999956e+17
19330.0	5.781586259039572e+17
19331.0	5.780268366080682e+17
19332.0	5.779171957538815e+17
19333.0	5.777989406381395e+17
19334.0	5.776804590299817e+17
19335.0	5.775571796972884e+17
19336.0	5.774323453263871e+17
19337.0	5.773150727263572e+17
19338.0	5.771669967383209e+17
19339.0	5.770809719128063e+17
19340.0	5.769526910823081e+17
19341.0	5.768449969444179e+17
19342.0	5.766644271939583e+17
19343.0	5.766091457779028e+17
19344.0	5.764880457356628e+17
19345.0	5.7603892951995635e+17
19346.0	5.7617280743942835e+17
19347.0	5.761211132717738e+17
19348.0	5.7601126067514003e+17
19349.0	5.7588486511438496e+17
19350.0	5.75765093687842e+17
19351.0	5.7564127391907834e+17
19352.0	5.7551484899819514e+17
19353.0	5.7540396362410656e+17
19354.0	5.75280571884066e+17
19355.0	5.751419564283222e+17
19356.0	5.750328314735274e+17
19357.0	5.749070893154303e+17
19358.0	5.7477376679171405e+17
19359.0	5.7459929765642234e+17
19360.0	5.7452367169890963e+17
19361.0	5.743947627014825e+17
19362.0	5.742751335317503e+17
19363.0	5.74142445186799e+17
19364.0	5.739822063463081e+17
19365.0	5.738521279769258e+17
19366.0	5.737214617758377e+17
19367.0	5.7358892274810874e+17
19368.0	5.734558691491839e+17
19369.0	5.733000203468799e+17
19370.0	5.730567493866836e+17
19371.0	5.730408414401877e+17
19372.0	5.7291165855470925e+17
19373.0	5.7276807948970656e+17
19374.0	5.726309466505215e+17
19375.0	5.724892537640276e+17
19376.0	5.723459876640085e+17
19377.0	5.7219988355809274e+17
19378.0	5.7201472335162016e+17
19379.0	5.718648367524521e+17
19380.0	5.717153276406441e+17
19381.0	5.71561898742033e+17
19382.0	5.713948372369407e+17
19383.0	5.712354859810814e+17
19384.0	5.710933387116543e+17
19385.0	5.7093145766133754e+17
19386.0	5.7073395389781325e+17
19387.0	5.7055160834894483e+17
19388.0	5.703813779772756e+17
19389.0	5.702086931688106e+17
19390.0	5.700317450600447e+17
19391.0	5.687886965899246e+17
19392.0	5.6960816733224954e+17
19393.0	5.6942181985812474e+17
19394.0	5.6922854367341216e+17
19395.0	5.690304578103979e+17
19396.0	5.687636589718186e+17
19397.0	5.685298507109716e+17
19398.0	5.683054976696319e+17
19399.0	5.679249284049577e+17
19400.0	5.677780865908735e+17
19401.0	5.675428652690089e+17
19402.0	5.672223731176788e+17
19403.0	5.6697169291946656e+17
19404.0	5.6662198890878285e+17
19405.0	5.663403863441406e+17
19406.0	5.6601383936546125e+17
19407.0	5.6572691786410656e+17
19408.0	5.652832174735361e+17
19409.0	5.6505185078695245e+17
19410.0	5.647419980469589e+17
19411.0	5.644044920509779e+17
19412.0	5.640507972299435e+17
19413.0	5.6367389029171194e+17
19414.0	5.6322546019423565e+17
19415.0	5.628205775279443e+17
19416.0	5.6236653929649485e+17
19417.0	5.6185898489173325e+17
19418.0	5.613798153693866e+17
19419.0	5.608325191652694e+17
19420.0	5.602349204635647e+17
19421.0	5.595992869044224e+17
19422.0	5.589147437760508e+17
19423.0	5.5813902486732794e+17
19424.0	5.572846168309758e+17
19425.0	5.563315902218241e+17
19426.0	5.552226235842558e+17
19427.0	5.539883994404181e+17
19428.0	5.5257046513090534e+17
19429.0	5.511789832481448e+17
19430.0	5.499974974439424e+17
19431.0	5.4860087774849754e+17
19432.0	5.474836393842004e+17
19433.0	5.460566192335531e+17
19434.0	5.444670122710356e+17
19435.0	5.4270861330350074e+17
19436.0	5.406597921286823e+17
19437.0	5.3848779752734726e+17
19438.0	5.3435640445228314e+17
19439.0	5.3240107480296154e+17
19440.0	5.280154094578342e+17
19441.0	5.2425673593760403e+17
19442.0	5.205118764974081e+17
19443.0	5.1620300767013536e+17
19444.0	5.109987681850707e+17
19445.0	5.040729815864667e+17
19446.0	4.956109185307991e+17
19447.0	4.869669753541969e+17
19448.0	4.7508937751483757e+17
19449.0	4.58689453560081e+17
19450.0	4.2514296759910266e+17
19451.0	4.141320802489677e+17
19452.0	4.436087680270341e+17
19453.0	4.6790997512465114e+17
19454.0	4.812128906466639e+17
19455.0	4.909915896982187e+17
19456.0	4.990084707254266e+17
19457.0	5.068742093089448e+17
19458.0	5.114645011846506e+17
19459.0	5.170478190690305e+17
19460.0	5.208376537513982e+17
19461.0	5.241870269546492e+17
19462.0	5.2831852125225e+17
19463.0	5.319968031768572e+17
19464.0	5.347705607946239e+17
19465.0	5.3699028713472e+17
19466.0	5.388409395391145e+17
19467.0	5.405414006980607e+17
19468.0	5.4199264344364365e+17
19469.0	5.431017900867582e+17
19470.0	5.444517461229566e+17
19471.0	5.4550153742254074e+17
19472.0	5.464538763056467e+17
19473.0	5.47473109933534e+17
19474.0	5.487391351504893e+17
19475.0	5.497472421986304e+17
19476.0	5.507848674301268e+17
19477.0	5.5157873795836563e+17
19478.0	5.5227934631963315e+17
19479.0	5.5286066769646925e+17
19480.0	5.5335772026306534e+17
19481.0	5.538482589357396e+17
19482.0	5.542052444678827e+17
19483.0	5.546090539515903e+17
19484.0	5.548849079429802e+17
19485.0	5.551821513468585e+17
19486.0	5.554422913084073e+17
19487.0	5.556508508378452e+17
19488.0	5.558476203884543e+17
19489.0	5.560636826888873e+17
19490.0	5.560014830480038e+17
19491.0	5.5633961112917325e+17
19492.0	5.564639576326143e+17
19493.0	5.5656724852026003e+17
19494.0	5.566830440262313e+17
19495.0	5.5677865129847443e+17
19496.0	5.568135981694974e+17
19497.0	5.569709839745024e+17
19498.0	5.5701756276899866e+17
19499.0	5.554037693524628e+17
19500.0	5.5719983268058445e+17
19501.0	5.5730386889605114e+17
19502.0	5.5732067407407776e+17
19503.0	5.573591819091966e+17
19504.0	5.574083845903699e+17
19505.0	5.574097671028735e+17
19506.0	5.57419799318801e+17
19507.0	5.5748387681949e+17
19508.0	5.5747216639262714e+17
19509.0	5.574498401124352e+17
19510.0	5.573959193985023e+17
19511.0	5.558908066900639e+17
19512.0	5.5721876639798496e+17
19513.0	5.568578352840694e+17
19514.0	5.570224412338854e+17
19515.0	5.572109014488408e+17
19516.0	5.572516932222975e+17
19517.0	5.5721300048827725e+17
19518.0	5.5719940604996256e+17
19519.0	5.571450163429375e+17
19520.0	5.570853708933802e+17
19521.0	5.570326113026047e+17
19522.0	5.569661495498068e+17
19523.0	5.56911917408802e+17
19524.0	5.5684818817515514e+17
19525.0	5.567751815604906e+17
19526.0	5.5671566096138234e+17
19527.0	5.566808673921705e+17
19528.0	5.5661483527591245e+17
19529.0	5.565434882774357e+17
19530.0	5.564725206537556e+17
19531.0	5.564001351456085e+17
19532.0	5.5632523186667514e+17
19533.0	5.5625019045533005e+17
19534.0	5.5617348327615136e+17
19535.0	5.5609221143592954e+17
19536.0	5.560112401874943e+17
19537.0	5.559374059667455e+17
19538.0	5.558525144421717e+17
19539.0	5.55686387358106e+17
19540.0	5.5568982382127776e+17
19541.0	5.5561162298053965e+17
19542.0	5.5552732977343136e+17
19543.0	5.554430527143935e+17
19544.0	5.553590179463167e+17
19545.0	5.5525322012316966e+17
19546.0	5.5506952925129395e+17
19547.0	5.551304118108158e+17
19548.0	5.550454591193087e+17
19549.0	5.5494143262064614e+17
19550.0	5.548699610513407e+17
19551.0	5.547820004147199e+17
19552.0	5.54692938773299e+17
19553.0	5.5460107435813536e+17
19554.0	5.54507463364881e+17
19555.0	5.5442195555723936e+17
19556.0	5.543336772020905e+17
19557.0	5.542426488515242e+17
19558.0	5.5415149823699616e+17
19559.0	5.540564142740819e+17
19560.0	5.5396467387050643e+17
19561.0	5.538724569939967e+17
19562.0	5.53783531877171e+17
19563.0	5.53691510804753e+17
19564.0	5.535990730282324e+17
19565.0	5.535053805256704e+17
19566.0	5.5340823100784634e+17
19567.0	5.533190886260736e+17
19568.0	5.532212112566953e+17
19569.0	5.5312813307985914e+17
19570.0	5.530375878432084e+17
19571.0	5.529433279212202e+17
19572.0	5.528428318381396e+17
19573.0	5.527520933838847e+17
19574.0	5.526433338927785e+17
19575.0	5.525634447048703e+17
19576.0	5.524685025793364e+17
19577.0	5.523580234235902e+17
19578.0	5.522713930104831e+17
19579.0	5.5217782437969914e+17
19580.0	5.52082924966161e+17
19581.0	5.5198816172769274e+17
19582.0	5.5189491347182925e+17
19583.0	5.51798734795571e+17
19584.0	5.517019517900117e+17
19585.0	5.5158820408306323e+17
19586.0	5.5148560336814086e+17
19587.0	5.514026126322347e+17
19588.0	5.512415510091094e+17
19589.0	5.512117076972884e+17
19590.0	5.5110857584366925e+17
19591.0	5.510241820431701e+17
19592.0	5.509279473729535e+17
19593.0	5.508276571602943e+17
19594.0	5.506932899053566e+17
19595.0	5.506328488662357e+17
19596.0	5.503265974255617e+17
19597.0	5.5043873535863456e+17
19598.0	5.502983306128041e+17
19599.0	5.5024540359939405e+17
19600.0	5.5014895439052794e+17
19601.0	5.5004129219925325e+17
19602.0	5.4994763653666125e+17
19603.0	5.497796280276308e+17
19604.0	5.4975070676363936e+17
19605.0	5.496128534828373e+17
19606.0	5.495595135401983e+17
19607.0	5.494630922933589e+17
19608.0	5.4936372419843405e+17
19609.0	5.492585945978196e+17
19610.0	5.4916990778736634e+17
19611.0	5.4907006671476045e+17
19612.0	5.489738899958442e+17
19613.0	5.488732959757652e+17
19614.0	5.4877093468569594e+17
19615.0	5.4867877750811296e+17
19616.0	5.485716700834474e+17
19617.0	5.484817577672703e+17
19618.0	5.483080394822996e+17
19619.0	5.48178968724548e+17
19620.0	5.4808880691718803e+17
19621.0	5.480870876719785e+17
19622.0	5.4798994206883834e+17
19623.0	5.4789185309682336e+17
19624.0	5.4779180601398605e+17
19625.0	5.4769455422504954e+17
19626.0	5.4759435223258445e+17
19627.0	5.474975553858217e+17
19628.0	5.47373171273455e+17
19629.0	5.472867126170964e+17
19630.0	5.471916178888021e+17
19631.0	5.4600354430102106e+17
19632.0	5.470251141562367e+17
19633.0	5.4692011576743245e+17
19634.0	5.468289173378389e+17
19635.0	5.46724316778769e+17
19636.0	5.466299975073791e+17
19637.0	5.464728832136533e+17
19638.0	5.4643229619213645e+17
19639.0	5.463335077500245e+17
19640.0	5.4622743631844685e+17
19641.0	5.460340389882543e+17
19642.0	5.4603764140605434e+17
19643.0	5.4593574316714656e+17
19644.0	5.458325934178303e+17
19645.0	5.4570299438749e+17
19646.0	5.456446016367274e+17
19647.0	5.455460519903231e+17
19648.0	5.454466007782741e+17
19649.0	5.453473648039251e+17
19650.0	5.4524967841518925e+17
19651.0	5.451498713863509e+17
19652.0	5.4505075802548896e+17
19653.0	5.4495288701747194e+17
19654.0	5.4485310214853965e+17
19655.0	5.447533827806547e+17
19656.0	5.4465598167449594e+17
19657.0	5.445570743937705e+17
19658.0	5.4445923400417274e+17
19659.0	5.4436035503499936e+17
19660.0	5.442625686820179e+17
19661.0	5.4416315088459085e+17
