# Flux units: erg / (cm m2 s)
# Wavelength units: Angstrom
wave	flux
19000.0	6.461404072640511e+17
19001.0	6.460160675414015e+17
19002.0	6.458983144139434e+17
19003.0	6.45777141670434e+17
19004.0	6.456562305116842e+17
19005.0	6.455353004785664e+17
19006.0	6.454142754444628e+17
19007.0	6.45287086531106e+17
19008.0	6.451701012409002e+17
19009.0	6.450500926963711e+17
19010.0	6.449141319554388e+17
19011.0	6.448086340949332e+17
19012.0	6.446758906647891e+17
19013.0	6.445671789188436e+17
19014.0	6.444441523628714e+17
19015.0	6.443267577085951e+17
19016.0	6.442123346487977e+17
19017.0	6.440918534761129e+17
19018.0	6.439712022244009e+17
19019.0	6.43851069947904e+17
19020.0	6.437288425466537e+17
19021.0	6.43608908800546e+17
19022.0	6.43488407425297e+17
19023.0	6.433662072171178e+17
19024.0	6.432458552289961e+17
19025.0	6.431251988742143e+17
19026.0	6.430031625235114e+17
19027.0	6.428750811321684e+17
19028.0	6.427633506757289e+17
19029.0	6.426422740516863e+17
19030.0	6.42522109059618e+17
19031.0	6.424013255475197e+17
19032.0	6.422805449015296e+17
19033.0	6.421568771063808e+17
19034.0	6.420387780886527e+17
19035.0	6.419217098211327e+17
19036.0	6.409075893993481e+17
19037.0	6.416777625993215e+17
19038.0	6.415562780792148e+17
19039.0	6.414372763773609e+17
19040.0	6.413166330249216e+17
19041.0	6.411961768083455e+17
19042.0	6.410711146168319e+17
19043.0	6.409547944733353e+17
19044.0	6.40833890165282e+17
19045.0	6.407134428266495e+17
19046.0	6.405914787577855e+17
19047.0	6.404727099796138e+17
19048.0	6.403444522177875e+17
19049.0	6.40228783170082e+17
19050.0	6.401097465855999e+17
19051.0	6.398882832100008e+17
19052.0	6.398624290308095e+17
19053.0	6.397482053402623e+17
19054.0	6.396295977631743e+17
19055.0	6.395007050536276e+17
19056.0	6.393877704824148e+17
19057.0	6.392674512098644e+17
19058.0	6.391451533443071e+17
19059.0	6.390276334201514e+17
19060.0	6.389064346719572e+17
19061.0	6.387869944556202e+17
19062.0	6.38666556903697e+17
19063.0	6.385463726877353e+17
19064.0	6.384224867188736e+17
19065.0	6.383000811296084e+17
19066.0	6.381840710150826e+17
19067.0	6.380648855328084e+17
19068.0	6.379389281370111e+17
19069.0	6.378188633189033e+17
19070.0	6.376978784802132e+17
19071.0	6.37578437984256e+17
19072.0	6.374585205959338e+17
19073.0	6.373383391761747e+17
19074.0	6.372184950483626e+17
19075.0	6.370984953118717e+17
19076.0	6.369777282973695e+17
19077.0	6.368581945480531e+17
19078.0	6.367374933142185e+17
19079.0	6.366185793432233e+17
19080.0	6.364983003359914e+17
19081.0	6.363772818729642e+17
19082.0	6.362573017797971e+17
19083.0	6.361353945437524e+17
19084.0	6.360113459058004e+17
19085.0	6.35899386929698e+17
19086.0	6.357660316205055e+17
19087.0	6.356403474836138e+17
19088.0	6.355382347759615e+17
19089.0	6.354036576660138e+17
19090.0	6.352995712587091e+17
19091.0	6.351799581671423e+17
19092.0	6.350548404710057e+17
19093.0	6.349413906994516e+17
19094.0	6.348213125294761e+17
19095.0	6.347015510993578e+17
19096.0	6.345814736284329e+17
19097.0	6.344627693027327e+17
19098.0	6.34343333630225e+17
19099.0	6.342237769520468e+17
19100.0	6.3410301580957e+17
19101.0	6.339845955780607e+17
19102.0	6.338619229514408e+17
19103.0	6.337454386009427e+17
19104.0	6.336246146837161e+17
19105.0	6.335051828559872e+17
19106.0	6.333822257157459e+17
19107.0	6.332658869075967e+17
19108.0	6.33146934628625e+17
19109.0	6.329666739983699e+17
19110.0	6.329094518778537e+17
19111.0	6.327887625977855e+17
19112.0	6.326695848050687e+17
19113.0	6.325503779318442e+17
19114.0	6.324311274378579e+17
19115.0	6.323091525337085e+17
19116.0	6.321918495948799e+17
19117.0	6.32072854254387e+17
19118.0	6.319505085737642e+17
19119.0	6.317184114491388e+17
19120.0	6.317102706546003e+17
19121.0	6.315931503777107e+17
19122.0	6.314776433000447e+17
19123.0	6.31358423634193e+17
19124.0	6.312360337036627e+17
19125.0	6.31120059310626e+17
19126.0	6.310005770114388e+17
19127.0	6.308260545385812e+17
19128.0	6.307261064413183e+17
19129.0	6.306415352916649e+17
19130.0	6.305250481449641e+17
19131.0	6.304054614775124e+17
19132.0	6.302874982154239e+17
19133.0	6.301536890126335e+17
19134.0	6.300323775774719e+17
19135.0	6.299305866428415e+17
19136.0	6.298121252372479e+17
19137.0	6.296877939731114e+17
19138.0	6.295714457277779e+17
19139.0	6.294556291104765e+17
19140.0	6.293369148582569e+17
19141.0	6.292181985088852e+17
19142.0	6.290985770986153e+17
19143.0	6.289788628544169e+17
19144.0	6.28860992426257e+17
19145.0	6.287431198310399e+17
19146.0	6.286037605154815e+17
19147.0	6.285037095878655e+17
19148.0	6.283870554379603e+17
19149.0	6.282686310820521e+17
19150.0	6.281498378371072e+17
19151.0	6.280316881382057e+17
19152.0	6.27912103428096e+17
19153.0	6.277938380363092e+17
19154.0	6.276718587281405e+17
19155.0	6.275576485991764e+17
19156.0	6.274389673421481e+17
19157.0	6.273204806309204e+17
19158.0	6.271610352129363e+17
19159.0	6.27082991378978e+17
19160.0	6.269642749597012e+17
19161.0	6.268434159501311e+17
19162.0	6.266344255957674e+17
19163.0	6.266120350728191e+17
19164.0	6.264918389030911e+17
19165.0	6.263717509464063e+17
19166.0	6.262494207847082e+17
19167.0	6.261280469942271e+17
19168.0	6.260162670450004e+17
19169.0	6.258972842874196e+17
19170.0	6.257820122305876e+17
19171.0	6.256582242686292e+17
19172.0	6.255453468797609e+17
19173.0	6.254271326584832e+17
19174.0	6.25307356897826e+17
19175.0	6.251910478692352e+17
19176.0	6.250729514379946e+17
19177.0	6.249498455397716e+17
19178.0	6.248353144766463e+17
19179.0	6.247105639219199e+17
19180.0	6.245955437330431e+17
19181.0	6.244784602961236e+17
19182.0	6.243630302538409e+17
19183.0	6.242456458756095e+17
19184.0	6.241256026581673e+17
19185.0	6.240098605596672e+17
19186.0	6.238920252937556e+17
19187.0	6.237716651267412e+17
19188.0	6.236556188712959e+17
19189.0	6.235364111592105e+17
19190.0	6.234180969037823e+17
19191.0	6.233000108883967e+17
19192.0	6.231840148946943e+17
19193.0	6.230638250863274e+17
19194.0	6.229466577633279e+17
19195.0	6.228296301106516e+17
19196.0	6.227120741853866e+17
19197.0	6.225941114126336e+17
19198.0	6.224759617836372e+17
19199.0	6.218135001279145e+17
19200.0	6.218950912944812e+17
19201.0	6.221224974396073e+17
19202.0	6.220052262376788e+17
19203.0	6.218861672835753e+17
19204.0	6.217686702882815e+17
19205.0	6.216517240051027e+17
19206.0	6.21530659824162e+17
19207.0	6.214083935556948e+17
19208.0	6.21286133858304e+17
19209.0	6.211753241914025e+17
19210.0	6.210576081835348e+17
19211.0	6.209400550544724e+17
19212.0	6.208223358309716e+17
19213.0	6.206964203083092e+17
19214.0	6.205772664930303e+17
19215.0	6.204671679004672e+17
19216.0	6.203509621915647e+17
19217.0	6.202336771484329e+17
19218.0	6.200890453131263e+17
19219.0	6.199931011683668e+17
19220.0	6.198793540206591e+17
19221.0	6.197512713011199e+17
19222.0	6.196454685147135e+17
19223.0	6.19526773346577e+17
19224.0	6.194076307860137e+17
19225.0	6.192869428341418e+17
19226.0	6.191733583555242e+17
19227.0	6.190555299403092e+17
19228.0	6.189387832360959e+17
19229.0	6.18821033533986e+17
19230.0	6.187017949937663e+17
19231.0	6.18584072065297e+17
19232.0	6.184671384349353e+17
19233.0	6.183477326118911e+17
19234.0	6.182316033791316e+17
19235.0	6.181139005833215e+17
19236.0	6.179969865962836e+17
19237.0	6.178787157519018e+17
19238.0	6.17757643252258e+17
19239.0	6.176438903723348e+17
19240.0	6.175210736014676e+17
19241.0	6.174060901127508e+17
19242.0	6.172901468274687e+17
19243.0	6.171668721085097e+17
19244.0	6.170548672047786e+17
19245.0	6.169371739160576e+17
19246.0	6.168188263159124e+17
19247.0	6.167015115631274e+17
19248.0	6.16583723622946e+17
19249.0	6.164656118824959e+17
19250.0	6.163473165014356e+17
19251.0	6.162266961477631e+17
19252.0	6.161021625084585e+17
19253.0	6.159934227305812e+17
19254.0	6.158755397894144e+17
19255.0	6.157518391388842e+17
19256.0	6.156384743718911e+17
19257.0	6.155222601345705e+17
19258.0	6.156365507941719e+17
19259.0	6.156439587738963e+17
19260.0	6.155175756562431e+17
19261.0	6.154101115759274e+17
19262.0	6.152903536410623e+17
19263.0	6.151729802379263e+17
19264.0	6.150383556624383e+17
19265.0	6.149320252325887e+17
19266.0	6.148137934651391e+17
19267.0	6.147017002713087e+17
19268.0	6.145834775915178e+17
19269.0	6.144652203786237e+17
19270.0	6.143471563134292e+17
19271.0	6.14211916992785e+17
19272.0	6.14093801197841e+17
19273.0	6.138357386750633e+17
19274.0	6.13783550907733e+17
19275.0	6.137396580756138e+17
19276.0	6.136204355436543e+17
19277.0	6.135008209840809e+17
19278.0	6.133815103018324e+17
19279.0	6.132613228003327e+17
19280.0	6.131399656472576e+17
19281.0	6.128720778275498e+17
19282.0	6.127528764069206e+17
19283.0	6.126254231825066e+17
19284.0	6.12501630886434e+17
19285.0	6.123887481847808e+17
19286.0	6.122754686320639e+17
19287.0	6.121574811129172e+17
19288.0	6.118882981620393e+17
19289.0	6.114919802645152e+17
19290.0	6.117993452929023e+17
19291.0	6.116710364304724e+17
19292.0	6.11560665977105e+17
19293.0	6.114404928061439e+17
19294.0	6.113206908310868e+17
19295.0	6.11201091510818e+17
19296.0	6.110809600032768e+17
19297.0	6.109594267593386e+17
19298.0	6.108399418037588e+17
19299.0	6.107205727507796e+17
19300.0	6.106000840283476e+17
19301.0	6.104793711902717e+17
19302.0	6.103586166188714e+17
19303.0	6.102352804533587e+17
19304.0	6.101156082920105e+17
19305.0	6.099955748612777e+17
19306.0	6.098746220391082e+17
19307.0	6.097478917029887e+17
19308.0	6.096250296336383e+17
19309.0	6.094863967715327e+17
19310.0	6.093578340139008e+17
19311.0	6.09259323724049e+17
19312.0	6.091389705475414e+17
19313.0	6.090160044594516e+17
19314.0	6.084687746651476e+17
19315.0	6.083820576396637e+17
19316.0	6.086485785356969e+17
19317.0	6.085287634883924e+17
19318.0	6.084059878916095e+17
19319.0	6.082832775861588e+17
19320.0	6.081592940298237e+17
19321.0	6.08035754021137e+17
19322.0	6.079076179640319e+17
19323.0	6.077781111384746e+17
19324.0	6.076623918290259e+17
19325.0	6.075204196717908e+17
19326.0	6.07412591665698e+17
19327.0	6.072866715293011e+17
19328.0	6.071615292964863e+17
19329.0	6.069328749264893e+17
19330.0	6.067290692911101e+17
19331.0	6.066019654522195e+17
19332.0	6.064760723690836e+17
19333.0	6.063482769593683e+17
19334.0	6.06219906650385e+17
19335.0	6.060918439935999e+17
19336.0	6.05954112627234e+17
19337.0	6.05813736542481e+17
19338.0	6.056734383319722e+17
19339.0	6.055466476677801e+17
19340.0	6.054137324808874e+17
19341.0	6.052849776241321e+17
19342.0	6.051393847339689e+17
19343.0	6.050210181895508e+17
19344.0	6.048883207569407e+17
19345.0	6.046881518627496e+17
19346.0	6.04598810321442e+17
19347.0	6.04484410679842e+17
19348.0	6.043517307934035e+17
19349.0	6.041692311038633e+17
19350.0	6.038574673690623e+17
19351.0	6.037197926258004e+17
19352.0	6.035794230422185e+17
19353.0	6.034424672725673e+17
19354.0	6.032300811397801e+17
19355.0	6.030685057843199e+17
19356.0	6.029293066212692e+17
19357.0	6.027861314677417e+17
19358.0	6.026235060682751e+17
19359.0	6.024643416686591e+17
19360.0	6.023244429656063e+17
19361.0	6.021317936895316e+17
19362.0	6.019116145399126e+17
19363.0	6.017555323245907e+17
19364.0	6.01608281006626e+17
19365.0	6.014530379317247e+17
19366.0	6.012985045330601e+17
19367.0	6.011424890770771e+17
19368.0	6.009849041824425e+17
19369.0	6.008224041926655e+17
19370.0	6.006203693924351e+17
19371.0	6.004685587961174e+17
19372.0	6.003057673022121e+17
19373.0	6.001384229612202e+17
19374.0	5.999708802296489e+17
19375.0	5.997999612930729e+17
19376.0	5.996269730966186e+17
19377.0	5.994430841137833e+17
19378.0	5.992350332136105e+17
19379.0	5.990544439596372e+17
19380.0	5.988712402561705e+17
19381.0	5.986846452482047e+17
19382.0	5.98490691543586e+17
19383.0	5.982649929695231e+17
19384.0	5.98059495002385e+17
19385.0	5.978607938349737e+17
19386.0	5.976586703951187e+17
19387.0	5.974312290877439e+17
19388.0	5.971820285700777e+17
19389.0	5.969673135499946e+17
19390.0	5.967430478899881e+17
19391.0	5.958647289653919e+17
19392.0	5.962505487996243e+17
19393.0	5.959864048156672e+17
19394.0	5.957198627383977e+17
19395.0	5.954741808223572e+17
19396.0	5.95222764453888e+17
19397.0	5.949886625218559e+17
19398.0	5.947229755932672e+17
19399.0	5.943956468662271e+17
19400.0	5.941384104815274e+17
19401.0	5.938538500937044e+17
19402.0	5.935158509174783e+17
19403.0	5.932311040229375e+17
19404.0	5.929215325110272e+17
19405.0	5.925579519950847e+17
19406.0	5.922251550141097e+17
19407.0	5.919055840018431e+17
19408.0	5.915233029018966e+17
19409.0	5.911428871487487e+17
19410.0	5.907837458142548e+17
19411.0	5.903151975279273e+17
19412.0	5.897145048279722e+17
19413.0	5.892923939181908e+17
19414.0	5.888050804555775e+17
19415.0	5.88447982935518e+17
19416.0	5.877896451893928e+17
19417.0	5.871159296567978e+17
19418.0	5.864979822892374e+17
19419.0	5.855381880307708e+17
19420.0	5.846606344268456e+17
19421.0	5.836874201432065e+17
19422.0	5.824491279439188e+17
19423.0	5.812246224218789e+17
19424.0	5.800309420982268e+17
19425.0	5.785605605337765e+17
19426.0	5.767416534881631e+17
19427.0	5.746428428506451e+17
19428.0	5.716880982190772e+17
19429.0	5.6936965550899174e+17
19430.0	5.691182133455524e+17
19431.0	5.69212561907165e+17
19432.0	5.703645449071274e+17
19433.0	5.6930069129461754e+17
19434.0	5.6705822043231584e+17
19435.0	5.641414145387172e+17
19436.0	5.612728164373842e+17
19437.0	5.589541440891565e+17
19438.0	5.5559680436469754e+17
19439.0	5.535742361075718e+17
19440.0	5.49301984043555e+17
19441.0	5.430261871979175e+17
19442.0	5.337818249996945e+17
19443.0	5.314580781727722e+17
19444.0	5.288779727590733e+17
19445.0	5.212113176537768e+17
19446.0	5.1344239003784435e+17
19447.0	4.9825129923870835e+17
19448.0	4.888171533828102e+17
19449.0	4.682098099093482e+17
19450.0	4.315008204800003e+17
19451.0	4.204924111945709e+17
19452.0	4.513605690414446e+17
19453.0	4.79898397590598e+17
19454.0	4.9278885406528755e+17
19455.0	5.063007512035322e+17
19456.0	5.1699807679064723e+17
19457.0	5.239994669771434e+17
19458.0	5.2882569607249946e+17
19459.0	5.300285064172894e+17
19460.0	5.3674738953748717e+17
19461.0	5.4473593531487546e+17
19462.0	5.4951746508335776e+17
19463.0	5.52814707282193e+17
19464.0	5.552154538409982e+17
19465.0	5.573584237188439e+17
19466.0	5.596527737176061e+17
19467.0	5.6251094142375206e+17
19468.0	5.6482700540422874e+17
19469.0	5.664658225976667e+17
19470.0	5.6596973409184294e+17
19471.0	5.6503213678919654e+17
19472.0	5.648650907331237e+17
19473.0	5.6586233194741965e+17
19474.0	5.685566367946051e+17
19475.0	5.707032878033573e+17
19476.0	5.7265540531486816e+17
19477.0	5.73770598746248e+17
19478.0	5.751914420852055e+17
19479.0	5.7591689631498285e+17
19480.0	5.768344909818541e+17
19481.0	5.780396070753622e+17
19482.0	5.783996204755625e+17
19483.0	5.792929301921793e+17
19484.0	5.79775324365346e+17
19485.0	5.801869725837993e+17
19486.0	5.807168238387201e+17
19487.0	5.809009428092246e+17
19488.0	5.811492675562154e+17
19489.0	5.813500186198015e+17
19490.0	5.815257486327808e+17
19491.0	5.819843148251133e+17
19492.0	5.82155698700288e+17
19493.0	5.822935579929257e+17
19494.0	5.824623379043667e+17
19495.0	5.825887419236351e+17
19496.0	5.826613988731561e+17
19497.0	5.827994281749161e+17
19498.0	5.829180210719404e+17
19499.0	5.820211536767649e+17
19500.0	5.830481878013268e+17
19501.0	5.831862249324544e+17
19502.0	5.832272193606995e+17
19503.0	5.832807843976532e+17
19504.0	5.833568925603156e+17
19505.0	5.833957964775423e+17
19506.0	5.834078335707818e+17
19507.0	5.834298669487446e+17
19508.0	5.834507694025386e+17
19509.0	5.834947307416233e+17
19510.0	5.835035811424938e+17
19511.0	5.825860819659428e+17
19512.0	5.834621243621372e+17
19513.0	5.833037985437007e+17
19514.0	5.833784022095186e+17
19515.0	5.835389649201834e+17
19516.0	5.835856489218048e+17
19517.0	5.835541759830697e+17
19518.0	5.835304468479999e+17
19519.0	5.835013190145363e+17
19520.0	5.835087843164159e+17
19521.0	5.834779170351786e+17
19522.0	5.834388322735443e+17
19523.0	5.833999710683135e+17
19524.0	5.833584622086825e+17
19525.0	5.833115959645524e+17
19526.0	5.832985379777193e+17
19527.0	5.83249665458176e+17
19528.0	5.831968532288852e+17
19529.0	5.831423662140073e+17
19530.0	5.830858579640319e+17
19531.0	5.830272603215188e+17
19532.0	5.829665698611199e+17
19533.0	5.829044763361279e+17
19534.0	5.828515463167999e+17
19535.0	5.82804014436625e+17
19536.0	5.827362786639871e+17
19537.0	5.826694029333843e+17
19538.0	5.825981134667775e+17
19539.0	5.825103311579818e+17
19540.0	5.824556674930004e+17
19541.0	5.823872298035882e+17
19542.0	5.823131953048233e+17
19543.0	5.822377569725097e+17
19544.0	5.822199291532628e+17
19545.0	5.82180135903778e+17
19546.0	5.82073399255586e+17
19547.0	5.820220222472191e+17
19548.0	5.819496267426473e+17
19549.0	5.818788447868244e+17
19550.0	5.817993412651689e+17
19551.0	5.817159225704448e+17
19552.0	5.816317790999892e+17
19553.0	5.815500935615828e+17
19554.0	5.814681845366783e+17
19555.0	5.813828491848361e+17
19556.0	5.81296610869248e+17
19557.0	5.81209114611985e+17
19558.0	5.811209411843412e+17
19559.0	5.811050456809471e+17
19560.0	5.81131685732898e+17
19561.0	5.810417868384938e+17
19562.0	5.809519489013076e+17
19563.0	5.808609051716265e+17
19564.0	5.807694485127167e+17
19565.0	5.806774873489407e+17
19566.0	5.805829608090281e+17
19567.0	5.804922856887635e+17
19568.0	5.803983202768212e+17
19569.0	5.803082875142143e+17
19570.0	5.802245506116265e+17
19571.0	5.801302311305215e+17
19572.0	5.800347585653418e+17
19573.0	5.799497333822803e+17
19574.0	5.798519041774932e+17
19575.0	5.797596800308564e+17
19576.0	5.797137014412628e+17
19577.0	5.796453067434665e+17
19578.0	5.795491125482835e+17
19579.0	5.794552432558079e+17
19580.0	5.793728783100586e+17
19581.0	5.792766306374996e+17
19582.0	5.791798848913407e+17
19583.0	5.790823190189396e+17
19584.0	5.789843889411412e+17
19585.0	5.788829138376019e+17
19586.0	5.787833547620351e+17
19587.0	5.786861184221183e+17
19588.0	5.785758927421437e+17
19589.0	5.784913101979648e+17
19590.0	5.783908523529556e+17
19591.0	5.782948843006633e+17
19592.0	5.782043688435712e+17
19593.0	5.782560305752746e+17
19594.0	5.781481118324052e+17
19595.0	5.780563052986367e+17
19596.0	5.778712461748906e+17
19597.0	5.778565097674067e+17
19598.0	5.777459885288106e+17
19599.0	5.776561407350102e+17
19600.0	5.775557367169023e+17
19601.0	5.774527943060137e+17
19602.0	5.773534613733373e+17
19603.0	5.772309607830867e+17
19604.0	5.771508904012458e+17
19605.0	5.770413592281087e+17
19606.0	5.769501600994644e+17
19607.0	5.768491177781929e+17
19608.0	5.767472430972927e+17
19609.0	5.7664446936733e+17
19610.0	5.765449287467007e+17
19611.0	5.764431180988414e+17
19612.0	5.7634175036948474e+17
19613.0	5.762397847420926e+17
19614.0	5.761368554034517e+17
19615.0	5.760365579905705e+17
19616.0	5.759292549715284e+17
19617.0	5.758323733998249e+17
19618.0	5.757130726440958e+17
19619.0	5.7560630943197843e+17
19620.0	5.755041092730879e+17
19621.0	5.754239241770324e+17
19622.0	5.7532165383345485e+17
19623.0	5.7521931910731085e+17
19624.0	5.7511667505124685e+17
19625.0	5.750144177100117e+17
19626.0	5.7491160133795834e+17
19627.0	5.7480921844722336e+17
19628.0	5.746934037173588e+17
19629.0	5.7460085185576954e+17
19630.0	5.7450453644520115e+17
19631.0	5.7378769710612474e+17
19632.0	5.742955069439999e+17
19633.0	5.741912977833983e+17
19634.0	5.740902739170643e+17
19635.0	5.7398611774450336e+17
19636.0	5.738846956290047e+17
19637.0	5.737690502791168e+17
19638.0	5.736787418109268e+17
19639.0	5.73575478186257e+17
19640.0	5.7347181085982714e+17
19641.0	5.733448353666389e+17
19642.0	5.732672662579881e+17
19643.0	5.7316541415642445e+17
19644.0	5.730612379910143e+17
19645.0	5.7295078169422496e+17
19646.0	5.728568650061141e+17
19647.0	5.72753773138193e+17
19648.0	5.72650636391219e+17
19649.0	5.725473984217087e+17
19650.0	5.724443313700863e+17
19651.0	5.723410063687679e+17
19652.0	5.722378939487572e+17
19653.0	5.721345426631337e+17
19654.0	5.720315560722431e+17
19655.0	5.7192819332218874e+17
19656.0	5.7182489956843514e+17
19657.0	5.717218908176383e+17
19658.0	5.716185986717013e+17
19659.0	5.715153267283284e+17
19660.0	5.7141211979666765e+17
19661.0	5.713088471542441e+17
19662.0	5.712055673815038e+17
19663.0	5.71100814778914e+17
19664.0	5.709966753136639e+17
