# Flux units: erg / (cm m2 s)
# Wavelength units: Angstrom
wave	flux
19000.0	6.880032088304297e+17
19001.0	6.87875553370658e+17
19002.0	6.877572589682687e+17
19003.0	6.876295600974505e+17
19004.0	6.87502596907554e+17
19005.0	6.873749661941759e+17
19006.0	6.872483200936618e+17
19007.0	6.871184038341289e+17
19008.0	6.869888215110995e+17
19009.0	6.868567643389951e+17
19010.0	6.867010490553684e+17
19011.0	6.866071973090644e+17
19012.0	6.864536662791508e+17
19013.0	6.863557920555007e+17
19014.0	6.862236590363987e+17
19015.0	6.86098020897041e+17
19016.0	6.859702694576127e+17
19017.0	6.85846797816081e+17
19018.0	6.857176749790548e+17
19019.0	6.855913294004223e+17
19020.0	6.854626745079123e+17
19021.0	6.853369944255145e+17
19022.0	6.852097706994346e+17
19023.0	6.850916345621161e+17
19024.0	6.849668645038761e+17
19025.0	6.848388479844351e+17
19026.0	6.84708015059763e+17
19027.0	6.845617089282047e+17
19028.0	6.844577668748627e+17
19029.0	6.843297446931113e+17
19030.0	6.842043477262335e+17
19031.0	6.840766334063955e+17
19032.0	6.839483581683028e+17
19033.0	6.838121093485908e+17
19034.0	6.836880876939946e+17
19035.0	6.835316366595412e+17
19036.0	6.818192269770747e+17
19037.0	6.832864103148201e+17
19038.0	6.831776336969727e+17
19039.0	6.830552121693523e+17
19040.0	6.829286758896982e+17
19041.0	6.8280085643264e+17
19042.0	6.826601193581225e+17
19043.0	6.825469929674067e+17
19044.0	6.824183987524947e+17
19045.0	6.82290842837538e+17
19046.0	6.821602410889215e+17
19047.0	6.820341725440681e+17
19048.0	6.818909658633556e+17
19049.0	6.817622953121108e+17
19050.0	6.816460062763689e+17
19051.0	6.812762279772156e+17
19052.0	6.813322975029929e+17
19053.0	6.812685112268116e+17
19054.0	6.811438377074687e+17
19055.0	6.809927156760576e+17
19056.0	6.808864778704212e+17
19057.0	6.807616414722729e+17
19058.0	6.806276585553919e+17
19059.0	6.805050315068755e+17
19060.0	6.803784517462697e+17
19061.0	6.802527367812435e+17
19062.0	6.801249143881727e+17
19063.0	6.79997489615121e+17
19064.0	6.798605732719273e+17
19065.0	6.79727121703458e+17
19066.0	6.796079230091263e+17
19067.0	6.79487594439202e+17
19068.0	6.793608087382697e+17
19069.0	6.792335107031037e+17
19070.0	6.791040792352084e+17
19071.0	6.78977825022498e+17
19072.0	6.788489153959252e+17
19073.0	6.78723687948834e+17
19074.0	6.785967186771968e+17
19075.0	6.784693454940841e+17
19076.0	6.783404651577341e+17
19077.0	6.782132624031741e+17
19078.0	6.780845339705343e+17
19079.0	6.779598665329321e+17
19080.0	6.778313436910934e+17
19081.0	6.777011947175935e+17
19082.0	6.775746416607231e+17
19083.0	6.774405375284563e+17
19084.0	6.773022686620329e+17
19085.0	6.771947703282346e+17
19086.0	6.770264559146324e+17
19087.0	6.769019315027967e+17
19088.0	6.767923986519379e+17
19089.0	6.76650725548578e+17
19090.0	6.765517332632916e+17
19091.0	6.764273188121257e+17
19092.0	6.762875083991721e+17
19093.0	6.761768731454121e+17
19094.0	6.760508272498003e+17
19095.0	6.759239338950655e+17
19096.0	6.757956992019113e+17
19097.0	6.75669556208162e+17
19098.0	6.755400950306134e+17
19099.0	6.7541249570461e+17
19100.0	6.752851708958035e+17
19101.0	6.751599031134889e+17
19102.0	6.750255980740608e+17
19103.0	6.749067414951252e+17
19104.0	6.747798264698195e+17
19105.0	6.746459658868052e+17
19106.0	6.745189792088063e+17
19107.0	6.743936835343699e+17
19108.0	6.742634436143785e+17
19109.0	6.740366877960873e+17
19110.0	6.739971833244329e+17
19111.0	6.738859969391274e+17
19112.0	6.737609382428671e+17
19113.0	6.736365384018601e+17
19114.0	6.735081929790803e+17
19115.0	6.733751612604415e+17
19116.0	6.732534575879508e+17
19117.0	6.731257608841897e+17
19118.0	6.729868084161194e+17
19119.0	6.724963866946212e+17
19120.0	6.727308115880617e+17
19121.0	6.726097046252201e+17
19122.0	6.724941730108755e+17
19123.0	6.72367539073843e+17
19124.0	6.722306514616319e+17
19125.0	6.72112737063185e+17
19126.0	6.71983061836322e+17
19127.0	6.717182233455273e+17
19128.0	6.717148755918845e+17
19129.0	6.71598313087522e+17
19130.0	6.714782445644458e+17
19131.0	6.713527795100329e+17
19132.0	6.712257885678249e+17
19133.0	6.710919243497472e+17
19134.0	6.70964802195729e+17
19135.0	6.708321477547348e+17
19136.0	6.70705507246626e+17
19137.0	6.705665098295977e+17
19138.0	6.704506282704895e+17
19139.0	6.703255580398932e+17
19140.0	6.701990979567615e+17
19141.0	6.700724076063401e+17
19142.0	6.699434468092585e+17
19143.0	6.698147491348479e+17
19144.0	6.696886573815124e+17
19145.0	6.695654401245183e+17
19146.0	6.693854442247508e+17
19147.0	6.693051442047657e+17
19148.0	6.69182673813504e+17
19149.0	6.690552283485523e+17
19150.0	6.689315428674217e+17
19151.0	6.688052783087615e+17
19152.0	6.686765168809299e+17
19153.0	6.685454794140329e+17
19154.0	6.684144706781183e+17
19155.0	6.682965487299241e+17
19156.0	6.681688899147091e+17
19157.0	6.680301758229162e+17
19158.0	6.678523978011987e+17
19159.0	6.677812035452927e+17
19160.0	6.676587987249833e+17
19161.0	6.675273614011049e+17
19162.0	6.672433183107756e+17
19163.0	6.672545396118868e+17
19164.0	6.671543889996457e+17
19165.0	6.670228211630079e+17
19166.0	6.668910588504746e+17
19167.0	6.667617647460351e+17
19168.0	6.666484584895827e+17
19169.0	6.665223628914687e+17
19170.0	6.66397800660992e+17
19171.0	6.662644958232575e+17
19172.0	6.66143079600401e+17
19173.0	6.660188648680105e+17
19174.0	6.658888957602474e+17
19175.0	6.65766825435682e+17
19176.0	6.656402640601087e+17
19177.0	6.65499626180881e+17
19178.0	6.653799530408617e+17
19179.0	6.652484630784682e+17
19180.0	6.651313337838249e+17
19181.0	6.649974218904918e+17
19182.0	6.648793518833663e+17
19183.0	6.647543990233769e+17
19184.0	6.646274019295231e+17
19185.0	6.645008227980627e+17
19186.0	6.643744005335722e+17
19187.0	6.642414587128489e+17
19188.0	6.641207149767338e+17
19189.0	6.639936500050601e+17
19190.0	6.638654911589033e+17
19191.0	6.637355365214889e+17
19192.0	6.636127180729001e+17
19193.0	6.634841178461524e+17
19194.0	6.633543302818474e+17
19195.0	6.632267608752127e+17
19196.0	6.630923530054314e+17
19197.0	6.629510834640212e+17
19198.0	6.627616737984511e+17
19199.0	6.616131021657427e+17
19200.0	6.617003232067585e+17
19201.0	6.623914290227882e+17
19202.0	6.623202077835261e+17
19203.0	6.622043788629332e+17
19204.0	6.620845047458474e+17
19205.0	6.619621803862698e+17
19206.0	6.618373284691965e+17
19207.0	6.617022994928979e+17
19208.0	6.615690308659882e+17
19209.0	6.614589979142826e+17
19210.0	6.613329328646825e+17
19211.0	6.612069884712276e+17
19212.0	6.610795020419071e+17
19213.0	6.609378938104489e+17
19214.0	6.608069345673215e+17
19215.0	6.606939465886377e+17
19216.0	6.605557617481043e+17
19217.0	6.604261714558975e+17
19218.0	6.602366525986131e+17
19219.0	6.601577849334441e+17
19220.0	6.600441734714708e+17
19221.0	6.598963411724969e+17
19222.0	6.597907375456255e+17
19223.0	6.596586021497514e+17
19224.0	6.595245845599572e+17
19225.0	6.593905621467135e+17
19226.0	6.592726903204522e+17
19227.0	6.591455158774442e+17
19228.0	6.590208477407913e+17
19229.0	6.588934660292607e+17
19230.0	6.587653759696895e+17
19231.0	6.586375998537727e+17
19232.0	6.585106849682772e+17
19233.0	6.583777813157203e+17
19234.0	6.582547617502547e+17
19235.0	6.581262121347753e+17
19236.0	6.580012799666858e+17
19237.0	6.578724147997353e+17
19238.0	6.577367937974271e+17
19239.0	6.576183614024362e+17
19240.0	6.574899467736404e+17
19241.0	6.573607099214506e+17
19242.0	6.572336396369919e+17
19243.0	6.570924525835604e+17
19244.0	6.569793457662633e+17
19245.0	6.568507266651475e+17
19246.0	6.567218523406333e+17
19247.0	6.565948950926676e+17
19248.0	6.564668524287316e+17
19249.0	6.563330331596116e+17
19250.0	6.561834577078953e+17
19251.0	6.560481698032297e+17
19252.0	6.559029103602346e+17
19253.0	6.557988124185939e+17
19254.0	6.556722463593812e+17
19255.0	6.555262248113492e+17
19256.0	6.55412871368977e+17
19257.0	6.552861011170644e+17
19258.0	6.551570793627647e+17
19259.0	6.550209226779305e+17
19260.0	6.548660428996607e+17
19261.0	6.547682165609814e+17
19262.0	6.546349608665087e+17
19263.0	6.545039439517011e+17
19264.0	6.543376667814569e+17
19265.0	6.542350617324201e+17
19266.0	6.541052034940927e+17
19267.0	6.539925385467219e+17
19268.0	6.538627280535551e+17
19269.0	6.537326171783168e+17
19270.0	6.535957769617407e+17
19271.0	6.53429818069265e+17
19272.0	6.533227053318143e+17
19273.0	6.531526994253139e+17
19274.0	6.530184592577875e+17
19275.0	6.529342456725504e+17
19276.0	6.528019641051818e+17
19277.0	6.526714022024532e+17
19278.0	6.525405202743295e+17
19279.0	6.524072891165353e+17
19280.0	6.522715193562452e+17
19281.0	6.521445632267604e+17
19282.0	6.52012952887842e+17
19283.0	6.518707529798996e+17
19284.0	6.517398060400639e+17
19285.0	6.516041134549674e+17
19286.0	6.514794356015104e+17
19287.0	6.513451471295827e+17
19288.0	6.507485010242213e+17
19289.0	6.500231819908421e+17
19290.0	6.509445438417578e+17
19291.0	6.507843733684223e+17
19292.0	6.506681294913535e+17
19293.0	6.50534486872337e+17
19294.0	6.504001765201235e+17
19295.0	6.502671135539197e+17
19296.0	6.501297367460522e+17
19297.0	6.499953934685523e+17
19298.0	6.49860367707887e+17
19299.0	6.49724173623842e+17
19300.0	6.495913934935379e+17
19301.0	6.494554732276394e+17
19302.0	6.493183635270314e+17
19303.0	6.491765312498346e+17
19304.0	6.490435885902505e+17
19305.0	6.489071051691348e+17
19306.0	6.487698046975999e+17
19307.0	6.48627275956224e+17
19308.0	6.484890159677439e+17
19309.0	6.483166273470463e+17
19310.0	6.481617964324179e+17
19311.0	6.480656564136617e+17
19312.0	6.479354309640192e+17
19313.0	6.47793094112051e+17
19314.0	6.460447385452535e+17
19315.0	6.460436260061207e+17
19316.0	6.473608505327615e+17
19317.0	6.472214256462506e+17
19318.0	6.47062107595298e+17
19319.0	6.469219447209983e+17
19320.0	6.467777911062527e+17
19321.0	6.466287257518079e+17
19322.0	6.464690882347007e+17
19323.0	6.463203275964415e+17
19324.0	6.461834867507199e+17
19325.0	6.460162563549866e+17
19326.0	6.45893384638737e+17
19327.0	6.457500818385577e+17
19328.0	6.455996877985108e+17
19329.0	6.454573680033791e+17
19330.0	6.453046572395178e+17
19331.0	6.451537857478655e+17
19332.0	6.449970632720383e+17
19333.0	6.448111685730304e+17
19334.0	6.446609416759978e+17
19335.0	6.444985289277439e+17
19336.0	6.44354515542562e+17
19337.0	6.442009782211923e+17
19338.0	6.440281325611689e+17
19339.0	6.438900595687423e+17
19340.0	6.437249024873812e+17
19341.0	6.435678346106195e+17
19342.0	6.433589347833172e+17
19343.0	6.431920769116842e+17
19344.0	6.43026270691874e+17
19345.0	6.427119315845116e+17
19346.0	6.426289509848403e+17
19347.0	6.425318522180948e+17
19348.0	6.423779638334804e+17
19349.0	6.422082526467412e+17
19350.0	6.419663377749331e+17
19351.0	6.417848538060115e+17
19352.0	6.416068676769108e+17
19353.0	6.414470453308074e+17
19354.0	6.412743366148095e+17
19355.0	6.410913997389823e+17
19356.0	6.408692339572735e+17
19357.0	6.406340291330047e+17
19358.0	6.404537527042047e+17
19359.0	6.402615559236265e+17
19360.0	6.400525349508435e+17
19361.0	6.398474025872042e+17
19362.0	6.395466074466985e+17
19363.0	6.393573086505642e+17
19364.0	6.39165783937297e+17
19365.0	6.389709172026025e+17
19366.0	6.386026243861161e+17
19367.0	6.384041614551722e+17
19368.0	6.382035855736832e+17
19369.0	6.3795718272669e+17
19370.0	6.376851951845375e+17
19371.0	6.3747734386333e+17
19372.0	6.372716186348202e+17
19373.0	6.370568685922985e+17
19374.0	6.367863292734122e+17
19375.0	6.365629574195882e+17
19376.0	6.363408910428841e+17
19377.0	6.361144544111274e+17
19378.0	6.358858495339177e+17
19379.0	6.356538588747092e+17
19380.0	6.354173962485759e+17
19381.0	6.351762854947497e+17
19382.0	6.348617354138966e+17
19383.0	6.345727221432319e+17
19384.0	6.343261088819881e+17
19385.0	6.340675278034259e+17
19386.0	6.338031593542996e+17
19387.0	6.335325701231956e+17
19388.0	6.332074062861652e+17
19389.0	6.328222908852905e+17
19390.0	6.325253248647165e+17
19391.0	6.308698786540184e+17
19392.0	6.318792005823144e+17
19393.0	6.314274417453738e+17
19394.0	6.311000311595007e+17
19395.0	6.307706389047978e+17
19396.0	6.303200767726935e+17
19397.0	6.297946839930195e+17
19398.0	6.294285689290751e+17
19399.0	6.288488104897196e+17
19400.0	6.283036270264319e+17
19401.0	6.279110035417769e+17
19402.0	6.270810840192337e+17
19403.0	6.266087031177215e+17
19404.0	6.258066992747855e+17
19405.0	6.251661696346793e+17
19406.0	6.24262196669099e+17
19407.0	6.235557635380564e+17
19408.0	6.223155779600378e+17
19409.0	6.216731260005034e+17
19410.0	6.208635622741332e+17
19411.0	6.203278501085183e+17
19412.0	6.197649496954195e+17
19413.0	6.19106734632687e+17
19414.0	6.184997177611603e+17
19415.0	6.178854327200425e+17
19416.0	6.171774544773119e+17
19417.0	6.164367040402771e+17
19418.0	6.157770989152937e+17
19419.0	6.149160008941564e+17
19420.0	6.141280636982612e+17
19421.0	6.131471504201044e+17
19422.0	6.122456744635049e+17
19423.0	6.11010866262835e+17
19424.0	6.098514234135891e+17
19425.0	6.085028819763206e+17
19426.0	6.069341911689897e+17
19427.0	6.051274375386452e+17
19428.0	6.031794231050239e+17
19429.0	6.009762309909158e+17
19430.0	5.984456145196378e+17
19431.0	5.961557008362156e+17
19432.0	5.947493797855231e+17
19433.0	5.930544897108652e+17
19434.0	5.912350905335807e+17
19435.0	5.892618652570963e+17
19436.0	5.870944333594624e+17
19437.0	5.848665157533695e+17
19438.0	5.805617891508224e+17
19439.0	5.795632457449472e+17
19440.0	5.764342953104723e+17
19441.0	5.7274697710742144e+17
19442.0	5.684691168395266e+17
19443.0	5.635816451036501e+17
19444.0	5.578501263108776e+17
19445.0	5.509955863969793e+17
19446.0	5.4294082835797325e+17
19447.0	5.328134063434405e+17
19448.0	5.197628586677595e+17
19449.0	5.013146316046336e+17
19450.0	4.707405127133864e+17
19451.0	4.513336590161258e+17
19452.0	4.884048248482472e+17
19453.0	5.113951828312072e+17
19454.0	5.264168381491877e+17
19455.0	5.375398779027455e+17
19456.0	5.463789391926616e+17
19457.0	5.534711344529404e+17
19458.0	5.563663302437601e+17
19459.0	5.64496215397718e+17
19460.0	5.689540375216126e+17
19461.0	5.727188984091988e+17
19462.0	5.7591489549216435e+17
19463.0	5.786626257758889e+17
19464.0	5.810606097563647e+17
19465.0	5.831818313291092e+17
19466.0	5.851696042693971e+17
19467.0	5.869578605297663e+17
19468.0	5.886170280667818e+17
19469.0	5.901216952702292e+17
19470.0	5.915685325985108e+17
19471.0	5.931923890591054e+17
19472.0	5.95276791842953e+17
19473.0	5.973925463501484e+17
19474.0	5.992537307217923e+17
19475.0	6.008353076893019e+17
19476.0	6.022704455658156e+17
19477.0	6.034535374389247e+17
19478.0	6.046354184863743e+17
19479.0	6.054977959100415e+17
19480.0	6.062747108245503e+17
19481.0	6.070780129443836e+17
19482.0	6.076469181328042e+17
19483.0	6.082948595275091e+17
19484.0	6.087976080288425e+17
19485.0	6.092468925060436e+17
19486.0	6.097780328103936e+17
19487.0	6.101747732141395e+17
19488.0	6.105485161092436e+17
19489.0	6.109420294853972e+17
19490.0	6.112249382262099e+17
19491.0	6.116373928695124e+17
19492.0	6.120366501352794e+17
19493.0	6.126190868474538e+17
19494.0	6.133401529963862e+17
19495.0	6.138909090119679e+17
19496.0	6.14617329609386e+17
19497.0	6.149668935303167e+17
19498.0	6.154182532093267e+17
19499.0	6.137573037222557e+17
19500.0	6.163668775469056e+17
19501.0	6.167150768510292e+17
19502.0	6.169022378104146e+17
19503.0	6.173675011178495e+17
19504.0	6.174955499334314e+17
19505.0	6.176424949273938e+17
19506.0	6.180066790735872e+17
19507.0	6.180996423264938e+17
19508.0	6.181865813704703e+17
19509.0	6.183729333185193e+17
19510.0	6.18505029427746e+17
19511.0	6.156533802292543e+17
19512.0	6.182675898783054e+17
19513.0	6.180714774353228e+17
19514.0	6.184081836474363e+17
19515.0	6.188666504347647e+17
19516.0	6.189485194739712e+17
19517.0	6.189726526603263e+17
19518.0	6.189975106224127e+17
19519.0	6.190121109946368e+17
19520.0	6.190882634771112e+17
19521.0	6.191274714114729e+17
19522.0	6.19126990115089e+17
19523.0	6.1912727959197e+17
19524.0	6.191192781182292e+17
19525.0	6.191122048439635e+17
19526.0	6.19100519862545e+17
19527.0	6.190846002419027e+17
19528.0	6.190776052613119e+17
19529.0	6.190995266513578e+17
19530.0	6.190759315942058e+17
19531.0	6.190488747682473e+17
19532.0	6.190217873238697e+17
19533.0	6.190854132378282e+17
19534.0	6.190505638144681e+17
19535.0	6.190125257413972e+17
19536.0	6.19025064613205e+17
19537.0	6.190943998137684e+17
19538.0	6.1903600105117e+17
19539.0	6.189621114656086e+17
19540.0	6.189672547308883e+17
19541.0	6.190369249864362e+17
19542.0	6.189843026892116e+17
19543.0	6.189325028950015e+17
19544.0	6.189004614183594e+17
19545.0	6.188021358176938e+17
19546.0	6.187796874832553e+17
19547.0	6.18825425948945e+17
19548.0	6.18763581985041e+17
19549.0	6.186908510759593e+17
19550.0	6.186338869051391e+17
19551.0	6.185672125011284e+17
19552.0	6.18509956616465e+17
19553.0	6.185071290264234e+17
19554.0	6.184356843705684e+17
19555.0	6.183653440749567e+17
19556.0	6.18294124093986e+17
19557.0	6.182202687619072e+17
19558.0	6.181454036511402e+17
19559.0	6.180695751786496e+17
19560.0	6.180095789454676e+17
19561.0	6.179694450485929e+17
19562.0	6.178914895746388e+17
19563.0	6.178130423185407e+17
19564.0	6.177322024217258e+17
19565.0	6.176504883620521e+17
19566.0	6.175654120783871e+17
19567.0	6.174843428230484e+17
19568.0	6.173978414546943e+17
19569.0	6.173134554835625e+17
19570.0	6.172297078854996e+17
19571.0	6.171811158949887e+17
19572.0	6.170931211446953e+17
19573.0	6.170068966004052e+17
19574.0	6.169112997440169e+17
19575.0	6.168307577825961e+17
19576.0	6.167410911128233e+17
19577.0	6.166490690617344e+17
19578.0	6.165569999645353e+17
19579.0	6.164663286191444e+17
19580.0	6.163748075077631e+17
19581.0	6.162837873360896e+17
19582.0	6.161923833855999e+17
19583.0	6.160991779116372e+17
19584.0	6.160046637449215e+17
19585.0	6.159011754453674e+17
19586.0	6.158030070611968e+17
19587.0	6.157339351231146e+17
19588.0	6.156249908729171e+17
19589.0	6.155634063267155e+17
19590.0	6.154615589087914e+17
19591.0	6.153739872239615e+17
19592.0	6.15278086979584e+17
19593.0	6.151786963752276e+17
19594.0	6.150614961269417e+17
19595.0	6.149830917226495e+17
19596.0	6.148523091296255e+17
19597.0	6.147869356589055e+17
19598.0	6.146590897078272e+17
19599.0	6.145897533188778e+17
19600.0	6.1449124198045e+17
19601.0	6.143856284270591e+17
19602.0	6.142849224889683e+17
19603.0	6.141439036271273e+17
19604.0	6.140938402048682e+17
19605.0	6.13976494833664e+17
19606.0	6.13900659860002e+17
19607.0	6.138003853759827e+17
19608.0	6.136974568062976e+17
19609.0	6.135928584841897e+17
19610.0	6.134933893065386e+17
19611.0	6.133901687433897e+17
19612.0	6.132911607294634e+17
19613.0	6.131876980151636e+17
19614.0	6.130822972527955e+17
19615.0	6.129823060940115e+17
19616.0	6.128654938887508e+17
19617.0	6.127872336287059e+17
19618.0	6.126397178598739e+17
19619.0	6.125236282632873e+17
19620.0	6.124261901773482e+17
19621.0	6.123723088898729e+17
19622.0	6.12272929050897e+17
19623.0	6.121687728084308e+17
19624.0	6.120633559678976e+17
19625.0	6.119592731956564e+17
19626.0	6.118536715261267e+17
19627.0	6.11745230103074e+17
19628.0	6.116129084101972e+17
19629.0	6.115026824506025e+17
19630.0	6.112132699521023e+17
19631.0	6.101810694935894e+17
19632.0	6.111853283377151e+17
19633.0	6.111049647041194e+17
19634.0	6.110101996481193e+17
19635.0	6.109068452167679e+17
19636.0	6.108102742332756e+17
19637.0	6.106732545703935e+17
19638.0	6.106032331117908e+17
19639.0	6.104973901998764e+17
19640.0	6.103835686032724e+17
19641.0	6.102156197931692e+17
19642.0	6.10179200581632e+17
19643.0	6.100728473627305e+17
19644.0	6.099611706632873e+17
19645.0	6.098392921582249e+17
19646.0	6.097498123446954e+17
19647.0	6.096479804456959e+17
19648.0	6.095414469416276e+17
19649.0	6.094344978519379e+17
19650.0	6.093278579523583e+17
19651.0	6.092203649313449e+17
19652.0	6.091137742449322e+17
19653.0	6.090061561637546e+17
19654.0	6.08899036156177e+17
19655.0	6.087916029039956e+17
19656.0	6.086848815650132e+17
19657.0	6.08578147852834e+17
19658.0	6.084708144949932e+17
19659.0	6.083680061620223e+17
19660.0	6.082751584621908e+17
19661.0	6.081676365703849e+17
19662.0	6.080599224396457e+17
19663.0	6.079478732860073e+17
19664.0	6.078402459773609e+17
19665.0	6.077370490421247e+17
