# Flux units: erg / (cm m2 s)
# Wavelength units: Angstrom
wave	flux
19000.0	4.0547012218716154e+17
19001.0	4.053844055730859e+17
19002.0	4.053215594501459e+17
19003.0	4.0524648357560314e+17
19004.0	4.051716418830336e+17
19005.0	4.0509658718972576e+17
19006.0	4.050229113738581e+17
19007.0	4.0494733407027194e+17
19008.0	4.0486659644456954e+17
19009.0	4.0478369015398394e+17
19010.0	4.04666897871667e+17
19011.0	4.04644899655953e+17
19012.0	4.0455160078882125e+17
19013.0	4.045011562441386e+17
19014.0	4.044211600315733e+17
19015.0	4.043468961742847e+17
19016.0	4.0427005191127034e+17
19017.0	4.0420341588514125e+17
19018.0	4.041274070575786e+17
19019.0	4.040538628729514e+17
19020.0	4.0397860419665914e+17
19021.0	4.039062477690196e+17
19022.0	4.038314166321151e+17
19023.0	4.037537141445972e+17
19024.0	4.036803378719402e+17
19025.0	4.0360756921412256e+17
19026.0	4.035305361375231e+17
19027.0	4.034468429256021e+17
19028.0	4.033865023400618e+17
19029.0	4.0331008505719456e+17
19030.0	4.032387252660906e+17
19031.0	4.0316521631361696e+17
19032.0	4.030899495982421e+17
19033.0	4.030057630662655e+17
19034.0	4.029409552673451e+17
19035.0	4.028632887809364e+17
19036.0	4.0158727189299206e+17
19037.0	4.0271891531475616e+17
19038.0	4.0264350305703245e+17
19039.0	4.0257178723942394e+17
19040.0	4.024982478083413e+17
19041.0	4.024228730197332e+17
19042.0	4.023272644891989e+17
19043.0	4.0227630439464954e+17
19044.0	4.0220090646746445e+17
19045.0	4.021276818188969e+17
19046.0	4.0204659068327245e+17
19047.0	4.019766087909376e+17
19048.0	4.0187755156384416e+17
19049.0	4.0180028724128416e+17
19050.0	4.0175188679065594e+17
19051.0	4.015364047721812e+17
19052.0	4.0157526604731725e+17
19053.0	4.0153703119148365e+17
19054.0	4.014624728241493e+17
19055.0	4.013565854526123e+17
19056.0	4.013106416058368e+17
19057.0	4.0124085628654925e+17
19058.0	4.0115351465929376e+17
19059.0	4.0108817963636045e+17
19060.0	4.010175279136767e+17
19061.0	4.009466920610474e+17
19062.0	4.008723020950186e+17
19063.0	4.0079863417842336e+17
19064.0	4.0071017511867725e+17
19065.0	4.00632722751488e+17
19066.0	4.005673789205162e+17
19067.0	4.005026613690367e+17
19068.0	4.0043060616232954e+17
19069.0	4.0035711209963514e+17
19070.0	4.0028013515680416e+17
19071.0	4.0020896641624736e+17
19072.0	4.0013109454875296e+17
19073.0	4.0006226462201165e+17
19074.0	3.9998934210314234e+17
19075.0	3.999158011341482e+17
19076.0	3.9983993742950394e+17
19077.0	3.997662199502165e+17
19078.0	3.99689987985681e+17
19079.0	3.996211849024853e+17
19080.0	3.995462019317759e+17
19081.0	3.9946997451106976e+17
19082.0	3.993964367577087e+17
19083.0	3.993177863574868e+17
19084.0	3.992313574107818e+17
19085.0	3.9917933853409274e+17
19086.0	3.9906299651031034e+17
19087.0	3.98995916587008e+17
19088.0	3.989453583766869e+17
19089.0	3.988560670971221e+17
19090.0	3.988116297045332e+17
19091.0	3.9873602220195834e+17
19092.0	3.9864832091313485e+17
19093.0	3.9859459810044576e+17
19094.0	3.985210520982869e+17
19095.0	3.983873425801217e+17
19096.0	3.981250992450218e+17
19097.0	3.980534369047893e+17
19098.0	3.979745902810453e+17
19099.0	3.9790054047307085e+17
19100.0	3.978305179658922e+17
19101.0	3.977597122423466e+17
19102.0	3.9767281591036576e+17
19103.0	3.976145558394197e+17
19104.0	3.9754223771975674e+17
19105.0	3.9745706615548576e+17
19106.0	3.9739095043276806e+17
19107.0	3.973177141100544e+17
19108.0	3.9724587952373754e+17
19109.0	3.9710884455164563e+17
19110.0	3.9710137009220256e+17
19111.0	3.97027503575313e+17
19112.0	3.969543314953558e+17
19113.0	3.968847898651306e+17
19114.0	3.968096763117567e+17
19115.0	3.9673141647114234e+17
19116.0	3.966643343807829e+17
19117.0	3.9659088491752096e+17
19118.0	3.965055264271018e+17
19119.0	3.952634443945287e+17
19120.0	3.9636593090232314e+17
19121.0	3.962959469827412e+17
19122.0	3.962297980551168e+17
19123.0	3.9615699905850016e+17
19124.0	3.960802920890367e+17
19125.0	3.960107041816574e+17
19126.0	3.9593822157537274e+17
19127.0	3.95641573273327e+17
19128.0	3.957803316849321e+17
19129.0	3.957126602948608e+17
19130.0	3.9564540197382816e+17
19131.0	3.955747216599722e+17
19132.0	3.955020945599146e+17
19133.0	3.954178732152149e+17
19134.0	3.953510086694229e+17
19135.0	3.952839788680532e+17
19136.0	3.95212281155857e+17
19137.0	3.951200664464042e+17
19138.0	3.95064639557905e+17
19139.0	3.949944737453397e+17
19140.0	3.9492214744678394e+17
19141.0	3.9484953929099936e+17
19142.0	3.9477426565502285e+17
19143.0	3.946977707076266e+17
19144.0	3.946275116417023e+17
19145.0	3.9455923326593696e+17
19146.0	3.944187673531733e+17
19147.0	3.9439963741224954e+17
19148.0	3.9433756248200525e+17
19149.0	3.9426398879743994e+17
19150.0	3.9419645491063456e+17
19151.0	3.941246252176726e+17
19152.0	3.9405126705042765e+17
19153.0	3.9397023477486925e+17
19154.0	3.938912837828606e+17
19155.0	3.938356763295743e+17
19156.0	3.9376337198120954e+17
19157.0	3.936870447360682e+17
19158.0	3.935666180893354e+17
19159.0	3.935445807966891e+17
19160.0	3.9347267301976736e+17
19161.0	3.9340107135713274e+17
19162.0	3.932232585925974e+17
19163.0	3.9325378536625485e+17
19164.0	3.9318535942089376e+17
19165.0	3.931006698520576e+17
19166.0	3.9302211641016314e+17
19167.0	3.929592087707647e+17
19168.0	3.9289528694865914e+17
19169.0	3.9282155457959245e+17
19170.0	3.927528392272553e+17
19171.0	3.92673918923571e+17
19172.0	3.926082649238186e+17
19173.0	3.9253632785667405e+17
19174.0	3.924570381746176e+17
19175.0	3.92392191578385e+17
19176.0	3.9232027177779194e+17
19177.0	3.9223076169536845e+17
19178.0	3.921737780210346e+17
19179.0	3.920952038872404e+17
19180.0	3.920310078275583e+17
19181.0	3.919432161514836e+17
19182.0	3.918845459475114e+17
19183.0	3.918168529567744e+17
19184.0	3.91743529811968e+17
19185.0	3.916716225942869e+17
19186.0	3.9160093361220256e+17
19187.0	3.9152255416401914e+17
19188.0	3.91456876396544e+17
19189.0	3.913853482041342e+17
19190.0	3.9131294962373965e+17
19191.0	3.912379848982527e+17
19192.0	3.911701081270955e+17
19193.0	3.9109628012789754e+17
19194.0	3.910235718680576e+17
19195.0	3.909547127209983e+17
19196.0	3.908811345625087e+17
19197.0	3.90810319192064e+17
19198.0	3.907390967644159e+17
19199.0	3.900587469613737e+17
19200.0	3.901680643648172e+17
19201.0	3.905241154759337e+17
19202.0	3.904528756419242e+17
19203.0	3.903794177201493e+17
19204.0	3.9030625507737594e+17
19205.0	3.9023670596730874e+17
19206.0	3.901639459078142e+17
19207.0	3.9007940383866874e+17
19208.0	3.8999463052356256e+17
19209.0	3.89950003548433e+17
19210.0	3.898787565841065e+17
19211.0	3.898085800760661e+17
19212.0	3.8973671011778554e+17
19213.0	3.8965239817611936e+17
19214.0	3.8957464102283936e+17
19215.0	3.895200620827989e+17
19216.0	3.894508129353728e+17
19217.0	3.893788720933547e+17
19218.0	3.8920853092215443e+17
19219.0	3.892213086595753e+17
19220.0	3.891621019342165e+17
19221.0	3.8905551991603206e+17
19222.0	3.890200250591914e+17
19223.0	3.8894802004432205e+17
19224.0	3.8887407089964365e+17
19225.0	3.887897215587668e+17
19226.0	3.8873393486888954e+17
19227.0	3.8866283722178554e+17
19228.0	3.8859376731095034e+17
19229.0	3.885223603339264e+17
19230.0	3.884500647236949e+17
19231.0	3.8837839909792416e+17
19232.0	3.8830701959359136e+17
19233.0	3.882292822234453e+17
19234.0	3.8816292882350074e+17
19235.0	3.880908849414142e+17
19236.0	3.8802295783860896e+17
19237.0	3.8794955129705805e+17
19238.0	3.8786887952192845e+17
19239.0	3.8780925322635936e+17
19240.0	3.877356238274559e+17
19241.0	3.87663789031424e+17
19242.0	3.875932738333354e+17
19243.0	3.875076073411925e+17
19244.0	3.8745322308676256e+17
19245.0	3.873815006281727e+17
19246.0	3.87308741337634e+17
19247.0	3.872385690238976e+17
19248.0	3.8716827871040845e+17
19249.0	3.87096122560785e+17
19250.0	3.8702206813907616e+17
19251.0	3.869375183803732e+17
19252.0	3.868564637351935e+17
19253.0	3.868092524396544e+17
19254.0	3.867410801797802e+17
19255.0	3.8665237491438925e+17
19256.0	3.865934263484416e+17
19257.0	3.865278156898304e+17
19258.0	3.864567755046912e+17
19259.0	3.863788842035882e+17
19260.0	3.8628771939833165e+17
19261.0	3.862418853724159e+17
19262.0	3.8616603928384845e+17
19263.0	3.860918291136512e+17
19264.0	3.8596058941139616e+17
19265.0	3.859316870916778e+17
19266.0	3.8584721751408634e+17
19267.0	3.8581703313544525e+17
19268.0	3.85745198059793e+17
19269.0	3.8567439429358925e+17
19270.0	3.856032717602816e+17
19271.0	3.8548912943923206e+17
19272.0	3.8545743105665696e+17
19273.0	3.852898112197972e+17
19274.0	3.852422545233235e+17
19275.0	3.852483652747263e+17
19276.0	3.8517495894289056e+17
19277.0	3.851046150122153e+17
19278.0	3.850334529126399e+17
19279.0	3.849609022887253e+17
19280.0	3.8488177094164486e+17
19281.0	3.8481969237633696e+17
19282.0	3.8475082637858125e+17
19283.0	3.8466993146647885e+17
19284.0	3.846031983422122e+17
19285.0	3.8451803733360634e+17
19286.0	3.8446224575037434e+17
19287.0	3.8439506593273165e+17
19288.0	3.839477924145829e+17
19289.0	3.835069381388962e+17
19290.0	3.8418191545794554e+17
19291.0	3.840833268045142e+17
19292.0	3.8403952869375994e+17
19293.0	3.8396771878393165e+17
19294.0	3.8389622868978336e+17
19295.0	3.838262147809279e+17
19296.0	3.8374932661753165e+17
19297.0	3.836792888011434e+17
19298.0	3.836092994289664e+17
19299.0	3.83535421587456e+17
19300.0	3.8346829888225274e+17
19301.0	3.83398170329088e+17
19302.0	3.8332492456919034e+17
19303.0	3.832477516824576e+17
19304.0	3.831806711300095e+17
19305.0	3.8311128182292486e+17
19306.0	3.8304098780446714e+17
19307.0	3.829646349041664e+17
19308.0	3.8289547859066874e+17
19309.0	3.8280234994237434e+17
19310.0	3.827234962582187e+17
19311.0	3.8267807089732256e+17
19312.0	3.8261210183543456e+17
19313.0	3.8254160746905594e+17
19314.0	3.799492381900823e+17
19315.0	3.8002665141043354e+17
19316.0	3.8231758284171936e+17
19317.0	3.8225414972593485e+17
19318.0	3.8218238567383034e+17
19319.0	3.821120628544853e+17
19320.0	3.8202869302340256e+17
19321.0	3.817031648411647e+17
19322.0	3.816257419040085e+17
19323.0	3.8155354458030074e+17
19324.0	3.8149058374314656e+17
19325.0	3.813969821870761e+17
19326.0	3.813473185518933e+17
19327.0	3.812728516902911e+17
19328.0	3.811924333909333e+17
19329.0	3.8113051092363936e+17
19330.0	3.810535837532159e+17
19331.0	3.8098025634420045e+17
19332.0	3.8091214546097485e+17
19333.0	3.8083834039063885e+17
19334.0	3.807662428214613e+17
19335.0	3.806744139879765e+17
19336.0	3.806199880701269e+17
19337.0	3.8054776292420256e+17
19338.0	3.8045094734288205e+17
19339.0	3.80401319149568e+17
19340.0	3.803021174287019e+17
19341.0	3.802368260265301e+17
19342.0	3.8013226230743034e+17
19343.0	3.801071325544447e+17
19344.0	3.800257295024128e+17
19345.0	3.7971507082690515e+17
19346.0	3.7975823385012883e+17
19347.0	3.797937268894379e+17
19348.0	3.797369592916651e+17
19349.0	3.7965851937559885e+17
19350.0	3.795806367427242e+17
19351.0	3.795082469703679e+17
19352.0	3.7941888886155936e+17
19353.0	3.793619447534931e+17
19354.0	3.79286463709184e+17
19355.0	3.7919944434428576e+17
19356.0	3.791342522772138e+17
19357.0	3.790583028689578e+17
19358.0	3.7898059129378125e+17
19359.0	3.788949707292671e+17
19360.0	3.7881555102378656e+17
19361.0	3.78746568773905e+17
19362.0	3.785579525308414e+17
19363.0	3.783023253607765e+17
19364.0	3.782230268706816e+17
19365.0	3.78144034984209e+17
19366.0	3.7806451188913485e+17
19367.0	3.779844361945087e+17
19368.0	3.779040290100564e+17
19369.0	3.7781626354838176e+17
19370.0	3.7773047975553696e+17
19371.0	3.7765366415359994e+17
19372.0	3.775766308672853e+17
19373.0	3.7749114647784096e+17
19374.0	3.774091285408427e+17
19375.0	3.773249574578859e+17
19376.0	3.7724032213538125e+17
19377.0	3.771532594293418e+17
19378.0	3.7699086324858874e+17
19379.0	3.768156565449387e+17
19380.0	3.767265740019029e+17
19381.0	3.7663619562864634e+17
19382.0	3.765383276265472e+17
19383.0	3.764406459913557e+17
19384.0	3.763584755215018e+17
19385.0	3.76265485914385e+17
19386.0	3.761703434409301e+17
19387.0	3.7607323006402554e+17
19388.0	3.759746427387904e+17
19389.0	3.75874399502336e+17
19390.0	3.757724777054208e+17
19391.0	3.746057675254429e+17
19392.0	3.7552108209875603e+17
19393.0	3.754559856618154e+17
19394.0	3.7534504869778765e+17
19395.0	3.752295280585386e+17
19396.0	3.7511734168125434e+17
19397.0	3.750030019482965e+17
19398.0	3.748770570655061e+17
19399.0	3.746649691477332e+17
19400.0	3.746194104079701e+17
19401.0	3.7450286691778554e+17
19402.0	3.7437039534844576e+17
19403.0	3.742306894435669e+17
19404.0	3.740903664167593e+17
19405.0	3.739419102150655e+17
19406.0	3.737906063605759e+17
19407.0	3.736306433654783e+17
19408.0	3.73369803164877e+17
19409.0	3.7329746540189e+17
19410.0	3.731234144387072e+17
19411.0	3.7293864849681056e+17
19412.0	3.72744830128401e+17
19413.0	3.725400759511722e+17
19414.0	3.7232720684427936e+17
19415.0	3.721078248221354e+17
19416.0	3.7185527291576314e+17
19417.0	3.7161851004736845e+17
19418.0	3.713709231483563e+17
19419.0	3.7109681566515194e+17
19420.0	3.7080891101893965e+17
19421.0	3.705031376590165e+17
19422.0	3.7017462390128634e+17
19423.0	3.698353058261674e+17
19424.0	3.694749140997461e+17
19425.0	3.6910180852913485e+17
19426.0	3.686954993800532e+17
19427.0	3.6826421650609485e+17
19428.0	3.678120224402089e+17
19429.0	3.6733224830894074e+17
19430.0	3.668036565336064e+17
19431.0	3.6613854596519264e+17
19432.0	3.657549675670186e+17
19433.0	3.651831680292181e+17
19434.0	3.645928152672938e+17
19435.0	3.639620088627199e+17
19436.0	3.6326884252494483e+17
19437.0	3.6269518777658016e+17
19438.0	3.60014197048389e+17
19439.0	3.6127692099857056e+17
19440.0	3.606912099330729e+17
19441.0	3.5994373966178976e+17
19442.0	3.59021033885969e+17
19443.0	3.574993854835372e+17
19444.0	3.53766258944681e+17
19445.0	3.4895751272202246e+17
19446.0	3.456002623362389e+17
19447.0	3.4172277103438483e+17
19448.0	3.355673717899267e+17
19449.0	3.202068468727804e+17
19450.0	2.783508518928387e+17
19451.0	2.596295211133602e+17
19452.0	3.0484507240257165e+17
19453.0	3.286155197939705e+17
19454.0	3.392332141778264e+17
19455.0	3.4328252811400525e+17
19456.0	3.467926242153814e+17
19457.0	3.503268857643001e+17
19458.0	3.4762999928805414e+17
19459.0	3.56713360750458e+17
19460.0	3.583704361686358e+17
19461.0	3.5906796465247565e+17
19462.0	3.596774777640278e+17
19463.0	3.602114613870591e+17
19464.0	3.6071534256018765e+17
19465.0	3.612201318001322e+17
19466.0	3.617475084855978e+17
19467.0	3.622347776283989e+17
19468.0	3.626993448910848e+17
19469.0	3.631008012304382e+17
19470.0	3.63569383211008e+17
19471.0	3.6397362813337594e+17
19472.0	3.6434779045887994e+17
19473.0	3.6469966397330765e+17
19474.0	3.650289469663915e+17
19475.0	3.6522921330824525e+17
19476.0	3.656097046287701e+17
19477.0	3.658709202195797e+17
19478.0	3.6610127775662074e+17
19479.0	3.6630919367010976e+17
19480.0	3.665088757454165e+17
19481.0	3.6668136971304954e+17
19482.0	3.6684613693385376e+17
19483.0	3.669923529577813e+17
19484.0	3.6711972502241274e+17
19485.0	3.672281507867306e+17
19486.0	3.6732408717202765e+17
19487.0	3.67426525008145e+17
19488.0	3.6750754637851296e+17
19489.0	3.6755310826400416e+17
19490.0	3.674583478217385e+17
19491.0	3.6768461458418336e+17
19492.0	3.67732773163281e+17
19493.0	3.6776934959131296e+17
19494.0	3.6779853803246925e+17
19495.0	3.678218554966016e+17
19496.0	3.6778198059799885e+17
19497.0	3.6784921494159354e+17
19498.0	3.676560358550185e+17
19499.0	3.661993832961363e+17
19500.0	3.6786225880760314e+17
19501.0	3.678576159926954e+17
19502.0	3.678483731447808e+17
19503.0	3.6783747382640634e+17
19504.0	3.6782273231585274e+17
19505.0	3.678045705601023e+17
19506.0	3.677849263975082e+17
19507.0	3.67759032721954e+17
19508.0	3.6773682514056525e+17
19509.0	3.677090800293206e+17
19510.0	3.6765280085824845e+17
19511.0	3.6360143678122586e+17
19512.0	3.6730528983941114e+17
19513.0	3.670772458804558e+17
19514.0	3.671703665595728e+17
19515.0	3.674429343836842e+17
19516.0	3.674618688700416e+17
19517.0	3.674164220482902e+17
19518.0	3.673813565483691e+17
19519.0	3.6733687693311994e+17
19520.0	3.672856786021034e+17
19521.0	3.672509499047936e+17
19522.0	3.6720018680272205e+17
19523.0	3.671554643372715e+17
19524.0	3.671049598140416e+17
19525.0	3.670594500777301e+17
19526.0	3.67011906523409e+17
19527.0	3.669604885506731e+17
19528.0	3.66939330384145e+17
19529.0	3.670115463026004e+17
19530.0	3.669614419858772e+17
19531.0	3.669082374493525e+17
19532.0	3.668545089044479e+17
19533.0	3.668002957776212e+17
19534.0	3.6674508629387936e+17
19535.0	3.666886137653931e+17
19536.0	3.6663021870776314e+17
19537.0	3.665788939883861e+17
19538.0	3.664970213141163e+17
19539.0	3.663997490429953e+17
19540.0	3.664057113859413e+17
19541.0	3.6634953106063354e+17
19542.0	3.6629231453252256e+17
19543.0	3.6622799914489165e+17
19544.0	3.6617642080993274e+17
19545.0	3.6605170206201165e+17
19546.0	3.659520197438122e+17
19547.0	3.6600146394699085e+17
19548.0	3.659415418830847e+17
19549.0	3.658727111174827e+17
19550.0	3.65822944931567e+17
19551.0	3.657634464923647e+17
19552.0	3.657031937075882e+17
19553.0	3.6563969977439565e+17
19554.0	3.656281717298516e+17
19555.0	3.657911852422485e+17
19556.0	3.65732093301009e+17
19557.0	3.6567074314649594e+17
19558.0	3.6560928477893965e+17
19559.0	3.655477918782805e+17
19560.0	3.654811562016768e+17
19561.0	3.654216166582954e+17
19562.0	3.6536056206240416e+17
19563.0	3.6530259838894074e+17
19564.0	3.6524051444094285e+17
19565.0	3.651780257426091e+17
19566.0	3.6511238369662285e+17
19567.0	3.650533598429183e+17
19568.0	3.649886275414698e+17
19569.0	3.649259396136959e+17
19570.0	3.648658192291157e+17
19571.0	3.648021232003754e+17
19572.0	3.647369247020372e+17
19573.0	3.646737000431616e+17
19574.0	3.646052125114367e+17
19575.0	3.645511070384127e+17
19576.0	3.6448767951503354e+17
19577.0	3.6442006153243296e+17
19578.0	3.643562192622932e+17
19579.0	3.6429606336593914e+17
19580.0	3.6423256467920205e+17
19581.0	3.641705033804458e+17
19582.0	3.6410919810498554e+17
19583.0	3.6404580266803194e+17
19584.0	3.639806126282068e+17
19585.0	3.63906850689297e+17
19586.0	3.6383948876895565e+17
19587.0	3.6378773658009594e+17
19588.0	3.636687884954282e+17
19589.0	3.636619761767765e+17
19590.0	3.635842860624554e+17
19591.0	3.635360699514879e+17
19592.0	3.6347293323318605e+17
19593.0	3.6340681632208205e+17
19594.0	3.633193816511829e+17
19595.0	3.632756198211584e+17
19596.0	3.6319118722334714e+17
19597.0	3.6315125598126074e+17
19598.0	3.630195546259455e+17
19599.0	3.630259166860629e+17
19600.0	3.629629942966954e+17
19601.0	3.628912105313622e+17
19602.0	3.6282744291983354e+17
19603.0	3.6271206649473696e+17
19604.0	3.626997987147776e+17
19605.0	3.6260942439601485e+17
19606.0	3.625782019271338e+17
19607.0	3.625152677238101e+17
19608.0	3.6244899688174925e+17
19609.0	3.6238092248896845e+17
19610.0	3.623190783852544e+17
19611.0	3.6225252470729376e+17
19612.0	3.621949852177748e+17
19613.0	3.62129797484817e+17
19614.0	3.620626409455615e+17
19615.0	3.6200202626225485e+17
19616.0	3.6192559290122234e+17
19617.0	3.6186719218128205e+17
19618.0	3.617330117126825e+17
19619.0	3.616541710308692e+17
19620.0	3.6159430628911776e+17
19621.0	3.6161085547479034e+17
19622.0	3.615540943082837e+17
19623.0	3.6148960548618234e+17
19624.0	3.6142382188243616e+17
19625.0	3.613616380400981e+17
19626.0	3.61296758308864e+17
19627.0	3.612332633270954e+17
19628.0	3.611523038926165e+17
19629.0	3.610773237880148e+17
19630.0	3.6097837092918605e+17
19631.0	3.60275217673967e+17
19632.0	3.609120989686442e+17
19633.0	3.608424445116416e+17
19634.0	3.6078428314664954e+17
19635.0	3.6071486594744314e+17
19636.0	3.6064763440005114e+17
19637.0	3.605494967042048e+17
19638.0	3.6052479910434125e+17
19639.0	3.604620390345386e+17
19640.0	3.6037320947793914e+17
19641.0	3.6016767488054624e+17
19642.0	3.6026987259275936e+17
19643.0	3.6020511393710074e+17
19644.0	3.6013519838467405e+17
19645.0	3.6004407391464096e+17
19646.0	3.600064676451668e+17
19647.0	3.5995029633761274e+17
19648.0	3.5988647399041696e+17
19649.0	3.5982193616486394e+17
19650.0	3.5975857798731085e+17
19651.0	3.596941026568874e+17
19652.0	3.596297044317525e+17
19653.0	3.5956594632731296e+17
19654.0	3.5950161045749754e+17
19655.0	3.594368395684522e+17
