# Flux units: erg / (cm m2 s)
# Wavelength units: Angstrom
wave	flux
19000.0	4.9535939912226125e+17
19001.0	4.952539374725802e+17
19002.0	4.9518315999068154e+17
19003.0	4.9509365850658125e+17
19004.0	4.9500535596427936e+17
19005.0	4.9491226401614496e+17
19006.0	4.948259779553962e+17
19007.0	4.9474075864596474e+17
19008.0	4.9464436550096205e+17
19009.0	4.945388184971946e+17
19010.0	4.944095534732627e+17
19011.0	4.9438109176517965e+17
19012.0	4.942534725162323e+17
19013.0	4.942122623609514e+17
19014.0	4.94117529531187e+17
19015.0	4.9402761847330125e+17
19016.0	4.9393999694615885e+17
19017.0	4.9385940695995725e+17
19018.0	4.937700940797268e+17
19019.0	4.936838423423658e+17
19020.0	4.935948909412351e+17
19021.0	4.9350887513347405e+17
19022.0	4.9342042488176634e+17
19023.0	4.9332349360756045e+17
19024.0	4.932305104317098e+17
19025.0	4.9315355236324685e+17
19026.0	4.930607043837951e+17
19027.0	4.929555874359977e+17
19028.0	4.928915608261972e+17
19029.0	4.9280171205372576e+17
19030.0	4.927173076975616e+17
19031.0	4.9262999256432634e+17
19032.0	4.9254072805840205e+17
19033.0	4.924383542553257e+17
19034.0	4.9235645858228896e+17
19035.0	4.9221912078144845e+17
19036.0	4.9032557169213376e+17
19037.0	4.920591099712853e+17
19038.0	4.9200463491017376e+17
19039.0	4.9192486672793594e+17
19040.0	4.9183801842073594e+17
19041.0	4.9175088608925e+17
19042.0	4.9125227324156525e+17
19043.0	4.91579848593681e+17
19044.0	4.914908769899861e+17
19045.0	4.9140129532477434e+17
19046.0	4.9130821267401376e+17
19047.0	4.912235027628032e+17
19048.0	4.910574757827924e+17
19049.0	4.90208869098017e+17
19050.0	4.909488221279572e+17
19051.0	4.906138366989649e+17
19052.0	4.907079233262932e+17
19053.0	4.9070085718234445e+17
19054.0	4.906167435613524e+17
19055.0	4.9037460163788806e+17
19056.0	4.9040250291705146e+17
19057.0	4.9035623883516576e+17
19058.0	4.898418901472591e+17
19059.0	4.900158636556287e+17
19060.0	4.9009295754963616e+17
19061.0	4.900068134660777e+17
19062.0	4.8991925918760954e+17
19063.0	4.898333375419732e+17
19064.0	4.897317214399147e+17
19065.0	4.896362248273919e+17
19066.0	4.8940799485105504e+17
19067.0	4.894827692949504e+17
19068.0	4.893990914621439e+17
19069.0	4.8931198415667194e+17
19070.0	4.8921990380475725e+17
19071.0	4.8913593824269645e+17
19072.0	4.888878439028051e+17
19073.0	4.889632821652138e+17
19074.0	4.8887651928200525e+17
19075.0	4.8879043671490554e+17
19076.0	4.887007519397205e+17
19077.0	4.886131626388138e+17
19078.0	4.885217686847487e+17
19079.0	4.884416295862271e+17
19080.0	4.883537833142955e+17
19081.0	4.882606130025812e+17
19082.0	4.881773188087808e+17
19083.0	4.880827413080746e+17
19084.0	4.8798032444347725e+17
19085.0	4.8791773822757536e+17
19086.0	4.8756997499125734e+17
19087.0	4.8736553112261926e+17
19088.0	4.8742984741901606e+17
19089.0	4.87533718868241e+17
19090.0	4.8747918068285434e+17
19091.0	4.873691071862103e+17
19092.0	4.8697412643280294e+17
19093.0	4.872267606873429e+17
19094.0	4.8714143700964685e+17
19095.0	4.870549127124308e+17
19096.0	4.8696692019909965e+17
19097.0	4.86881861112081e+17
19098.0	4.866231140788904e+17
19099.0	4.865007165287084e+17
19100.0	4.8661602255940256e+17
19101.0	4.865323615038122e+17
19102.0	4.864308218079913e+17
19103.0	4.863616854174379e+17
19104.0	4.862772238090239e+17
19105.0	4.8581316342797754e+17
19106.0	4.8609473069055994e+17
19107.0	4.859221825465e+17
19108.0	4.8578322364716365e+17
19109.0	4.857677024854014e+17
19110.0	4.857398088957951e+17
19111.0	4.855640642027517e+17
19112.0	4.854572280796497e+17
19113.0	4.85498491572497e+17
19114.0	4.8534010430750694e+17
19115.0	4.853034270064639e+17
19116.0	4.852366290802005e+17
19117.0	4.851480201439913e+17
19118.0	4.850306620500651e+17
19119.0	4.83215875418792e+17
19120.0	4.848666880420521e+17
19121.0	4.847949264366251e+17
19122.0	4.8472379900996256e+17
19123.0	4.846385539754666e+17
19124.0	4.845428097591977e+17
19125.0	4.844643764142079e+17
19126.0	4.843704365176148e+17
19127.0	4.840471178947242e+17
19128.0	4.84193324900898e+17
19129.0	4.8411023434055674e+17
19130.0	4.8403532931399674e+17
19131.0	4.8395112146097485e+17
19132.0	4.838646488935081e+17
19133.0	4.837732062156117e+17
19134.0	4.836925518468436e+17
19135.0	4.836069758817621e+17
19136.0	4.8352133658269e+17
19137.0	4.834146824923817e+17
19138.0	4.833476064837632e+17
19139.0	4.832653008874153e+17
19140.0	4.831797494590121e+17
19141.0	4.8309365046422176e+17
19142.0	4.8300394576609274e+17
19143.0	4.829145822745941e+17
19144.0	4.828308341172906e+17
19145.0	4.8275064363854496e+17
19146.0	4.82574088466159e+17
19147.0	4.825682068635647e+17
19148.0	4.8235529700201824e+17
19149.0	4.822445724095829e+17
19150.0	4.8232264770082125e+17
19151.0	4.8223707641937914e+17
19152.0	4.821499875688447e+17
19153.0	4.817703957168123e+17
19154.0	4.819399937272489e+17
19155.0	4.818931499925503e+17
19156.0	4.8180754711401805e+17
19157.0	4.816202374665559e+17
19158.0	4.8138735565755757e+17
19159.0	4.8154223662421325e+17
19160.0	4.8146250500232525e+17
19161.0	4.813726223258964e+17
19162.0	4.81175083609839e+17
19163.0	4.811834157345449e+17
19164.0	4.8112139966436685e+17
19165.0	4.807202447556603e+17
19166.0	4.8093158622713165e+17
19167.0	4.8085787881417376e+17
19168.0	4.807822057406464e+17
19169.0	4.8069701418352634e+17
19170.0	4.806137705310889e+17
19171.0	4.8052226787464525e+17
19172.0	4.804417028445524e+17
19173.0	4.803593145505109e+17
19174.0	4.8026711619884365e+17
19175.0	4.8018915611115514e+17
19176.0	4.801044143931392e+17
19177.0	4.799966472044543e+17
19178.0	4.7992570181058554e+17
19179.0	4.798390189686782e+17
19180.0	4.7976161162035194e+17
19181.0	4.796567086519636e+17
19182.0	4.7958826851587405e+17
19183.0	4.795091903665492e+17
19184.0	4.794250488534356e+17
19185.0	4.793372072651434e+17
19186.0	4.7925477800673274e+17
19187.0	4.791617094767957e+17
19188.0	4.790843921661951e+17
19189.0	4.789992734501545e+17
19190.0	4.7891426574336e+17
19191.0	4.788240646493525e+17
19192.0	4.7874315372898976e+17
19193.0	4.786206096577877e+17
19194.0	4.785109677550251e+17
19195.0	4.784820884340734e+17
19196.0	4.783893711770963e+17
19197.0	4.7829115945178445e+17
19198.0	4.7814325738755405e+17
19199.0	4.7723450389408403e+17
19200.0	4.7730377562084704e+17
19201.0	4.7789708180193274e+17
19202.0	4.778711870078976e+17
19203.0	4.7779696327611725e+17
19204.0	4.777183508343466e+17
19205.0	4.7763876405575674e+17
19206.0	4.775551236920661e+17
19207.0	4.7745361769048736e+17
19208.0	4.773551265546239e+17
19209.0	4.773039847768063e+17
19210.0	4.77219084304384e+17
19211.0	4.771381778579455e+17
19212.0	4.7705286711268685e+17
19213.0	4.7694978887625363e+17
19214.0	4.7686086396914336e+17
19215.0	4.7679544485041485e+17
19216.0	4.7671543290920954e+17
19217.0	4.766266402624853e+17
19218.0	4.764437467277993e+17
19219.0	4.7643682312028154e+17
19220.0	4.7637329157816314e+17
19221.0	4.7625637919894176e+17
19222.0	4.7620446049621325e+17
19223.0	4.7612315489184416e+17
19224.0	4.760350367591081e+17
19225.0	4.759404583496362e+17
19226.0	4.758711615269547e+17
19227.0	4.7578798575233696e+17
19228.0	4.757071457856169e+17
19229.0	4.756215754129407e+17
19230.0	4.755375019873619e+17
19231.0	4.7545315886803616e+17
19232.0	4.7536945894522874e+17
19233.0	4.7527719614109e+17
19234.0	4.7519918306536096e+17
19235.0	4.7511336040529914e+17
19236.0	4.750344062675626e+17
19237.0	4.7494758697096525e+17
19238.0	4.7485186239802016e+17
19239.0	4.747827617988606e+17
19240.0	4.746977261999444e+17
19241.0	4.7461239189667834e+17
19242.0	4.745279639825066e+17
19243.0	4.744262324671829e+17
19244.0	4.7436332937161376e+17
19245.0	4.7427845742045856e+17
19246.0	4.741938532756138e+17
19247.0	4.7411049833431034e+17
19248.0	4.7402763335761914e+17
19249.0	4.7393561745817594e+17
19250.0	4.7379945825675936e+17
19251.0	4.737066375402835e+17
19252.0	4.736533242314751e+17
19253.0	4.73605008925218e+17
19254.0	4.7352571763534496e+17
19255.0	4.7341545707274234e+17
19256.0	4.7335580819783674e+17
19257.0	4.7327447386248525e+17
19258.0	4.731906099423914e+17
19259.0	4.7309618078023674e+17
19260.0	4.7296529067322016e+17
19261.0	4.7293737261684045e+17
19262.0	4.728440057320789e+17
19263.0	4.7275407237447674e+17
19264.0	4.726095644109481e+17
19265.0	4.7257239406946976e+17
19266.0	4.724648129680725e+17
19267.0	4.724382572216319e+17
19268.0	4.723540089634815e+17
19269.0	4.7227139893056845e+17
19270.0	4.721846461835945e+17
19271.0	4.7205672983811424e+17
19272.0	4.72015471448337e+17
19273.0	4.7190594488893434e+17
19274.0	4.717969369552212e+17
19275.0	4.717719044401834e+17
19276.0	4.7168549478727674e+17
19277.0	4.716034162425855e+17
19278.0	4.7151394083307514e+17
19279.0	4.7143312875847674e+17
19280.0	4.713430728572927e+17
19281.0	4.712675231662079e+17
19282.0	4.7118628411146234e+17
19283.0	4.7109605687295994e+17
19284.0	4.710108133763753e+17
19285.0	4.7091830807156045e+17
19286.0	4.7084385728812365e+17
19287.0	4.7075628742082554e+17
19288.0	4.7011395835439744e+17
19289.0	4.693609216125591e+17
19290.0	4.7050447364205216e+17
19291.0	4.7040007615720115e+17
19292.0	4.7035420745837216e+17
19293.0	4.7027185418676896e+17
19294.0	4.70186725544209e+17
19295.0	4.7010803781468154e+17
19296.0	4.6984271054766125e+17
19297.0	4.6990869890334726e+17
19298.0	4.69854687662353e+17
19299.0	4.6957080080984755e+17
19300.0	4.696884080454315e+17
19301.0	4.6960919218312525e+17
19302.0	4.695245448369491e+17
19303.0	4.6943197046592845e+17
19304.0	4.69356910879266e+17
19305.0	4.692749350950228e+17
19306.0	4.6919232408343885e+17
19307.0	4.691005302723924e+17
19308.0	4.6902009428705274e+17
19309.0	4.689079638338219e+17
19310.0	4.688142056904019e+17
19311.0	4.687606990940842e+17
19312.0	4.6868253103882234e+17
19313.0	4.6857741905428474e+17
19314.0	4.627182242496464e+17
19315.0	4.631927483007071e+17
19316.0	4.680910931405487e+17
19317.0	4.682682473294506e+17
19318.0	4.6819371601537696e+17
19319.0	4.6811562555473914e+17
19320.0	4.6796261266117946e+17
19321.0	4.67788851384593e+17
19322.0	4.678579564576768e+17
19323.0	4.6777551608436045e+17
19324.0	4.676972685470378e+17
19325.0	4.675972601217023e+17
19326.0	4.6753457184440314e+17
19327.0	4.674535861256192e+17
19328.0	4.670352828050095e+17
19329.0	4.672929906294783e+17
19330.0	4.672062840198485e+17
19331.0	4.6712036663842125e+17
19332.0	4.670449572468053e+17
19333.0	4.669600007804245e+17
19334.0	4.668718308480341e+17
19335.0	4.661072808116232e+17
19336.0	4.667092677339819e+17
19337.0	4.66631806418944e+17
19338.0	4.665196396849833e+17
19339.0	4.6646501565617485e+17
19340.0	4.6633911900788045e+17
19341.0	4.660370409695919e+17
19342.0	4.660990448762881e+17
19343.0	4.661330257291946e+17
19344.0	4.6579454106228096e+17
19345.0	4.6557412081008634e+17
19346.0	4.6573188137615354e+17
19347.0	4.654780442651306e+17
19348.0	4.657223914837332e+17
19349.0	4.6563619308393805e+17
19350.0	4.6543751924940794e+17
19351.0	4.6546768265652896e+17
19352.0	4.65045498346427e+17
19353.0	4.653114504948394e+17
19354.0	4.6523000144527354e+17
19355.0	4.651336231201451e+17
19356.0	4.6506460081466016e+17
19357.0	4.649823945534123e+17
19358.0	4.648988689738411e+17
19359.0	4.64738914297446e+17
19360.0	4.644627029513555e+17
19361.0	4.646472845535915e+17
19362.0	4.645695864001876e+17
19363.0	4.6448705347256314e+17
19364.0	4.644042537872043e+17
19365.0	4.6432029947985914e+17
19366.0	4.6423787588375885e+17
19367.0	4.6415531688154445e+17
19368.0	4.6407331215660365e+17
19369.0	4.639835496469844e+17
19370.0	4.6390356902324896e+17
19371.0	4.6381699481381536e+17
19372.0	4.637406314277547e+17
19373.0	4.63655612326434e+17
19374.0	4.635748071025321e+17
19375.0	4.6349240112250874e+17
19376.0	4.634099836780543e+17
19377.0	4.6332548893463885e+17
19378.0	4.632426628950698e+17
19379.0	4.631598325213866e+17
19380.0	4.6307480503145805e+17
19381.0	4.629910593208319e+17
19382.0	4.62898418749713e+17
19383.0	4.628127739281406e+17
19384.0	4.6273657258202445e+17
19385.0	4.626562311782398e+17
19386.0	4.6257263261777914e+17
19387.0	4.6248729321144314e+17
19388.0	4.624015982679381e+17
19389.0	4.6231390089379834e+17
19390.0	4.6220823952534176e+17
19391.0	4.604367804738198e+17
19392.0	4.6194612740205203e+17
19393.0	4.6196898300340896e+17
19394.0	4.618897314895189e+17
19395.0	4.617059076582061e+17
19396.0	4.6169816888770554e+17
19397.0	4.61637084512256e+17
19398.0	4.614595934508373e+17
19399.0	4.612413138315945e+17
19400.0	4.6128342534280544e+17
19401.0	4.6128656897365325e+17
19402.0	4.612012769629525e+17
19403.0	4.611110467884373e+17
19404.0	4.610240674791423e+17
19405.0	4.609310615841449e+17
19406.0	4.608410764268884e+17
19407.0	4.6062919025513786e+17
19408.0	4.6054477296653664e+17
19409.0	4.605562771734527e+17
19410.0	4.6047164758316365e+17
19411.0	4.6037659388914336e+17
19412.0	4.6027933650780154e+17
19413.0	4.60057698369536e+17
19414.0	4.600779472109566e+17
19415.0	4.5997997742708045e+17
19416.0	4.5984977847145805e+17
19417.0	4.597609334658389e+17
19418.0	4.596705471234047e+17
19419.0	4.5956214477728416e+17
19420.0	4.5945068079895885e+17
19421.0	4.593355377169749e+17
19422.0	4.5921048328492365e+17
19423.0	4.590922162853204e+17
19424.0	4.5896173407436794e+17
19425.0	4.588259106269865e+17
19426.0	4.5868203705193805e+17
19427.0	4.5853011230064634e+17
19428.0	4.5836697407761056e+17
19429.0	4.581899510306132e+17
19430.0	4.579229689009494e+17
19431.0	4.574929887079084e+17
19432.0	4.575458523873278e+17
19433.0	4.57287707726097e+17
19434.0	4.570000585129983e+17
19435.0	4.566349746885972e+17
19436.0	4.562070055245139e+17
19437.0	4.55912551752226e+17
19438.0	4.518783579673941e+17
19439.0	4.546166874177536e+17
19440.0	4.542585369176745e+17
19441.0	4.534259689018708e+17
19442.0	4.523361677170004e+17
19443.0	4.511305977298943e+17
19444.0	4.49652921012497e+17
19445.0	4.47624054308864e+17
19446.0	4.4487707284821325e+17
19447.0	4.4093113008564883e+17
19448.0	4.353550165475331e+17
19449.0	4.2583086875716256e+17
19450.0	4.014294852523355e+17
19451.0	3.8127252145875885e+17
19452.0	4.171040910125739e+17
19453.0	4.3119966197295846e+17
19454.0	4.3801166458388454e+17
19455.0	4.4250410453565466e+17
19456.0	4.455751202373632e+17
19457.0	4.4769144300284563e+17
19458.0	4.3083604140144384e+17
19459.0	4.4968739798166515e+17
19460.0	4.514401977630718e+17
19461.0	4.522806047233365e+17
19462.0	4.5287769738226336e+17
19463.0	4.5332142629410125e+17
19464.0	4.536662749085695e+17
19465.0	4.539348364733097e+17
19466.0	4.5413368353259514e+17
19467.0	4.5428898980167674e+17
19468.0	4.5441478914211834e+17
19469.0	4.5425249614124326e+17
19470.0	4.546137005140649e+17
19471.0	4.546813692477439e+17
19472.0	4.5471155733135354e+17
19473.0	4.5472632372811085e+17
19474.0	4.5449127863691904e+17
19475.0	4.545953177883987e+17
19476.0	4.5470923242864634e+17
19477.0	4.5469680897010336e+17
19478.0	4.546740767511892e+17
19479.0	4.54401463908215e+17
19480.0	4.5459624563834874e+17
19481.0	4.545437628716373e+17
19482.0	4.5450569921331194e+17
19483.0	4.5446005435050656e+17
19484.0	4.5440420935980365e+17
19485.0	4.5434089976627194e+17
19486.0	4.540325518027441e+17
19487.0	4.5422896329960096e+17
19488.0	4.541681305823913e+17
19489.0	4.5406933375167123e+17
19490.0	4.5382990463412883e+17
19491.0	4.539685307853482e+17
19492.0	4.5391286838667936e+17
19493.0	4.53846947000047e+17
19494.0	4.537764504666111e+17
19495.0	4.537022621067946e+17
19496.0	4.535566663505236e+17
19497.0	4.5353925418680314e+17
19498.0	4.53139792728337e+17
19499.0	4.5068434692287e+17
19500.0	4.533117792550911e+17
19501.0	4.5327015512200525e+17
19502.0	4.532020598276096e+17
19503.0	4.5313210820416845e+17
19504.0	4.530588581800617e+17
19505.0	4.529807391282517e+17
19506.0	4.5291177197786445e+17
19507.0	4.5283154333095245e+17
19508.0	4.5275657329268045e+17
19509.0	4.5266932687612576e+17
19510.0	4.524775634370559e+17
19511.0	4.434599023214506e+17
19512.0	4.518832214725966e+17
19513.0	4.515192705297055e+17
19514.0	4.5166358038227565e+17
19515.0	4.521444741130923e+17
19516.0	4.521136583518889e+17
19517.0	4.5206135286442656e+17
19518.0	4.519317146872489e+17
19519.0	4.5185233370917523e+17
19520.0	4.5160874880532435e+17
19521.0	4.5177513279051085e+17
19522.0	4.5166006052235936e+17
19523.0	4.515623752521045e+17
19524.0	4.513619180694191e+17
19525.0	4.5146162478448634e+17
19526.0	4.513906993834666e+17
19527.0	4.513108609466368e+17
19528.0	4.512176506492243e+17
19529.0	4.5113030007412045e+17
19530.0	4.510814098685951e+17
19531.0	4.510038866176682e+17
19532.0	4.509258935347881e+17
19533.0	4.5084796036055034e+17
19534.0	4.507712055760212e+17
19535.0	4.50690968260881e+17
19536.0	4.5060970683651405e+17
19537.0	4.5053372226600954e+17
19538.0	4.5021185396353734e+17
19539.0	4.5030444371367264e+17
19540.0	4.502986573217791e+17
19541.0	4.501760188088319e+17
19542.0	4.501262847093417e+17
19543.0	4.498302090696022e+17
19544.0	4.499755319164927e+17
19545.0	4.498298156438868e+17
19546.0	4.497080209549994e+17
19547.0	4.4975686858833914e+17
19548.0	4.4968156929720314e+17
19549.0	4.495901733158911e+17
19550.0	4.4952558732574714e+17
19551.0	4.494488511359658e+17
19552.0	4.4937009706653005e+17
19553.0	4.492893648934229e+17
19554.0	4.492076125257728e+17
19555.0	4.491088480610987e+17
19556.0	4.490395909444948e+17
19557.0	4.4897826336931834e+17
19558.0	4.4890248683629216e+17
19559.0	4.488256425732778e+17
19560.0	4.48660660044868e+17
19561.0	4.48666126061841e+17
19562.0	4.485078090514431e+17
19563.0	4.485146768747179e+17
19564.0	4.484349765702996e+17
19565.0	4.4835820759504205e+17
19566.0	4.48276331495424e+17
19567.0	4.4820281548253856e+17
19568.0	4.4812248120907085e+17
19569.0	4.4804431783744845e+17
19570.0	4.4796712859293005e+17
19571.0	4.478899842274645e+17
19572.0	4.4780880633965216e+17
19573.0	4.4770636626657274e+17
19574.0	4.4763552559049376e+17
19575.0	4.475802685014015e+17
19576.0	4.474881648710996e+17
19577.0	4.473821384583851e+17
19578.0	4.473410758726997e+17
19579.0	4.472654343962623e+17
19580.0	4.471874889187327e+17
19581.0	4.4711065171613005e+17
19582.0	4.470361381579434e+17
19583.0	4.4695856821043194e+17
19584.0	4.4687932627353594e+17
19585.0	4.4678623055052794e+17
19586.0	4.4670370356483424e+17
19587.0	4.466402545106944e+17
19588.0	4.465031249570474e+17
19589.0	4.4648597423827616e+17
19590.0	4.4639145280143354e+17
19591.0	4.4633499907741e+17
19592.0	4.46258172989713e+17
19593.0	4.461578713825279e+17
19594.0	4.4604748834624845e+17
19595.0	4.4602282248328525e+17
19596.0	4.459413542098261e+17
19597.0	4.458685954086228e+17
19598.0	4.4569795811956045e+17
19599.0	4.457135600915797e+17
19600.0	4.456376127804757e+17
19601.0	4.455514515701759e+17
19602.0	4.4547018567188474e+17
19603.0	4.453391512109055e+17
19604.0	4.453172360424106e+17
19605.0	4.4520897721139194e+17
19606.0	4.4517167971259725e+17
19607.0	4.450963772058282e+17
19608.0	4.4501603733995514e+17
19609.0	4.449344599446867e+17
19610.0	4.4474939341100397e+17
19611.0	4.446162689283413e+17
19612.0	4.447100309165397e+17
19613.0	4.446302417627818e+17
19614.0	4.445497771163647e+17
19615.0	4.444761714152789e+17
19616.0	4.4427186784611e+17
19617.0	4.4414666766199475e+17
19618.0	4.4414183037119123e+17
19619.0	4.440254059992404e+17
19620.0	4.4393281673844006e+17
19621.0	4.437660526794068e+17
19622.0	4.439354499224917e+17
19623.0	4.438474146971647e+17
19624.0	4.437476264028843e+17
19625.0	4.4370377900905805e+17
19626.0	4.436240256466944e+17
19627.0	4.4354428172151456e+17
19628.0	4.4344228575532365e+17
19629.0	4.4277568488079315e+17
19630.0	4.430990710319785e+17
19631.0	4.4236023997835955e+17
19632.0	4.4311849904810656e+17
19633.0	4.430650613082793e+17
19634.0	4.4300572574788256e+17
19635.0	4.429008358517416e+17
19636.0	4.425777177864871e+17
19637.0	4.424699998109693e+17
19638.0	4.426820849325395e+17
19639.0	4.4262349295233696e+17
19640.0	4.425251200259413e+17
19641.0	4.422309423786673e+17
19642.0	4.4237538407219194e+17
19643.0	4.422987632257706e+17
19644.0	4.422299858676394e+17
19645.0	4.421268525460137e+17
19646.0	4.417933794432336e+17
19647.0	4.420067372564479e+17
19648.0	4.419349543299753e+17
19649.0	4.4185731468711245e+17
19650.0	4.4178159435775994e+17
19651.0	4.417044829874859e+17
19652.0	4.416276478820351e+17
19653.0	4.4155040320279885e+17
19654.0	4.4147436040137376e+17
19655.0	4.413961654326612e+17
