# Flux units: erg / (cm m2 s)
# Wavelength units: Angstrom
wave	flux
19000.0	7.080014172389375e+17
19001.0	7.078664281784319e+17
19002.0	7.077326877622271e+17
19003.0	7.075983156838399e+17
19004.0	7.074639633186815e+17
19005.0	7.073296482828287e+17
19006.0	7.07195328213811e+17
19007.0	7.070610130381481e+17
19008.0	7.069262114630313e+17
19009.0	7.067922508458666e+17
19010.0	7.066551713442472e+17
19011.0	7.065236993474559e+17
19012.0	7.063887582418259e+17
19013.0	7.062553624575999e+17
19014.0	7.061211447295999e+17
19015.0	7.059869270015999e+17
19016.0	7.058523695349759e+17
19017.0	7.057161892921343e+17
19018.0	7.055843098886143e+17
19019.0	7.054501802409983e+17
19020.0	7.053156191393108e+17
19021.0	7.051816251075241e+17
19022.0	7.050478596653055e+17
19023.0	7.049137448375636e+17
19024.0	7.04779608199441e+17
19025.0	7.046455982292991e+17
19026.0	7.04511332266803e+17
19027.0	7.043771908751359e+17
19028.0	7.042434819162111e+17
19029.0	7.041094726451199e+17
19030.0	7.039754860232704e+17
19031.0	7.038415149203455e+17
19032.0	7.037075591266304e+17
19033.0	7.035730679300095e+17
19034.0	7.034396752216063e+17
19035.0	7.033057908009642e+17
19036.0	7.031439928677716e+17
19037.0	7.030380369193641e+17
19038.0	7.0290419744768e+17
19039.0	7.027703674131795e+17
19040.0	7.026365572317183e+17
19041.0	7.025027631284223e+17
19042.0	7.023684852121597e+17
19043.0	7.022352343411369e+17
19044.0	7.021014814119252e+17
19045.0	7.019677834280959e+17
19046.0	7.018337781415936e+17
19047.0	7.017004017210708e+17
19048.0	7.015654897658537e+17
19049.0	7.014326995692202e+17
19050.0	7.012994933675348e+17
19051.0	7.011625055813632e+17
19052.0	7.010321216569343e+17
19053.0	7.008987346807466e+17
19054.0	7.007652248114516e+17
19055.0	7.006301294952447e+17
19056.0	7.004982126226089e+17
19057.0	7.003647346300243e+17
19058.0	7.002312820129791e+17
19059.0	7.000978472217257e+17
19060.0	6.99964281987618e+17
19061.0	6.998310376876713e+17
19062.0	6.996976459579391e+17
19063.0	6.995643139970387e+17
19064.0	6.994302866205354e+17
19065.0	6.992968560235859e+17
19066.0	6.991639836884991e+17
19067.0	6.990311389659136e+17
19068.0	6.988978924989098e+17
19069.0	6.98764684829218e+17
19070.0	6.986314233326249e+17
19071.0	6.984983173748052e+17
19072.0	6.983651581493247e+17
19073.0	6.982319927721983e+17
19074.0	6.980989170133674e+17
19075.0	6.979658328659284e+17
19076.0	6.978326226796543e+17
19077.0	6.976996758956713e+17
19078.0	6.97566199161378e+17
19079.0	6.974337045932713e+17
19080.0	6.973007280996351e+17
19081.0	6.971677616723284e+17
19082.0	6.970343407222783e+17
19083.0	6.969013041801898e+17
19084.0	6.967674721883476e+17
19085.0	6.966361855797929e+17
19086.0	6.965008764938921e+17
19087.0	6.963698309180074e+17
19088.0	6.962373144696147e+17
19089.0	6.9610349016733e+17
19090.0	6.959722002732372e+17
19091.0	6.958392997664084e+17
19092.0	6.957062881105236e+17
19093.0	6.9557410084509e+17
19094.0	6.954395274401108e+17
19095.0	6.953064147014996e+17
19096.0	6.951759955449171e+17
19097.0	6.950435913640617e+17
19098.0	6.949110462545917e+17
19099.0	6.94778450813474e+17
19100.0	6.946459717642922e+17
19101.0	6.945134894994772e+17
19102.0	6.943805041278975e+17
19103.0	6.94248566563362e+17
19104.0	6.94116137706018e+17
19105.0	6.939837329659219e+17
19106.0	6.938512239274666e+17
19107.0	6.937189009063935e+17
19108.0	6.935866577868116e+17
19109.0	6.934512994178388e+17
19110.0	6.933220402659327e+17
19111.0	6.931897920432808e+17
19112.0	6.930575494130345e+17
19113.0	6.92925330690321e+17
19114.0	6.927931350362793e+17
19115.0	6.926607861503316e+17
19116.0	6.925288086700031e+17
19117.0	6.923965851937449e+17
19118.0	6.922638982468948e+17
19119.0	6.921188165025791e+17
19120.0	6.920002519870121e+17
19121.0	6.918682740173481e+17
19122.0	6.917363853863593e+17
19123.0	6.916042102844074e+17
19124.0	6.914723952634537e+17
19125.0	6.913404371468287e+17
19126.0	6.912083796251987e+17
19127.0	6.910666591961087e+17
19128.0	6.90943498002978e+17
19129.0	6.908123386915498e+17
19130.0	6.906810888530602e+17
19131.0	6.905492742515369e+17
19132.0	6.904174732815017e+17
19133.0	6.902814040479062e+17
19134.0	6.901536458276861e+17
19135.0	6.900222731659946e+17
19136.0	6.89890585092642e+17
19137.0	6.897579377819647e+17
19138.0	6.896266607504042e+17
19139.0	6.8949562111645e+17
19140.0	6.893640207040511e+17
19141.0	6.892324385368745e+17
19142.0	6.891008611931476e+17
19143.0	6.88968985354786e+17
19144.0	6.888377898325332e+17
19145.0	6.887063084684628e+17
19146.0	6.885713516341929e+17
19147.0	6.884428622069759e+17
19148.0	6.883119184827732e+17
19149.0	6.881805235912703e+17
19150.0	6.880490519440042e+17
19151.0	6.879177747027284e+17
19152.0	6.877861818400767e+17
19153.0	6.876551011019434e+17
19154.0	6.875230164571476e+17
19155.0	6.873925084512255e+17
19156.0	6.872612265962154e+17
19157.0	6.871299583726932e+17
19158.0	6.869966263418879e+17
19159.0	6.868674479303337e+17
19160.0	6.867360791134207e+17
19161.0	6.866052120750761e+17
19162.0	6.864693632521555e+17
19163.0	6.863429479781716e+17
19164.0	6.862118691274751e+17
19165.0	6.860807185541802e+17
19166.0	6.859490732627284e+17
19167.0	6.858182406875817e+17
19168.0	6.856864434225151e+17
19169.0	6.855560043429887e+17
19170.0	6.8542566774429e+17
19171.0	6.852944958499497e+17
19172.0	6.851637659653459e+17
19173.0	6.850328327269034e+17
19174.0	6.849016010637311e+17
19175.0	6.847710451029332e+17
19176.0	6.84640173031424e+17
19177.0	6.845084107188905e+17
19178.0	6.843784376265385e+17
19179.0	6.842473605933738e+17
19180.0	6.841159071214249e+17
19181.0	6.839854782480383e+17
19182.0	6.838541555684691e+17
19183.0	6.837244638440105e+17
19184.0	6.835927564069545e+17
19185.0	6.834630474159444e+17
19186.0	6.833324119031807e+17
19187.0	6.832012989388116e+17
19188.0	6.830710564323327e+17
19189.0	6.829404370676393e+17
19190.0	6.828097912788308e+17
19191.0	6.826791260564137e+17
19192.0	6.825484908232703e+17
19193.0	6.824170170089472e+17
19194.0	6.82287042798114e+17
19195.0	6.821568441920169e+17
19196.0	6.820262455891284e+17
19197.0	6.818957137455785e+17
19198.0	6.817652288782336e+17
19199.0	6.816059594113023e+17
19200.0	6.814858035068927e+17
19201.0	6.813737711304703e+17
19202.0	6.812433414881279e+17
19203.0	6.811128994725887e+17
19204.0	6.809823064621055e+17
19205.0	6.808520366227455e+17
19206.0	6.807215526641663e+17
19207.0	6.805911882432511e+17
19208.0	6.804594938085375e+17
19209.0	6.803304482865151e+17
19210.0	6.802000519888893e+17
19211.0	6.800696052897108e+17
19212.0	6.799393613851306e+17
19213.0	6.798083339845632e+17
19214.0	6.796778812735487e+17
19215.0	6.795482519044095e+17
19216.0	6.794175586500607e+17
19217.0	6.792877004816383e+17
19218.0	6.791525184831487e+17
19219.0	6.790260885291007e+17
19220.0	6.788968389541887e+17
19221.0	6.787645819234986e+17
19222.0	6.786362732008787e+17
19223.0	6.785059717644288e+17
19224.0	6.783749494669311e+17
19225.0	6.7824437952512e+17
19226.0	6.781151938434388e+17
19227.0	6.779849440668329e+17
19228.0	6.778546903056383e+17
19229.0	6.777244292044116e+17
19230.0	6.775941402110634e+17
19231.0	6.774639176974335e+17
19232.0	6.773329674720596e+17
19233.0	6.77202951807522e+17
19234.0	6.77073001783842e+17
19235.0	6.769429066372435e+17
19236.0	6.768126423902889e+17
19237.0	6.766822810451965e+17
19238.0	6.765515376689151e+17
19239.0	6.764218615332861e+17
19240.0	6.762891894063103e+17
19241.0	6.761606557990911e+17
19242.0	6.760310234939391e+17
19243.0	6.758995761037311e+17
19244.0	6.757703821033471e+17
19245.0	6.756401080696831e+17
19246.0	6.755096993988607e+17
19247.0	6.753793655963647e+17
19248.0	6.752491341348863e+17
19249.0	6.751187743277055e+17
19250.0	6.749883780300797e+17
19251.0	6.748574998768298e+17
19252.0	6.747253191824723e+17
19253.0	6.745971708220755e+17
19254.0	6.744664386306047e+17
19255.0	6.743350212995753e+17
19256.0	6.742057896203603e+17
19257.0	6.740753951402665e+17
19258.0	6.739448444223485e+17
19259.0	6.738138483392511e+17
19260.0	6.736835000664063e+17
19261.0	6.735532272910333e+17
19262.0	6.734226183421951e+17
19263.0	6.732918441377791e+17
19264.0	6.731584514293759e+17
19265.0	6.730295014675796e+17
19266.0	6.728991190810623e+17
19267.0	6.727681182444201e+17
19268.0	6.726368338728276e+17
19269.0	6.725060048628394e+17
19270.0	6.723751372652543e+17
19271.0	6.72242337980962e+17
19272.0	6.721130768018089e+17
19273.0	6.719197004431356e+17
19274.0	6.718217558250836e+17
19275.0	6.717201763532797e+17
19276.0	6.715890496875178e+17
19277.0	6.714578699638099e+17
19278.0	6.713266361335807e+17
19279.0	6.711950795516586e+17
19280.0	6.710613435394729e+17
19281.0	6.709302948178602e+17
19282.0	6.707988407167657e+17
19283.0	6.706668563158356e+17
19284.0	6.705348527609171e+17
19285.0	6.704027135202644e+17
19286.0	6.702723035212457e+17
19287.0	6.701404972384255e+17
19288.0	6.70002228372002e+17
19289.0	6.698562852574547e+17
19290.0	6.697445903826943e+17
19291.0	6.696107772652201e+17
19292.0	6.694802155023018e+17
19293.0	6.693478468332202e+17
19294.0	6.692154798418601e+17
19295.0	6.690829605972649e+17
19296.0	6.689503378931711e+17
19297.0	6.688175987971412e+17
19298.0	6.686838808903679e+17
19299.0	6.685467418995369e+17
19300.0	6.684136613172563e+17
19301.0	6.682804125433855e+17
19302.0	6.681470785552381e+17
19303.0	6.680129958838271e+17
19304.0	6.678795887050751e+17
19305.0	6.677463073554431e+17
19306.0	6.676124276883455e+17
19307.0	6.674782184188586e+17
19308.0	6.673441498682708e+17
19309.0	6.672089610190847e+17
19310.0	6.670738305406292e+17
19311.0	6.669402447544319e+17
19312.0	6.668054981946025e+17
19313.0	6.666689522783572e+17
19314.0	6.665265184680618e+17
19315.0	6.663916958515197e+17
19316.0	6.662640064877908e+17
19317.0	6.66128126836736e+17
19318.0	6.659919678450346e+17
19319.0	6.658555757898409e+17
19320.0	6.657185442430976e+17
19321.0	6.655820298540372e+17
19322.0	6.654438424969216e+17
19323.0	6.653069564226217e+17
19324.0	6.651696976844116e+17
19325.0	6.650310642630655e+17
19326.0	6.648933463883775e+17
19327.0	6.647546017480701e+17
19328.0	6.646157210025983e+17
19329.0	6.644763981075795e+17
19330.0	6.643364525681321e+17
19331.0	6.641966273353044e+17
19332.0	6.640558738330964e+17
19333.0	6.639145341769044e+17
19334.0	6.637727902597119e+17
19335.0	6.636315852406783e+17
19336.0	6.634894302117888e+17
19337.0	6.633467609612287e+17
19338.0	6.632024306963795e+17
19339.0	6.630601164237482e+17
19340.0	6.62915707445794e+17
19341.0	6.627699167941971e+17
19342.0	6.626218142422356e+17
19343.0	6.624783980560383e+17
19344.0	6.623319201677311e+17
19345.0	6.621722428047359e+17
19346.0	6.620339843541674e+17
19347.0	6.61888032711202e+17
19348.0	6.617392249569279e+17
19349.0	6.615892108509183e+17
19350.0	6.614371306307583e+17
19351.0	6.612838122520575e+17
19352.0	6.611308834542932e+17
19353.0	6.609778827941204e+17
19354.0	6.60824175813154e+17
19355.0	6.606675523928061e+17
19356.0	6.605085487748436e+17
19357.0	6.603510112758441e+17
19358.0	6.601919069945855e+17
19359.0	6.600293582110719e+17
19360.0	6.598713745080319e+17
19361.0	6.597087674236927e+17
19362.0	6.59545431089698e+17
19363.0	6.593802345818794e+17
19364.0	6.592134889078783e+17
19365.0	6.590452678175401e+17
19366.0	6.588753723610452e+17
19367.0	6.587037200504148e+17
19368.0	6.585302435670698e+17
19369.0	6.583537595580413e+17
19370.0	6.581700045832192e+17
19371.0	6.579949342643539e+17
19372.0	6.578123867597482e+17
19373.0	6.576283011339604e+17
19374.0	6.574417486282751e+17
19375.0	6.572525769894569e+17
19376.0	6.570606856940202e+17
19377.0	6.568658620208468e+17
19378.0	6.566680299831295e+17
19379.0	6.564669426761727e+17
19380.0	6.562624597306025e+17
19381.0	6.560537562666324e+17
19382.0	6.558366673403903e+17
19383.0	6.556207093383165e+17
19384.0	6.553986039545855e+17
19385.0	6.551693739862697e+17
19386.0	6.549398047686655e+17
19387.0	6.547053640766804e+17
19388.0	6.544620954233514e+17
19389.0	6.542116460516692e+17
19390.0	6.539601499914239e+17
19391.0	6.536763819076265e+17
19392.0	6.534360993890304e+17
19393.0	6.531620927788371e+17
19394.0	6.52877314986257e+17
19395.0	6.525846990880765e+17
19396.0	6.522823704401235e+17
19397.0	6.51971702956578e+17
19398.0	6.516521755650729e+17
19399.0	6.513215359942655e+17
19400.0	6.50977806000674e+17
19401.0	6.506179164722516e+17
19402.0	6.502439084971348e+17
19403.0	6.498563772470611e+17
19404.0	6.494647077568511e+17
19405.0	6.490487085771433e+17
19406.0	6.486075357440681e+17
19407.0	6.481642802293417e+17
19408.0	6.476958177864361e+17
19409.0	6.471924949450751e+17
19410.0	6.466855930342057e+17
19411.0	6.46138248176162e+17
19412.0	6.455535113076733e+17
19413.0	6.449401371994793e+17
19414.0	6.443065584997716e+17
19415.0	6.436136737396052e+17
19416.0	6.428934103804585e+17
19417.0	6.421092394598399e+17
19418.0	6.412777204394666e+17
19419.0	6.403943006120617e+17
19420.0	6.394573981657769e+17
19421.0	6.385152313786368e+17
19422.0	6.375272634908671e+17
19423.0	6.364613595627517e+17
19424.0	6.353164775893674e+17
19425.0	6.340839022264319e+17
19426.0	6.327409199895891e+17
19427.0	6.312825764271444e+17
19428.0	6.296898607164073e+17
19429.0	6.279062551003132e+17
19430.0	6.259435211762345e+17
19431.0	6.237800008166057e+17
19432.0	6.217275464657576e+17
19433.0	6.19589242121967e+17
19434.0	6.172420695479638e+17
19435.0	6.146556878476627e+17
19436.0	6.117824855889239e+17
19437.0	6.085482009417044e+17
19438.0	6.048072416449874e+17
19439.0	6.005055350811306e+17
19440.0	5.963177257511596e+17
19441.0	5.918964201466536e+17
19442.0	5.869085729838423e+17
19443.0	5.810809481461761e+17
19444.0	5.7414047358429843e+17
19445.0	5.669644345365849e+17
19446.0	5.588039623507967e+17
19447.0	5.4898953873435264e+17
19448.0	5.37786293332651e+17
19449.0	5.226111294941866e+17
19450.0	4.9216037193427366e+17
19451.0	4.819048654525778e+17
19452.0	5.090298189316101e+17
19453.0	5.310040328809137e+17
19454.0	5.432702141814096e+17
19455.0	5.534224461332481e+17
19456.0	5.621980339022508e+17
19457.0	5.6946355458102566e+17
19458.0	5.76400745701922e+17
19459.0	5.8254885884614e+17
19460.0	5.876735714612563e+17
19461.0	5.921268169703423e+17
19462.0	5.96083363352849e+17
19463.0	6.002213649033894e+17
19464.0	6.039987899684178e+17
19465.0	6.072027515453441e+17
19466.0	6.09995310200695e+17
19467.0	6.124808807557801e+17
19468.0	6.146878018857644e+17
19469.0	6.166851167278419e+17
19470.0	6.184996891699882e+17
19471.0	6.203897513246721e+17
19472.0	6.222092193584467e+17
19473.0	6.23830435294959e+17
19474.0	6.252567226307924e+17
19475.0	6.265317145706495e+17
19476.0	6.276731168096255e+17
19477.0	6.287152348397567e+17
19478.0	6.296573463319891e+17
19479.0	6.304964706041855e+17
19480.0	6.312830486358698e+17
19481.0	6.319784336905556e+17
19482.0	6.326760434739881e+17
19483.0	6.333377055555583e+17
19484.0	6.339376209810772e+17
19485.0	6.345057487552511e+17
19486.0	6.35003588382993e+17
19487.0	6.354492624732159e+17
19488.0	6.358592452034559e+17
19489.0	6.362381059883005e+17
19490.0	6.365695431060138e+17
19491.0	6.369023782551551e+17
19492.0	6.371758799410516e+17
19493.0	6.37429150191889e+17
19494.0	6.376681862332415e+17
19495.0	6.378710224950612e+17
19496.0	6.38057228411426e+17
19497.0	6.382415091422547e+17
19498.0	6.383953432106324e+17
19499.0	6.384921538985981e+17
19500.0	6.386625623184723e+17
19501.0	6.387817119394474e+17
19502.0	6.388845751478953e+17
19503.0	6.389770236198911e+17
19504.0	6.39049397314082e+17
19505.0	6.391153728072362e+17
19506.0	6.391725954170877e+17
19507.0	6.392200826279252e+17
19508.0	6.392617387775316e+17
19509.0	6.392928172419753e+17
19510.0	6.393153416331263e+17
19511.0	6.393023907408553e+17
19512.0	6.393319092737364e+17
19513.0	6.393244984279039e+17
19514.0	6.393266087220563e+17
19515.0	6.393254376024746e+17
19516.0	6.393142188179455e+17
19517.0	6.392946796527615e+17
19518.0	6.392700980953087e+17
19519.0	6.392439185080319e+17
19520.0	6.392140603763369e+17
19521.0	6.391770681529684e+17
19522.0	6.391392393756672e+17
19523.0	6.3909664405149e+17
19524.0	6.39049288192273e+17
19525.0	6.389984340738047e+17
19526.0	6.389454515557718e+17
19527.0	6.388894006946474e+17
19528.0	6.388310362554367e+17
19529.0	6.387699696358739e+17
19530.0	6.387064529835348e+17
19531.0	6.38640710623778e+17
19532.0	6.385728439888553e+17
19533.0	6.38502974923298e+17
19534.0	6.384314533019647e+17
19535.0	6.383610424721407e+17
19536.0	6.382856825034068e+17
19537.0	6.382087656090282e+17
19538.0	6.381300432764927e+17
19539.0	6.380468119972522e+17
19540.0	6.379687300650324e+17
19541.0	6.378859368808447e+17
19542.0	6.378018263356756e+17
19543.0	6.377164784708265e+17
19544.0	6.376299532648447e+17
19545.0	6.37540329726498e+17
19546.0	6.374479299783337e+17
19547.0	6.373636013992617e+17
19548.0	6.372727715091796e+17
19549.0	6.371805344301055e+17
19550.0	6.370887923488084e+17
19551.0	6.369953626193919e+17
19552.0	6.369010954971817e+17
19553.0	6.368059314230611e+17
19554.0	6.36710002168081e+17
19555.0	6.366137059115007e+17
19556.0	6.365164755834195e+17
19557.0	6.364199141769215e+17
19558.0	6.363240951622314e+17
19559.0	6.362247503456937e+17
19560.0	6.361252452368383e+17
19561.0	6.360249656497491e+17
19562.0	6.359241329737727e+17
19563.0	6.358227079222612e+17
19564.0	6.357229509454505e+17
19565.0	6.356212518660778e+17
19566.0	6.355183703425023e+17
19567.0	6.354153057375572e+17
19568.0	6.353117692734121e+17
19569.0	6.352076809786708e+17
19570.0	6.351032902746111e+17
19571.0	6.349984813285375e+17
19572.0	6.348933057303891e+17
19573.0	6.347876867943082e+17
19574.0	6.34681480585762e+17
19575.0	6.345757078585343e+17
19576.0	6.344692543957674e+17
19577.0	6.34361757110545e+17
19578.0	6.342551364348585e+17
19579.0	6.341478606088874e+17
19580.0	6.340402788084393e+17
19581.0	6.339324221412692e+17
19582.0	6.338243995893759e+17
19583.0	6.337160353415167e+17
19584.0	6.336074320183295e+17
19585.0	6.334981095817215e+17
19586.0	6.333885477901652e+17
19587.0	6.332798837893801e+17
19588.0	6.331678945443839e+17
19589.0	6.330609330814976e+17
19590.0	6.329512058246483e+17
19591.0	6.32841484439825e+17
19592.0	6.327313183888724e+17
19593.0	6.326209975681023e+17
19594.0	6.325090076240554e+17
19595.0	6.323998615579306e+17
19596.0	6.322822636197203e+17
19597.0	6.321781472231423e+17
19598.0	6.320659515484842e+17
19599.0	6.319559083207338e+17
19600.0	6.318445757639338e+17
19601.0	6.317328908156927e+17
19602.0	6.316213055520765e+17
19603.0	6.315071747653631e+17
19604.0	6.313980257632255e+17
19605.0	6.312843516663124e+17
19606.0	6.311740292377257e+17
19607.0	6.310620618031104e+17
19608.0	6.309498311060137e+17
19609.0	6.308374095680852e+17
19610.0	6.307251841138688e+17
19611.0	6.306126841424553e+17
19612.0	6.305001606829395e+17
19613.0	6.303875045436073e+17
19614.0	6.30274936414754e+17
19615.0	6.301621533278207e+17
19616.0	6.300490943954944e+17
19617.0	6.299363724754944e+17
19618.0	6.298205237018623e+17
19619.0	6.297063167885311e+17
19620.0	6.295936372310015e+17
19621.0	6.294847860244479e+17
19622.0	6.293715471564797e+17
19623.0	6.292582793478144e+17
19624.0	6.291449391874047e+17
19625.0	6.290315459690495e+17
19626.0	6.289181175185405e+17
19627.0	6.288046374780927e+17
19628.0	6.286904844615679e+17
19629.0	6.285770100834303e+17
19630.0	6.284635419967487e+17
19631.0	6.283205502042111e+17
19632.0	6.282365710106623e+17
19633.0	6.281228508463101e+17
19634.0	6.280091025102164e+17
19635.0	6.278953149573802e+17
19636.0	6.277814907043837e+17
19637.0	6.276650809425919e+17
19638.0	6.275537030174036e+17
19639.0	6.274398168984233e+17
19640.0	6.273258557713066e+17
19641.0	6.272086860016298e+17
19642.0	6.27097959731473e+17
19643.0	6.269837985360553e+17
19644.0	6.268697307338067e+17
19645.0	6.267543243194367e+17
19646.0	6.26641799671535e+17
19647.0	6.265277098491903e+17
19648.0	6.264136049273513e+17
19649.0	6.262994687579475e+17
19650.0	6.261853453811712e+17
19651.0	6.260711930636969e+17
19652.0	6.259570296313171e+17
19653.0	6.258428399845375e+17
19654.0	6.257286629206697e+17
19655.0	6.256144348261034e+17
19656.0	6.255002058926761e+17
19657.0	6.253860258228906e+17
19658.0	6.252718051382612e+17
19659.0	6.251575618043904e+17
19660.0	6.250433266494121e+17
19661.0	6.249290784920916e+17
19662.0	6.248148236238847e+17
19663.0	6.247003133225642e+17
19664.0	6.245861849126228e+17
19665.0	6.244720344825855e+17
