# Flux units: erg / (cm m2 s)
# Wavelength units: Angstrom
wave	flux
19000.0	8.423312775796051e+17
19001.0	8.421638900372819e+17
19002.0	8.420178396184575e+17
19003.0	8.418602494110377e+17
19004.0	8.417020900365651e+17
19005.0	8.415462022971391e+17
19006.0	8.413892802423464e+17
19007.0	8.411556431091028e+17
19008.0	8.410673709055999e+17
19009.0	8.409145974368936e+17
19010.0	8.407113005006845e+17
19011.0	8.405999845113855e+17
19012.0	8.403689131737085e+17
19013.0	8.402875052283222e+17
19014.0	8.401230254571519e+17
19015.0	8.399688146004649e+17
19016.0	8.39810681230677e+17
19017.0	8.396346447538854e+17
19018.0	8.394932620361725e+17
19019.0	8.393411297367379e+17
19020.0	8.391772613552809e+17
19021.0	8.390231464083455e+17
19022.0	8.388689282815319e+17
19023.0	8.387064280820394e+17
19024.0	8.385510036733952e+17
19025.0	8.38386515793237e+17
19026.0	8.382276977732264e+17
19027.0	8.380181811036157e+17
19028.0	8.379218870140925e+17
19029.0	8.377611075977216e+17
19030.0	8.376066825519101e+17
19031.0	8.374493470785535e+17
19032.0	8.372912408319314e+17
19033.0	8.371234188995241e+17
19034.0	8.369724035432445e+17
19035.0	8.368106464346111e+17
19036.0	8.322680138760161e+17
19037.0	8.36497651531776e+17
19038.0	8.363391893285545e+17
19039.0	8.361834454537555e+17
19040.0	8.360258556657663e+17
19041.0	8.358666204523178e+17
19042.0	8.35699272196642e+17
19043.0	8.355513340613974e+17
19044.0	8.35391363306837e+17
19045.0	8.352314852463955e+17
19046.0	8.350689619782313e+17
19047.0	8.349173072702121e+17
19048.0	8.347370293734054e+17
19049.0	8.345930365403136e+17
19050.0	8.344368838606847e+17
19051.0	8.335965693149169e+17
19052.0	8.340698333271382e+17
19053.0	8.339481564282876e+17
19054.0	8.33808828220484e+17
19055.0	8.336227547742208e+17
19056.0	8.3348865169053e+17
19057.0	8.333310948977321e+17
19058.0	8.331544636686335e+17
19059.0	8.330158266821289e+17
19060.0	8.3285441001117e+17
19061.0	8.326992575332352e+17
19062.0	8.325402783121408e+17
19063.0	8.323819672436733e+17
19064.0	8.322093857548968e+17
19065.0	8.320443784800937e+17
19066.0	8.318989229533868e+17
19067.0	8.31746123899426e+17
19068.0	8.315890644112724e+17
19069.0	8.314305675351382e+17
19070.0	8.312682696409085e+17
19071.0	8.311092781165226e+17
19072.0	8.309541877142866e+17
19073.0	8.307955204095997e+17
19074.0	8.306374657529172e+17
19075.0	8.304788104719018e+17
19076.0	8.303177145253885e+17
19077.0	8.301600189011283e+17
19078.0	8.299950209936041e+17
19079.0	8.298438247230122e+17
19080.0	8.296837794496511e+17
19081.0	8.295214315033939e+17
19082.0	8.293610551596374e+17
19083.0	8.2919508962618e+17
19084.0	8.290217660252157e+17
19085.0	8.288897382831443e+17
19086.0	8.286815835040424e+17
19087.0	8.284390161383425e+17
19088.0	8.283949709131775e+17
19089.0	8.281621560033276e+17
19090.0	8.280899544154111e+17
19091.0	8.279346522008232e+17
19092.0	8.277413967080105e+17
19093.0	8.276210482850476e+17
19094.0	8.274606287399592e+17
19095.0	8.273008493854719e+17
19096.0	8.27139538690594e+17
19097.0	8.2698537285277e+17
19098.0	8.268277335719935e+17
19099.0	8.266687655357097e+17
19100.0	8.265033244300628e+17
19101.0	8.263498489746772e+17
19102.0	8.261852057654612e+17
19103.0	8.260348662513664e+17
19104.0	8.258764977209343e+17
19105.0	8.257170848088063e+17
19106.0	8.255328423160489e+17
19107.0	8.253968467623935e+17
19108.0	8.252391079368019e+17
19109.0	8.245492760707064e+17
19110.0	8.249114737945258e+17
19111.0	8.247627742532948e+17
19112.0	8.246064838606848e+17
19113.0	8.244480352190463e+17
19114.0	8.242892531302401e+17
19115.0	8.241172985501012e+17
19116.0	8.239690866666154e+17
19117.0	8.238098739625981e+17
19118.0	8.236216168218624e+17
19119.0	8.232975770583035e+17
19120.0	8.232979750977533e+17
19121.0	8.231541524135935e+17
19122.0	8.230191092465663e+17
19123.0	8.22858227069747e+17
19124.0	8.226736551843158e+17
19125.0	8.225369296819539e+17
19126.0	8.223750178035027e+17
19127.0	8.220533548122108e+17
19128.0	8.21616081423564e+17
19129.0	8.218970683342845e+17
19130.0	8.217474073187668e+17
19131.0	8.215740396776106e+17
19132.0	8.214309658165245e+17
19133.0	8.211619055490391e+17
19134.0	8.208947350951256e+17
19135.0	8.209529205773654e+17
19136.0	8.207958650038953e+17
19137.0	8.206178394483369e+17
19138.0	8.204317587319466e+17
19139.0	8.203163984549204e+17
19140.0	8.201606724758185e+17
19141.0	8.200023674191873e+17
19142.0	8.198390170342739e+17
19143.0	8.196782095160659e+17
19144.0	8.195205020079443e+17
19145.0	8.19364304728883e+17
19146.0	8.191298759906646e+17
19147.0	8.190403579390633e+17
19148.0	8.188870636776105e+17
19149.0	8.187284022449492e+17
19150.0	8.185690105839615e+17
19151.0	8.184128053357226e+17
19152.0	8.182474707653974e+17
19153.0	8.180933559582719e+17
19154.0	8.179231875923967e+17
19155.0	8.177755471129257e+17
19156.0	8.176161684542804e+17
19157.0	8.174413416147626e+17
19158.0	8.169366590499492e+17
19159.0	8.171209467013802e+17
19160.0	8.16959576027955e+17
19161.0	8.167610125036204e+17
19162.0	8.158343920440671e+17
19163.0	8.164742605220522e+17
19164.0	8.163312775375528e+17
19165.0	8.161609309137577e+17
19166.0	8.159895625575081e+17
19167.0	8.157770637377535e+17
19168.0	8.156783962314067e+17
19169.0	8.15518245401395e+17
19170.0	8.153766463974057e+17
19171.0	8.151810016892243e+17
19172.0	8.150540971496786e+17
19173.0	8.148987666934442e+17
19174.0	8.147360983023615e+17
19175.0	8.145824546553855e+17
19176.0	8.144220882381484e+17
19177.0	8.142466504283476e+17
19178.0	8.140867238537896e+17
19179.0	8.138870755426303e+17
19180.0	8.137014508868948e+17
19181.0	8.13609008846165e+17
19182.0	8.134535973000531e+17
19183.0	8.132971308864851e+17
19184.0	8.131236999113385e+17
19185.0	8.129855570138451e+17
19186.0	8.128280838275071e+17
19187.0	8.126573619533138e+17
19188.0	8.125031003455488e+17
19189.0	8.12328250577169e+17
19190.0	8.121637847870122e+17
19191.0	8.120150396676778e+17
19192.0	8.118575397776042e+17
19193.0	8.116182232771241e+17
19194.0	8.115064255021053e+17
19195.0	8.113784335193427e+17
19196.0	8.112206117863424e+17
19197.0	8.110533731418111e+17
19198.0	8.108579022176255e+17
19199.0	8.06079078614083e+17
19200.0	8.074094275373755e+17
19201.0	8.103833958525612e+17
19202.0	8.102548723116713e+17
19203.0	8.100924175504723e+17
19204.0	8.099405911556092e+17
19205.0	8.097848558092285e+17
19206.0	8.09624944054545e+17
19207.0	8.094573407851859e+17
19208.0	8.092854995910655e+17
19209.0	8.091344153083903e+17
19210.0	8.089757284302845e+17
19211.0	8.08815860855603e+17
19212.0	8.086555668600147e+17
19213.0	8.084432395872937e+17
19214.0	8.082555106492416e+17
19215.0	8.081532287713276e+17
19216.0	8.080076465766399e+17
19217.0	8.078499048150355e+17
19218.0	8.076048472910505e+17
19219.0	8.075099420753919e+17
19220.0	8.073611273306111e+17
19221.0	8.071660306781524e+17
19222.0	8.070444014545577e+17
19223.0	8.068801090289663e+17
19224.0	8.067097747084627e+17
19225.0	8.065418860866218e+17
19226.0	8.063942745478483e+17
19227.0	8.062315695265108e+17
19228.0	8.060733033370964e+17
19229.0	8.059109555306496e+17
19230.0	8.057288838698324e+17
19231.0	8.055710364117673e+17
19232.0	8.054170463152812e+17
19233.0	8.052518475005951e+17
19234.0	8.050953548027219e+17
19235.0	8.049308864959828e+17
19236.0	8.047721010517331e+17
19237.0	8.046072464495956e+17
19238.0	8.044285165305855e+17
19239.0	8.042808377431378e+17
19240.0	8.040877228993192e+17
19241.0	8.039435407633068e+17
19242.0	8.037879408929446e+17
19243.0	8.036064860744362e+17
19244.0	8.034631640503638e+17
19245.0	8.03298302038289e+17
19246.0	8.031328201080831e+17
19247.0	8.029688162506067e+17
19248.0	8.028045394837503e+17
19249.0	8.02638942769425e+17
19250.0	8.024732695789565e+17
19251.0	8.02299791627605e+17
19252.0	8.021064146397866e+17
19253.0	8.019726626193404e+17
19254.0	8.017955416353446e+17
19255.0	8.016110172853586e+17
19256.0	8.014525767527081e+17
19257.0	8.013007805568339e+17
19258.0	8.011348206157821e+17
19259.0	8.009595175829503e+17
19260.0	8.007434071878314e+17
19261.0	8.00632742014703e+17
19262.0	8.004601303269373e+17
19263.0	8.002940446965757e+17
19264.0	8.000798734680063e+17
19265.0	7.999443555057663e+17
19266.0	7.997828336975871e+17
19267.0	7.996260921376765e+17
19268.0	7.994556402368511e+17
19269.0	7.992874959022761e+17
19270.0	7.991170090489172e+17
19271.0	7.98914644925918e+17
19272.0	7.987743626537641e+17
19273.0	7.978192743344799e+17
19274.0	7.98035306995165e+17
19275.0	7.982659963715581e+17
19276.0	7.980928258626898e+17
19277.0	7.979206433920339e+17
19278.0	7.977489764013395e+17
19279.0	7.975596702651732e+17
19280.0	7.973958109713747e+17
19281.0	7.972304208964266e+17
19282.0	7.970565591662591e+17
19283.0	7.96811452568917e+17
19284.0	7.965379038369106e+17
19285.0	7.965109269124436e+17
19286.0	7.963570039248212e+17
19287.0	7.961852190741844e+17
19288.0	7.949927683806543e+17
19289.0	7.928385063179546e+17
19290.0	7.9563814104378e+17
19291.0	7.954319286468609e+17
19292.0	7.952833960389289e+17
19293.0	7.951041563721727e+17
19294.0	7.949246574974291e+17
19295.0	7.947465768566781e+17
19296.0	7.945658352096595e+17
19297.0	7.943813635680938e+17
19298.0	7.942012285572436e+17
19299.0	7.940229805637632e+17
19300.0	7.938404103400106e+17
19301.0	7.936561043734527e+17
19302.0	7.934720408376659e+17
19303.0	7.932770586897064e+17
19304.0	7.930967101887828e+17
19305.0	7.92915275363123e+17
19306.0	7.927257258175148e+17
19307.0	7.925306739042988e+17
19308.0	7.92325300228369e+17
19309.0	7.919923513436841e+17
19310.0	7.917221127563942e+17
19311.0	7.917314463410858e+17
19312.0	7.915545041742505e+17
19313.0	7.91352697753873e+17
19314.0	7.898580452201792e+17
19315.0	7.89741266429545e+17
19316.0	7.907685616495272e+17
19317.0	7.905847078289407e+17
19318.0	7.903875463206228e+17
19319.0	7.901915796297046e+17
19320.0	7.899889927891624e+17
19321.0	7.897673155739645e+17
19322.0	7.895354575246675e+17
19323.0	7.892779286571689e+17
19324.0	7.891446489153535e+17
19325.0	7.888307656589311e+17
19326.0	7.887348090710697e+17
19327.0	7.885293689853267e+17
19328.0	7.883225368100863e+17
19329.0	7.881116999133868e+17
19330.0	7.878865403073874e+17
19331.0	7.876469957765804e+17
19332.0	7.87436964605679e+17
19333.0	7.872177663639548e+17
19334.0	7.869986427808425e+17
19335.0	7.867816355037184e+17
19336.0	7.865566242362708e+17
19337.0	7.863333302566911e+17
19338.0	7.86062668743748e+17
19339.0	7.858336986125654e+17
19340.0	7.855995019591679e+17
19341.0	7.853710116563624e+17
19342.0	7.850901894419795e+17
19343.0	7.848986271896914e+17
19344.0	7.846579394314239e+17
19345.0	7.842166171413156e+17
19346.0	7.841168276586496e+17
19347.0	7.83916680225314e+17
19348.0	7.836737706044073e+17
19349.0	7.834149210903892e+17
19350.0	7.831600157600425e+17
19351.0	7.829011975634944e+17
19352.0	7.826354917605375e+17
19353.0	7.823486001086463e+17
19354.0	7.820771892133885e+17
19355.0	7.817948283884884e+17
19356.0	7.815278840075604e+17
19357.0	7.812481222530387e+17
19358.0	7.809561441686868e+17
19359.0	7.806356508289706e+17
19360.0	7.803793735417855e+17
19361.0	7.800815683108861e+17
19362.0	7.797560411073194e+17
19363.0	7.794341205857619e+17
19364.0	7.7911579178653e+17
19365.0	7.787995453194239e+17
19366.0	7.784781184674472e+17
19367.0	7.781499253642578e+17
19368.0	7.778125024154963e+17
19369.0	7.774021296149842e+17
19370.0	7.769834393698301e+17
19371.0	7.767182370231636e+17
19372.0	7.763656685824681e+17
19373.0	7.75992572658756e+17
19374.0	7.75551653720883e+17
19375.0	7.751709779907923e+17
19376.0	7.747825729972906e+17
19377.0	7.743848721678335e+17
19378.0	7.738874354029906e+17
19379.0	7.734729876963325e+17
19380.0	7.730493504094207e+17
19381.0	7.725382442680319e+17
19382.0	7.720470402389332e+17
19383.0	7.71573738058547e+17
19384.0	7.710026943343273e+17
19385.0	7.705057670376106e+17
19386.0	7.69949247069662e+17
19387.0	7.693556746201769e+17
19388.0	7.688121899898194e+17
19389.0	7.682224786767871e+17
19390.0	7.676779928660652e+17
19391.0	7.637768303105311e+17
19392.0	7.665106434042536e+17
19393.0	7.65934360854528e+17
19394.0	7.653273179783167e+17
19395.0	7.646981992218621e+17
19396.0	7.640545396523007e+17
19397.0	7.633743146997075e+17
19398.0	7.626698647055017e+17
19399.0	7.61911206687539e+17
19400.0	7.6123648046749e+17
19401.0	7.604424978814292e+17
19402.0	7.596424335545683e+17
19403.0	7.588362863684266e+17
19404.0	7.579429570783913e+17
19405.0	7.570463629421225e+17
19406.0	7.561162958831615e+17
19407.0	7.550967557914621e+17
19408.0	7.540323903340544e+17
19409.0	7.529808607051777e+17
19410.0	7.518352075390972e+17
19411.0	7.506467372400637e+17
19412.0	7.493739464709459e+17
19413.0	7.47982014119936e+17
19414.0	7.465370246621864e+17
19415.0	7.449660822126595e+17
19416.0	7.434117388610216e+17
19417.0	7.419911308924242e+17
19418.0	7.406146012839937e+17
19419.0	7.390612862358868e+17
19420.0	7.374976590719654e+17
19421.0	7.358310969769983e+17
19422.0	7.340715316434262e+17
19423.0	7.322377141267113e+17
19424.0	7.303124933585578e+17
19425.0	7.282558032500051e+17
19426.0	7.260688430923773e+17
19427.0	7.237135739038377e+17
19428.0	7.212014383049384e+17
19429.0	7.184285826722476e+17
19430.0	7.15366832607505e+17
19431.0	7.116963861321055e+17
19432.0	7.091074556231677e+17
19433.0	7.06037735821585e+17
19434.0	7.027642955988991e+17
19435.0	6.992221359658322e+17
19436.0	6.953027235042642e+17
19437.0	6.913463404898985e+17
19438.0	6.849680480665601e+17
19439.0	6.819929551885656e+17
19440.0	6.767835299359401e+17
19441.0	6.715250153881597e+17
19442.0	6.658793273644375e+17
19443.0	6.596736596312063e+17
19444.0	6.529448139205285e+17
19445.0	6.457587134365699e+17
19446.0	6.380806912081919e+17
19447.0	6.297153670479867e+17
19448.0	6.205068273516548e+17
19449.0	6.091102408933375e+17
19450.0	5.864050523111356e+17
19451.0	5.758877486983862e+17
19452.0	5.994516853030915e+17
19453.0	6.150684975387992e+17
19454.0	6.247066609123323e+17
19455.0	6.332043967332351e+17
19456.0	6.409792197230595e+17
19457.0	6.481314349143377e+17
19458.0	6.543154567533919e+17
19459.0	6.610708606571863e+17
19460.0	6.667183325883048e+17
19461.0	6.718918659932159e+17
19462.0	6.768534509409624e+17
19463.0	6.816569233506301e+17
19464.0	6.86047650521634e+17
19465.0	6.9007935785315e+17
19466.0	6.936839868907516e+17
19467.0	6.971117075256659e+17
19468.0	7.00222725283294e+17
19469.0	7.030635531774632e+17
19470.0	7.058441484195156e+17
19471.0	7.087733788901375e+17
19472.0	7.116481657569279e+17
19473.0	7.142394569599658e+17
19474.0	7.165814471218518e+17
19475.0	7.186908701174437e+17
19476.0	7.207116395074899e+17
19477.0	7.225314958639104e+17
19478.0	7.242110786164051e+17
19479.0	7.2583164751162e+17
19480.0	7.273121123926016e+17
19481.0	7.287532334437716e+17
19482.0	7.300747978167636e+17
19483.0	7.31345198391842e+17
19484.0	7.325388248885929e+17
19485.0	7.336519352887977e+17
19486.0	7.348091970300585e+17
19487.0	7.360857902153728e+17
19488.0	7.373004408007336e+17
19489.0	7.384021299713366e+17
19490.0	7.393085400372561e+17
19491.0	7.403527381625513e+17
19492.0	7.412619170283517e+17
19493.0	7.420344175078058e+17
19494.0	7.428342412214271e+17
19495.0	7.435086057526612e+17
19496.0	7.441912962569555e+17
19497.0	7.448018546589696e+17
19498.0	7.452641662249649e+17
19499.0	7.40885069719137e+17
19500.0	7.464578609490602e+17
19501.0	7.469763636057427e+17
19502.0	7.474305720560297e+17
19503.0	7.47851558822434e+17
19504.0	7.482415358410751e+17
19505.0	7.486616152397139e+17
19506.0	7.49023088467422e+17
19507.0	7.493564493725693e+17
19508.0	7.496737158944084e+17
19509.0	7.499712630358016e+17
19510.0	7.502412070431402e+17
19511.0	7.467711062518418e+17
19512.0	7.501091892275853e+17
19513.0	7.495212757330574e+17
19514.0	7.50293872122264e+17
19515.0	7.514462315610113e+17
19516.0	7.519023205974015e+17
19517.0	7.520817669035348e+17
19518.0	7.523308891275263e+17
19519.0	7.525493480532649e+17
19520.0	7.527165963446956e+17
19521.0	7.529349190953641e+17
19522.0	7.530937439660713e+17
19523.0	7.532190461416787e+17
19524.0	7.533546175113897e+17
19525.0	7.535153349918719e+17
19526.0	7.536139000173908e+17
19527.0	7.537007063116457e+17
19528.0	7.537882315096063e+17
19529.0	7.539196087151274e+17
19530.0	7.539851129782271e+17
19531.0	7.540420042380628e+17
19532.0	7.540925267268948e+17
19533.0	7.541368118662483e+17
19534.0	7.542255998293331e+17
19535.0	7.542584491988308e+17
19536.0	7.542837182027091e+17
19537.0	7.543091327489363e+17
19538.0	7.543215164314964e+17
19539.0	7.542829464507735e+17
19540.0	7.54345861010773e+17
19541.0	7.543924340031488e+17
19542.0	7.543890072567805e+17
19543.0	7.54382173057843e+17
19544.0	7.543710787043327e+17
19545.0	7.543225166331899e+17
19546.0	7.542482086658047e+17
19547.0	7.543134087020544e+17
19548.0	7.542886195265536e+17
19549.0	7.542475782619135e+17
19550.0	7.542320889768617e+17
19551.0	7.542188832107178e+17
19552.0	7.541796677266089e+17
19553.0	7.541357934892372e+17
19554.0	7.540886019768319e+17
19555.0	7.540436187654825e+17
19556.0	7.539947637921108e+17
19557.0	7.539410715279357e+17
19558.0	7.538859636861609e+17
19559.0	7.538256040165375e+17
19560.0	7.5376540806458e+17
19561.0	7.537033414530387e+17
19562.0	7.536414757486591e+17
19563.0	7.535752808235007e+17
19564.0	7.535078049579007e+17
19565.0	7.53441007870498e+17
19566.0	7.533903599719763e+17
19567.0	7.5332972459677e+17
19568.0	7.532507314520063e+17
19569.0	7.531745405217449e+17
19570.0	7.530977938462036e+17
19571.0	7.530168193122303e+17
19572.0	7.529303535954602e+17
19573.0	7.528555954394451e+17
19574.0	7.527869318867625e+17
19575.0	7.52711665660723e+17
19576.0	7.526231508866387e+17
19577.0	7.52529087607603e+17
19578.0	7.52440053019443e+17
19579.0	7.523491939090432e+17
19580.0	7.522568328183807e+17
19581.0	7.521638583806633e+17
19582.0	7.520703621715283e+17
19583.0	7.519739078595926e+17
19584.0	7.518876322846036e+17
19585.0	7.517896755729748e+17
19586.0	7.516768185963859e+17
19587.0	7.515643160384851e+17
19588.0	7.514482760045906e+17
19589.0	7.51374575931665e+17
19590.0	7.512849974820864e+17
19591.0	7.511925589366099e+17
19592.0	7.51089083359778e+17
19593.0	7.509805136609279e+17
19594.0	7.508425364384425e+17
19595.0	7.507686104323412e+17
19596.0	7.495838473388037e+17
19597.0	7.505484872067753e+17
19598.0	7.504221781185876e+17
19599.0	7.503422367814996e+17
19600.0	7.50253284401698e+17
19601.0	7.501391218780842e+17
19602.0	7.500299915405993e+17
19603.0	7.498066440137385e+17
19604.0	7.497990526031187e+17
19605.0	7.49662973862434e+17
19606.0	7.495800096904531e+17
19607.0	7.49467275047731e+17
19608.0	7.493494973136893e+17
19609.0	7.492289085571071e+17
19610.0	7.49120502436113e+17
19611.0	7.49002874019294e+17
19612.0	7.488869434567338e+17
19613.0	7.487679713247232e+17
19614.0	7.48646785299251e+17
19615.0	7.48532864647168e+17
19616.0	7.483802983770794e+17
19617.0	7.482944507609084e+17
19618.0	7.481270042187091e+17
19619.0	7.479887237480447e+17
19620.0	7.478720298221568e+17
19621.0	7.478132701396991e+17
19622.0	7.476933622584659e+17
19623.0	7.475719764443133e+17
19624.0	7.474536344365738e+17
19625.0	7.473421345969492e+17
19626.0	7.47219285390131e+17
19627.0	7.470963493612202e+17
19628.0	7.468617661328044e+17
19629.0	7.468369077512874e+17
19630.0	7.465907402746541e+17
19631.0	7.417986713386989e+17
19632.0	7.464688447127552e+17
19633.0	7.463469821460479e+17
19634.0	7.462298780172287e+17
19635.0	7.461007247714985e+17
19636.0	7.459793267938642e+17
19637.0	7.458092019089407e+17
19638.0	7.45729334391603e+17
19639.0	7.455995391377405e+17
19640.0	7.45470855094818e+17
19641.0	7.453027970230957e+17
19642.0	7.45224290697216e+17
19643.0	7.450949322102102e+17
19644.0	7.449655370929491e+17
19645.0	7.448189067416914e+17
19646.0	7.447177620794025e+17
19647.0	7.445903375859711e+17
19648.0	7.444621845419348e+17
19649.0	7.443340944124585e+17
19650.0	7.442069631008765e+17
19651.0	7.440780173333844e+17
19652.0	7.439495144843948e+17
19653.0	7.4382006302365e+17
19654.0	7.436923073200128e+17
19655.0	7.435629889585151e+17
19656.0	7.434345554553514e+17
19657.0	7.433058619053395e+17
19658.0	7.431767410955604e+17
19659.0	7.43048149467136e+17
19660.0	7.429188682951338e+17
19661.0	7.427892882090666e+17
19662.0	7.426595617417897e+17
19663.0	7.425238286117548e+17
19664.0	7.423770418129577e+17
19665.0	7.422697250925226e+17
19666.0	7.421372870077097e+17
