# Flux units: erg / (cm m2 s)
# Wavelength units: Angstrom
wave	flux
19000.0	5.963381072024916e+17
19001.0	5.962176566482262e+17
19002.0	5.961158789256532e+17
19003.0	5.960028887799124e+17
19004.0	5.958906399074986e+17
19005.0	5.957815606706175e+17
19006.0	5.956721039463764e+17
19007.0	5.955377624864084e+17
19008.0	5.954470750628522e+17
19009.0	5.953323333058559e+17
19010.0	5.951858919778985e+17
19011.0	5.951089011239593e+17
19012.0	5.94877306337143e+17
19013.0	5.948956464207188e+17
19014.0	5.947801288572928e+17
19015.0	5.946705730775721e+17
19016.0	5.945579346242218e+17
19017.0	5.944517279263402e+17
19018.0	5.943331381750442e+17
19019.0	5.942292648383828e+17
19020.0	5.941167022320298e+17
19021.0	5.94007533027328e+17
19022.0	5.93896932516386e+17
19023.0	5.937821696480595e+17
19024.0	5.936721161442644e+17
19025.0	5.935517880636758e+17
19026.0	5.934377313763327e+17
19027.0	5.932255984396969e+17
19028.0	5.932305954635776e+17
19029.0	5.931174910230527e+17
19030.0	5.93009332925235e+17
19031.0	5.928989547124052e+17
19032.0	5.927875102375935e+17
19033.0	5.926683430005417e+17
19034.0	5.925641268494335e+17
19035.0	5.924437622783999e+17
19036.0	5.845465383829501e+17
19037.0	5.922271826804736e+17
19038.0	5.921198187042131e+17
19039.0	5.920117974805161e+17
19040.0	5.919011777456809e+17
19041.0	5.917895398435497e+17
19042.0	5.916573204916905e+17
19043.0	5.915693189606057e+17
19044.0	5.914561671244457e+17
19045.0	5.913437178342057e+17
19046.0	5.912321488584703e+17
19047.0	5.91124464017954e+17
19048.0	5.909923458886314e+17
19049.0	5.908719843934207e+17
19050.0	5.907890263031807e+17
19051.0	5.895470977122289e+17
19052.0	5.903478891915945e+17
19053.0	5.904557028671487e+17
19054.0	5.903516788151635e+17
19055.0	5.902139617094314e+17
19056.0	5.901265683524265e+17
19057.0	5.900188829526697e+17
19058.0	5.898885945884671e+17
19059.0	5.897938394589865e+17
19060.0	5.896855033828692e+17
19061.0	5.895783116526932e+17
19062.0	5.894673568628735e+17
19063.0	5.89357076517137e+17
19064.0	5.892344275184297e+17
19065.0	5.891203711806121e+17
19066.0	5.890158411557546e+17
19067.0	5.889148600014164e+17
19068.0	5.888051778333354e+17
19069.0	5.886949638275071e+17
19070.0	5.88582343549474e+17
19071.0	5.884699024381267e+17
19072.0	5.8835755087517e+17
19073.0	5.882532773320019e+17
19074.0	5.881435126759423e+17
19075.0	5.880332604320425e+17
19076.0	5.879210756625748e+17
19077.0	5.8781129520797e+17
19078.0	5.876992808670548e+17
19079.0	5.875921674305535e+17
19080.0	5.874806130649769e+17
19081.0	5.873682104014163e+17
19082.0	5.872577266319359e+17
19083.0	5.871422450696191e+17
19084.0	5.870208224854015e+17
19085.0	5.869309435139412e+17
19086.0	5.867732200674644e+17
19087.0	5.864824124036438e+17
19088.0	5.865778495269545e+17
19089.0	5.863592276525055e+17
19090.0	5.863761817982292e+17
19091.0	5.862660410529108e+17
19092.0	5.860941951751507e+17
19093.0	5.860510248818004e+17
19094.0	5.859414224754004e+17
19095.0	5.858315187781631e+17
19096.0	5.857196238351018e+17
19097.0	5.856115593401684e+17
19098.0	5.854960738631679e+17
19099.0	5.853852742625961e+17
19100.0	5.852699785778516e+17
19101.0	5.85167986106914e+17
19102.0	5.850523357238611e+17
19103.0	5.849531992244223e+17
19104.0	5.848433945826644e+17
19105.0	5.847204649151146e+17
19106.0	5.845822226126164e+17
19107.0	5.845086422171648e+17
19108.0	5.843984059116201e+17
19109.0	5.836903399380301e+17
19110.0	5.841659266159956e+17
19111.0	5.840688909735252e+17
19112.0	5.839610717754708e+17
19113.0	5.838561393071444e+17
19114.0	5.837441417434452e+17
19115.0	5.836150043661654e+17
19116.0	5.835258024951805e+17
19117.0	5.83415837561105e+17
19118.0	5.832636437452116e+17
19119.0	5.826585192737443e+17
19120.0	5.830240926433277e+17
19121.0	5.829321339961343e+17
19122.0	5.828711007212884e+17
19123.0	5.827616725183145e+17
19124.0	5.826160493592575e+17
19125.0	5.825372144096595e+17
19126.0	5.824319033354921e+17
19127.0	5.82154572599569e+17
19128.0	5.820536952542547e+17
19129.0	5.820983973773311e+17
19130.0	5.819943852092074e+17
19131.0	5.818818068043092e+17
19132.0	5.817774528004095e+17
19133.0	5.816332298398378e+17
19134.0	5.814871222386688e+17
19135.0	5.814471483544915e+17
19136.0	5.813410397334185e+17
19137.0	5.812162951206228e+17
19138.0	5.811159055728639e+17
19139.0	5.810133261090813e+17
19140.0	5.809045478834175e+17
19141.0	5.807954349522943e+17
19142.0	5.806819415599785e+17
19143.0	5.805719371295402e+17
19144.0	5.804647623862954e+17
19145.0	5.803579650605055e+17
19146.0	5.801910588844714e+17
19147.0	5.801309455603028e+17
19148.0	5.800237606109183e+17
19149.0	5.799145623956138e+17
19150.0	5.798133862061398e+17
19151.0	5.797050023149568e+17
19152.0	5.795883267041961e+17
19153.0	5.794769250112854e+17
19154.0	5.793648165082452e+17
19155.0	5.79267105722641e+17
19156.0	5.791598229061631e+17
19157.0	5.790384904994816e+17
19158.0	5.785289749080741e+17
19159.0	5.788293871785299e+17
19160.0	5.78715124900386e+17
19161.0	5.786013955085652e+17
19162.0	5.775774203598173e+17
19163.0	5.783703256388948e+17
19164.0	5.782890891007316e+17
19165.0	5.781518091113812e+17
19166.0	5.780363253121023e+17
19167.0	5.77874645099042e+17
19168.0	5.778512525568682e+17
19169.0	5.777274633366186e+17
19170.0	5.776371513032703e+17
19171.0	5.774699224454484e+17
19172.0	5.774150334764372e+17
19173.0	5.773083884737876e+17
19174.0	5.771986161980756e+17
19175.0	5.770953754323625e+17
19176.0	5.769870576014676e+17
19177.0	5.768639758204927e+17
19178.0	5.76745717628928e+17
19179.0	5.765792063466154e+17
19180.0	5.765417779156308e+17
19181.0	5.7643222758850554e+17
19182.0	5.763315199726932e+17
19183.0	5.762259939404458e+17
19184.0	5.761153693122558e+17
19185.0	5.760100505485311e+17
19186.0	5.759019742396415e+17
19187.0	5.757852826905258e+17
19188.0	5.756821661461161e+17
19189.0	5.7556951469042336e+17
19190.0	5.754572559613951e+17
19191.0	5.753460813201407e+17
19192.0	5.752508379037694e+17
19193.0	5.7513736170810016e+17
19194.0	5.7502859865183565e+17
19195.0	5.749242354204671e+17
19196.0	5.748138091129515e+17
19197.0	5.7470281944050323e+17
19198.0	5.7457987453364896e+17
19199.0	5.6929154659341504e+17
19200.0	5.707418551276905e+17
19201.0	5.742577627518292e+17
19202.0	5.741628436949673e+17
19203.0	5.740424046750377e+17
19204.0	5.7394581195106963e+17
19205.0	5.738421138664106e+17
19206.0	5.737339047378943e+17
19207.0	5.7361647485146445e+17
19208.0	5.7349852759763616e+17
19209.0	5.7340934166500685e+17
19210.0	5.733023341346815e+17
19211.0	5.7319497239538336e+17
19212.0	5.7308661800413856e+17
19213.0	5.729230986586794e+17
19214.0	5.7279126797899085e+17
19215.0	5.727398133759999e+17
19216.0	5.726537350032042e+17
19217.0	5.725454690418687e+17
19218.0	5.723567793984851e+17
19219.0	5.723153125517994e+17
19220.0	5.722161337597951e+17
19221.0	5.7208154553494176e+17
19222.0	5.7200402060629325e+17
19223.0	5.7189526258319354e+17
19224.0	5.7178473015978656e+17
19225.0	5.7166664840861005e+17
19226.0	5.715708486178132e+17
19227.0	5.7146256224419834e+17
19228.0	5.7135675847912096e+17
19229.0	5.71248568644403e+17
19230.0	5.711346276499455e+17
19231.0	5.7102698440294394e+17
19232.0	5.709222807339007e+17
19233.0	5.70808265220642e+17
19234.0	5.7070557768362656e+17
19235.0	5.705969736613888e+17
19236.0	5.7049149159942816e+17
19237.0	5.70381804118562e+17
19238.0	5.702577827435862e+17
19239.0	5.701670343628116e+17
19240.0	5.7005569551455565e+17
19241.0	5.6994721899915936e+17
19242.0	5.6984083565117434e+17
19243.0	5.697195868509524e+17
19244.0	5.6962625324100256e+17
19245.0	5.6951751325341005e+17
19246.0	5.6940804492492794e+17
19247.0	5.6930147115554125e+17
19248.0	5.691916909106516e+17
19249.0	5.69081547858466e+17
19250.0	5.689726224826367e+17
19251.0	5.6885430081727136e+17
19252.0	5.6873552910308685e+17
19253.0	5.686494396852906e+17
19254.0	5.685423811941716e+17
19255.0	5.684188468477951e+17
19256.0	5.683188310824276e+17
19257.0	5.6821780707628365e+17
19258.0	5.681098494661972e+17
19259.0	5.679950854094847e+17
19260.0	5.6773841945012883e+17
19261.0	5.677831354144085e+17
19262.0	5.676705558211241e+17
19263.0	5.675611670446079e+17
19264.0	5.674065804481877e+17
19265.0	5.6733091674193914e+17
19266.0	5.6721955964846074e+17
19267.0	5.671330229780479e+17
19268.0	5.67024337236787e+17
19269.0	5.669156114399231e+17
19270.0	5.668066169978879e+17
19271.0	5.666655734595584e+17
19272.0	5.665858080735231e+17
19273.0	5.663660798115839e+17
19274.0	5.662898128246099e+17
19275.0	5.66262405075217e+17
19276.0	5.661515535351807e+17
19277.0	5.660426970857471e+17
19278.0	5.659337706613417e+17
19279.0	5.6581724394837325e+17
19280.0	5.657083476530516e+17
19281.0	5.6560576077933216e+17
19282.0	5.6549738681466874e+17
19283.0	5.653032431080789e+17
19284.0	5.652250045186046e+17
19285.0	5.651508270639785e+17
19286.0	5.6505660628882765e+17
19287.0	5.649493570966868e+17
19288.0	5.6254131195958336e+17
19289.0	5.597746025900642e+17
19290.0	5.6461994470932474e+17
19291.0	5.644878385337686e+17
19292.0	5.6440180378173434e+17
19293.0	5.642911920160767e+17
19294.0	5.641808633659392e+17
19295.0	5.640717319099732e+17
19296.0	5.6395540156033696e+17
19297.0	5.638443293999103e+17
19298.0	5.6373805209791136e+17
19299.0	5.636229478132393e+17
19300.0	5.6351834438806176e+17
19301.0	5.634078797026645e+17
19302.0	5.6329584487956474e+17
19303.0	5.631773078366889e+17
19304.0	5.6307166380468896e+17
19305.0	5.629617756263764e+17
19306.0	5.6284726721249274e+17
19307.0	5.6272896721769805e+17
19308.0	5.625756863081129e+17
19309.0	5.6220736322273274e+17
19310.0	5.620364440764412e+17
19311.0	5.621511996746409e+17
19312.0	5.6206624915019085e+17
19313.0	5.6195371359709856e+17
19314.0	5.534961159372873e+17
19315.0	5.5386838173833235e+17
19316.0	5.6158952637508256e+17
19317.0	5.615025275622741e+17
19318.0	5.613893646811136e+17
19319.0	5.6127760654226765e+17
19320.0	5.6116084893286394e+17
19321.0	5.610445763947177e+17
19322.0	5.60915626922257e+17
19323.0	5.607351397296811e+17
19324.0	5.6070019698305696e+17
19325.0	5.6039778298101766e+17
19326.0	5.6047373875063456e+17
19327.0	5.603588857746772e+17
19328.0	5.602346980256426e+17
19329.0	5.6013019805996365e+17
19330.0	5.6001038490009594e+17
19331.0	5.598933515851091e+17
19332.0	5.597782856084137e+17
19333.0	5.596593904418816e+17
19334.0	5.5954517996339194e+17
19335.0	5.5940633654722554e+17
19336.0	5.5930616167792634e+17
19337.0	5.591911887448745e+17
19338.0	5.5905305584380576e+17
19339.0	5.58951606325521e+17
19340.0	5.5882239247209805e+17
19341.0	5.587018460080809e+17
19342.0	5.585443080896511e+17
19343.0	5.584715193690794e+17
19344.0	5.583423267667968e+17
19345.0	5.580391691146578e+17
19346.0	5.580177836168532e+17
19347.0	5.579658683394729e+17
19348.0	5.5785983752273914e+17
19349.0	5.577302359059113e+17
19350.0	5.576019369000958e+17
19351.0	5.5748182622426445e+17
19352.0	5.573409331915434e+17
19353.0	5.57232850800913e+17
19354.0	5.571059900918443e+17
19355.0	5.569688288712019e+17
19356.0	5.5681512175042554e+17
19357.0	5.565647382293162e+17
19358.0	5.5643030414513485e+17
19359.0	5.562917311217662e+17
19360.0	5.561568002222761e+17
19361.0	5.560310104588287e+17
19362.0	5.559013504013652e+17
19363.0	5.557656910211753e+17
19364.0	5.556289288885589e+17
19365.0	5.554913857066324e+17
19366.0	5.553525448070484e+17
19367.0	5.552114218565631e+17
19368.0	5.550714768763562e+17
19369.0	5.549195257009492e+17
19370.0	5.54769953394961e+17
19371.0	5.5463523172133536e+17
19372.0	5.5449342062537363e+17
19373.0	5.542267163683498e+17
19374.0	5.5399044325485216e+17
19375.0	5.5383646972586643e+17
19376.0	5.536831879075157e+17
19377.0	5.5352581216884045e+17
19378.0	5.5336790564099405e+17
19379.0	5.532083021676543e+17
19380.0	5.530458917961728e+17
19381.0	5.5288077798604794e+17
19382.0	5.5260777982634656e+17
19383.0	5.522728638130858e+17
19384.0	5.5210840955726496e+17
19385.0	5.519314855657471e+17
19386.0	5.517518358358698e+17
19387.0	5.5156783724189005e+17
19388.0	5.51258752688674e+17
19389.0	5.508680908799999e+17
19390.0	5.5066814134790816e+17
19391.0	5.436214168169037e+17
19392.0	5.500959583109106e+17
19393.0	5.4966462587426106e+17
19394.0	5.494398743041364e+17
19395.0	5.492012279835305e+17
19396.0	5.4867389988208614e+17
19397.0	5.482826015178752e+17
19398.0	5.480224873512958e+17
19399.0	5.471727819685884e+17
19400.0	5.469418163972777e+17
19401.0	5.4619241828406534e+17
19402.0	5.457298321309694e+17
19403.0	5.450878218316457e+17
19404.0	5.4470943521286816e+17
19405.0	5.443529099356841e+17
19406.0	5.43986193408546e+17
19407.0	5.4360328693787296e+17
19408.0	5.431427424321536e+17
19409.0	5.428014189903871e+17
19410.0	5.4237785887866874e+17
19411.0	5.41937606275891e+17
19412.0	5.414782317013674e+17
19413.0	5.409967769823913e+17
19414.0	5.4049993755634336e+17
19415.0	5.399845700020906e+17
19416.0	5.3940237334391456e+17
19417.0	5.387978971720362e+17
19418.0	5.3830942377465165e+17
19419.0	5.376878249159338e+17
19420.0	5.370681529204734e+17
19421.0	5.364177631707136e+17
19422.0	5.35739317232162e+17
19423.0	5.350476323924649e+17
19424.0	5.3433410774193485e+17
19425.0	5.335958739572053e+17
19426.0	5.3283404364731725e+17
19427.0	5.3204698389981856e+17
19428.0	5.311874299417941e+17
19429.0	5.303314006671359e+17
19430.0	5.2932284734505005e+17
19431.0	5.2732085809097536e+17
19432.0	5.2762144840963405e+17
19433.0	5.265503824816811e+17
19434.0	5.253974962383527e+17
19435.0	5.238187908311719e+17
19436.0	5.216131411345403e+17
19437.0	5.195500048001703e+17
19438.0	5.056117022741869e+17
19439.0	5.1112244821360685e+17
19440.0	5.089589854557524e+17
19441.0	5.061032394009255e+17
19442.0	5.0290097728607584e+17
19443.0	4.995925440550227e+17
19444.0	4.957813916128592e+17
19445.0	4.902418819754669e+17
19446.0	4.797327418763931e+17
19447.0	4.710862160571046e+17
19448.0	4.603544571215878e+17
19449.0	4.3949414273078483e+17
19450.0	3.9208173066431066e+17
19451.0	3.7380974112494624e+17
19452.0	4.202306676807006e+17
19453.0	4.514193905898836e+17
19454.0	4.6600547135214874e+17
19455.0	4.747457733503658e+17
19456.0	4.84584229909298e+17
19457.0	4.924688128016378e+17
19458.0	4.786540669916709e+17
19459.0	4.988357594229484e+17
19460.0	5.029605513625598e+17
19461.0	5.0584519959729485e+17
19462.0	5.0839955855551155e+17
19463.0	5.1097402018365376e+17
19464.0	5.153670769410055e+17
19465.0	5.1842538495016896e+17
19466.0	5.203327012132177e+17
19467.0	5.2174344844301664e+17
19468.0	5.2283026013771066e+17
19469.0	5.2368386839019514e+17
19470.0	5.244844081414143e+17
19471.0	5.2525182966824954e+17
19472.0	5.259374171783168e+17
19473.0	5.265892979332437e+17
19474.0	5.27251274797329e+17
19475.0	5.278028896665598e+17
19476.0	5.2844055921076883e+17
19477.0	5.2899556133000525e+17
19478.0	5.295214433752404e+17
19479.0	5.3001246928622925e+17
19480.0	5.3049995457549645e+17
19481.0	5.3096009950385485e+17
19482.0	5.3139726286192634e+17
19483.0	5.3180932645628576e+17
19484.0	5.3221360220678816e+17
19485.0	5.32572727812642e+17
19486.0	5.329060831952896e+17
19487.0	5.332379763037525e+17
19488.0	5.3354101092297376e+17
19489.0	5.338116172808191e+17
19490.0	5.339599679957673e+17
19491.0	5.343276875907071e+17
19492.0	5.345587838145876e+17
19493.0	5.3477001616424954e+17
19494.0	5.349652299076947e+17
19495.0	5.3514535632022176e+17
19496.0	5.3527540386146976e+17
19497.0	5.354656257540096e+17
19498.0	5.3465630641575264e+17
19499.0	5.260058856259559e+17
19500.0	5.3619287158074016e+17
19501.0	5.366603662579027e+17
19502.0	5.3696486776504314e+17
19503.0	5.3721304277538074e+17
19504.0	5.3760884763962016e+17
19505.0	5.376546832034473e+17
19506.0	5.3794448598193517e+17
19507.0	5.3815474797936634e+17
19508.0	5.381747899017898e+17
19509.0	5.382229813362691e+17
19510.0	5.3854088371459405e+17
19511.0	5.2308739467072384e+17
19512.0	5.3671409004926144e+17
19513.0	5.3560574899213216e+17
19514.0	5.364792859907381e+17
19515.0	5.386892076559018e+17
19516.0	5.387958267936767e+17
19517.0	5.387673281757183e+17
19518.0	5.3874273277706234e+17
19519.0	5.387063207657471e+17
19520.0	5.3870494265726304e+17
19521.0	5.388885594996735e+17
19522.0	5.3884364234861216e+17
19523.0	5.3880198179498656e+17
19524.0	5.387532374114303e+17
19525.0	5.3871166906258765e+17
19526.0	5.3866415878307834e+17
19527.0	5.386132107821055e+17
19528.0	5.385598242127871e+17
19529.0	5.3850594963619834e+17
19530.0	5.384647515744939e+17
19531.0	5.3858581561562445e+17
19532.0	5.3852618449660576e+17
19533.0	5.3846522035787085e+17
19534.0	5.384026583990271e+17
19535.0	5.383384984802644e+17
19536.0	5.382710409297919e+17
19537.0	5.382090871450283e+17
19538.0	5.3812263247325856e+17
19539.0	5.3802288954736646e+17
19540.0	5.3800273228158285e+17
19541.0	5.3793309005796685e+17
19542.0	5.3786303015157754e+17
19543.0	5.377839778671274e+17
19544.0	5.377192187221332e+17
19545.0	5.3759972041468576e+17
19546.0	5.374884712546303e+17
19547.0	5.374981861015551e+17
19548.0	5.374223116315305e+17
19549.0	5.373376572249428e+17
19550.0	5.372813515598504e+17
19551.0	5.3733386704213325e+17
19552.0	5.3725500706652154e+17
19553.0	5.371733219475456e+17
19554.0	5.370921948807167e+17
19555.0	5.370128791240702e+17
19556.0	5.3693332596981754e+17
19557.0	5.368526304968704e+17
19558.0	5.367708566683647e+17
19559.0	5.366883893815977e+17
19560.0	5.3660010235822074e+17
19561.0	5.3651983945782605e+17
19562.0	5.364356840336042e+17
19563.0	5.363547635362473e+17
19564.0	5.362703026268841e+17
19565.0	5.36185451717154e+17
19566.0	5.3609733659033594e+17
19567.0	5.3601454906845856e+17
19568.0	5.359265652932607e+17
19569.0	5.358409665391274e+17
19570.0	5.357560313238868e+17
19571.0	5.356687108079616e+17
19572.0	5.3557943623570765e+17
19573.0	5.354912578448041e+17
19574.0	5.3539845041029114e+17
19575.0	5.353189989679102e+17
19576.0	5.352302298791935e+17
19577.0	5.3513794337723725e+17
19578.0	5.350496816594943e+17
19579.0	5.349622774672042e+17
19580.0	5.34873151373312e+17
19581.0	5.3478493649196365e+17
19582.0	5.3469700996901536e+17
19583.0	5.3460728485860685e+17
19584.0	5.345138574360575e+17
19585.0	5.3441709868755616e+17
19586.0	5.3432172363994445e+17
19587.0	5.342119302529023e+17
19588.0	5.3411047996566176e+17
19589.0	5.34061778084386e+17
19590.0	5.339614957010943e+17
19591.0	5.3388165929151136e+17
19592.0	5.33791764451601e+17
19593.0	5.33697781633297e+17
19594.0	5.335839364786857e+17
19595.0	5.33512891540002e+17
19596.0	5.330956595145389e+17
19597.0	5.333202835079168e+17
19598.0	5.3320263733521056e+17
19599.0	5.331493777134933e+17
19600.0	5.330580317143039e+17
19601.0	5.329593060469417e+17
19602.0	5.328680658840234e+17
19603.0	5.3265348843711123e+17
19604.0	5.326718469057194e+17
19605.0	5.325677460979711e+17
19606.0	5.3250193446229325e+17
19607.0	5.324098773887658e+17
19608.0	5.3231512142042445e+17
19609.0	5.322182334873599e+17
19610.0	5.321304613147987e+17
19611.0	5.3203601873087136e+17
19612.0	5.3194912631357434e+17
19613.0	5.318548015895892e+17
19614.0	5.3175867093811194e+17
19615.0	5.3166628118637216e+17
19616.0	5.3150761290301434e+17
19617.0	5.314752061723989e+17
19618.0	5.31331863036996e+17
19619.0	5.3122558175040845e+17
19620.0	5.311331125166079e+17
19621.0	5.310983510338217e+17
19622.0	5.310128518245034e+17
19623.0	5.3091839148468896e+17
19624.0	5.308225216490153e+17
19625.0	5.3073040816209914e+17
19626.0	5.3063644470749856e+17
19627.0	5.30540607447586e+17
19628.0	5.30310858853581e+17
19629.0	5.303218416386047e+17
19630.0	5.298629508071424e+17
19631.0	5.2442879404714746e+17
19632.0	5.3006315045956256e+17
19633.0	5.299628552137385e+17
19634.0	5.298820765537621e+17
19635.0	5.2978297955068576e+17
19636.0	5.296837854494719e+17
19637.0	5.2955891018410656e+17
19638.0	5.2950297718292474e+17
19639.0	5.294075854280021e+17
19640.0	5.293042055512062e+17
19641.0	5.29130870206191e+17
19642.0	5.2912557797321376e+17
19643.0	5.290291300925439e+17
19644.0	5.2893200126661965e+17
19645.0	5.2881685832444576e+17
19646.0	5.287391013808809e+17
19647.0	5.286535828777641e+17
19648.0	5.285594926852778e+17
19649.0	5.284645353204393e+17
19650.0	5.283700782661632e+17
19651.0	5.2827479766029645e+17
19652.0	5.281803311688362e+17
19653.0	5.280827353071615e+17
19654.0	5.279902776776019e+17
19655.0	5.27895150862882e+17
19656.0	5.2780081928820045e+17
19657.0	5.277066678588756e+17
19658.0	5.2761117208521376e+17
