# Flux units: erg / (cm m2 s)
# Wavelength units: Angstrom
wave	flux
19000.0	7.149655028662271e+17
19001.0	7.148261409641811e+17
19002.0	7.147026269601791e+17
19003.0	7.145697751771817e+17
19004.0	7.144371729552723e+17
19005.0	7.143071506497536e+17
19006.0	7.141759870741162e+17
19007.0	7.1403211601565e+17
19008.0	7.139078842264233e+17
19009.0	7.137726667161599e+17
19010.0	7.136139657172308e+17
19011.0	7.135088381438633e+17
19012.0	7.13291646317363e+17
19013.0	7.132513895273811e+17
19014.0	7.13116638843153e+17
19015.0	7.129997965787135e+17
19016.0	7.128672344823126e+17
19017.0	7.127378571209385e+17
19018.0	7.126016614989823e+17
19019.0	7.124734167394986e+17
19020.0	7.123402383600298e+17
19021.0	7.122096625461929e+17
19022.0	7.120776198444372e+17
19023.0	7.119416860868607e+17
19024.0	7.118106231745194e+17
19025.0	7.116695386718207e+17
19026.0	7.115325868168532e+17
19027.0	7.113244655921832e+17
19028.0	7.11280455738982e+17
19029.0	7.111481348150612e+17
19030.0	7.110178078632617e+17
19031.0	7.108847965569023e+17
19032.0	7.107507730251773e+17
19033.0	7.106083629826047e+17
19034.0	7.104728176175786e+17
19035.0	7.10263466622976e+17
19036.0	7.046173388264773e+17
19037.0	7.100215860046505e+17
19038.0	7.09943143572002e+17
19039.0	7.098205674143743e+17
19040.0	7.096906364048723e+17
19041.0	7.095585151298217e+17
19042.0	7.094083201794045e+17
19043.0	7.092951408006484e+17
19044.0	7.091613922754559e+17
19045.0	7.090260985686698e+17
19046.0	7.088933474489683e+17
19047.0	7.087621507383293e+17
19048.0	7.086134147066538e+17
19049.0	7.084667059219113e+17
19050.0	7.083497518093651e+17
19051.0	7.073435087798259e+17
19052.0	7.078826963457364e+17
19053.0	7.079619902220969e+17
19054.0	7.078577501634559e+17
19055.0	7.07703146160674e+17
19056.0	7.075910398246911e+17
19057.0	7.074611978742441e+17
19058.0	7.073135311104681e+17
19059.0	7.071922939144874e+17
19060.0	7.070616287619753e+17
19061.0	7.069313732531539e+17
19062.0	7.067982232551424e+17
19063.0	7.066654608108202e+17
19064.0	7.065238118946131e+17
19065.0	7.063856467673087e+17
19066.0	7.06258112942353e+17
19067.0	7.061344549339135e+17
19068.0	7.060016202077523e+17
19069.0	7.058688316189353e+17
19070.0	7.057341150483795e+17
19071.0	7.055990664287572e+17
19072.0	7.054651334939987e+17
19073.0	7.05337043923763e+17
19074.0	7.052045290831871e+17
19075.0	7.050716229140479e+17
19076.0	7.049372671934463e+17
19077.0	7.048046160379901e+17
19078.0	7.046703454617599e+17
19079.0	7.045397801336832e+17
19080.0	7.044056541211305e+17
19081.0	7.042701066589523e+17
19082.0	7.041374894773587e+17
19083.0	7.039978848649215e+17
19084.0	7.038541153086122e+17
19085.0	7.03737443193105e+17
19086.0	7.03551699558946e+17
19087.0	7.033357867155455e+17
19088.0	7.032871921385471e+17
19089.0	7.031187889455101e+17
19090.0	7.030560891338751e+17
19091.0	7.029318616088575e+17
19092.0	7.027644850416297e+17
19093.0	7.026737790932308e+17
19094.0	7.025447418899113e+17
19095.0	7.024128175374335e+17
19096.0	7.022792643269972e+17
19097.0	7.021475612240553e+17
19098.0	7.020098834748756e+17
19099.0	7.018761443868671e+17
19100.0	7.017390962027178e+17
19101.0	7.015935864995839e+17
19102.0	7.014519680619859e+17
19103.0	7.013262405140479e+17
19104.0	7.01192641585698e+17
19105.0	7.010454023613097e+17
19106.0	7.009004109343402e+17
19107.0	7.007824763333289e+17
19108.0	7.006381067119274e+17
19109.0	7.00107927811959e+17
19110.0	7.003275276582911e+17
19111.0	7.002500701181268e+17
19112.0	7.001240432366932e+17
19113.0	6.99996918985523e+17
19114.0	6.998617221671593e+17
19115.0	6.997145370492927e+17
19116.0	6.995966194352127e+17
19117.0	6.994608774971391e+17
19118.0	6.993033581035519e+17
19119.0	6.988972700641957e+17
19120.0	6.990135884600659e+17
19121.0	6.988955743070889e+17
19122.0	6.988021486321663e+17
19123.0	6.986700128867667e+17
19124.0	6.985014016562515e+17
19125.0	6.984019756100265e+17
19126.0	6.982689007599615e+17
19127.0	6.980102777383593e+17
19128.0	6.979287015314771e+17
19129.0	6.978660514922493e+17
19130.0	6.977392611076778e+17
19131.0	6.976053167783935e+17
19132.0	6.974746169529684e+17
19133.0	6.973271776602794e+17
19134.0	6.971735529575764e+17
19135.0	6.970746043629567e+17
19136.0	6.969432657450324e+17
19137.0	6.967990307607892e+17
19138.0	6.966755628242262e+17
19139.0	6.965448804051625e+17
19140.0	6.964123996782591e+17
19141.0	6.962795993453908e+17
19142.0	6.961427866015062e+17
19143.0	6.960098696669865e+17
19144.0	6.958777465044991e+17
19145.0	6.957475869054291e+17
19146.0	6.95565331534097e+17
19147.0	6.954756031381504e+17
19148.0	6.953424118262442e+17
19149.0	6.952093659168767e+17
19150.0	6.950824982173012e+17
19151.0	6.949498488094719e+17
19152.0	6.948098820188842e+17
19153.0	6.946734942278995e+17
19154.0	6.9453909341853e+17
19155.0	6.944116999629481e+17
19156.0	6.942745117589503e+17
19157.0	6.941010703679487e+17
19158.0	6.937647964487677e+17
19159.0	6.938519394058239e+17
19160.0	6.937313900756991e+17
19161.0	6.935804219752447e+17
19162.0	6.928320165838852e+17
19163.0	6.932499526931795e+17
19164.0	6.932052314860201e+17
19165.0	6.930609326784511e+17
19166.0	6.929258846180691e+17
19167.0	6.927542926355113e+17
19168.0	6.926747230535679e+17
19169.0	6.925424506437632e+17
19170.0	6.924159551187625e+17
19171.0	6.922562662913364e+17
19172.0	6.921437936528042e+17
19173.0	6.920189304111103e+17
19174.0	6.918858140374355e+17
19175.0	6.917569181122559e+17
19176.0	6.916232315229523e+17
19177.0	6.914753730095785e+17
19178.0	6.913311086652074e+17
19179.0	6.911781477111126e+17
19180.0	6.910833168744447e+17
19181.0	6.909478691667967e+17
19182.0	6.908214044000255e+17
19183.0	6.906911773425663e+17
19184.0	6.905565900264787e+17
19185.0	6.904244756720297e+17
19186.0	6.902911179161597e+17
19187.0	6.901495642106538e+17
19188.0	6.900215109910527e+17
19189.0	6.898856538494292e+17
19190.0	6.897470010643795e+17
19191.0	6.896092860557993e+17
19192.0	6.894830256914431e+17
19193.0	6.893435885715455e+17
19194.0	6.892034461794304e+17
19195.0	6.890632270315517e+17
19196.0	6.889082263874217e+17
19197.0	6.887246266717523e+17
19198.0	6.883866839089151e+17
19199.0	6.844268069694113e+17
19200.0	6.851320740839433e+17
19201.0	6.880171375547732e+17
19202.0	6.880632286216191e+17
19203.0	6.879637446240937e+17
19204.0	6.8785782929053e+17
19205.0	6.877368373914281e+17
19206.0	6.876086917573289e+17
19207.0	6.874702279256746e+17
19208.0	6.873318735653545e+17
19209.0	6.872139594465279e+17
19210.0	6.87081256002082e+17
19211.0	6.869481128547668e+17
19212.0	6.868119699412307e+17
19213.0	6.866397576910164e+17
19214.0	6.864866748224852e+17
19215.0	6.863917754788522e+17
19216.0	6.862772358873087e+17
19217.0	6.86143394947618e+17
19218.0	6.859505868472317e+17
19219.0	6.858626629806761e+17
19220.0	6.857391038879059e+17
19221.0	6.855860133997226e+17
19222.0	6.854723512565759e+17
19223.0	6.853383656133972e+17
19224.0	6.852015635649875e+17
19225.0	6.850603193292115e+17
19226.0	6.849341922738175e+17
19227.0	6.847992812273663e+17
19228.0	6.846667433181183e+17
19229.0	6.845316496097279e+17
19230.0	6.84361671245824e+17
19231.0	6.842230822141951e+17
19232.0	6.840895429847721e+17
19233.0	6.839488141590527e+17
19234.0	6.838185819985235e+17
19235.0	6.836822091672233e+17
19236.0	6.835490568623444e+17
19237.0	6.834120764162047e+17
19238.0	6.832644810255017e+17
19239.0	6.831415077371903e+17
19240.0	6.830050361300307e+17
19241.0	6.828680045832874e+17
19242.0	6.82732792315904e+17
19243.0	6.825843981899092e+17
19244.0	6.824617744968361e+17
19245.0	6.823248441726291e+17
19246.0	6.821875875315711e+17
19247.0	6.82052111372561e+17
19248.0	6.819141738561536e+17
19249.0	6.81776075907618e+17
19250.0	6.816380145194323e+17
19251.0	6.814943986843647e+17
19252.0	6.813433142618793e+17
19253.0	6.812281664962559e+17
19254.0	6.810919696859136e+17
19255.0	6.809391602860031e+17
19256.0	6.808132680417279e+17
19257.0	6.806792499625983e+17
19258.0	6.805412097556479e+17
19259.0	6.803957968710314e+17
19260.0	6.801549890158588e+17
19261.0	6.80124370526754e+17
19262.0	6.799828113686527e+17
19263.0	6.798431422338387e+17
19264.0	6.796706683988649e+17
19265.0	6.795561279684607e+17
19266.0	6.794176385515519e+17
19267.0	6.792687248211967e+17
19268.0	6.791018923251028e+17
19269.0	6.789620155023359e+17
19270.0	6.788210232044202e+17
19271.0	6.786574240972799e+17
19272.0	6.785380355407872e+17
19273.0	6.78343173419827e+17
19274.0	6.781894361000617e+17
19275.0	6.780966773194751e+17
19276.0	6.779541449430356e+17
19277.0	6.778129859215359e+17
19278.0	6.776714042540032e+17
19279.0	6.775237431525375e+17
19280.0	6.773808904710825e+17
19281.0	6.772417992414548e+17
19282.0	6.770949288361983e+17
19283.0	6.769119935681875e+17
19284.0	6.767777621387945e+17
19285.0	6.766553980731391e+17
19286.0	6.765175592626858e+17
19287.0	6.763617930881706e+17
19288.0	6.746300345920156e+17
19289.0	6.723662814117828e+17
19290.0	6.758529615178409e+17
19291.0	6.757069333288276e+17
19292.0	6.755866050385236e+17
19293.0	6.754419969709398e+17
19294.0	6.752960603575636e+17
19295.0	6.751508198588415e+17
19296.0	6.749983943775572e+17
19297.0	6.748516502907562e+17
19298.0	6.747068766180691e+17
19299.0	6.745544759530836e+17
19300.0	6.744121009329491e+17
19301.0	6.742629356841642e+17
19302.0	6.741126660751359e+17
19303.0	6.738732578592084e+17
19304.0	6.737170208041642e+17
19305.0	6.735662535409664e+17
19306.0	6.734117680272723e+17
19307.0	6.732530766752425e+17
19308.0	6.730962580100436e+17
19309.0	6.728114650480637e+17
19310.0	6.726000498966525e+17
19311.0	6.726134550320467e+17
19312.0	6.724878777100969e+17
19313.0	6.722460566508886e+17
19314.0	6.674819821076466e+17
19315.0	6.676965134871278e+17
19316.0	6.717052681191423e+17
19317.0	6.715859033303722e+17
19318.0	6.714322618504534e+17
19319.0	6.712764982624255e+17
19320.0	6.711145830285311e+17
19321.0	6.708248946147327e+17
19322.0	6.706190565594452e+17
19323.0	6.704242203033599e+17
19324.0	6.702558603815593e+17
19325.0	6.700009583367508e+17
19326.0	6.699279977196201e+17
19327.0	6.697645934379007e+17
19328.0	6.695126654342484e+17
19329.0	6.693571305755988e+17
19330.0	6.691875628340564e+17
19331.0	6.690184498948778e+17
19332.0	6.688515392449193e+17
19333.0	6.686800268143273e+17
19334.0	6.685121878250836e+17
19335.0	6.683211348312064e+17
19336.0	6.681646043146921e+17
19337.0	6.679931813625855e+17
19338.0	6.678020928569343e+17
19339.0	6.676402979995647e+17
19340.0	6.674568006249129e+17
19341.0	6.672738004150954e+17
19342.0	6.670668326939305e+17
19343.0	6.669200415610196e+17
19344.0	6.666612623015933e+17
19345.0	6.663284904864422e+17
19346.0	6.662188756369405e+17
19347.0	6.660826451323561e+17
19348.0	6.659079918671188e+17
19349.0	6.657121988902911e+17
19350.0	6.65516797731362e+17
19351.0	6.653261732555433e+17
19352.0	6.651167316639743e+17
19353.0	6.649340793716733e+17
19354.0	6.647337864658943e+17
19355.0	6.644715915750057e+17
19356.0	6.642003910240938e+17
19357.0	6.639947510098602e+17
19358.0	6.637836657404585e+17
19359.0	6.635693286271657e+17
19360.0	6.633512309009066e+17
19361.0	6.63143041938227e+17
19362.0	6.629287394978474e+17
19363.0	6.625681586083156e+17
19364.0	6.623007133575849e+17
19365.0	6.620732505893545e+17
19366.0	6.618428042029738e+17
19367.0	6.616081993738922e+17
19368.0	6.613643444267689e+17
19369.0	6.609621591173801e+17
19370.0	6.606205545873407e+17
19371.0	6.603746470876499e+17
19372.0	6.601258130123433e+17
19373.0	6.598660606743892e+17
19374.0	6.594492195580584e+17
19375.0	6.590133402861567e+17
19376.0	6.587431812508329e+17
19377.0	6.584667471172948e+17
19378.0	6.579348328939519e+17
19379.0	6.574886830997504e+17
19380.0	6.571942235952467e+17
19381.0	6.567351772949158e+17
19382.0	6.560767035135316e+17
19383.0	6.557589587012266e+17
19384.0	6.551812683333632e+17
19385.0	6.545087002924372e+17
19386.0	6.541680380127914e+17
19387.0	6.532129456390145e+17
19388.0	6.527370855623338e+17
19389.0	6.521114759703206e+17
19390.0	6.515337756060329e+17
19391.0	6.466900536065987e+17
19392.0	6.506064689583441e+17
19393.0	6.503660050361002e+17
19394.0	6.499612441444351e+17
19395.0	6.495393674166271e+17
19396.0	6.491189213659133e+17
19397.0	6.486319630210387e+17
19398.0	6.481877307228159e+17
19399.0	6.477005579791017e+17
19400.0	6.472894753625427e+17
19401.0	6.468408038129663e+17
19402.0	6.463275422886572e+17
19403.0	6.457741507122516e+17
19404.0	6.452754079110484e+17
19405.0	6.447626007696723e+17
19406.0	6.441336216835411e+17
19407.0	6.435083222603091e+17
19408.0	6.429080882074964e+17
19409.0	6.42200159247838e+17
19410.0	6.415246587592703e+17
19411.0	6.407943055824209e+17
19412.0	6.399287339865427e+17
19413.0	6.39100307706129e+17
19414.0	6.381187396272128e+17
19415.0	6.370093955022849e+17
19416.0	6.35900968881357e+17
19417.0	6.345186317697023e+17
19418.0	6.330581107343366e+17
19419.0	6.31452027636941e+17
19420.0	6.296478385438723e+17
19421.0	6.278083457843201e+17
19422.0	6.26317760537122e+17
19423.0	6.251635658107561e+17
19424.0	6.239811773224276e+17
19425.0	6.227698360429225e+17
19426.0	6.214937479217151e+17
19427.0	6.201340396393812e+17
19428.0	6.187289681417556e+17
19429.0	6.172716941268307e+17
19430.0	6.156101468116311e+17
19431.0	6.133348575477768e+17
19432.0	6.123452738742953e+17
19433.0	6.103642429980671e+17
19434.0	6.08336479186671e+17
19435.0	6.059812585122473e+17
19436.0	6.032687249402537e+17
19437.0	6.007478264616275e+17
19438.0	5.919852401262598e+17
19439.0	5.937005004674394e+17
19440.0	5.899351527609682e+17
19441.0	5.855705296098637e+17
19442.0	5.806134701763245e+17
19443.0	5.750000269830826e+17
19444.0	5.6868842007866016e+17
19445.0	5.614258232492034e+17
19446.0	5.5276286030206285e+17
19447.0	5.4206583209110125e+17
19448.0	5.283526129745926e+17
19449.0	5.0961041175784115e+17
19450.0	4.8082931525440685e+17
19451.0	4.641267268277604e+17
19452.0	4.970477787982514e+17
19453.0	5.197546467098631e+17
19454.0	5.3532453013640454e+17
19455.0	5.4710414295258445e+17
19456.0	5.5646945566610797e+17
19457.0	5.641050269242705e+17
19458.0	5.632626468236078e+17
19459.0	5.761412060151827e+17
19460.0	5.813663926932815e+17
19461.0	5.858180432483667e+17
19462.0	5.897939441767768e+17
19463.0	5.93403736122982e+17
19464.0	5.965766823597395e+17
19465.0	5.993371263478444e+17
19466.0	6.017192829823653e+17
19467.0	6.038069481657683e+17
19468.0	6.057438922932223e+17
19469.0	6.074801040217427e+17
19470.0	6.091193925151402e+17
19471.0	6.105657998573567e+17
19472.0	6.119422874528425e+17
19473.0	6.131890487208618e+17
19474.0	6.14371323613457e+17
19475.0	6.154880071412393e+17
19476.0	6.166047053490857e+17
19477.0	6.176089838365354e+17
19478.0	6.185677305675775e+17
19479.0	6.194917947386537e+17
19480.0	6.205053779400018e+17
19481.0	6.219252232443218e+17
19482.0	6.236018570515795e+17
19483.0	6.251673808098643e+17
19484.0	6.264185134514176e+17
19485.0	6.274732535403859e+17
19486.0	6.284314690628265e+17
19487.0	6.29416179164774e+17
19488.0	6.300415014469628e+17
19489.0	6.308237666156544e+17
19490.0	6.312233068571305e+17
19491.0	6.319561693462528e+17
19492.0	6.323195516114259e+17
19493.0	6.328739132604412e+17
19494.0	6.332347801316009e+17
19495.0	6.335372570482004e+17
19496.0	6.339680387028307e+17
19497.0	6.34253337497873e+17
19498.0	6.338835489226755e+17
19499.0	6.278572473843672e+17
19500.0	6.350854646224212e+17
19501.0	6.35339174646033e+17
19502.0	6.355540770116948e+17
19503.0	6.35764587242018e+17
19504.0	6.359616679400788e+17
19505.0	6.361838973353983e+17
19506.0	6.363997429301247e+17
19507.0	6.365715294584832e+17
19508.0	6.367382519939071e+17
19509.0	6.368924466326185e+17
19510.0	6.369999024641364e+17
19511.0	6.28605160853771e+17
19512.0	6.361279220416492e+17
19513.0	6.357993632650552e+17
19514.0	6.36465127166223e+17
19515.0	6.384777603754665e+17
19516.0	6.388763908025002e+17
19517.0	6.390362149661352e+17
19518.0	6.396293524662953e+17
19519.0	6.396991198898857e+17
19520.0	6.398597309748564e+17
19521.0	6.403069892537001e+17
19522.0	6.403538232016895e+17
19523.0	6.40399833178658e+17
19524.0	6.40773715464465e+17
19525.0	6.408585711976447e+17
19526.0	6.408854533308415e+17
19527.0	6.409078689497087e+17
19528.0	6.412230411157504e+17
19529.0	6.412431358164991e+17
19530.0	6.412526325596159e+17
19531.0	6.412564978204671e+17
19532.0	6.412565400431274e+17
19533.0	6.414290015049046e+17
19534.0	6.414776246730751e+17
19535.0	6.414697857985193e+17
19536.0	6.414562915341652e+17
19537.0	6.414409798778879e+17
19538.0	6.414040299470847e+17
19539.0	6.414402314043392e+17
19540.0	6.415356625158144e+17
19541.0	6.415055364379988e+17
19542.0	6.414735446638591e+17
19543.0	6.414316199389865e+17
19544.0	6.414010536689663e+17
19545.0	6.413273136802473e+17
19546.0	6.41257903890978e+17
19547.0	6.413534735542952e+17
19548.0	6.413484617105407e+17
19549.0	6.412932245443923e+17
19550.0	6.412515331626323e+17
19551.0	6.412004182283604e+17
19552.0	6.41147267588642e+17
19553.0	6.410908490268672e+17
19554.0	6.410334770997929e+17
19555.0	6.409760124786004e+17
19556.0	6.40918076068113e+17
19557.0	6.408574737580032e+17
19558.0	6.40795136893474e+17
19559.0	6.407830533832703e+17
19560.0	6.407330881776297e+17
19561.0	6.40669206061602e+17
19562.0	6.406005702612308e+17
19563.0	6.405340576175444e+17
19564.0	6.404631046739284e+17
19565.0	6.403909864827564e+17
19566.0	6.403155520651264e+17
19567.0	6.402434923844948e+17
19568.0	6.401662853141843e+17
19569.0	6.400910058061823e+17
19570.0	6.400151160269482e+17
19571.0	6.39936933012002e+17
19572.0	6.398558353053012e+17
19573.0	6.397763704411476e+17
19574.0	6.396904156605097e+17
19575.0	6.396832301187071e+17
19576.0	6.396186205705556e+17
19577.0	6.39533527929105e+17
19578.0	6.394499812382036e+17
19579.0	6.393661019389951e+17
19580.0	6.392833889359187e+17
19581.0	6.392363124872532e+17
19582.0	6.392709201089878e+17
19583.0	6.391990541352959e+17
19584.0	6.391083574143657e+17
19585.0	6.390125486757203e+17
19586.0	6.3891623130781e+17
19587.0	6.388213421004116e+17
19588.0	6.387171776091478e+17
19589.0	6.386581279604733e+17
19590.0	6.386406351962111e+17
19591.0	6.38582777708544e+17
19592.0	6.384907372025171e+17
19593.0	6.383947901916499e+17
19594.0	6.382818835125588e+17
19595.0	6.382065056481279e+17
19596.0	6.379496001940138e+17
19597.0	6.380154065868116e+17
19598.0	6.37896378950178e+17
19599.0	6.378250349576191e+17
19600.0	6.377289114364585e+17
19601.0	6.37691690623522e+17
19602.0	6.376086216638464e+17
19603.0	6.374253002402473e+17
19604.0	6.373990757739178e+17
19605.0	6.372955640561663e+17
19606.0	6.372196907046227e+17
19607.0	6.371210863924564e+17
19608.0	6.370198499448148e+17
19609.0	6.369169395504467e+17
19610.0	6.368165687372457e+17
19611.0	6.367138158389929e+17
19612.0	6.36618222407953e+17
19613.0	6.365157248030035e+17
19614.0	6.364112795030868e+17
19615.0	6.363102311699796e+17
19616.0	6.361762260232874e+17
19617.0	6.361607368780457e+17
19618.0	6.360285900876457e+17
19619.0	6.359225338254676e+17
19620.0	6.358231158882303e+17
19621.0	6.357613466528425e+17
19622.0	6.356653576290301e+17
19623.0	6.355600315252736e+17
19624.0	6.354527758319615e+17
19625.0	6.35348711444753e+17
19626.0	6.35240622203426e+17
19627.0	6.351239497383935e+17
19628.0	6.34914785390319e+17
19629.0	6.348404774229331e+17
19630.0	6.340986625414483e+17
19631.0	6.304269944051031e+17
19632.0	6.344906491909459e+17
19633.0	6.34466786746914e+17
19634.0	6.343865261533865e+17
19635.0	6.342824783336788e+17
19636.0	6.341738417356799e+17
19637.0	6.340401785645738e+17
19638.0	6.339706405694121e+17
19639.0	6.338770469825194e+17
19640.0	6.337933718760106e+17
19641.0	6.336347934206636e+17
19642.0	6.335843585927849e+17
19643.0	6.334870396250794e+17
19644.0	6.33382713373491e+17
19645.0	6.332604055115091e+17
19646.0	6.331630919264938e+17
19647.0	6.330635234836479e+17
19648.0	6.329553250506067e+17
19649.0	6.328465368285183e+17
19650.0	6.327379819495423e+17
19651.0	6.326285783531519e+17
19652.0	6.325199349743615e+17
19653.0	6.324086345738921e+17
19654.0	6.323010534724948e+17
19655.0	6.321915008385023e+17
19656.0	6.320825227542527e+17
19657.0	6.319734924509181e+17
19658.0	6.318635006033919e+17
19659.0	6.317540013768703e+17
19660.0	6.316442743996413e+17
19661.0	6.315342881445204e+17
19662.0	6.314239644576425e+17
19663.0	6.313067048599551e+17
19664.0	6.311867188947626e+17
19665.0	6.310932696618324e+17
