# Flux units: erg / (cm m2 s)
# Wavelength units: Angstrom
wave	flux
19000.0	5.243599069380607e+17
19001.0	5.242580514111487e+17
19002.0	5.2417516567265274e+17
19003.0	5.240819185352703e+17
19004.0	5.2398965643018234e+17
19005.0	5.2389502636086605e+17
19006.0	5.238023632104106e+17
19007.0	5.2370910202210976e+17
19008.0	5.236132927242239e+17
19009.0	5.2351202621740365e+17
19010.0	5.234173900663466e+17
19011.0	5.2333348441292794e+17
19012.0	5.2323753754187085e+17
19013.0	5.2315426704588794e+17
19014.0	5.2305805180927994e+17
19015.0	5.229655856513023e+17
19016.0	5.2287702278253216e+17
19017.0	5.227856625227092e+17
19018.0	5.226921237413886e+17
19019.0	5.2260038823116794e+17
19020.0	5.2250738436341754e+17
19021.0	5.224163440590847e+17
19022.0	5.2232342093168634e+17
19023.0	5.222273085953364e+17
19024.0	5.221352211131049e+17
19025.0	5.2204558897643514e+17
19026.0	5.219531382674773e+17
19027.0	5.2186112376613555e+17
19028.0	5.217685407268864e+17
19029.0	5.216747109307732e+17
19030.0	5.2158452283910816e+17
19031.0	5.214921318290772e+17
19032.0	5.2139841283249485e+17
19033.0	5.2129591557707085e+17
19034.0	5.212046432578217e+17
19035.0	5.210851478863872e+17
19036.0	5.2092706261128525e+17
19037.0	5.209070883569664e+17
19038.0	5.208362215363924e+17
19039.0	5.2075132623694483e+17
19040.0	5.2066139008314016e+17
19041.0	5.205697188855806e+17
19042.0	5.204122906482004e+17
19043.0	5.203872949731326e+17
19044.0	5.202942374182911e+17
19045.0	5.202019040100351e+17
19046.0	5.201070374518783e+17
19047.0	5.2001411935764474e+17
19048.0	5.1991137086341114e+17
19049.0	5.197030298572115e+17
19050.0	5.1973190302651725e+17
19051.0	5.196319739434324e+17
19052.0	5.1954762187625805e+17
19053.0	5.194635520857428e+17
19054.0	5.1937418384069965e+17
19055.0	5.1924394091479046e+17
19056.0	5.1918500465213434e+17
19057.0	5.191008503463936e+17
19058.0	5.189467304361982e+17
19059.0	5.188938352994985e+17
19060.0	5.1882614119028045e+17
19061.0	5.1873437499173536e+17
19062.0	5.1864235391931725e+17
19063.0	5.185502726586367e+17
19064.0	5.184553091421524e+17
19065.0	5.183563531375957e+17
19066.0	5.1824846284608845e+17
19067.0	5.181832647671807e+17
19068.0	5.180936591245311e+17
19069.0	5.1800224846315514e+17
19070.0	5.1790853114429434e+17
19071.0	5.1781864014916256e+17
19072.0	5.177047111783764e+17
19073.0	5.1763611347626656e+17
19074.0	5.1754449240063994e+17
19075.0	5.174533702374741e+17
19076.0	5.173613438522708e+17
19077.0	5.172692524553557e+17
19078.0	5.1717651702306125e+17
19079.0	5.1708696730446496e+17
19080.0	5.169952133393065e+17
19081.0	5.169001504877226e+17
19082.0	5.168130713539924e+17
19083.0	5.167150370477396e+17
19084.0	5.166122774386004e+17
19085.0	5.165381954043902e+17
19086.0	5.16385295966754e+17
19087.0	5.1630422314625683e+17
19088.0	5.162283270056617e+17
19089.0	5.1615919788523514e+17
19090.0	5.1608116257969485e+17
19091.0	5.159877276773035e+17
19092.0	5.1584844588646406e+17
19093.0	5.1581057104172365e+17
19094.0	5.157195724008106e+17
19095.0	5.156281635569664e+17
19096.0	5.155372649502036e+17
19097.0	5.154463128660651e+17
19098.0	5.1532958265944736e+17
19099.0	5.152329729485481e+17
19100.0	5.151709133275135e+17
19101.0	5.1507973461114874e+17
19102.0	5.149866609082367e+17
19103.0	5.14898752770321e+17
19104.0	5.1480928442122234e+17
19105.0	5.146623404758358e+17
19106.0	5.146267779508906e+17
19107.0	5.145218866566483e+17
19108.0	5.14423163715584e+17
19109.0	5.143530997547007e+17
19110.0	5.142624465846271e+17
19111.0	5.141562365313023e+17
19112.0	5.1406191236655763e+17
19113.0	5.1398991881611936e+17
19114.0	5.1388697927133856e+17
19115.0	5.138016858625366e+17
19116.0	5.137100057870335e+17
19117.0	5.13609070350609e+17
19118.0	5.134368149689685e+17
19119.0	5.1286935765428864e+17
19120.0	5.1329591872061434e+17
19121.0	5.132499925598207e+17
19122.0	5.131680500503893e+17
19123.0	5.130795778484907e+17
19124.0	5.129865155401045e+17
19125.0	5.128932684027221e+17
19126.0	5.127891926209876e+17
19127.0	5.126718277462698e+17
19128.0	5.126062230295892e+17
19129.0	5.125249987248128e+17
19130.0	5.124461777562281e+17
19131.0	5.1235929442658976e+17
19132.0	5.1227002076310176e+17
19133.0	5.121772435974825e+17
19134.0	5.12089750905378e+17
19135.0	5.119996034285566e+17
19136.0	5.119087680159743e+17
19137.0	5.118164327901866e+17
19138.0	5.117277791147349e+17
19139.0	5.1163928852780365e+17
19140.0	5.115497546077525e+17
19141.0	5.114597326804308e+17
19142.0	5.113670500264617e+17
19143.0	5.112778693367125e+17
19144.0	5.111855890563072e+17
19145.0	5.110982924479146e+17
19146.0	5.109524823627092e+17
19147.0	5.109165099843583e+17
19148.0	5.1080864066437114e+17
19149.0	5.107148333077844e+17
19150.0	5.1064904704764576e+17
19151.0	5.1055844980162554e+17
19152.0	5.104681770549247e+17
19153.0	5.103332846731262e+17
19154.0	5.1028298063762765e+17
19155.0	5.1019750184058874e+17
19156.0	5.101081342945962e+17
19157.0	5.10004913312017e+17
19158.0	5.098976424493056e+17
19159.0	5.0983764621612365e+17
19160.0	5.097473134209706e+17
19161.0	5.096575587407189e+17
19162.0	5.095665422041088e+17
19163.0	5.094776310682963e+17
19164.0	5.093884863097513e+17
19165.0	5.092514488909823e+17
19166.0	5.0920535803385165e+17
19167.0	5.0911884415249056e+17
19168.0	5.090305854406655e+17
19169.0	5.089414165648724e+17
19170.0	5.088521489132202e+17
19171.0	5.0876148938178554e+17
19172.0	5.086730673018196e+17
19173.0	5.085831296800085e+17
19174.0	5.084923454379349e+17
19175.0	5.084033409089535e+17
19176.0	5.083142456431956e+17
19177.0	5.082117252491945e+17
19178.0	5.081354015692117e+17
19179.0	5.080456950535508e+17
19180.0	5.079542850213205e+17
19181.0	5.0786124431359994e+17
19182.0	5.0777366039538336e+17
19183.0	5.076874559837524e+17
19184.0	5.0759848899379194e+17
19185.0	5.0750857583875405e+17
19186.0	5.074196726721194e+17
19187.0	5.0732517863806285e+17
19188.0	5.072404711735294e+17
19189.0	5.071506663713449e+17
19190.0	5.070610863139497e+17
19191.0	5.069685660494506e+17
19192.0	5.068806314175145e+17
19193.0	5.067840029021525e+17
19194.0	5.0668860988893856e+17
19195.0	5.066068452179966e+17
19196.0	5.065130349253972e+17
19197.0	5.0641889132543994e+17
19198.0	5.0632164918340256e+17
19199.0	5.0621840128737274e+17
19200.0	5.061323479405908e+17
19201.0	5.0605442336467616e+17
19202.0	5.0597336438538234e+17
19203.0	5.058895814153556e+17
19204.0	5.0580440132266656e+17
19205.0	5.0571629171834874e+17
19206.0	5.056290550185983e+17
19207.0	5.0552958898667514e+17
19208.0	5.0544726262852256e+17
19209.0	5.0536409195697485e+17
19210.0	5.052772894375935e+17
19211.0	5.051902722397524e+17
19212.0	5.0510107393392634e+17
19213.0	5.050040710769322e+17
19214.0	5.049205475246079e+17
19215.0	5.048330263112361e+17
19216.0	5.047426548585812e+17
19217.0	5.0464845813077325e+17
19218.0	5.045513876755798e+17
19219.0	5.044573052425556e+17
19220.0	5.0438275169867085e+17
19221.0	5.042947085041662e+17
19222.0	5.042092605352617e+17
19223.0	5.041215621824511e+17
19224.0	5.040316110689621e+17
19225.0	5.039462434908843e+17
19226.0	5.0385797939636896e+17
19227.0	5.0377067726547616e+17
19228.0	5.036847558994602e+17
19229.0	5.035959995334655e+17
19230.0	5.0350746756273485e+17
19231.0	5.0341836831238816e+17
19232.0	5.0333090665813325e+17
19233.0	5.0323815871283194e+17
19234.0	5.03153941352721e+17
19235.0	5.0306256270786554e+17
19236.0	5.029773406721364e+17
19237.0	5.028881294338729e+17
19238.0	5.027945905826474e+17
19239.0	5.027123484601002e+17
19240.0	5.026233793030825e+17
19241.0	5.0253439707381754e+17
19242.0	5.0244633304760314e+17
19243.0	5.023456917716991e+17
19244.0	5.0227140009219405e+17
19245.0	5.021823589329578e+17
19246.0	5.020944506552319e+17
19247.0	5.0200565612107085e+17
19248.0	5.0191820816820896e+17
19249.0	5.018285844201472e+17
19250.0	5.0173118478199443e+17
19251.0	5.016382069189289e+17
19252.0	5.0153838248372896e+17
19253.0	5.014756056367103e+17
19254.0	5.013892669374462e+17
19255.0	5.01283494559744e+17
19256.0	5.012121351880704e+17
19257.0	5.01124538896657e+17
19258.0	5.01036373647906e+17
19259.0	5.0094055631093754e+17
19260.0	5.008535148560383e+17
19261.0	5.007686433243136e+17
19262.0	5.006741179028821e+17
19263.0	5.005819380061524e+17
19264.0	5.0048557638833485e+17
19265.0	5.004008757045929e+17
19266.0	5.003114127381845e+17
19267.0	5.002403159998462e+17
19268.0	5.00153653010978e+17
19269.0	5.0006585028990285e+17
19270.0	4.9997458118628685e+17
19271.0	4.9988250279171405e+17
19272.0	4.9980054378468685e+17
19273.0	4.997011570251093e+17
19274.0	4.9959352712997523e+17
19275.0	4.9954169587848525e+17
19276.0	4.994524646473727e+17
19277.0	4.993653325955072e+17
19278.0	4.992764605366271e+17
19279.0	4.9918784454000634e+17
19280.0	4.9910021867874976e+17
19281.0	4.990132192367957e+17
19282.0	4.9892697812500474e+17
19283.0	4.988386930589695e+17
19284.0	4.9874847959176525e+17
19285.0	4.9865900809693856e+17
19286.0	4.985674527320746e+17
19287.0	4.9847377693682336e+17
19288.0	4.9833714727430816e+17
19289.0	4.9823840427048954e+17
19290.0	4.98209712574737e+17
19291.0	4.981119996220757e+17
19292.0	4.980496972207445e+17
19293.0	4.979639996208468e+17
19294.0	4.978758907155796e+17
19295.0	4.977903464174934e+17
19296.0	4.976748649250816e+17
19297.0	4.976097566042794e+17
19298.0	4.975256576633515e+17
19299.0	4.974098839677609e+17
19300.0	4.9735253126458016e+17
19301.0	4.9726597970438816e+17
19302.0	4.971774047420414e+17
19303.0	4.9708615591089485e+17
19304.0	4.9700307422849696e+17
19305.0	4.969143193305086e+17
19306.0	4.968272171980115e+17
19307.0	4.967364091183104e+17
19308.0	4.966495292839253e+17
19309.0	4.9656209034881696e+17
19310.0	4.964722385005226e+17
19311.0	4.9638120931109536e+17
19312.0	4.9628865486301856e+17
19313.0	4.961722877433173e+17
19314.0	4.954852376095403e+17
19315.0	4.95425978944717e+17
19316.0	4.9587647480681805e+17
19317.0	4.958514737490602e+17
19318.0	4.957741401505792e+17
19319.0	4.956914363749717e+17
19320.0	4.955951487167145e+17
19321.0	4.954944461340672e+17
19322.0	4.9543229521701536e+17
19323.0	4.953454060153514e+17
19324.0	4.952589677013674e+17
19325.0	4.951725870590634e+17
19326.0	4.950857911107583e+17
19327.0	4.949985830720853e+17
19328.0	4.948613638302379e+17
19329.0	4.948247684579327e+17
19330.0	4.947375048447317e+17
19331.0	4.946470667725483e+17
19332.0	4.945640415035392e+17
19333.0	4.9447607240840525e+17
19334.0	4.9438915706224634e+17
19335.0	4.9420092732429664e+17
19336.0	4.942148787677866e+17
19337.0	4.941275058929662e+17
19338.0	4.940221272905045e+17
19339.0	4.939504591481515e+17
19340.0	4.9384925234025805e+17
19341.0	4.9372730616709126e+17
19342.0	4.9366655132412595e+17
19343.0	4.9359012026996045e+17
19344.0	4.934518537803093e+17
19345.0	4.933406413903189e+17
19346.0	4.9327608497001805e+17
19347.0	4.931850617225215e+17
19348.0	4.9315945074305696e+17
19349.0	4.930753296422228e+17
19350.0	4.9297202442403834e+17
19351.0	4.9290390102780576e+17
19352.0	4.9276672708444134e+17
19353.0	4.927357373295274e+17
19354.0	4.92649369969186e+17
19355.0	4.925537259268778e+17
19356.0	4.9247541072145056e+17
19357.0	4.923884867070634e+17
19358.0	4.923010512672085e+17
19359.0	4.922017088973481e+17
19360.0	4.9208480938065914e+17
19361.0	4.9203914291718816e+17
19362.0	4.919526204375039e+17
19363.0	4.918656638473556e+17
19364.0	4.917784853086208e+17
19365.0	4.9169091467236685e+17
19366.0	4.916035336186538e+17
19367.0	4.915163746533374e+17
19368.0	4.91428729008947e+17
19369.0	4.9133963255480314e+17
19370.0	4.9125242451613e+17
19371.0	4.911610769790292e+17
19372.0	4.91077609071138e+17
19373.0	4.9098936510928205e+17
19374.0	4.9090234015197856e+17
19375.0	4.908150664724479e+17
19376.0	4.9072715260231674e+17
19377.0	4.906383877079039e+17
19378.0	4.9055022427668474e+17
19379.0	4.9046214703841274e+17
19380.0	4.903733750835882e+17
19381.0	4.902843304990036e+17
19382.0	4.9018879390078285e+17
19383.0	4.901033973820074e+17
19384.0	4.9001640514027514e+17
19385.0	4.8992725492913485e+17
19386.0	4.8983887157657594e+17
19387.0	4.897485856877226e+17
19388.0	4.896573946680659e+17
19389.0	4.895631613100032e+17
19390.0	4.8945740263369376e+17
19391.0	4.892974183874559e+17
19392.0	4.8925291416562336e+17
19393.0	4.891965320942932e+17
19394.0	4.891124882385578e+17
19395.0	4.890084611806549e+17
19396.0	4.8892870425313274e+17
19397.0	4.88837976634163e+17
19398.0	4.8872563793373856e+17
19399.0	4.8861640700286285e+17
19400.0	4.885327050528085e+17
19401.0	4.8846093603744416e+17
19402.0	4.8837013704540154e+17
19403.0	4.882746247741439e+17
19404.0	4.8817992214336845e+17
19405.0	4.8808074398050976e+17
19406.0	4.8798237049487354e+17
19407.0	4.878619984439978e+17
19408.0	4.8776539593332045e+17
19409.0	4.876727605351764e+17
19410.0	4.8758070835500365e+17
19411.0	4.8748044163044685e+17
19412.0	4.8737592537688736e+17
19413.0	4.872524346512725e+17
19414.0	4.871607449288703e+17
19415.0	4.87049080532719e+17
19416.0	4.8692290419425274e+17
19417.0	4.86820191211793e+17
19418.0	4.867023329471147e+17
19419.0	4.865813582446591e+17
19420.0	4.864577556010323e+17
19421.0	4.863294099685375e+17
19422.0	4.861910839197695e+17
19423.0	4.860552140554239e+17
19424.0	4.8591087770883405e+17
19425.0	4.857578936860671e+17
19426.0	4.8559738571106976e+17
19427.0	4.8542905067547296e+17
19428.0	4.8524960891316896e+17
19429.0	4.8505938149812896e+17
19430.0	4.8485095618641914e+17
19431.0	4.846255969315498e+17
19432.0	4.843978561508692e+17
19433.0	4.8414233796280314e+17
19434.0	4.838565420029268e+17
19435.0	4.8354013265701536e+17
19436.0	4.831814611544746e+17
19437.0	4.827664688873471e+17
19438.0	4.821930369963348e+17
19439.0	4.8177887121681043e+17
19440.0	4.8127954701516794e+17
19441.0	4.8063361804752205e+17
19442.0	4.79866407424273e+17
19443.0	4.789322125410303e+17
19444.0	4.778288781546836e+17
19445.0	4.764629390240426e+17
19446.0	4.747626519986175e+17
19447.0	4.7256034704971085e+17
19448.0	4.696127053321558e+17
19449.0	4.6526259824776506e+17
19450.0	4.571305801504084e+17
19451.0	4.498243274670082e+17
19452.0	4.619515483302571e+17
19453.0	4.673894054450518e+17
19454.0	4.707363783879337e+17
19455.0	4.730872401319253e+17
19456.0	4.747889553178624e+17
19457.0	4.76075231613201e+17
19458.0	4.753013348499467e+17
19459.0	4.775451110495576e+17
19460.0	4.7870015498267296e+17
19461.0	4.7927340679823354e+17
19462.0	4.797372243989844e+17
19463.0	4.801090305742166e+17
19464.0	4.8040779448319994e+17
19465.0	4.806462327663274e+17
19466.0	4.8084262853454496e+17
19467.0	4.810016218065578e+17
19468.0	4.81126198087953e+17
19469.0	4.811880014370131e+17
19470.0	4.812989994980693e+17
19471.0	4.813608659014996e+17
19472.0	4.8139822582551885e+17
19473.0	4.8142167939481594e+17
19474.0	4.8139267228740256e+17
19475.0	4.814038477307903e+17
19476.0	4.814201478447103e+17
19477.0	4.814160680452095e+17
19478.0	4.8140047753762125e+17
19479.0	4.8133867188169376e+17
19480.0	4.8133804539248634e+17
19481.0	4.812986957605547e+17
19482.0	4.812592765031764e+17
19483.0	4.812126682087423e+17
19484.0	4.8116147868576416e+17
19485.0	4.811065723802964e+17
19486.0	4.810139326480384e+17
19487.0	4.8099350666717856e+17
19488.0	4.8092865496787616e+17
19489.0	4.808457409178282e+17
19490.0	4.8076867051192314e+17
19491.0	4.807293168254974e+17
19492.0	4.806757450776575e+17
19493.0	4.8061017223768736e+17
19494.0	4.805411602781524e+17
19495.0	4.8046553935380474e+17
19496.0	4.803765308402346e+17
19497.0	4.8030125888197965e+17
19498.0	4.801701932433406e+17
19499.0	4.8003905077903354e+17
19500.0	4.8007808388082336e+17
19501.0	4.800274226304339e+17
19502.0	4.799594562409813e+17
19503.0	4.798870387862185e+17
19504.0	4.798117566218238e+17
19505.0	4.7973427783051936e+17
19506.0	4.7965792171458554e+17
19507.0	4.795768696558931e+17
19508.0	4.7949520438995616e+17
19509.0	4.7940217997011616e+17
19510.0	4.792487233890985e+17
19511.0	4.7842566980239334e+17
19512.0	4.790214509723647e+17
19513.0	4.790108156854272e+17
19514.0	4.789525541464745e+17
19515.0	4.7892153922573645e+17
19516.0	4.788545115914239e+17
19517.0	4.7878597435719674e+17
19518.0	4.7870137957963085e+17
19519.0	4.78622968254737e+17
19520.0	4.785177126851924e+17
19521.0	4.7847666932340045e+17
19522.0	4.783881042875731e+17
19523.0	4.7830723551996576e+17
19524.0	4.7820806155141126e+17
19525.0	4.7815442765796685e+17
19526.0	4.7807491169320954e+17
19527.0	4.7799270053860685e+17
19528.0	4.779094640863914e+17
19529.0	4.7782664636552525e+17
19530.0	4.777511420428287e+17
19531.0	4.776696727906985e+17
19532.0	4.775882349259433e+17
19533.0	4.7750654435437216e+17
19534.0	4.77425075032337e+17
19535.0	4.7734120971414176e+17
19536.0	4.7725643576989e+17
19537.0	4.771751279984639e+17
19538.0	4.7705089208483834e+17
19539.0	4.7699972304404474e+17
19540.0	4.769266515574783e+17
19541.0	4.768418251844266e+17
19542.0	4.7676464887234554e+17
19543.0	4.7664766400157005e+17
19544.0	4.7659417369313274e+17
19545.0	4.7649534708285434e+17
19546.0	4.764123472592896e+17
19547.0	4.763515128643583e+17
19548.0	4.7627701000164685e+17
19549.0	4.7618913045490336e+17
19550.0	4.7611726469092685e+17
19551.0	4.7603636873024845e+17
19552.0	4.759544852206932e+17
19553.0	4.7587227126988794e+17
19554.0	4.7578995295081805e+17
19555.0	4.7570358377294496e+17
19556.0	4.7562521662805325e+17
19557.0	4.755460381649577e+17
19558.0	4.7546455304437766e+17
19559.0	4.753829269252778e+17
19560.0	4.752858851311615e+17
19561.0	4.752169453835605e+17
19562.0	4.75123895378466e+17
19563.0	4.7505578582343674e+17
19564.0	4.749731801246377e+17
19565.0	4.7489161398408525e+17
19566.0	4.748085096524458e+17
19567.0	4.747279449718783e+17
19568.0	4.7464424015571616e+17
19569.0	4.7456304968499194e+17
19570.0	4.744821612041555e+17
19571.0	4.7440027140314445e+17
19572.0	4.743157342972587e+17
19573.0	4.742320456990719e+17
19574.0	4.741450226292053e+17
19575.0	4.7407309073503565e+17
19576.0	4.7398856858883405e+17
19577.0	4.7390037034489165e+17
19578.0	4.738264204312576e+17
19579.0	4.737428817095338e+17
19580.0	4.7366145055566496e+17
19581.0	4.735813222225236e+17
19582.0	4.735002075987966e+17
19583.0	4.734184448851968e+17
19584.0	4.7333608839796045e+17
19585.0	4.7324354688232096e+17
19586.0	4.731589155444054e+17
19587.0	4.730852332972714e+17
19588.0	4.7299614872698874e+17
19589.0	4.7291897996465485e+17
19590.0	4.7283561244043936e+17
19591.0	4.7276157179002874e+17
19592.0	4.726819139179861e+17
19593.0	4.72595500699921e+17
19594.0	4.7249283455385594e+17
19595.0	4.724353284090538e+17
19596.0	4.7235367572602874e+17
19597.0	4.72268580987426e+17
19598.0	4.7216048356720634e+17
19599.0	4.72103409226001e+17
19600.0	4.7202640208418125e+17
19601.0	4.719408717671082e+17
19602.0	4.718570164453375e+17
19603.0	4.717720664102229e+17
19604.0	4.7169326054113274e+17
19605.0	4.716014289813504e+17
19606.0	4.715370954883071e+17
19607.0	4.7145775994852685e+17
19608.0	4.7137518214184954e+17
19609.0	4.712927358266025e+17
19610.0	4.711967842719061e+17
19611.0	4.711061757012649e+17
19612.0	4.710510469578751e+17
19613.0	4.709679302530389e+17
19614.0	4.708836603942229e+17
19615.0	4.7080402880648525e+17
19616.0	4.707023936902486e+17
19617.0	4.70603806085393e+17
19618.0	4.705248601964543e+17
19619.0	4.704331060914858e+17
19620.0	4.7036011807156896e+17
19621.0	4.702683926276777e+17
19622.0	4.7023166730185376e+17
19623.0	4.701510523595434e+17
19624.0	4.7006630309178016e+17
19625.0	4.6999154151041696e+17
19626.0	4.6990904640143354e+17
19627.0	4.698268992099668e+17
19628.0	4.697419847565311e+17
19629.0	4.695612591177727e+17
19630.0	4.695655991738366e+17
19631.0	4.694743852253183e+17
19632.0	4.694099483426815e+17
19633.0	4.6933242208583674e+17
19634.0	4.692587149524991e+17
19635.0	4.691730112708606e+17
19636.0	4.6905744078929914e+17
19637.0	4.689497629392895e+17
19638.0	4.6893431895272096e+17
19639.0	4.6885255651874125e+17
19640.0	4.687412914203306e+17
19641.0	4.6862797020419405e+17
19642.0	4.6860311336058874e+17
19643.0	4.685267716450985e+17
19644.0	4.6844522144290125e+17
19645.0	4.6836509898178554e+17
19646.0	4.682453893513215e+17
19647.0	4.682092180930559e+17
19648.0	4.6813047758520314e+17
19649.0	4.680499991674879e+17
19650.0	4.679696973299711e+17
19651.0	4.678886203850751e+17
19652.0	4.678078828991828e+17
19653.0	4.6772755876194976e+17
19654.0	4.6764633159106554e+17
19655.0	4.675652076000597e+17
