# Flux units: erg / (cm m2 s)
# Wavelength units: Angstrom
wave	flux
19000.0	5.620692928167936e+17
19001.0	5.619560739416745e+17
19002.0	5.618608964457811e+17
19003.0	5.6175619955752954e+17
19004.0	5.616520719761407e+17
19005.0	5.6154734335098854e+17
19006.0	5.614473326886911e+17
19007.0	5.6133938710227616e+17
19008.0	5.6123328854753274e+17
19009.0	5.611250766927187e+17
19010.0	5.6098788988682214e+17
19011.0	5.609221875127637e+17
19012.0	5.607974727494313e+17
19013.0	5.607173007955285e+17
19014.0	5.6060835878229325e+17
19015.0	5.6050553479058765e+17
19016.0	5.603997654188031e+17
19017.0	5.6030080039649274e+17
19018.0	5.601950217273343e+17
19019.0	5.6009180745564154e+17
19020.0	5.599861683169962e+17
19021.0	5.598838099629396e+17
19022.0	5.5977949909046605e+17
19023.0	5.596724905814698e+17
19024.0	5.595698783322111e+17
19025.0	5.5946623540264954e+17
19026.0	5.593595821512021e+17
19027.0	5.592424827759274e+17
19028.0	5.5915538560669e+17
19029.0	5.5905034457579514e+17
19030.0	5.5894834105985696e+17
19031.0	5.5884434538932896e+17
19032.0	5.5873984143906125e+17
19033.0	5.5862805722562554e+17
19034.0	5.5853110050597536e+17
19035.0	5.5842407661786445e+17
19036.0	5.570248432418816e+17
19037.0	5.582190234566655e+17
19038.0	5.581142895886335e+17
19039.0	5.580125410164736e+17
19040.0	5.5790864013721594e+17
19041.0	5.5780383119114234e+17
19042.0	5.576905394749439e+17
19043.0	5.5759701963789645e+17
19044.0	5.5749195945301325e+17
19045.0	5.5738866989356365e+17
19046.0	5.572806057481556e+17
19047.0	5.571794062802943e+17
19048.0	5.570576016648873e+17
19049.0	5.569637327918421e+17
19050.0	5.5686567786359456e+17
19051.0	5.565883577532413e+17
19052.0	5.566246408596137e+17
19053.0	5.5655786544278176e+17
19054.0	5.5645503096531616e+17
19055.0	5.563278921039871e+17
19056.0	5.56244952748305e+17
19057.0	5.5614336971134285e+17
19058.0	5.560365937065983e+17
19059.0	5.559354424033279e+17
19060.0	5.5583088930979834e+17
19061.0	5.557295564630697e+17
19062.0	5.556254613176319e+17
19063.0	5.5552204502029645e+17
19064.0	5.5540671997542406e+17
19065.0	5.552997111868075e+17
19066.0	5.5520583749031245e+17
19067.0	5.551072061947903e+17
19068.0	5.5500438674691405e+17
19069.0	5.54901004423441e+17
19070.0	5.5479533962963616e+17
19071.0	5.546935691771903e+17
19072.0	5.545896181060949e+17
19073.0	5.544867275647658e+17
19074.0	5.543837898375166e+17
19075.0	5.542803752179028e+17
19076.0	5.5417512517085856e+17
19077.0	5.5407203232426656e+17
19078.0	5.5396700212865696e+17
19079.0	5.538666281697279e+17
19080.0	5.5376195379090765e+17
19081.0	5.5365657749531296e+17
19082.0	5.535529360337577e+17
19083.0	5.534446482620415e+17
19084.0	5.5333064218596685e+17
19085.0	5.5324705019658234e+17
19086.0	5.531102803744084e+17
19087.0	5.530045962169002e+17
19088.0	5.529283745284096e+17
19089.0	5.528015081570304e+17
19090.0	5.527285192982526e+17
19091.0	5.5262503756977485e+17
19092.0	5.52511568294707e+17
19093.0	5.524216466811562e+17
19094.0	5.5231827575220896e+17
19095.0	5.5221511761428474e+17
19096.0	5.5211078549067085e+17
19097.0	5.52009012941073e+17
19098.0	5.519053221265407e+17
19099.0	5.51802116383266e+17
19100.0	5.5169750366071456e+17
19101.0	5.5159613621097805e+17
19102.0	5.5148384071188474e+17
19103.0	5.5139102901316256e+17
19104.0	5.512884025032704e+17
19105.0	5.5118343431345485e+17
19106.0	5.5107637344556365e+17
19107.0	5.509777152365909e+17
19108.0	5.508759190590804e+17
19109.0	5.506818651805011e+17
19110.0	5.506679172322645e+17
19111.0	5.5056723296474445e+17
19112.0	5.5046465112418976e+17
19113.0	5.503623268139007e+17
19114.0	5.5025922487965005e+17
19115.0	5.501504495200939e+17
19116.0	5.500523601985534e+17
19117.0	5.499495472518485e+17
19118.0	5.4983601191649274e+17
19119.0	5.491747087275342e+17
19120.0	5.4963254126619296e+17
19121.0	5.495331398964564e+17
19122.0	5.494381905007957e+17
19123.0	5.4933550471140685e+17
19124.0	5.492275523442004e+17
19125.0	5.491293332089513e+17
19126.0	5.490271030607871e+17
19127.0	5.4875948598340256e+17
19128.0	5.4879601851105274e+17
19129.0	5.487132807615828e+17
19130.0	5.486154988825257e+17
19131.0	5.4851466299091616e+17
19132.0	5.4841209799748256e+17
19133.0	5.482950128129364e+17
19134.0	5.481954635240788e+17
19135.0	5.4810429340603725e+17
19136.0	5.4800275412964685e+17
19137.0	5.478853666056874e+17
19138.0	5.477955260121087e+17
19139.0	5.4769542489265485e+17
19140.0	5.4759321921126394e+17
19141.0	5.4749082541533856e+17
19142.0	5.473862874213035e+17
19143.0	5.4728125932284576e+17
19144.0	5.471804475484841e+17
19145.0	5.4708134082860365e+17
19146.0	5.4690329562972154e+17
19147.0	5.4681654574885536e+17
19148.0	5.467235588680362e+17
19149.0	5.466207952743081e+17
19150.0	5.465196118846122e+17
19151.0	5.464181987868671e+17
19152.0	5.463143756420436e+17
19153.0	5.4621082827270816e+17
19154.0	5.4609978896766285e+17
19155.0	5.4600968007843834e+17
19156.0	5.4590728208820896e+17
19157.0	5.4580367467042125e+17
19158.0	5.45639496819234e+17
19159.0	5.455994030478676e+17
19160.0	5.454970265184938e+17
19161.0	5.453947679189674e+17
19162.0	5.451524575242922e+17
19163.0	5.4518854734315514e+17
19164.0	5.450910553604096e+17
19165.0	5.4498386824396794e+17
19166.0	5.448722284543999e+17
19167.0	5.4477172160593914e+17
19168.0	5.4468112883384314e+17
19169.0	5.4457725472822605e+17
19170.0	5.4447929025713485e+17
19171.0	5.4436837566272845e+17
19172.0	5.442749036407466e+17
19173.0	5.4417323895466656e+17
19174.0	5.4406658682170016e+17
19175.0	5.4396988490601805e+17
19176.0	5.438683746402304e+17
19177.0	5.4375278724164256e+17
19178.0	5.4366098126711456e+17
19179.0	5.43550206972177e+17
19180.0	5.434584332937897e+17
19181.0	5.433477643457877e+17
19182.0	5.432548813438975e+17
19183.0	5.4315553890413216e+17
19184.0	5.430522280935423e+17
19185.0	5.429516590994772e+17
19186.0	5.4285029255850656e+17
19187.0	5.427428337210708e+17
19188.0	5.4264667580661754e+17
19189.0	5.4254445733259936e+17
19190.0	5.4244199244322125e+17
19191.0	5.423379258190506e+17
19192.0	5.422402561376255e+17
19193.0	5.4213767995938125e+17
19194.0	5.420353673232383e+17
19195.0	5.41935178682641e+17
19196.0	5.4183196154484045e+17
19197.0	5.4173083624625485e+17
19198.0	5.4162873661085005e+17
19199.0	5.4070085429493734e+17
19200.0	5.4085132823647597e+17
19201.0	5.4132425460722323e+17
19202.0	5.412238121413289e+17
19203.0	5.4112017948781216e+17
19204.0	5.4101862469249696e+17
19205.0	5.4091836579730765e+17
19206.0	5.408164190442836e+17
19207.0	5.407054555862357e+17
19208.0	5.405947816749738e+17
19209.0	5.405122971216554e+17
19210.0	5.4041110282676896e+17
19211.0	5.403103585107966e+17
19212.0	5.4020884915377485e+17
19213.0	5.400939656293034e+17
19214.0	5.399873339785216e+17
19215.0	5.399009408931157e+17
19216.0	5.398025697143466e+17
19217.0	5.397012660180309e+17
19218.0	5.395236394106878e+17
19219.0	5.3948524083718816e+17
19220.0	5.393943039923541e+17
19221.0	5.392656309245269e+17
19222.0	5.391926311605588e+17
19223.0	5.3909028650789536e+17
19224.0	5.38986412052753e+17
19225.0	5.3887524684868256e+17
19226.0	5.3878580974714874e+17
19227.0	5.386841603003732e+17
19228.0	5.385848087030442e+17
19229.0	5.3848327438991366e+17
19230.0	5.3838052694425594e+17
19231.0	5.382784709296128e+17
19232.0	5.381777288506026e+17
19233.0	5.3807105281010336e+17
19234.0	5.3797354384042656e+17
19235.0	5.378716403586388e+17
19236.0	5.3777263835654816e+17
19237.0	5.376696429576191e+17
19238.0	5.3756018826062496e+17
19239.0	5.374680945568426e+17
19240.0	5.373630779927209e+17
19241.0	5.372619754831871e+17
19242.0	5.371617034458452e+17
19243.0	5.370478835968681e+17
19244.0	5.3696033763710304e+17
19245.0	5.368583195809109e+17
19246.0	5.3675550209037645e+17
19247.0	5.366554842977621e+17
19248.0	5.365539534798847e+17
19249.0	5.3645149593053856e+17
19250.0	5.363485036074325e+17
19251.0	5.362367579815935e+17
19252.0	5.3612415231371936e+17
19253.0	5.360432503412052e+17
19254.0	5.359432760994474e+17
19255.0	5.358269652533247e+17
19256.0	5.357354379203924e+17
19257.0	5.356384648429567e+17
19258.0	5.3553669578861216e+17
19259.0	5.354290406577492e+17
19260.0	5.353071690732883e+17
19261.0	5.3522993620800845e+17
19262.0	5.35124125032994e+17
19263.0	5.3502095326358176e+17
19264.0	5.34874441331507e+17
19265.0	5.348043138269183e+17
19266.0	5.3469901281908045e+17
19267.0	5.34619426459921e+17
19268.0	5.3451716702153376e+17
19269.0	5.3441496078090234e+17
19270.0	5.343128382166357e+17
19271.0	5.34179247746799e+17
19272.0	5.3410544882810874e+17
19273.0	5.3388657333807763e+17
19274.0	5.338222608165545e+17
19275.0	5.3380180407746554e+17
19276.0	5.3369762944996685e+17
19277.0	5.3359569590900045e+17
19278.0	5.3349338928469325e+17
19279.0	5.333889664243028e+17
19280.0	5.332812924190719e+17
19281.0	5.331851798031019e+17
19282.0	5.3308418543670605e+17
19283.0	5.329682427106644e+17
19284.0	5.3286857772892154e+17
19285.0	5.3275907731401376e+17
19286.0	5.326697072514389e+17
19287.0	5.325698685556051e+17
19288.0	5.320763447268688e+17
19289.0	5.315471126910281e+17
19290.0	5.3226070675729056e+17
19291.0	5.3213503044976634e+17
19292.0	5.320542549355178e+17
19293.0	5.3195025311334394e+17
19294.0	5.3184657152628045e+17
19295.0	5.317439603255977e+17
19296.0	5.3163888916561914e+17
19297.0	5.3153471390897485e+17
19298.0	5.314304725920426e+17
19299.0	5.3132794031418016e+17
19300.0	5.3122434457053856e+17
19301.0	5.311203050695338e+17
19302.0	5.3101490996947616e+17
19303.0	5.3090565044742803e+17
19304.0	5.30804408057856e+17
19305.0	5.3070151444070394e+17
19306.0	5.305975040901119e+17
19307.0	5.3048857053538976e+17
19308.0	5.3038550900626746e+17
19309.0	5.302514371002367e+17
19310.0	5.3013698852509005e+17
19311.0	5.300666405399209e+17
19312.0	5.299669200535551e+17
19313.0	5.2986201372972365e+17
19314.0	5.2815384183221037e+17
19315.0	5.281421495107596e+17
19316.0	5.295409868745385e+17
19317.0	5.294379659602602e+17
19318.0	5.293313033415338e+17
19319.0	5.292262857987412e+17
19320.0	5.291190484205568e+17
19321.0	5.2901195889158816e+17
19322.0	5.288965690447189e+17
19323.0	5.2878489129669965e+17
19324.0	5.286900786353494e+17
19325.0	5.2855338347178656e+17
19326.0	5.284749843103743e+17
19327.0	5.283655928075604e+17
19328.0	5.282568576434174e+17
19329.0	5.281501224632319e+17
19330.0	5.2803772497264634e+17
19331.0	5.279279896068096e+17
19332.0	5.278221369081855e+17
19333.0	5.27711665651712e+17
19334.0	5.276025968306857e+17
19335.0	5.2748924122125645e+17
19336.0	5.273811832274942e+17
19337.0	5.2727053259461965e+17
19338.0	5.2714069050436256e+17
19339.0	5.270478444822526e+17
19340.0	5.2692438157885434e+17
19341.0	5.268182398926847e+17
19342.0	5.266746904674303e+17
19343.0	5.265976229276331e+17
19344.0	5.2648309773653325e+17
19345.0	5.2619176585461734e+17
19346.0	5.261672929296383e+17
19347.0	5.2613366237102074e+17
19348.0	5.2602682883440634e+17
19349.0	5.259078025958741e+17
19350.0	5.257915347413674e+17
19351.0	5.2567487912345594e+17
19352.0	5.255524501159935e+17
19353.0	5.2544329139705165e+17
19354.0	5.253252606765738e+17
19355.0	5.251976410781013e+17
19356.0	5.25086671188787e+17
19357.0	5.249667045173929e+17
19358.0	5.248444433519956e+17
19359.0	5.247167500735828e+17
19360.0	5.2459705847862605e+17
19361.0	5.2447611775003296e+17
19362.0	5.243560754413567e+17
19363.0	5.2423155361600845e+17
19364.0	5.241061726573908e+17
19365.0	5.239804062422357e+17
19366.0	5.238535176410453e+17
19367.0	5.237258284870313e+17
19368.0	5.2359727712392525e+17
19369.0	5.234617978191871e+17
19370.0	5.233235065831423e+17
19371.0	5.232009390937427e+17
19372.0	5.230730228181674e+17
19373.0	5.229375503641257e+17
19374.0	5.228042648201898e+17
19375.0	5.2266872169212576e+17
19376.0	5.22531968856883e+17
19377.0	5.223926677023402e+17
19378.0	5.2225339842450746e+17
19379.0	5.221127332123988e+17
19380.0	5.2197040558789965e+17
19381.0	5.2182630209508685e+17
19382.0	5.216709037610325e+17
19383.0	5.214472685748224e+17
19384.0	5.2130833211501216e+17
19385.0	5.2115844104191994e+17
19386.0	5.2100681702222496e+17
19387.0	5.208531040294228e+17
19388.0	5.206977979001513e+17
19389.0	5.205405488993621e+17
19390.0	5.2038114654289914e+17
19391.0	5.190642913946267e+17
19392.0	5.200224697974781e+17
19393.0	5.198908830864725e+17
19394.0	5.1972186997172896e+17
19395.0	5.195495210571093e+17
19396.0	5.193769213231103e+17
19397.0	5.1920377870636365e+17
19398.0	5.190224883045718e+17
19399.0	5.187364296414547e+17
19400.0	5.185360813009579e+17
19401.0	5.1835611553027405e+17
19402.0	5.1816640009994234e+17
19403.0	5.1797022299477325e+17
19404.0	5.1777357990242976e+17
19405.0	5.1756998139576314e+17
19406.0	5.1736058370457606e+17
19407.0	5.1699398685491194e+17
19408.0	5.167033039716353e+17
19409.0	5.1655152189658445e+17
19410.0	5.1632533580458656e+17
19411.0	5.159613458546688e+17
19412.0	5.1563602850611194e+17
19413.0	5.1538336684878496e+17
19414.0	5.149592137323862e+17
19415.0	5.1458798322537805e+17
19416.0	5.141811223156055e+17
19417.0	5.1367331709146445e+17
19418.0	5.131723322250581e+17
19419.0	5.126155792635215e+17
19420.0	5.118497368921428e+17
19421.0	5.110089150453079e+17
19422.0	5.099965533650936e+17
19423.0	5.087066900310696e+17
19424.0	5.0781832735621114e+17
19425.0	5.072393396202153e+17
19426.0	5.066233491051862e+17
19427.0	5.059664139343189e+17
19428.0	5.052726002057215e+17
19429.0	5.0453110541953696e+17
19430.0	5.0371119280728755e+17
19431.0	5.026361160062295e+17
19432.0	5.019553117503487e+17
19433.0	5.00988135027507e+17
19434.0	4.9992030766148256e+17
19435.0	4.987095369471315e+17
19436.0	4.9732445899762374e+17
19437.0	4.957079382349143e+17
19438.0	4.9148148454522944e+17
19439.0	4.895915489187157e+17
19440.0	4.848037509726214e+17
19441.0	4.818852138101417e+17
19442.0	4.787661085955414e+17
19443.0	4.7533678804336634e+17
19444.0	4.715858941881001e+17
19445.0	4.6751514844201e+17
19446.0	4.613729459109897e+17
19447.0	4.496289429454849e+17
19448.0	4.3945382120871264e+17
19449.0	4.207425156546541e+17
19450.0	3.701175774522021e+17
19451.0	3.5099617305558816e+17
19452.0	3.99779132953944e+17
19453.0	4.325017605810874e+17
19454.0	4.4435341140732544e+17
19455.0	4.5523012912414976e+17
19456.0	4.642581654099295e+17
19457.0	4.68688838782703e+17
19458.0	4.684167347787138e+17
19459.0	4.755467680437604e+17
19460.0	4.788821303143081e+17
19461.0	4.8166676837608096e+17
19462.0	4.852334977526442e+17
19463.0	4.8975939098378157e+17
19464.0	4.924254264317264e+17
19465.0	4.9415610377611923e+17
19466.0	4.954355107102718e+17
19467.0	4.965160134726996e+17
19468.0	4.9741218244635296e+17
19469.0	4.982452082005332e+17
19470.0	4.989931413831679e+17
19471.0	4.9969679781505696e+17
19472.0	5.003579191809364e+17
19473.0	5.009285205458943e+17
19474.0	5.014605005499049e+17
19475.0	5.018695501873151e+17
19476.0	5.023842134480212e+17
19477.0	5.0279635827206816e+17
19478.0	5.032992240741032e+17
19479.0	5.042187837024939e+17
19480.0	5.051820913896108e+17
19481.0	5.0592689233592314e+17
19482.0	5.06478735654912e+17
19483.0	5.069041100128255e+17
19484.0	5.073826005472594e+17
19485.0	5.075507650843992e+17
19486.0	5.0793296138949965e+17
19487.0	5.080248349622272e+17
19488.0	5.083103771667115e+17
19489.0	5.084090069243221e+17
19490.0	5.0835074398726803e+17
19491.0	5.086758095377749e+17
19492.0	5.0877665724334074e+17
19493.0	5.0881212211090765e+17
19494.0	5.088415535420756e+17
19495.0	5.088958496462163e+17
19496.0	5.089987197752659e+17
19497.0	5.090492670104915e+17
19498.0	5.088707607876949e+17
19499.0	5.0723262719590355e+17
19500.0	5.090688897122304e+17
19501.0	5.090670737883135e+17
19502.0	5.090613471652521e+17
19503.0	5.091087685255168e+17
19504.0	5.0915430874043725e+17
19505.0	5.091399369577812e+17
19506.0	5.091239176525141e+17
19507.0	5.091026584032596e+17
19508.0	5.090830510806358e+17
19509.0	5.0905882582930765e+17
19510.0	5.090128480785749e+17
19511.0	5.061447031018829e+17
19512.0	5.0865399510248083e+17
19513.0	5.0841063899791277e+17
19514.0	5.085111746472613e+17
19515.0	5.0881405435685555e+17
19516.0	5.088271317772971e+17
19517.0	5.0878304391004154e+17
19518.0	5.087469121481387e+17
19519.0	5.087022539953493e+17
19520.0	5.0865484549761696e+17
19521.0	5.086120492662783e+17
19522.0	5.0860558493504845e+17
19523.0	5.0858625625402016e+17
19524.0	5.0853448204506445e+17
19525.0	5.084815070068735e+17
19526.0	5.0842905220218874e+17
19527.0	5.083736850126164e+17
19528.0	5.083170219928233e+17
19529.0	5.0825998819655674e+17
19530.0	5.0820248869273594e+17
19531.0	5.0814304701644794e+17
19532.0	5.080826895837866e+17
19533.0	5.0802140150497274e+17
19534.0	5.079588211610966e+17
19535.0	5.0789502216219296e+17
19536.0	5.0782817935687674e+17
19537.0	5.077669479011668e+17
19538.0	5.076875839100244e+17
19539.0	5.075849796299435e+17
19540.0	5.0756468185497594e+17
19541.0	5.074987167077717e+17
19542.0	5.0742961408136525e+17
19543.0	5.0735904701371725e+17
19544.0	5.0729001960516256e+17
19545.0	5.071713484843689e+17
19546.0	5.070667838565034e+17
19547.0	5.070761321911636e+17
19548.0	5.0700308083725645e+17
19549.0	5.069220603057493e+17
19550.0	5.068564332194474e+17
19551.0	5.0678236635463674e+17
19552.0	5.067074570638676e+17
19553.0	5.0662977624692045e+17
19554.0	5.0655295826821114e+17
19555.0	5.064789808818857e+17
19556.0	5.064037382837589e+17
19557.0	5.0632629528384845e+17
19558.0	5.062489978262868e+17
19559.0	5.061710398357503e+17
19560.0	5.060902446082729e+17
19561.0	5.060119493956949e+17
19562.0	5.0593512177008634e+17
19563.0	5.0585630219960314e+17
19564.0	5.0577669619711994e+17
19565.0	5.056967462617087e+17
19566.0	5.056136958967807e+17
19567.0	5.0553576300216314e+17
19568.0	5.054527560482815e+17
19569.0	5.053719204156756e+17
19570.0	5.0529249994123936e+17
19571.0	5.0521015156299085e+17
19572.0	5.0512640815923194e+17
19573.0	5.050444980857513e+17
19574.0	5.049566376929961e+17
19575.0	5.048815515424085e+17
19576.0	5.04798467273523e+17
19577.0	5.0471254150348794e+17
19578.0	5.0462826954752e+17
19579.0	5.045464028151807e+17
19580.0	5.044626305406293e+17
19581.0	5.0437985420356256e+17
19582.0	5.0429733812305914e+17
19583.0	5.042131067819349e+17
19584.0	5.041273869522261e+17
19585.0	5.0403453156283725e+17
19586.0	5.0394662237634554e+17
19587.0	5.038690936728234e+17
19588.0	5.0374550501021005e+17
19589.0	5.037020482458964e+17
19590.0	5.036087982424062e+17
19591.0	5.035326383499946e+17
19592.0	5.0344762819652256e+17
19593.0	5.033603663309481e+17
19594.0	5.032555611597481e+17
19595.0	5.0318575997201056e+17
19596.0	5.030485123487061e+17
19597.0	5.0301423593717754e+17
19598.0	5.0289175988360525e+17
19599.0	5.028448958764372e+17
19600.0	5.0275914521859405e+17
19601.0	5.0266636301981e+17
19602.0	5.0258053679458976e+17
19603.0	5.024489947529214e+17
19604.0	5.02405704782097e+17
19605.0	5.022987099744938e+17
19606.0	5.0223751864429216e+17
19607.0	5.021511993087315e+17
19608.0	5.0206224986494285e+17
19609.0	5.019740933543253e+17
19610.0	5.0189301067721376e+17
19611.0	5.0180472973557754e+17
19612.0	5.0171881501054285e+17
19613.0	5.016303323228841e+17
19614.0	5.0154015653451085e+17
19615.0	5.014555633647615e+17
19616.0	5.013576970403839e+17
19617.0	5.012787958906879e+17
19618.0	5.011374872723455e+17
19619.0	5.010385416836435e+17
19620.0	5.009536037421055e+17
19621.0	5.0092769601563296e+17
19622.0	5.0084087595007994e+17
19623.0	5.007527993409534e+17
19624.0	5.006638381531135e+17
19625.0	5.0057644353781754e+17
19626.0	5.004882694111232e+17
19627.0	5.003998448844798e+17
19628.0	5.0029081017712634e+17
19629.0	5.00212136218897e+17
19630.0	5.0006601009288525e+17
19631.0	4.9912008304230406e+17
19632.0	4.999572694062419e+17
19633.0	4.9986512739805856e+17
19634.0	4.997811334545408e+17
19635.0	4.9968921213665274e+17
19636.0	4.9960223653232634e+17
19637.0	4.9948371221217274e+17
19638.0	4.9942584046387194e+17
19639.0	4.993369298173951e+17
19640.0	4.992361140584448e+17
19641.0	4.990689051934721e+17
19642.0	4.990715480244224e+17
19643.0	4.989824377989802e+17
19644.0	4.988889525649407e+17
19645.0	4.987802099209556e+17
19646.0	4.9871594360668154e+17
19647.0	4.9862855898781005e+17
19648.0	4.9853986218093216e+17
19649.0	4.984507936888149e+17
19650.0	4.983621997821951e+17
19651.0	4.982728345430698e+17
19652.0	4.9818421952511994e+17
19653.0	4.980949664137215e+17
19654.0	4.980059819474943e+17
19655.0	4.979167173716651e+17
