# Flux units: erg / (cm m2 s)
# Wavelength units: Angstrom
wave	flux
19000.0	6.172235671448233e+17
19001.0	6.170976059042473e+17
19002.0	6.169965765154131e+17
19003.0	6.168812883804159e+17
19004.0	6.167673046040576e+17
19005.0	6.166533503975423e+17
19006.0	6.165410118369279e+17
19007.0	6.164239444082688e+17
19008.0	6.163100021555199e+17
19009.0	6.161843414368253e+17
19010.0	6.160464035708927e+17
19011.0	6.159606043989332e+17
19012.0	6.157380537199272e+17
19013.0	6.157467936008874e+17
19014.0	6.156301043586387e+17
19015.0	6.155183560065023e+17
19016.0	6.154050966563498e+17
19017.0	6.152947885583018e+17
19018.0	6.151783567764137e+17
19019.0	6.150684357427199e+17
19020.0	6.149548112084991e+17
19021.0	6.148434761351168e+17
19022.0	6.147296821510143e+17
19023.0	6.146106473141587e+17
19024.0	6.144943123507882e+17
19025.0	6.143753933466282e+17
19026.0	6.142500985110527e+17
19027.0	6.140510483076435e+17
19028.0	6.140433075098963e+17
19029.0	6.139312979225257e+17
19030.0	6.138212586094591e+17
19031.0	6.13707296084241e+17
19032.0	6.135890840999252e+17
19033.0	6.134583535861759e+17
19034.0	6.133241531247274e+17
19035.0	6.129754618986495e+17
19036.0	6.060093537080646e+17
19037.0	6.128159366490793e+17
19038.0	6.128777044863658e+17
19039.0	6.127926263851689e+17
19040.0	6.126884128904531e+17
19041.0	6.125781554735786e+17
19042.0	6.123200146571261e+17
19043.0	6.123586249730729e+17
19044.0	6.122442622413482e+17
19045.0	6.121270756944553e+17
19046.0	6.120150167541078e+17
19047.0	6.11902368793668e+17
19048.0	6.117507733651455e+17
19049.0	6.113758025875452e+17
19050.0	6.115233177272319e+17
19051.0	6.103935729270775e+17
19052.0	6.109528284900008e+17
19053.0	6.112050479278761e+17
19054.0	6.111127778536105e+17
19055.0	6.10939747504401e+17
19056.0	6.108786251005951e+17
19057.0	6.107827298194772e+17
19058.0	6.105211967897596e+17
19059.0	6.105038448143017e+17
19060.0	6.10444371960354e+17
19061.0	6.103344280677033e+17
19062.0	6.102225665392637e+17
19063.0	6.10110101660194e+17
19064.0	6.09986505937169e+17
19065.0	6.098679952485034e+17
19066.0	6.097153720756906e+17
19067.0	6.096597709138602e+17
19068.0	6.095492763789993e+17
19069.0	6.094370804247209e+17
19070.0	6.093219513936553e+17
19071.0	6.092062200605353e+17
19072.0	6.090453404002986e+17
19073.0	6.089878234901161e+17
19074.0	6.088759825137663e+17
19075.0	6.087637250430292e+17
19076.0	6.086499602093396e+17
19077.0	6.085366258510506e+17
19078.0	6.084225897857023e+17
19079.0	6.083145087232682e+17
19080.0	6.082010128143699e+17
19081.0	6.080847979479037e+17
19082.0	6.079741038340777e+17
19083.0	6.078531959608659e+17
19084.0	6.0772744953856e+17
19085.0	6.076316795273215e+17
19086.0	6.073798483421865e+17
19087.0	6.071625740277075e+17
19088.0	6.071524585548456e+17
19089.0	6.070941020149076e+17
19090.0	6.070479272017919e+17
19091.0	6.06939640898082e+17
19092.0	6.067027177373699e+17
19093.0	6.067375275944618e+17
19094.0	6.066323596858708e+17
19095.0	6.065218444591103e+17
19096.0	6.064079362501288e+17
19097.0	6.062974616382121e+17
19098.0	6.061242081520298e+17
19099.0	6.05999985660177e+17
19100.0	6.059479892929194e+17
19101.0	6.058448135389183e+17
19102.0	6.057284395685204e+17
19103.0	6.056264878522368e+17
19104.0	6.055140002540202e+17
19105.0	6.052619962635607e+17
19106.0	6.052622053496148e+17
19107.0	6.051287951649449e+17
19108.0	6.049776724344831e+17
19109.0	6.045751497632424e+17
19110.0	6.047346237723987e+17
19111.0	6.046761455976447e+17
19112.0	6.045705636413437e+17
19113.0	6.045094494164307e+17
19114.0	6.043704113146537e+17
19115.0	6.042614956556287e+17
19116.0	6.041734424646996e+17
19117.0	6.040571848862378e+17
19118.0	6.039164723483988e+17
19119.0	6.032167489153697e+17
19120.0	6.03660056998707e+17
19121.0	6.035671354092201e+17
19122.0	6.035088667399508e+17
19123.0	6.033998488797183e+17
19124.0	6.032428544731818e+17
19125.0	6.031752577417215e+17
19126.0	6.030591016654164e+17
19127.0	6.027962782580735e+17
19128.0	6.028034913424724e+17
19129.0	6.027244267547305e+17
19130.0	6.02621706641954e+17
19131.0	6.025116674686975e+17
19132.0	6.024011199457961e+17
19133.0	6.022819644527956e+17
19134.0	6.021634284584959e+17
19135.0	6.020668603411113e+17
19136.0	6.019568482211156e+17
19137.0	6.018332557137236e+17
19138.0	6.01733336277538e+17
19139.0	6.016249567204692e+17
19140.0	6.015145266380799e+17
19141.0	6.01403721584913e+17
19142.0	6.012879792067924e+17
19143.0	6.011770123233961e+17
19144.0	6.010665227517951e+17
19145.0	6.009600238507347e+17
19146.0	6.007840184816982e+17
19147.0	6.007307577414996e+17
19148.0	6.005772878086144e+17
19149.0	6.004582701684052e+17
19150.0	6.004051614018218e+17
19151.0	6.002939653696169e+17
19152.0	6.001740666459475e+17
19153.0	5.99970438918963e+17
19154.0	5.999389970180778e+17
19155.0	5.998412228984832e+17
19156.0	5.99723580989986e+17
19157.0	5.995291155802794e+17
19158.0	5.992355063311018e+17
19159.0	5.993550020520618e+17
19160.0	5.992639541280767e+17
19161.0	5.991198070145023e+17
19162.0	5.984771003908097e+17
19163.0	5.987952456892415e+17
19164.0	5.988241705183914e+17
19165.0	5.986122682684754e+17
19166.0	5.985974604180137e+17
19167.0	5.984589745662634e+17
19168.0	5.983921557383849e+17
19169.0	5.98289170965026e+17
19170.0	5.981827511965012e+17
19171.0	5.98051800621602e+17
19172.0	5.97955112477218e+17
19173.0	5.978569296926036e+17
19174.0	5.977472343823699e+17
19175.0	5.976411159745875e+17
19176.0	5.975305047681706e+17
19177.0	5.97400357122867e+17
19178.0	5.972791827715412e+17
19179.0	5.971561841775956e+17
19180.0	5.970814072870228e+17
19181.0	5.969667942252543e+17
19182.0	5.968651490426879e+17
19183.0	5.967610759872512e+17
19184.0	5.966509543260159e+17
19185.0	5.965393386536959e+17
19186.0	5.964299331698687e+17
19187.0	5.963095985182036e+17
19188.0	5.962058390568959e+17
19189.0	5.960934558968489e+17
19190.0	5.959764073425578e+17
19191.0	5.958596370803369e+17
19192.0	5.957538967890602e+17
19193.0	5.956219915905706e+17
19194.0	5.954916297561428e+17
19195.0	5.953845106573312e+17
19196.0	5.952310600182442e+17
19197.0	5.950189412723369e+17
19198.0	5.945112006404777e+17
19199.0	5.907141911816868e+17
19200.0	5.912181100336475e+17
19201.0	5.942399371051007e+17
19202.0	5.944836379814569e+17
19203.0	5.944524270469119e+17
19204.0	5.943946277901652e+17
19205.0	5.94308901179665e+17
19206.0	5.942111584474452e+17
19207.0	5.940961521696767e+17
19208.0	5.939843766943744e+17
19209.0	5.938969989261993e+17
19210.0	5.937894505403731e+17
19211.0	5.936819055798953e+17
19212.0	5.93568980865297e+17
19213.0	5.934206885210793e+17
19214.0	5.932931356120404e+17
19215.0	5.932227259706026e+17
19216.0	5.931348806074368e+17
19217.0	5.930244106092544e+17
19218.0	5.928490060742655e+17
19219.0	5.927914770006015e+17
19220.0	5.926970379119274e+17
19221.0	5.925691686125567e+17
19222.0	5.924803101152595e+17
19223.0	5.923747508082006e+17
19224.0	5.922624757213865e+17
19225.0	5.921469615833087e+17
19226.0	5.920472554973865e+17
19227.0	5.919384324625747e+17
19228.0	5.918320066822141e+17
19229.0	5.917226406248448e+17
19230.0	5.916116299109716e+17
19231.0	5.915020016396969e+17
19232.0	5.913931984579242e+17
19233.0	5.912771201160532e+17
19234.0	5.911746736816127e+17
19235.0	5.910635570615636e+17
19236.0	5.90957653402146e+17
19237.0	5.908466834429267e+17
19238.0	5.907246130484564e+17
19239.0	5.906292607898964e+17
19240.0	5.905207772140883e+17
19241.0	5.904091003748351e+17
19242.0	5.903011222825642e+17
19243.0	5.90176754737698e+17
19244.0	5.900845297522004e+17
19245.0	5.899746261947734e+17
19246.0	5.898647259927892e+17
19247.0	5.897557641265151e+17
19248.0	5.896457813666473e+17
19249.0	5.895304110232916e+17
19250.0	5.894043535933439e+17
19251.0	5.892874715529213e+17
19252.0	5.891798524231679e+17
19253.0	5.890990319599615e+17
19254.0	5.889915905288874e+17
19255.0	5.888627214472531e+17
19256.0	5.887711430137174e+17
19257.0	5.886644311818239e+17
19258.0	5.885546195495593e+17
19259.0	5.88431882330658e+17
19260.0	5.881595381328552e+17
19261.0	5.882188188876799e+17
19262.0	5.881054615306239e+17
19263.0	5.879931101074771e+17
19264.0	5.878455468731049e+17
19265.0	5.877661708582911e+17
19266.0	5.876528936124415e+17
19267.0	5.875684828250112e+17
19268.0	5.874585396314111e+17
19269.0	5.873496877258068e+17
19270.0	5.872380621269674e+17
19271.0	5.871005957008042e+17
19272.0	5.870178255153833e+17
19273.0	5.86881933840657e+17
19274.0	5.867565160420692e+17
19275.0	5.866935764560554e+17
19276.0	5.865822446682112e+17
19277.0	5.864731792725331e+17
19278.0	5.863596186315434e+17
19279.0	5.862477426327551e+17
19280.0	5.86135960097041e+17
19281.0	5.860293454331901e+17
19282.0	5.859138522666324e+17
19283.0	5.857739239238314e+17
19284.0	5.856730450406057e+17
19285.0	5.855675379526313e+17
19286.0	5.854555677218131e+17
19287.0	5.853005231073961e+17
19288.0	5.829383046561775e+17
19289.0	5.804893988192197e+17
19290.0	5.849558078717951e+17
19291.0	5.848846741536769e+17
19292.0	5.848164080812031e+17
19293.0	5.84712169071138e+17
19294.0	5.846028511783593e+17
19295.0	5.844974434254848e+17
19296.0	5.843205287313409e+17
19297.0	5.842605287931904e+17
19298.0	5.841636333802835e+17
19299.0	5.83977885831441e+17
19300.0	5.839426580119551e+17
19301.0	5.838340292433235e+17
19302.0	5.837223386327721e+17
19303.0	5.836028262744064e+17
19304.0	5.83499376492544e+17
19305.0	5.833879610982399e+17
19306.0	5.832730570915837e+17
19307.0	5.831516785475583e+17
19308.0	5.830302967179945e+17
19309.0	5.827854618416467e+17
19310.0	5.826192062720682e+17
19311.0	5.82659899269666e+17
19312.0	5.825784501501951e+17
19313.0	5.824144082643626e+17
19314.0	5.7242799944935834e+17
19315.0	5.731529056234292e+17
19316.0	5.819670108045312e+17
19317.0	5.820247666502313e+17
19318.0	5.819309850187092e+17
19319.0	5.818230354477055e+17
19320.0	5.816856682168319e+17
19321.0	5.815391903285247e+17
19322.0	5.814612953923583e+17
19323.0	5.813252578257578e+17
19324.0	5.81229579739682e+17
19325.0	5.810497063834963e+17
19326.0	5.810146951998121e+17
19327.0	5.809241749192703e+17
19328.0	5.806999878325588e+17
19329.0	5.807097500052138e+17
19330.0	5.805944585846783e+17
19331.0	5.804793123569664e+17
19332.0	5.803659510153215e+17
19333.0	5.802493904683007e+17
19334.0	5.801378306501289e+17
19335.0	5.797845974122499e+17
19336.0	5.799071788127572e+17
19337.0	5.79798421348898e+17
19338.0	5.796627509936127e+17
19339.0	5.795662562765482e+17
19340.0	5.794380402480468e+17
19341.0	5.792402546272938e+17
19342.0	5.791478664134656e+17
19343.0	5.790992557583017e+17
19344.0	5.788924822334124e+17
19345.0	5.786484693707433e+17
19346.0	5.786469991972863e+17
19347.0	5.785112372663635e+17
19348.0	5.785167438981801e+17
19349.0	5.783938360410112e+17
19350.0	5.782327349914282e+17
19351.0	5.781581374772563e+17
19352.0	5.779145242618536e+17
19353.0	5.779256926448297e+17
19354.0	5.778066119502506e+17
19355.0	5.77676224041233e+17
19356.0	5.775645571984042e+17
19357.0	5.774442846923434e+17
19358.0	5.773191804179795e+17
19359.0	5.771682420271785e+17
19360.0	5.769777893081087e+17
19361.0	5.769462104631978e+17
19362.0	5.768228982751232e+17
19363.0	5.7669811451549e+17
19364.0	5.765720123462996e+17
19365.0	5.7644563314333005e+17
19366.0	5.7631891566974285e+17
19367.0	5.7618979534929914e+17
19368.0	5.7606223964405754e+17
19369.0	5.759239488274431e+17
19370.0	5.757947717440854e+17
19371.0	5.756647060275199e+17
19372.0	5.7552689678690976e+17
19373.0	5.7539049019146234e+17
19374.0	5.7525863525471565e+17
19375.0	5.751220657105577e+17
19376.0	5.7498639626403834e+17
19377.0	5.748469318112596e+17
19378.0	5.7470738703755936e+17
19379.0	5.745587462864896e+17
19380.0	5.744068585149781e+17
19381.0	5.742625213295274e+17
19382.0	5.741082751008766e+17
19383.0	5.739591340392447e+17
19384.0	5.738137464602622e+17
19385.0	5.736435095175167e+17
19386.0	5.734824287404031e+17
19387.0	5.733219028697087e+17
19388.0	5.7315752949405e+17
19389.0	5.729629678949716e+17
19390.0	5.726827061794132e+17
19391.0	5.663217339946252e+17
19392.0	5.7192463871945325e+17
19393.0	5.7221220914954234e+17
19394.0	5.72060025959219e+17
19395.0	5.718520299345237e+17
19396.0	5.716543407827627e+17
19397.0	5.714727258816511e+17
19398.0	5.712375586663082e+17
19399.0	5.709568807359828e+17
19400.0	5.708202487666005e+17
19401.0	5.7065917239350605e+17
19402.0	5.70450980774434e+17
19403.0	5.702350784866986e+17
19404.0	5.6999873819443194e+17
19405.0	5.69765051638306e+17
19406.0	5.6952938201524896e+17
19407.0	5.692438065359529e+17
19408.0	5.689547227310763e+17
19409.0	5.6872496546884256e+17
19410.0	5.6845793105018874e+17
19411.0	5.681767150605651e+17
19412.0	5.678504688134826e+17
19413.0	5.674885281305941e+17
19414.0	5.672093863641087e+17
19415.0	5.6681991678634656e+17
19416.0	5.6641666654317216e+17
19417.0	5.6599437751528096e+17
19418.0	5.656370660158122e+17
19419.0	5.65176364433408e+17
19420.0	5.647046509155668e+17
19421.0	5.6416240975653555e+17
19422.0	5.636347175895036e+17
19423.0	5.6297986817611085e+17
19424.0	5.6231025809817594e+17
19425.0	5.616581003094698e+17
19426.0	5.6097980823197e+17
19427.0	5.603063138091007e+17
19428.0	5.5965442515490125e+17
19429.0	5.588674308385449e+17
19430.0	5.5775158812890477e+17
19431.0	5.5604343356784704e+17
19432.0	5.561636648299175e+17
19433.0	5.550529089721685e+17
19434.0	5.537959017185279e+17
19435.0	5.521626075146921e+17
19436.0	5.503466266252625e+17
19437.0	5.48976796438801e+17
19438.0	5.366490660339728e+17
19439.0	5.440710170553003e+17
19440.0	5.428627219589803e+17
19441.0	5.402296698186407e+17
19442.0	5.373075536565591e+17
19443.0	5.3391566090622304e+17
19444.0	5.29873072641365e+17
19445.0	5.249242539666093e+17
19446.0	5.189622720801451e+17
19447.0	5.112335591713447e+17
19448.0	5.007909990345392e+17
19449.0	4.852496491784874e+17
19450.0	4.559517128501925e+17
19451.0	4.340592704924357e+17
19452.0	4.7355604965348704e+17
19453.0	4.938073135644677e+17
19454.0	5.060508691813711e+17
19455.0	5.1477119552716794e+17
19456.0	5.212048349375148e+17
19457.0	5.2632978439099686e+17
19458.0	5.070408095804454e+17
19459.0	5.3289607831224826e+17
19460.0	5.37075136087108e+17
19461.0	5.397822169240915e+17
19462.0	5.420488501231617e+17
19463.0	5.440847023002965e+17
19464.0	5.45891220420471e+17
19465.0	5.47430823939277e+17
19466.0	5.4877085904841395e+17
19467.0	5.5000665752425805e+17
19468.0	5.5117684701921274e+17
19469.0	5.5201349574328294e+17
19470.0	5.529352802402303e+17
19471.0	5.5369792235765754e+17
19472.0	5.5431354300497914e+17
19473.0	5.549104687306069e+17
19474.0	5.5530792090774163e+17
19475.0	5.557552764245332e+17
19476.0	5.5629037845872614e+17
19477.0	5.567317233281705e+17
19478.0	5.5723959223582714e+17
19479.0	5.575806275988135e+17
19480.0	5.5802283376858445e+17
19481.0	5.583788516747947e+17
19482.0	5.5863229808640006e+17
19483.0	5.589449137542484e+17
19484.0	5.591371739387221e+17
19485.0	5.593781079026347e+17
19486.0	5.5943486871961606e+17
19487.0	5.596890747895807e+17
19488.0	5.5982640769706656e+17
19489.0	5.599020199531859e+17
19490.0	5.599304943839913e+17
19491.0	5.601365735418538e+17
19492.0	5.602113737108139e+17
19493.0	5.602778135134207e+17
19494.0	5.603460182092458e+17
19495.0	5.603780078163284e+17
19496.0	5.603493960919721e+17
19497.0	5.6033631601513805e+17
19498.0	5.588896064733182e+17
19499.0	5.507216162772274e+17
19500.0	5.603003548215977e+17
19501.0	5.604433341710335e+17
19502.0	5.60463294304529e+17
19503.0	5.604721127587839e+17
19504.0	5.604845443962196e+17
19505.0	5.604640856997887e+17
19506.0	5.604778495180799e+17
19507.0	5.6046656516259834e+17
19508.0	5.604273776405161e+17
19509.0	5.60380293362483e+17
19510.0	5.601654184695123e+17
19511.0	5.428159333094611e+17
19512.0	5.5817892646966426e+17
19513.0	5.573003902801201e+17
19514.0	5.579272455105172e+17
19515.0	5.60055235571439e+17
19516.0	5.601236346732543e+17
19517.0	5.6010629003782816e+17
19518.0	5.6004900905724563e+17
19519.0	5.599896453950121e+17
19520.0	5.598712187322367e+17
19521.0	5.599051972083711e+17
19522.0	5.598240093241342e+17
19523.0	5.597596553489066e+17
19524.0	5.596562278667607e+17
19525.0	5.5965380866211834e+17
19526.0	5.595882047143935e+17
19527.0	5.595166803667625e+17
19528.0	5.594365918795092e+17
19529.0	5.59358441230609e+17
19530.0	5.5929764339602765e+17
19531.0	5.5923026302074854e+17
19532.0	5.5915562125666976e+17
19533.0	5.590783337955328e+17
19534.0	5.58999888077346e+17
19535.0	5.589187717758975e+17
19536.0	5.5883684254842874e+17
19537.0	5.5875782374850554e+17
19538.0	5.5857692027125766e+17
19539.0	5.5854863136849926e+17
19540.0	5.585100641140735e+17
19541.0	5.5840793826426874e+17
19542.0	5.583399313298772e+17
19543.0	5.581747870411434e+17
19544.0	5.58173638430993e+17
19545.0	5.5804003474909856e+17
19546.0	5.5792812316863136e+17
19547.0	5.579217355931647e+17
19548.0	5.5783629699153914e+17
19549.0	5.57739068830515e+17
19550.0	5.576617275424767e+17
19551.0	5.575736261869567e+17
19552.0	5.574847365119999e+17
19553.0	5.573932863542611e+17
19554.0	5.5730273936998394e+17
19555.0	5.572035774950058e+17
19556.0	5.57117697303074e+17
19557.0	5.570338482727594e+17
19558.0	5.569439453937664e+17
19559.0	5.5685398575185914e+17
19560.0	5.5672683633486496e+17
19561.0	5.5666840828204365e+17
19562.0	5.5654588021910176e+17
19563.0	5.56487568138786e+17
19564.0	5.563972352737278e+17
19565.0	5.563094238844243e+17
19566.0	5.5621481604491936e+17
19567.0	5.56124337078272e+17
19568.0	5.5602884801549645e+17
19569.0	5.5593590797107194e+17
19570.0	5.5584316736580256e+17
19571.0	5.557498949926911e+17
19572.0	5.556535561639253e+17
19573.0	5.5555322121202336e+17
19574.0	5.5545874793977165e+17
19575.0	5.553794974744575e+17
19576.0	5.5527791234034336e+17
19577.0	5.5516953823586976e+17
19578.0	5.5509193941756576e+17
19579.0	5.5499751451962016e+17
19580.0	5.5490269731444045e+17
19581.0	5.5480903766725965e+17
19582.0	5.547151649494355e+17
19583.0	5.5461966791748256e+17
19584.0	5.5452050953775776e+17
19585.0	5.5441508591643296e+17
19586.0	5.5430975282216954e+17
19587.0	5.5421635720642554e+17
19588.0	5.541011075891199e+17
19589.0	5.5404549629105485e+17
19590.0	5.539396006008149e+17
19591.0	5.5385742831342925e+17
19592.0	5.5376262641745914e+17
19593.0	5.5365522490217805e+17
19594.0	5.5353497078114976e+17
19595.0	5.5347150634789536e+17
19596.0	5.533080542511104e+17
19597.0	5.5327875487061325e+17
19598.0	5.5314091235519136e+17
19599.0	5.530861316691284e+17
19600.0	5.529907127910399e+17
19601.0	5.5288657108882765e+17
19602.0	5.5278374499997005e+17
19603.0	5.526052750579027e+17
19604.0	5.5257439910843725e+17
19605.0	5.524753448872618e+17
19606.0	5.524082378407936e+17
19607.0	5.523129120762538e+17
19608.0	5.5221440660985165e+17
19609.0	5.5211412150026234e+17
19610.0	5.5197854041374714e+17
19611.0	5.518615992336384e+17
19612.0	5.5182893651066874e+17
19613.0	5.517327698580821e+17
19614.0	5.516319654237524e+17
19615.0	5.5153330532734285e+17
19616.0	5.5134100508726624e+17
19617.0	5.5127727305741645e+17
19618.0	5.511814145463636e+17
19619.0	5.510615520335187e+17
19620.0	5.5096366921154534e+17
19621.0	5.5085988059982496e+17
19622.0	5.5085298782044154e+17
19623.0	5.5074890162285216e+17
19624.0	5.5063806007924045e+17
19625.0	5.505529728204798e+17
19626.0	5.504473429792083e+17
19627.0	5.503242614778538e+17
19628.0	5.501149571099306e+17
19629.0	5.497899363685715e+17
19630.0	5.488369844879356e+17
19631.0	5.458193173970949e+17
19632.0	5.495889702070953e+17
19633.0	5.4968701276214605e+17
19634.0	5.4964924850722125e+17
19635.0	5.495539030993577e+17
19636.0	5.493786899644415e+17
19637.0	5.4925484167441043e+17
19638.0	5.4928232576013645e+17
19639.0	5.491929424855039e+17
19640.0	5.490844566028288e+17
19641.0	5.488992126500866e+17
19642.0	5.4889563134361594e+17
19643.0	5.4879714433215136e+17
19644.0	5.487023095807998e+17
19645.0	5.485890144392532e+17
19646.0	5.4840954876941626e+17
19647.0	5.484170109255679e+17
19648.0	5.483212648917674e+17
19649.0	5.482236110787924e+17
19650.0	5.481268301004799e+17
19651.0	5.480286511606441e+17
19652.0	5.4793099483108685e+17
19653.0	5.4783121562446496e+17
19654.0	5.477358584725503e+17
19655.0	5.476379645356713e+17
19656.0	5.475409880328873e+17
19657.0	5.4744329472354976e+17
19658.0	5.473453285048319e+17
19659.0	5.472487134811477e+17
19660.0	5.4715121283017376e+17
19661.0	5.470534705173844e+17
