# Flux units: erg / (cm m2 s)
# Wavelength units: Angstrom
wave	flux
19000.0	6.858811421054291e+17
19001.0	6.857491336571562e+17
19002.0	6.856242815303679e+17
19003.0	6.854954840315219e+17
19004.0	6.85366668497169e+17
19005.0	6.852388770021375e+17
19006.0	6.851104016258387e+17
19007.0	6.849653969169066e+17
19008.0	6.848511775604735e+17
19009.0	6.8472301696669e+17
19010.0	6.84579294945826e+17
19011.0	6.844662836188499e+17
19012.0	6.843103182148948e+17
19013.0	6.842105724228947e+17
19014.0	6.840799989159252e+17
19015.0	6.839523719075156e+17
19016.0	6.838234717181268e+17
19017.0	6.836955298572968e+17
19018.0	6.835662143619071e+17
19019.0	6.834395992992426e+17
19020.0	6.833098373900969e+17
19021.0	6.83182612615441e+17
19022.0	6.830548291594921e+17
19023.0	6.829247698741929e+17
19024.0	6.827967091747497e+17
19025.0	6.826669639729151e+17
19026.0	6.825369745926826e+17
19027.0	6.823868340983123e+17
19028.0	6.822837069982378e+17
19029.0	6.821551354325674e+17
19030.0	6.820273324731049e+17
19031.0	6.818989213395625e+17
19032.0	6.817705040543743e+17
19033.0	6.816388384904534e+17
19034.0	6.815131269507753e+17
19035.0	6.813835536454995e+17
19036.0	6.795054521778167e+17
19037.0	6.811282543301972e+17
19038.0	6.80999296049698e+17
19039.0	6.808719026640211e+17
19040.0	6.807435849935529e+17
19041.0	6.806152628491604e+17
19042.0	6.804840122417151e+17
19043.0	6.80358745018641e+17
19044.0	6.802302776814249e+17
19045.0	6.801011363195561e+17
19046.0	6.799720333355689e+17
19047.0	6.798453959731881e+17
19048.0	6.797098692029097e+17
19049.0	6.795868418779817e+17
19050.0	6.794593345470463e+17
19051.0	6.790611738121551e+17
19052.0	6.791730951793321e+17
19053.0	6.790722725696851e+17
19054.0	6.789481453584383e+17
19055.0	6.788107787567104e+17
19056.0	6.786910420030803e+17
19057.0	6.785630617643689e+17
19058.0	6.784312140278442e+17
19059.0	6.783074601096531e+17
19060.0	6.781784895258623e+17
19061.0	6.780512940414292e+17
19062.0	6.779230515189076e+17
19063.0	6.777950772221267e+17
19064.0	6.776629432942591e+17
19065.0	6.775325939029331e+17
19066.0	6.774088010476202e+17
19067.0	6.772830321158825e+17
19068.0	6.77155046564386e+17
19069.0	6.770271146999807e+17
19070.0	6.768982447794857e+17
19071.0	6.767703225619796e+17
19072.0	6.766430410244095e+17
19073.0	6.765151832593747e+17
19074.0	6.763874832700755e+17
19075.0	6.762595991508308e+17
19076.0	6.761309293685417e+17
19077.0	6.760034860007423e+17
19078.0	6.758749133165908e+17
19079.0	6.757482159057578e+17
19080.0	6.756202218258431e+17
19081.0	6.75491110383343e+17
19082.0	6.753630885511165e+17
19083.0	6.75232993124898e+17
19084.0	6.751006235470505e+17
19085.0	6.749815157293056e+17
19086.0	6.748383138720425e+17
19087.0	6.746726443865428e+17
19088.0	6.745944735350783e+17
19089.0	6.744358708226729e+17
19090.0	6.74341560918562e+17
19091.0	6.742143894814719e+17
19092.0	6.740732351436116e+17
19093.0	6.739602195524265e+17
19094.0	6.738319805950634e+17
19095.0	6.737041975585449e+17
19096.0	6.735761708329641e+17
19097.0	6.734498596476244e+17
19098.0	6.733225848209408e+17
19099.0	6.731950746938026e+17
19100.0	6.730647445263699e+17
19101.0	6.729391437862227e+17
19102.0	6.728092984104276e+17
19103.0	6.726852940223827e+17
19104.0	6.725578627481597e+17
19105.0	6.724303855463081e+17
19106.0	6.72292933730304e+17
19107.0	6.721750334526803e+17
19108.0	6.720481227614889e+17
19109.0	6.717568540737532e+17
19110.0	6.717915146835284e+17
19111.0	6.716657188383402e+17
19112.0	6.715390624617812e+17
19113.0	6.714118633422847e+17
19114.0	6.712846252157608e+17
19115.0	6.711524194254847e+17
19116.0	6.71029326389794e+17
19117.0	6.709021787204265e+17
19118.0	6.707637531268436e+17
19119.0	6.705294604238845e+17
19120.0	6.705067147831978e+17
19121.0	6.703842076218708e+17
19122.0	6.702671921326761e+17
19123.0	6.701399496720383e+17
19124.0	6.700035723668137e+17
19125.0	6.698846516150272e+17
19126.0	6.69757193986594e+17
19127.0	6.695704318356138e+17
19128.0	6.694052142164648e+17
19129.0	6.693746316585642e+17
19130.0	6.692501789693268e+17
19131.0	6.691206081806335e+17
19132.0	6.689967229807273e+17
19133.0	6.688467923413674e+17
19134.0	6.686964556933802e+17
19135.0	6.686152701160106e+17
19136.0	6.684891927631188e+17
19137.0	6.683563616720212e+17
19138.0	6.682288382629204e+17
19139.0	6.681084000818516e+17
19140.0	6.679817678924457e+17
19141.0	6.678549712863231e+17
19142.0	6.677266819274067e+17
19143.0	6.675993518757203e+17
19144.0	6.674737691710804e+17
19145.0	6.673472215668052e+17
19146.0	6.671970980593664e+17
19147.0	6.670911997127337e+17
19148.0	6.669665733793108e+17
19149.0	6.668401915199487e+17
19150.0	6.66713736679697e+17
19151.0	6.665875323092991e+17
19152.0	6.664587845129555e+17
19153.0	6.663334670281385e+17
19154.0	6.662029888716799e+17
19155.0	6.660803679049044e+17
19156.0	6.659540622420649e+17
19157.0	6.657685477567145e+17
19158.0	6.655475106622121e+17
19159.0	6.655137045719721e+17
19160.0	6.653859074845354e+17
19161.0	6.65252529316386e+17
19162.0	6.648876641550337e+17
19163.0	6.650058418159615e+17
19164.0	6.648824056162985e+17
19165.0	6.6475136661149e+17
19166.0	6.64619724116241e+17
19167.0	6.644791058104319e+17
19168.0	6.643739109184852e+17
19169.0	6.6424444813312e+17
19170.0	6.641236499409577e+17
19171.0	6.639825188115795e+17
19172.0	6.638697441831594e+17
19173.0	6.637438896876201e+17
19174.0	6.636163815877289e+17
19175.0	6.63492049904162e+17
19176.0	6.633656718895785e+17
19177.0	6.632338528141312e+17
19178.0	6.631082132067668e+17
19179.0	6.629651731797332e+17
19180.0	6.628491079800148e+17
19181.0	6.627297031356415e+17
19182.0	6.626058631643135e+17
19183.0	6.624799507873791e+17
19184.0	6.62351310155503e+17
19185.0	6.622285201582762e+17
19186.0	6.621024495861759e+17
19187.0	6.619730736229034e+17
19188.0	6.618487175424682e+17
19189.0	6.617191676553897e+17
19190.0	6.615918661948755e+17
19191.0	6.614669103988736e+17
19192.0	6.613441484335785e+17
19193.0	6.612124937748479e+17
19194.0	6.610888024216916e+17
19195.0	6.609649860782762e+17
19196.0	6.608389678650708e+17
19197.0	6.607120320779604e+17
19198.0	6.605828762457427e+17
19199.0	6.589795929860774e+17
19200.0	6.593582574075909e+17
19201.0	6.602047752590675e+17
19202.0	6.60081410782003e+17
19203.0	6.599523594578601e+17
19204.0	6.598283668837715e+17
19205.0	6.597038548451328e+17
19206.0	6.595772441165823e+17
19207.0	6.594483055493119e+17
19208.0	6.593178232684543e+17
19209.0	6.59198142788403e+17
19210.0	6.590729138733055e+17
19211.0	6.589466231002452e+17
19212.0	6.588204073353215e+17
19213.0	6.586783459093162e+17
19214.0	6.585452018532351e+17
19215.0	6.584359469449215e+17
19216.0	6.583150251606015e+17
19217.0	6.581891750690815e+17
19218.0	6.580332095952211e+17
19219.0	6.579308242578089e+17
19220.0	6.578085580592468e+17
19221.0	6.576714572365823e+17
19222.0	6.575576763247274e+17
19223.0	6.574312760104276e+17
19224.0	6.573028475404287e+17
19225.0	6.571733841259177e+17
19226.0	6.570514328496809e+17
19227.0	6.56924917960977e+17
19228.0	6.567996083055273e+17
19229.0	6.566731724095487e+17
19230.0	6.565429613603497e+17
19231.0	6.56417156637218e+17
19232.0	6.562928632616276e+17
19233.0	6.561644461861546e+17
19234.0	6.56039930232832e+17
19235.0	6.559134779790676e+17
19236.0	6.557877419027113e+17
19237.0	6.556605944430591e+17
19238.0	6.555290206644905e+17
19239.0	6.554080252701353e+17
19240.0	6.552764637948585e+17
19241.0	6.551524483618131e+17
19242.0	6.550273710009002e+17
19243.0	6.548949827583999e+17
19244.0	6.547744697090047e+17
19245.0	6.546477348290559e+17
19246.0	6.545203355713533e+17
19247.0	6.543939818837331e+17
19248.0	6.542667903838889e+17
19249.0	6.541395043024895e+17
19250.0	6.54012488753698e+17
19251.0	6.538822549154473e+17
19252.0	6.537483026169855e+17
19253.0	6.536148406326612e+17
19254.0	6.534845780634282e+17
19255.0	6.533511217414143e+17
19256.0	6.532272096979626e+17
19257.0	6.531034363461632e+17
19258.0	6.529762706412884e+17
19259.0	6.528462025479508e+17
19260.0	6.526932453687295e+17
19261.0	6.525939989785258e+17
19262.0	6.524646588765524e+17
19263.0	6.5233691358877e+17
19264.0	6.521925357884756e+17
19265.0	6.520766511535444e+17
19266.0	6.519496537101652e+17
19267.0	6.518277689136468e+17
19268.0	6.516998214604116e+17
19269.0	6.515718035428692e+17
19270.0	6.51443672588834e+17
19271.0	6.51303880560913e+17
19272.0	6.511859947536383e+17
19273.0	6.509212789462355e+17
19274.0	6.508550154442067e+17
19275.0	6.508019981833556e+17
19276.0	6.506727010030931e+17
19277.0	6.505441530653353e+17
19278.0	6.504159436079103e+17
19279.0	6.502832275805524e+17
19280.0	6.501552552411136e+17
19281.0	6.500282543024809e+17
19282.0	6.499010543441236e+17
19283.0	6.497498540190377e+17
19284.0	6.496090350157823e+17
19285.0	6.495065586619731e+17
19286.0	6.493831904799402e+17
19287.0	6.492545772508499e+17
19288.0	6.486810098139131e+17
19289.0	6.478233805520873e+17
19290.0	6.488643377386835e+17
19291.0	6.487246134487721e+17
19292.0	6.486035749928959e+17
19293.0	6.484726123943252e+17
19294.0	6.483420847450793e+17
19295.0	6.482110957223936e+17
19296.0	6.480799397664084e+17
19297.0	6.479477346052778e+17
19298.0	6.478164246484308e+17
19299.0	6.476853956400468e+17
19300.0	6.475534482888019e+17
19301.0	6.474211185568425e+17
19302.0	6.472886193050963e+17
19303.0	6.471534552023039e+17
19304.0	6.470220490560852e+17
19305.0	6.468900557073065e+17
19306.0	6.467560589492223e+17
19307.0	6.466204974361257e+17
19308.0	6.464879690339668e+17
19309.0	6.463050343251967e+17
19310.0	6.461517747366569e+17
19311.0	6.460817706145107e+17
19312.0	6.459526515523583e+17
19313.0	6.458170666210644e+17
19314.0	6.4459369377082e+17
19315.0	6.445334240690193e+17
19316.0	6.454073946188458e+17
19317.0	6.452750223147007e+17
19318.0	6.451382352958804e+17
19319.0	6.450020430293674e+17
19320.0	6.448644661531988e+17
19321.0	6.447271065419775e+17
19322.0	6.44583146983697e+17
19323.0	6.444262081516884e+17
19324.0	6.443104873742336e+17
19325.0	6.441252497828521e+17
19326.0	6.440322647894697e+17
19327.0	6.438921968462506e+17
19328.0	6.437522599750314e+17
19329.0	6.43611229159424e+17
19330.0	6.434479158941011e+17
19331.0	6.432464410334548e+17
19332.0	6.431047522713599e+17
19333.0	6.429613767699113e+17
19334.0	6.428180079793492e+17
19335.0	6.426740357682516e+17
19336.0	6.425282008667476e+17
19337.0	6.423831544244906e+17
19338.0	6.422295641150803e+17
19339.0	6.420898661793791e+17
19340.0	6.419401802077523e+17
19341.0	6.417935045580115e+17
19342.0	6.416289884362067e+17
19343.0	6.414947159026345e+17
19344.0	6.41343940530449e+17
19345.0	6.411215958616744e+17
19346.0	6.410142394351615e+17
19347.0	6.40884180918818e+17
19348.0	6.407324032477865e+17
19349.0	6.405755729783466e+17
19350.0	6.404191733940223e+17
19351.0	6.402624158258515e+17
19352.0	6.401022813536255e+17
19353.0	6.399454189278548e+17
19354.0	6.397847000492714e+17
19355.0	6.396197348573183e+17
19356.0	6.39459402064418e+17
19357.0	6.392948158278314e+17
19358.0	6.391271887907498e+17
19359.0	6.388699689735508e+17
19360.0	6.386836811284479e+17
19361.0	6.385130817978367e+17
19362.0	6.383424447883946e+17
19363.0	6.381685045548371e+17
19364.0	6.379927457409706e+17
19365.0	6.378153538049364e+17
19366.0	6.376359664287744e+17
19367.0	6.374546094074537e+17
19368.0	6.372711887885652e+17
19369.0	6.370814951686143e+17
19370.0	6.368813014581247e+17
19371.0	6.367055262864724e+17
19372.0	6.36445779890449e+17
19373.0	6.361791648322899e+17
19374.0	6.359816126245545e+17
19375.0	6.357804401033215e+17
19376.0	6.355764928402772e+17
19377.0	6.353692292808703e+17
19378.0	6.351589628095146e+17
19379.0	6.349451789249194e+17
19380.0	6.346584775546195e+17
19381.0	6.343306906697727e+17
19382.0	6.341020347618643e+17
19383.0	6.338710615009961e+17
19384.0	6.33640935489536e+17
19385.0	6.334020713447423e+17
19386.0	6.329959892473171e+17
19387.0	6.326936591313577e+17
19388.0	6.324383062687743e+17
19389.0	6.321774862707369e+17
19390.0	6.317748421743956e+17
19391.0	6.298603364548584e+17
19392.0	6.310876697766569e+17
19393.0	6.307598782780751e+17
19394.0	6.302082724265983e+17
19395.0	6.298844958556159e+17
19396.0	6.293746658312191e+17
19397.0	6.288640819505834e+17
19398.0	6.284403625951231e+17
19399.0	6.277512620758356e+17
19400.0	6.273529588744192e+17
19401.0	6.268131069307561e+17
19402.0	6.264284970833236e+17
19403.0	6.260313022966442e+17
19404.0	6.256227092092244e+17
19405.0	6.251991552491519e+17
19406.0	6.24762063683584e+17
19407.0	6.242675307053055e+17
19408.0	6.237332627783679e+17
19409.0	6.232690163100329e+17
19410.0	6.227641691187882e+17
19411.0	6.222385183894186e+17
19412.0	6.216891074871295e+17
19413.0	6.210017585091924e+17
19414.0	6.204076038204074e+17
19415.0	6.19793794273553e+17
19416.0	6.190408062555474e+17
19417.0	6.182749278830591e+17
19418.0	6.175485985816576e+17
19419.0	6.166284606286505e+17
19420.0	6.157479139693907e+17
19421.0	6.147520543588351e+17
19422.0	6.135598740581033e+17
19423.0	6.123205114025303e+17
19424.0	6.10895001131418e+17
19425.0	6.091783770821972e+17
19426.0	6.071435087489709e+17
19427.0	6.047529176487259e+17
19428.0	6.029251547496447e+17
19429.0	6.014002329725608e+17
19430.0	5.997566502808234e+17
19431.0	5.97792450517402e+17
19432.0	5.962157402707282e+17
19433.0	5.942866557097302e+17
19434.0	5.921881874672298e+17
19435.0	5.899392991100927e+17
19436.0	5.873866068284756e+17
19437.0	5.847497316499456e+17
19438.0	5.797286481930925e+17
19439.0	5.778094541504513e+17
19440.0	5.727626762474845e+17
19441.0	5.66741668480068e+17
19442.0	5.6196275029497184e+17
19443.0	5.566773849314645e+17
19444.0	5.506000682833233e+17
19445.0	5.430569163467442e+17
19446.0	5.325900217668945e+17
19447.0	5.21673860815257e+17
19448.0	5.076557803902299e+17
19449.0	4.879787496221355e+17
19450.0	4.554908193783796e+17
19451.0	4.462526876090354e+17
19452.0	4.725609506100571e+17
19453.0	4.9878502281489146e+17
19454.0	5.1497481095085997e+17
19455.0	5.265816703817045e+17
19456.0	5.373871363107505e+17
19457.0	5.460650891411452e+17
19458.0	5.5084833920341606e+17
19459.0	5.5789098470386394e+17
19460.0	5.6266162312314854e+17
19461.0	5.6771817319519616e+17
19462.0	5.733592437795506e+17
19463.0	5.774341618794493e+17
19464.0	5.806198892090706e+17
19465.0	5.833063865690793e+17
19466.0	5.856153783937705e+17
19467.0	5.877463669626195e+17
19468.0	5.89710232649728e+17
19469.0	5.914545874097491e+17
19470.0	5.931183582653098e+17
19471.0	5.94695727087616e+17
19472.0	5.961215402573823e+17
19473.0	5.97454964723985e+17
19474.0	5.987911383471447e+17
19475.0	6.007474561744886e+17
19476.0	6.028058249134081e+17
19477.0	6.043715034415105e+17
19478.0	6.056967262262611e+17
19479.0	6.068115405624664e+17
19480.0	6.077507416970583e+17
19481.0	6.085397729072467e+17
19482.0	6.093424840496468e+17
19483.0	6.099323441206612e+17
19484.0	6.105725647803732e+17
19485.0	6.110275744825343e+17
19486.0	6.116021740677802e+17
19487.0	6.120125839878825e+17
19488.0	6.123805054686547e+17
19489.0	6.127709562339327e+17
19490.0	6.131172653050537e+17
19491.0	6.134608347267071e+17
19492.0	6.137408226940244e+17
19493.0	6.140003777598803e+17
19494.0	6.142420600575316e+17
19495.0	6.14527891599087e+17
19496.0	6.147393194033151e+17
19497.0	6.149437617340415e+17
19498.0	6.150096932569089e+17
19499.0	6.128724756572824e+17
19500.0	6.154410412823891e+17
19501.0	6.156124006907904e+17
19502.0	6.159315886931965e+17
19503.0	6.16109449971848e+17
19504.0	6.165423261919914e+17
19505.0	6.166366579763882e+17
19506.0	6.170061920971437e+17
19507.0	6.17149728100625e+17
19508.0	6.17254775422976e+17
19509.0	6.175848264630272e+17
19510.0	6.176245614116864e+17
19511.0	6.152897911149893e+17
19512.0	6.175116770323104e+17
19513.0	6.173032519303156e+17
19514.0	6.175153462793549e+17
19515.0	6.179709246592342e+17
19516.0	6.180595276535124e+17
19517.0	6.182259643471188e+17
19518.0	6.182272430505983e+17
19519.0	6.182212135987881e+17
19520.0	6.18211334824482e+17
19521.0	6.181985988203859e+17
19522.0	6.182219319432535e+17
19523.0	6.183246465335295e+17
19524.0	6.182992296804351e+17
19525.0	6.182694622855168e+17
19526.0	6.182384904262995e+17
19527.0	6.182037343262036e+17
19528.0	6.181657697932627e+17
19529.0	6.181255602591059e+17
19530.0	6.180827053075114e+17
19531.0	6.180938044145661e+17
19532.0	6.181192059584512e+17
19533.0	6.180686903203156e+17
19534.0	6.180158866893482e+17
19535.0	6.179607243216211e+17
19536.0	6.179029500209834e+17
19537.0	6.178456995889151e+17
19538.0	6.17782674788625e+17
19539.0	6.177031526722218e+17
19540.0	6.176577489119913e+17
19541.0	6.175930329683283e+17
19542.0	6.175256687411199e+17
19543.0	6.174570556598953e+17
19544.0	6.173869588436308e+17
19545.0	6.173009273771348e+17
19546.0	6.172330117387604e+17
19547.0	6.172671320522751e+17
19548.0	6.171916635209727e+17
19549.0	6.171113801383935e+17
19550.0	6.170371701080063e+17
19551.0	6.169583371157503e+17
19552.0	6.168783490121727e+17
19553.0	6.167966731206656e+17
19554.0	6.167141871692458e+17
19555.0	6.166321917416788e+17
19556.0	6.165489849991168e+17
19557.0	6.164642189541375e+17
19558.0	6.163788501876735e+17
19559.0	6.162922497638399e+17
19560.0	6.162046167023615e+17
19561.0	6.161168313876479e+17
19562.0	6.160293981847551e+17
19563.0	6.159401610117119e+17
19564.0	6.158503443955711e+17
19565.0	6.157598450166442e+17
19566.0	6.156679892697087e+17
19567.0	6.15576893530658e+17
19568.0	6.154836349288447e+17
19569.0	6.153914576885076e+17
19570.0	6.152983243565737e+17
19571.0	6.152042533879808e+17
19572.0	6.151087720846676e+17
19573.0	6.150142378551978e+17
19574.0	6.149160378739369e+17
19575.0	6.148236091151699e+17
19576.0	6.147273169829887e+17
19577.0	6.146293720154112e+17
19578.0	6.145318732518739e+17
19579.0	6.144348912265898e+17
19580.0	6.14337074045474e+17
19581.0	6.142389427109887e+17
19582.0	6.141408774367913e+17
19583.0	6.140418427890345e+17
19584.0	6.139417270594218e+17
19585.0	6.138386686061225e+17
19586.0	6.137468346695679e+17
19587.0	6.137029872058367e+17
19588.0	6.135952802054144e+17
19589.0	6.13508648673826e+17
19590.0	6.134064333455359e+17
19591.0	6.133084238555818e+17
19592.0	6.132067208615252e+17
19593.0	6.131040002594132e+17
19594.0	6.129918835774804e+17
19595.0	6.12898810433809e+17
19596.0	6.125744192574806e+17
19597.0	6.126911310790656e+17
19598.0	6.125802108922538e+17
19599.0	6.124879239708671e+17
19600.0	6.12384382263842e+17
19601.0	6.12278183535138e+17
19602.0	6.121750940439892e+17
19603.0	6.120342629471571e+17
19604.0	6.119647562694655e+17
19605.0	6.118529518534656e+17
19606.0	6.117588937474047e+17
19607.0	6.116542989205503e+17
19608.0	6.115489947669844e+17
19609.0	6.114418291813033e+17
19610.0	6.113389538792788e+17
19611.0	6.112333338946218e+17
19612.0	6.111280037363711e+17
19613.0	6.110218682717524e+17
19614.0	6.109150092197887e+17
19615.0	6.108103842638506e+17
19616.0	6.106910075213139e+17
19617.0	6.105982237147135e+17
19618.0	6.104731754343082e+17
19619.0	6.103613564081492e+17
19620.0	6.102561115340799e+17
19621.0	6.101725665209002e+17
19622.0	6.100658597221716e+17
19623.0	6.099590687577428e+17
19624.0	6.098521653859667e+17
19625.0	6.097449417790803e+17
19626.0	6.096380120530944e+17
19627.0	6.095307671251626e+17
19628.0	6.09388390846737e+17
19629.0	6.093126738728275e+17
19630.0	6.091606776086528e+17
19631.0	6.074975298868562e+17
19632.0	6.089924941272404e+17
19633.0	6.088835324007763e+17
19634.0	6.087784775985833e+17
19635.0	6.086693390123007e+17
19636.0	6.085630120777044e+17
19637.0	6.084412897405609e+17
19638.0	6.083469165723647e+17
19639.0	6.08238105141794e+17
19640.0	6.081284407295999e+17
19641.0	6.079981743155882e+17
19642.0	6.079148482450772e+17
19643.0	6.078056384954368e+17
19644.0	6.076961711456255e+17
19645.0	6.075805073407999e+17
19646.0	6.07481723302707e+17
19647.0	6.073733213061119e+17
19648.0	6.072648765276159e+17
19649.0	6.071562895622143e+17
19650.0	6.070478611415039e+17
19651.0	6.069392955670527e+17
19652.0	6.068306935021567e+17
19653.0	6.067213201047551e+17
19654.0	6.066133817884671e+17
19655.0	6.065045151328937e+17
19656.0	6.063956822414676e+17
19657.0	6.062871672782847e+17
19658.0	6.061783733239807e+17
19659.0	6.060694856968873e+17
19660.0	6.05960696635938e+17
19661.0	6.058518167683072e+17
19662.0	6.057429101969407e+17
19663.0	6.056320092340223e+17
19664.0	6.055188618018813e+17
19665.0	6.054160571738793e+17
