# Flux units: erg / (cm m2 s)
# Wavelength units: Angstrom
wave	flux
19000.0	6.954555191328768e+17
19001.0	6.953220753937748e+17
19002.0	6.952021332590591e+17
19003.0	6.950748420745897e+17
19004.0	6.949476853175635e+17
19005.0	6.948208037767849e+17
19006.0	6.946940346433536e+17
19007.0	6.945657678637736e+17
19008.0	6.944373935002963e+17
19009.0	6.943030890201087e+17
19010.0	6.941724528781993e+17
19011.0	6.940538160807936e+17
19012.0	6.939131113723219e+17
19013.0	6.938066430197759e+17
19014.0	6.936770518188031e+17
19015.0	6.935515211235327e+17
19016.0	6.934263824558762e+17
19017.0	6.933005573204649e+17
19018.0	6.931726922853033e+17
19019.0	6.930461110566911e+17
19020.0	6.929182042182995e+17
19021.0	6.927924272474794e+17
19022.0	6.926648358906538e+17
19023.0	6.925349194214058e+17
19024.0	6.924085901306538e+17
19025.0	6.922784538798762e+17
19026.0	6.921467860789929e+17
19027.0	6.92012581982481e+17
19028.0	6.918967285252095e+17
19029.0	6.917713128936787e+17
19030.0	6.916454482619049e+17
19031.0	6.915165830250495e+17
19032.0	6.913855183650815e+17
19033.0	6.912439425695743e+17
19034.0	6.910962522477908e+17
19035.0	6.908031075177812e+17
19036.0	6.896688827815252e+17
19037.0	6.905884704418474e+17
19038.0	6.905914066643625e+17
19039.0	6.90488906682641e+17
19040.0	6.903697558033748e+17
19041.0	6.902457111500116e+17
19042.0	6.90099740353058e+17
19043.0	6.899950566069588e+17
19044.0	6.898675818517844e+17
19045.0	6.897395737908564e+17
19046.0	6.896117368575316e+17
19047.0	6.894819184650921e+17
19048.0	6.893467137474559e+17
19049.0	6.891864094059178e+17
19050.0	6.890698702498473e+17
19051.0	6.888118662376106e+17
19052.0	6.887421838884863e+17
19053.0	6.887018690772991e+17
19054.0	6.88591248503603e+17
19055.0	6.884479921203882e+17
19056.0	6.88341287838242e+17
19057.0	6.88218375716864e+17
19058.0	6.880759353354921e+17
19059.0	6.879601817725609e+17
19060.0	6.878389909236393e+17
19061.0	6.877126396826963e+17
19062.0	6.875856618127359e+17
19063.0	6.874583398001322e+17
19064.0	6.873274947818836e+17
19065.0	6.871945806435668e+17
19066.0	6.870684702954835e+17
19067.0	6.869513447058089e+17
19068.0	6.86825127682594e+17
19069.0	6.866983358300159e+17
19070.0	6.865703539834879e+17
19071.0	6.864434764972031e+17
19072.0	6.863120182018047e+17
19073.0	6.861910156771327e+17
19074.0	6.860642447261695e+17
19075.0	6.859373164888063e+17
19076.0	6.858099671433215e+17
19077.0	6.856825242648575e+17
19078.0	6.855552028114943e+17
19079.0	6.854296493271721e+17
19080.0	6.853018156094803e+17
19081.0	6.851723186405375e+17
19082.0	6.850474298135892e+17
19083.0	6.849136179544063e+17
19084.0	6.847770019932841e+17
19085.0	6.84664471822882e+17
19086.0	6.844980886066516e+17
19087.0	6.843874762118484e+17
19088.0	6.84263067562803e+17
19089.0	6.841379112790698e+17
19090.0	6.840254157116756e+17
19091.0	6.839007638629034e+17
19092.0	6.837613336636074e+17
19093.0	6.836528647678633e+17
19094.0	6.835277106511871e+17
19095.0	6.834019035512831e+17
19096.0	6.832754522062847e+17
19097.0	6.831493575169364e+17
19098.0	6.83016402833681e+17
19099.0	6.828886509748223e+17
19100.0	6.827661795349844e+17
19101.0	6.826408956045994e+17
19102.0	6.825125569626111e+17
19103.0	6.823892707792212e+17
19104.0	6.822624774586367e+17
19105.0	6.821196704950953e+17
19106.0	6.820046698097322e+17
19107.0	6.818714613710847e+17
19108.0	6.817336740107604e+17
19109.0	6.815873205534719e+17
19110.0	6.814772420236627e+17
19111.0	6.81362448257297e+17
19112.0	6.812419740052137e+17
19113.0	6.811233175644842e+17
19114.0	6.809939849423529e+17
19115.0	6.808666046289236e+17
19116.0	6.807430186926079e+17
19117.0	6.806155282786985e+17
19118.0	6.804710046564351e+17
19119.0	6.80133194503509e+17
19120.0	6.80219752075537e+17
19121.0	6.80102946021922e+17
19122.0	6.799866917989034e+17
19123.0	6.798621716512767e+17
19124.0	6.79722783674641e+17
19125.0	6.796070733829459e+17
19126.0	6.794705863966719e+17
19127.0	6.792985938580819e+17
19128.0	6.792094023330473e+17
19129.0	6.790971832401919e+17
19130.0	6.78978493874176e+17
19131.0	6.7885419986944e+17
19132.0	6.787282914770943e+17
19133.0	6.785987527748265e+17
19134.0	6.784719922397183e+17
19135.0	6.78349937713698e+17
19136.0	6.782233603298643e+17
19137.0	6.780937547983529e+17
19138.0	6.779703977312255e+17
19139.0	6.778460234055679e+17
19140.0	6.777203972898815e+17
19141.0	6.775944031240191e+17
19142.0	6.774659399811071e+17
19143.0	6.773405360237225e+17
19144.0	6.772130997163348e+17
19145.0	6.770897320935423e+17
19146.0	6.76922225992226e+17
19147.0	6.768349103696553e+17
19148.0	6.767059773947903e+17
19149.0	6.765788052586495e+17
19150.0	6.764590903853055e+17
19151.0	6.763327958373715e+17
19152.0	6.762036994244607e+17
19153.0	6.760667084925609e+17
19154.0	6.75946070942242e+17
19155.0	6.758194996401494e+17
19156.0	6.756915695932755e+17
19157.0	6.755554874272425e+17
19158.0	6.754170000375807e+17
19159.0	6.753037678105939e+17
19160.0	6.751762036468393e+17
19161.0	6.75036799312418e+17
19162.0	6.748705992474624e+17
19163.0	6.747722149964457e+17
19164.0	6.746722877308927e+17
19165.0	6.745429982401876e+17
19166.0	6.7442691290781e+17
19167.0	6.743031510903465e+17
19168.0	6.741818307772415e+17
19169.0	6.740588005862057e+17
19170.0	6.739341873949354e+17
19171.0	6.738081458334378e+17
19172.0	6.736821142683647e+17
19173.0	6.73558034592563e+17
19174.0	6.734316786679808e+17
19175.0	6.7330726428672e+17
19176.0	6.731816108381524e+17
19177.0	6.730449708296874e+17
19178.0	6.729273641533439e+17
19179.0	6.728007415409321e+17
19180.0	6.726759652611412e+17
19181.0	6.725472093558102e+17
19182.0	6.724236522203818e+17
19183.0	6.723003465334783e+17
19184.0	6.721742319910911e+17
19185.0	6.720473706528767e+17
19186.0	6.719212749848575e+17
19187.0	6.717889922291028e+17
19188.0	6.716666794737661e+17
19189.0	6.715386326854313e+17
19190.0	6.714095698968573e+17
19191.0	6.712781571096575e+17
19192.0	6.711495528284159e+17
19193.0	6.710143313335635e+17
19194.0	6.708746914190676e+17
19195.0	6.70733023978018e+17
19196.0	6.705727056554666e+17
19197.0	6.703830589418153e+17
19198.0	6.701206683167402e+17
19199.0	6.696782358642687e+17
19200.0	6.695874416956755e+17
19201.0	6.697583628692137e+17
19202.0	6.697614181400575e+17
19203.0	6.696923503263743e+17
19204.0	6.696019620265983e+17
19205.0	6.694952217433428e+17
19206.0	6.693815256263338e+17
19207.0	6.692542378672128e+17
19208.0	6.691356912473428e+17
19209.0	6.690198064726015e+17
19210.0	6.688973427223209e+17
19211.0	6.687737115574272e+17
19212.0	6.686481417852244e+17
19213.0	6.685133659351721e+17
19214.0	6.683884442528426e+17
19215.0	6.682686752729769e+17
19216.0	6.681447971334825e+17
19217.0	6.680156411614548e+17
19218.0	6.678730295825748e+17
19219.0	6.677529781163348e+17
19220.0	6.676407910399999e+17
19221.0	6.675123257300307e+17
19222.0	6.673913065679529e+17
19223.0	6.672677097264468e+17
19224.0	6.671400882405375e+17
19225.0	6.670149437008553e+17
19226.0	6.668910101266431e+17
19227.0	6.66765741854993e+17
19228.0	6.666420714034516e+17
19229.0	6.665161377054719e+17
19230.0	6.663901281604948e+17
19231.0	6.662630870264489e+17
19232.0	6.661373830365183e+17
19233.0	6.660072794314067e+17
19234.0	6.658851303238314e+17
19235.0	6.657572607448403e+17
19236.0	6.656330753026729e+17
19237.0	6.655061748875263e+17
19238.0	6.653749219033087e+17
19239.0	6.652540688356692e+17
19240.0	6.651279877778089e+17
19241.0	6.650002100540755e+17
19242.0	6.648740960709289e+17
19243.0	6.647373153435647e+17
19244.0	6.646223171048788e+17
19245.0	6.644952084425385e+17
19246.0	6.643686009995263e+17
19247.0	6.642422272491519e+17
19248.0	6.641151508130473e+17
19249.0	6.639872959141204e+17
19250.0	6.638580849268052e+17
19251.0	6.637266146776403e+17
19252.0	6.635866813715795e+17
19253.0	6.634778104517972e+17
19254.0	6.633520780804095e+17
19255.0	6.63210989523217e+17
19256.0	6.630965507347796e+17
19257.0	6.629702426252628e+17
19258.0	6.628423417288019e+17
19259.0	6.62706055160354e+17
19260.0	6.625579482742783e+17
19261.0	6.624557224602282e+17
19262.0	6.623261674700799e+17
19263.0	6.621946620586666e+17
19264.0	6.620543748232532e+17
19265.0	6.619358683288916e+17
19266.0	6.618094949979476e+17
19267.0	6.616915574609235e+17
19268.0	6.615639561775785e+17
19269.0	6.614353242838356e+17
19270.0	6.613037846888447e+17
19271.0	6.611675857813503e+17
19272.0	6.610466612707327e+17
19273.0	6.609050359824383e+17
19274.0	6.60764181537314e+17
19275.0	6.606634093991252e+17
19276.0	6.605336137258323e+17
19277.0	6.604047641477119e+17
19278.0	6.602748176192852e+17
19279.0	6.601431034014378e+17
19280.0	6.600133772137812e+17
19281.0	6.598838546595839e+17
19282.0	6.597538791205546e+17
19283.0	6.5962092017309e+17
19284.0	6.594852714184704e+17
19285.0	6.593521870613161e+17
19286.0	6.592113744194217e+17
19287.0	6.590412212928511e+17
19288.0	6.584048096204114e+17
19289.0	6.58041721026423e+17
19290.0	6.586366425737897e+17
19291.0	6.58542372655377e+17
19292.0	6.58442406732322e+17
19293.0	6.58316515746338e+17
19294.0	6.58187031290402e+17
19295.0	6.580550414368767e+17
19296.0	6.579153722321578e+17
19297.0	6.577887085155668e+17
19298.0	6.576581695417002e+17
19299.0	6.57519204770338e+17
19300.0	6.57395021984563e+17
19301.0	6.572621781707434e+17
19302.0	6.57127890817297e+17
19303.0	6.569912389249706e+17
19304.0	6.568605588127741e+17
19305.0	6.567253190726995e+17
19306.0	6.565898668911274e+17
19307.0	6.56451382157858e+17
19308.0	6.56311884849698e+17
19309.0	6.561627347703124e+17
19310.0	6.560187747226964e+17
19311.0	6.558934644381012e+17
19312.0	6.557583642285395e+17
19313.0	6.555890549959338e+17
19314.0	6.537689353071276e+17
19315.0	6.537413355285175e+17
19316.0	6.551690644466346e+17
19317.0	6.550783285788671e+17
19318.0	6.549500050363731e+17
19319.0	6.548112661981865e+17
19320.0	6.546706302763008e+17
19321.0	6.545269989922132e+17
19322.0	6.543903893225472e+17
19323.0	6.542490575656276e+17
19324.0	6.541084438735529e+17
19325.0	6.539658956985683e+17
19326.0	6.538289003626496e+17
19327.0	6.536893790071465e+17
19328.0	6.535357715709951e+17
19329.0	6.534067366745428e+17
19330.0	6.532629151787689e+17
19331.0	6.531168676959572e+17
19332.0	6.529751159493972e+17
19333.0	6.52829096288802e+17
19334.0	6.526845533727402e+17
19335.0	6.525104408231936e+17
19336.0	6.523803684656467e+17
19337.0	6.522334641564329e+17
19338.0	6.520719150153727e+17
19339.0	6.519353473586516e+17
19340.0	6.517807787977386e+17
19341.0	6.516202636924243e+17
19342.0	6.514679591469055e+17
19343.0	6.513281594294272e+17
19344.0	6.511599482656084e+17
19345.0	6.509509076495017e+17
19346.0	6.508141606163796e+17
19347.0	6.506955234694483e+17
19348.0	6.5055931512477e+17
19349.0	6.503913958845097e+17
19350.0	6.502272133496831e+17
19351.0	6.50071688487458e+17
19352.0	6.49896066617617e+17
19353.0	6.497517069926397e+17
19354.0	6.495886120408403e+17
19355.0	6.494173623134889e+17
19356.0	6.492577072502099e+17
19357.0	6.490901748645885e+17
19358.0	6.489201336560297e+17
19359.0	6.487449906358953e+17
19360.0	6.485582195370665e+17
19361.0	6.483824154946217e+17
19362.0	6.482073650287956e+17
19363.0	6.480300573982719e+17
19364.0	6.478509186045268e+17
19365.0	6.476700166651903e+17
19366.0	6.474873814297257e+17
19367.0	6.473029092289194e+17
19368.0	6.471164510251689e+17
19369.0	6.469256024337065e+17
19370.0	6.46735162507264e+17
19371.0	6.465255618117631e+17
19372.0	6.463344856793085e+17
19373.0	6.461375954026496e+17
19374.0	6.459406504602282e+17
19375.0	6.457410635257171e+17
19376.0	6.455390750026409e+17
19377.0	6.453259668204201e+17
19378.0	6.451111679142569e+17
19379.0	6.448969932603391e+17
19380.0	6.44679289868561e+17
19381.0	6.444528807794004e+17
19382.0	6.442178969949526e+17
19383.0	6.439908576417108e+17
19384.0	6.437613283398995e+17
19385.0	6.435253542103721e+17
19386.0	6.432841469176489e+17
19387.0	6.430354727152298e+17
19388.0	6.427782274525866e+17
19389.0	6.425048402711891e+17
19390.0	6.421572166352895e+17
19391.0	6.409914772968783e+17
19392.0	6.414278463236777e+17
19393.0	6.413924157095936e+17
19394.0	6.411354914510164e+17
19395.0	6.408491849045332e+17
19396.0	6.405598083372371e+17
19397.0	6.402606517714943e+17
19398.0	6.399443419703978e+17
19399.0	6.396065013388627e+17
19400.0	6.392967008878591e+17
19401.0	6.389777528695466e+17
19402.0	6.386319451575635e+17
19403.0	6.382650401663657e+17
19404.0	6.379023556935679e+17
19405.0	6.375305303643476e+17
19406.0	6.371416598730068e+17
19407.0	6.367339596830035e+17
19408.0	6.363039885776212e+17
19409.0	6.358928945665363e+17
19410.0	6.35456764195635e+17
19411.0	6.349943418301097e+17
19412.0	6.345172723957759e+17
19413.0	6.34013789262097e+17
19414.0	6.335026152428883e+17
19415.0	6.329720895438847e+17
19416.0	6.324153401475071e+17
19417.0	6.318605002080255e+17
19418.0	6.312817799288148e+17
19419.0	6.306711797934762e+17
19420.0	6.300367090352127e+17
19421.0	6.293620246183936e+17
19422.0	6.28652346773777e+17
19423.0	6.279128415556948e+17
19424.0	6.271360740010665e+17
19425.0	6.263201923246762e+17
19426.0	6.254550772787882e+17
19427.0	6.245399132809898e+17
19428.0	6.235754051840682e+17
19429.0	6.225497955150505e+17
19430.0	6.214406992035839e+17
19431.0	6.202648211838292e+17
19432.0	6.191678652852905e+17
19433.0	6.179008435716095e+17
19434.0	6.165208276576937e+17
19435.0	6.149888986666323e+17
19436.0	6.13356592501009e+17
19437.0	6.115984821714943e+17
19438.0	6.08305616449263e+17
19439.0	6.073970984659625e+17
19440.0	6.056398211252223e+17
19441.0	6.032493798315348e+17
19442.0	6.005576867075414e+17
19443.0	5.97523859382818e+17
19444.0	5.940466161112403e+17
19445.0	5.900452073133399e+17
19446.0	5.853112007568042e+17
19447.0	5.795898468597756e+17
19448.0	5.7242740854183277e+17
19449.0	5.6292322794536954e+17
19450.0	5.4843798020860506e+17
19451.0	5.3823116442337286e+17
19452.0	5.566493330767871e+17
19453.0	5.677839303049219e+17
19454.0	5.7570459064292646e+17
19455.0	5.818357825667071e+17
19456.0	5.867696040880812e+17
19457.0	5.908231727611901e+17
19458.0	5.904032477129428e+17
19459.0	5.96862380941859e+17
19460.0	6.000070648397821e+17
19461.0	6.023980959225172e+17
19462.0	6.044931790121642e+17
19463.0	6.063905003186858e+17
19464.0	6.080848507262291e+17
19465.0	6.096178355634176e+17
19466.0	6.110236402952873e+17
19467.0	6.123307443159039e+17
19468.0	6.135212758357332e+17
19469.0	6.146042505811283e+17
19470.0	6.156304940094804e+17
19471.0	6.165706459927892e+17
19472.0	6.173992011781459e+17
19473.0	6.181909019929257e+17
19474.0	6.189332555628544e+17
19475.0	6.19613954122274e+17
19476.0	6.202912337646932e+17
19477.0	6.20901982727919e+17
19478.0	6.214642557430442e+17
19479.0	6.21979272024337e+17
19480.0	6.224750374988458e+17
19481.0	6.229311969995433e+17
19482.0	6.23353813672482e+17
19483.0	6.237388164562943e+17
19484.0	6.24103266591266e+17
19485.0	6.244364398712148e+17
19486.0	6.247452421477716e+17
19487.0	6.250553454275242e+17
19488.0	6.253357726782804e+17
19489.0	6.255894450929663e+17
19490.0	6.258171395964927e+17
19491.0	6.260860527837181e+17
19492.0	6.263097587138559e+17
19493.0	6.265069532173652e+17
19494.0	6.266865332518911e+17
19495.0	6.26848324194577e+17
19496.0	6.269761005901139e+17
19497.0	6.270734055768063e+17
19498.0	6.266724826131113e+17
19499.0	6.258633733395795e+17
19500.0	6.273906930002602e+17
19501.0	6.276046313750527e+17
19502.0	6.277186589119828e+17
19503.0	6.27811070054673e+17
19504.0	6.278955606736895e+17
19505.0	6.279652428830035e+17
19506.0	6.280282305637033e+17
19507.0	6.280808314699775e+17
19508.0	6.281245952573439e+17
19509.0	6.281459395810644e+17
19510.0	6.280640161557161e+17
19511.0	6.254446840031903e+17
19512.0	6.276644893360127e+17
19513.0	6.27724675011925e+17
19514.0	6.278463110862163e+17
19515.0	6.282744411717631e+17
19516.0	6.283321976466089e+17
19517.0	6.283487831829161e+17
19518.0	6.283523314941951e+17
19519.0	6.283482161829204e+17
19520.0	6.283333872211284e+17
19521.0	6.283384055660543e+17
19522.0	6.28321927893265e+17
19523.0	6.28302988583458e+17
19524.0	6.28275173007906e+17
19525.0	6.282580185142612e+17
19526.0	6.282332064798035e+17
19527.0	6.281981592950099e+17
19528.0	6.281597105296726e+17
19529.0	6.281204180101801e+17
19530.0	6.280809635206484e+17
19531.0	6.28039193985024e+17
19532.0	6.280092291781972e+17
19533.0	6.279625933411667e+17
19534.0	6.279136902731092e+17
19535.0	6.278619790486186e+17
19536.0	6.278074936415572e+17
19537.0	6.277541446811648e+17
19538.0	6.276788049849002e+17
19539.0	6.276242659606527e+17
19540.0	6.275785028883795e+17
19541.0	6.275181184024575e+17
19542.0	6.274660070413652e+17
19543.0	6.27401116684561e+17
19544.0	6.273415938484906e+17
19545.0	6.272510218381993e+17
19546.0	6.271772736006825e+17
19547.0	6.271353845972991e+17
19548.0	6.270678060411561e+17
19549.0	6.269892562343252e+17
19550.0	6.269224551623338e+17
19551.0	6.268475216145066e+17
19552.0	6.267712584723114e+17
19553.0	6.266930587500544e+17
19554.0	6.266230235900585e+17
19555.0	6.265445218080084e+17
19556.0	6.264653088118099e+17
19557.0	6.263840794039635e+17
19558.0	6.263012546925908e+17
19559.0	6.262177721745408e+17
19560.0	6.261276594405373e+17
19561.0	6.260464868655103e+17
19562.0	6.259589017589075e+17
19563.0	6.258764654400852e+17
19564.0	6.257896385238356e+17
19565.0	6.257018773962751e+17
19566.0	6.256123129277098e+17
19567.0	6.255263280878934e+17
19568.0	6.254407367436969e+17
19569.0	6.253516799257257e+17
19570.0	6.252645770242729e+17
19571.0	6.251736365443754e+17
19572.0	6.250800325416276e+17
19573.0	6.249882117472255e+17
19574.0	6.248905828903594e+17
19575.0	6.248049570130602e+17
19576.0	6.247106241800873e+17
19577.0	6.246137567991124e+17
19578.0	6.245220427497472e+17
19579.0	6.244262889564842e+17
19580.0	6.243314245653844e+17
19581.0	6.242373379380563e+17
19582.0	6.241417088554324e+17
19583.0	6.240449805156351e+17
19584.0	6.239467858471593e+17
19585.0	6.23843130614306e+17
19586.0	6.237463441134932e+17
19587.0	6.236538483157674e+17
19588.0	6.235443370655744e+17
19589.0	6.234560982067881e+17
19590.0	6.233560128159743e+17
19591.0	6.232624686519635e+17
19592.0	6.231638522462208e+17
19593.0	6.230614060914004e+17
19594.0	6.229581026208426e+17
19595.0	6.228753090172243e+17
19596.0	6.227566232163668e+17
19597.0	6.226724254995795e+17
19598.0	6.225539318677504e+17
19599.0	6.224688283211092e+17
19600.0	6.223681083321002e+17
19601.0	6.222616840197462e+17
19602.0	6.221549292661417e+17
19603.0	6.220412046278655e+17
19604.0	6.219474554322943e+17
19605.0	6.218381559245482e+17
19606.0	6.217512128959828e+17
19607.0	6.216495307336361e+17
19608.0	6.215453632364543e+17
19609.0	6.214403243726164e+17
19610.0	6.213348162360659e+17
19611.0	6.212307096261972e+17
19612.0	6.211336389612884e+17
19613.0	6.210283326406655e+17
19614.0	6.209212085785939e+17
19615.0	6.20816410677521e+17
19616.0	6.206995517756756e+17
19617.0	6.205963056272724e+17
19618.0	6.204723243078995e+17
19619.0	6.203576749654015e+17
19620.0	6.20263207145745e+17
19621.0	6.201713689449811e+17
19622.0	6.200786530162004e+17
19623.0	6.199718469522771e+17
19624.0	6.198621243790675e+17
19625.0	6.197551604695039e+17
19626.0	6.196421125122729e+17
19627.0	6.195208521078102e+17
19628.0	6.193840055298729e+17
19629.0	6.191914992096595e+17
19630.0	6.18887857045504e+17
19631.0	6.185746773835776e+17
19632.0	6.188432394376534e+17
19633.0	6.188407179618985e+17
19634.0	6.187744084623359e+17
19635.0	6.186793526012585e+17
19636.0	6.185731619116371e+17
19637.0	6.184460564649299e+17
19638.0	6.183766230477482e+17
19639.0	6.182712954060799e+17
19640.0	6.181526133101908e+17
19641.0	6.180227097034751e+17
19642.0	6.179508749773481e+17
19643.0	6.178443021866324e+17
19644.0	6.177341273276415e+17
19645.0	6.176244406856361e+17
19646.0	6.175132381522602e+17
19647.0	6.174187044121258e+17
19648.0	6.173118687783593e+17
19649.0	6.1720446908061e+17
19650.0	6.170970659575124e+17
19651.0	6.16989241516578e+17
19652.0	6.168818790083242e+17
19653.0	6.167735463575551e+17
19654.0	6.166657849709907e+17
19655.0	6.165578496606208e+17
19656.0	6.164503912426153e+17
19657.0	6.163426048300372e+17
19658.0	6.162345810897578e+17
19659.0	6.161264728342527e+17
19660.0	6.160183519958356e+17
19661.0	6.15910809342225e+17
19662.0	6.158028362132138e+17
19663.0	6.156929244768937e+17
19664.0	6.155846420179628e+17
19665.0	6.154781278076927e+17
