# Flux units: erg / (cm m2 s)
# Wavelength units: Angstrom
wave	flux
19000.0	7.944297989712553e+17
19001.0	7.942837807087615e+17
19002.0	7.941483726372863e+17
19003.0	7.940073362292733e+17
19004.0	7.938662171934719e+17
19005.0	7.937250377596927e+17
19006.0	7.935835991179261e+17
19007.0	7.934400394166271e+17
19008.0	7.932979528947028e+17
19009.0	7.931504829835945e+17
19010.0	7.930003761135615e+17
19011.0	7.928708980888915e+17
19012.0	7.927184382143145e+17
19013.0	7.925894953828352e+17
19014.0	7.924442093060096e+17
19015.0	7.923032366514172e+17
19016.0	7.921615332092586e+17
19017.0	7.920201137214803e+17
19018.0	7.918768164438015e+17
19019.0	7.917342744204628e+17
19020.0	7.915905519801683e+17
19021.0	7.914492123239763e+17
19022.0	7.91306114695168e+17
19023.0	7.911603093635071e+17
19024.0	7.910179228090365e+17
19025.0	7.908742318260224e+17
19026.0	7.907281152770047e+17
19027.0	7.905774877540352e+17
19028.0	7.904428916998143e+17
19029.0	7.902998256680957e+17
19030.0	7.901877073084415e+17
19031.0	7.900543861828264e+17
19032.0	7.899093745532925e+17
19033.0	7.897582539199828e+17
19034.0	7.896116434217642e+17
19035.0	7.894173703908009e+17
19036.0	7.885830037875369e+17
19037.0	7.891432980698454e+17
19038.0	7.890342010071721e+17
19039.0	7.888965814190079e+17
19040.0	7.887537488702121e+17
19041.0	7.886098007763625e+17
19042.0	7.884597856217768e+17
19043.0	7.883206915959468e+17
19044.0	7.881756527034367e+17
19045.0	7.880298361869651e+17
19046.0	7.878833998921728e+17
19047.0	7.877371987580242e+17
19048.0	7.875872890202792e+17
19049.0	7.874409911375191e+17
19050.0	7.872926454557353e+17
19051.0	7.870506518708221e+17
19052.0	7.869591369110867e+17
19053.0	7.868611828558506e+17
19054.0	7.86720524075008e+17
19055.0	7.865622859874301e+17
19056.0	7.864297496160938e+17
19057.0	7.862849264506196e+17
19058.0	7.861378138942121e+17
19059.0	7.85993677476113e+17
19060.0	7.858473835080361e+17
19061.0	7.85702007673105e+17
19062.0	7.855557980105386e+17
19063.0	7.854094478387881e+17
19064.0	7.852594433097727e+17
19065.0	7.851079398763178e+17
19066.0	7.84967494725359e+17
19067.0	7.848249917090472e+17
19068.0	7.846787045916671e+17
19069.0	7.845323168109906e+17
19070.0	7.843848408880468e+17
19071.0	7.842388224857428e+17
19072.0	7.840927231333715e+17
19073.0	7.839461604502188e+17
19074.0	7.837996391508649e+17
19075.0	7.836529056197289e+17
19076.0	7.835055615377408e+17
19077.0	7.833584994527914e+17
19078.0	7.832115636163923e+17
19079.0	7.83065535147759e+17
19080.0	7.82918349890082e+17
19081.0	7.82768950878754e+17
19082.0	7.826230134265172e+17
19083.0	7.824701543940096e+17
19084.0	7.823157111728809e+17
19085.0	7.82181306798353e+17
19086.0	7.820089220224339e+17
19087.0	7.818773444689919e+17
19088.0	7.817294278645076e+17
19089.0	7.815763378656595e+17
19090.0	7.814409214055764e+17
19091.0	7.812955345256445e+17
19092.0	7.811453460064936e+17
19093.0	7.810033846146386e+17
19094.0	7.808566831000234e+17
19095.0	7.80709504553233e+17
19096.0	7.805617576782506e+17
19097.0	7.804145454372179e+17
19098.0	7.802666837781161e+17
19099.0	7.801189496258556e+17
19100.0	7.799701530563923e+17
19101.0	7.798233444472148e+17
19102.0	7.796725718013267e+17
19103.0	7.7952800798365e+17
19104.0	7.793798826426367e+17
19105.0	7.792300158266025e+17
19106.0	7.790814278538582e+17
19107.0	7.78931961873476e+17
19108.0	7.787784760721407e+17
19109.0	7.786005339832317e+17
19110.0	7.78473791483631e+17
19111.0	7.783390043089578e+17
19112.0	7.781937366870698e+17
19113.0	7.780469448551081e+17
19114.0	7.778988095875753e+17
19115.0	7.777478465202858e+17
19116.0	7.776008519636308e+17
19117.0	7.774521142542335e+17
19118.0	7.772965747818496e+17
19119.0	7.770214913540093e+17
19120.0	7.769990035931136e+17
19121.0	7.76854094024977e+17
19122.0	7.767114415516328e+17
19123.0	7.765632655993512e+17
19124.0	7.764079682781181e+17
19125.0	7.762644872899241e+17
19126.0	7.761102181324115e+17
19127.0	7.759050294252886e+17
19128.0	7.758018165516969e+17
19129.0	7.756646843416573e+17
19130.0	7.755207767927468e+17
19131.0	7.753729437947219e+17
19132.0	7.75223795462963e+17
19133.0	7.750680241853777e+17
19134.0	7.749138984730624e+17
19135.0	7.747698718059177e+17
19136.0	7.746204618893993e+17
19137.0	7.744666177546921e+17
19138.0	7.743211592919721e+17
19139.0	7.74173114761216e+17
19140.0	7.740239881000276e+17
19141.0	7.738745829370538e+17
19142.0	7.737236804075519e+17
19143.0	7.735737387930964e+17
19144.0	7.734233714567849e+17
19145.0	7.73276014232644e+17
19146.0	7.730940444934144e+17
19147.0	7.729739625485651e+17
19148.0	7.728260462237012e+17
19149.0	7.726762304383658e+17
19150.0	7.725267988512765e+17
19151.0	7.723768243814399e+17
19152.0	7.722253684834305e+17
19153.0	7.720737892728832e+17
19154.0	7.719214239099562e+17
19155.0	7.717736517293395e+17
19156.0	7.716219469692927e+17
19157.0	7.714657572399788e+17
19158.0	7.713051081266515e+17
19159.0	7.711648441696255e+17
19160.0	7.710160840906068e+17
19161.0	7.708568553084244e+17
19162.0	7.706596345206099e+17
19163.0	7.705436525079212e+17
19164.0	7.704137753253204e+17
19165.0	7.702656776667135e+17
19166.0	7.70112369284437e+17
19167.0	7.699618703867903e+17
19168.0	7.698148745718442e+17
19169.0	7.696656436122963e+17
19170.0	7.69515274178833e+17
19171.0	7.693633134264319e+17
19172.0	7.692125596549119e+17
19173.0	7.690622219583488e+17
19174.0	7.689096117878781e+17
19175.0	7.687598797488128e+17
19176.0	7.686085081563133e+17
19177.0	7.684484568711165e+17
19178.0	7.683030312637782e+17
19179.0	7.681506418535084e+17
19180.0	7.680005442109439e+17
19181.0	7.67845505818078e+17
19182.0	7.676964233368915e+17
19183.0	7.675456165773311e+17
19184.0	7.67393218498833e+17
19185.0	7.672408065791315e+17
19186.0	7.670882948349951e+17
19187.0	7.66931193683422e+17
19188.0	7.667822809317373e+17
19189.0	7.666286332302675e+17
19190.0	7.664744531318099e+17
19191.0	7.663189384058195e+17
19192.0	7.661663261381972e+17
19193.0	7.660104744697856e+17
19194.0	7.658523633298089e+17
19195.0	7.656895969318228e+17
19196.0	7.655221977852585e+17
19197.0	7.653402913800191e+17
19198.0	7.651079463720274e+17
19199.0	7.6463303819264e+17
19200.0	7.645220204183552e+17
19201.0	7.646564411506687e+17
19202.0	7.645745617655126e+17
19203.0	7.644450384423594e+17
19204.0	7.643047483408383e+17
19205.0	7.641577442770943e+17
19206.0	7.640070144131071e+17
19207.0	7.638487561928703e+17
19208.0	7.636855691061932e+17
19209.0	7.635369759604735e+17
19210.0	7.633835270690131e+17
19211.0	7.632285349533011e+17
19212.0	7.630727217326761e+17
19213.0	7.629111132422143e+17
19214.0	7.627550117330943e+17
19215.0	7.626041559001768e+17
19216.0	7.624498150200659e+17
19217.0	7.622913262529193e+17
19218.0	7.621119793517906e+17
19219.0	7.619686556499965e+17
19220.0	7.618231181945513e+17
19221.0	7.616595469096275e+17
19222.0	7.615092413693952e+17
19223.0	7.613549955601748e+17
19224.0	7.61194762801425e+17
19225.0	7.610364040577021e+17
19226.0	7.608813842595839e+17
19227.0	7.607236940879186e+17
19228.0	7.605674580814505e+17
19229.0	7.6040911192064e+17
19230.0	7.602501587042303e+17
19231.0	7.600910909833215e+17
19232.0	7.599326170360489e+17
19233.0	7.59770391982899e+17
19234.0	7.596142318933332e+17
19235.0	7.594541855014913e+17
19236.0	7.592957719521962e+17
19237.0	7.59135373238818e+17
19238.0	7.589710300621481e+17
19239.0	7.588155508479314e+17
19240.0	7.586549046706173e+17
19241.0	7.584931151260328e+17
19242.0	7.58327715823616e+17
19243.0	7.581467703334227e+17
19244.0	7.579949937109674e+17
19245.0	7.578332392587263e+17
19246.0	7.576708783101267e+17
19247.0	7.575089023986345e+17
19248.0	7.573465376751615e+17
19249.0	7.571836797015378e+17
19250.0	7.570195683300692e+17
19251.0	7.568519348617215e+17
19252.0	7.566766069426858e+17
19253.0	7.565285440968018e+17
19254.0	7.563653810574675e+17
19255.0	7.561897881982291e+17
19256.0	7.560347721749844e+17
19257.0	7.558707474857981e+17
19258.0	7.557048655588009e+17
19259.0	7.555335100650836e+17
19260.0	7.553575209839272e+17
19261.0	7.552039752040445e+17
19262.0	7.550340828233725e+17
19263.0	7.548635646525437e+17
19264.0	7.546801238310911e+17
19265.0	7.545119478994259e+17
19266.0	7.543312578423464e+17
19267.0	7.541688964743168e+17
19268.0	7.539993319484074e+17
19269.0	7.5382895177018e+17
19270.0	7.536562995374762e+17
19271.0	7.534753947320317e+17
19272.0	7.533125194219517e+17
19273.0	7.531196967813117e+17
19274.0	7.529388214758058e+17
19275.0	7.527888155486888e+17
19276.0	7.526150459533994e+17
19277.0	7.524410778277204e+17
19278.0	7.522667487122772e+17
19279.0	7.52089579214165e+17
19280.0	7.519120751504042e+17
19281.0	7.517358264418301e+17
19282.0	7.51558744744482e+17
19283.0	7.513634106944169e+17
19284.0	7.511660765205844e+17
19285.0	7.509880982208513e+17
19286.0	7.50807933849873e+17
19287.0	7.506199339597824e+17
19288.0	7.501738472199505e+17
19289.0	7.498034341128869e+17
19290.0	7.500731238055935e+17
19291.0	7.498898865476947e+17
19292.0	7.497239127654399e+17
19293.0	7.495410671157247e+17
19294.0	7.493570814541821e+17
19295.0	7.491720384086016e+17
19296.0	7.489855139348479e+17
19297.0	7.487952032628733e+17
19298.0	7.485730604799314e+17
19299.0	7.483851478313641e+17
19300.0	7.481967624847357e+17
19301.0	7.480073746994515e+17
19302.0	7.478165010120703e+17
19303.0	7.476229849131688e+17
19304.0	7.474337099546624e+17
19305.0	7.472408104184489e+17
19306.0	7.47046596387362e+17
19307.0	7.468337199404374e+17
19308.0	7.466369389953024e+17
19309.0	7.464288963439274e+17
19310.0	7.461795905492308e+17
19311.0	7.459957911147862e+17
19312.0	7.458024018236756e+17
19313.0	7.455980568707072e+17
19314.0	7.448730438817108e+17
19315.0	7.447082657557167e+17
19316.0	7.449846235529216e+17
19317.0	7.447853939731113e+17
19318.0	7.445792240784723e+17
19319.0	7.443719636647935e+17
19320.0	7.441613578742442e+17
19321.0	7.439262850307412e+17
19322.0	7.437049760754345e+17
19323.0	7.43489843512388e+17
19324.0	7.432756185967274e+17
19325.0	7.430550661540521e+17
19326.0	7.428397900059986e+17
19327.0	7.426045066084352e+17
19328.0	7.423707305039187e+17
19329.0	7.421478700755625e+17
19330.0	7.419200624656383e+17
19331.0	7.416898786426879e+17
19332.0	7.414600144257024e+17
19333.0	7.412256820166655e+17
19334.0	7.40989260005376e+17
19335.0	7.407490729071956e+17
19336.0	7.405106256063145e+17
19337.0	7.402682527165098e+17
19338.0	7.40002817585971e+17
19339.0	7.397634617988436e+17
19340.0	7.395126780712275e+17
19341.0	7.392605276995583e+17
19342.0	7.389804558461609e+17
19343.0	7.387154784539991e+17
19344.0	7.384556755746815e+17
19345.0	7.381349575600808e+17
19346.0	7.378937800469161e+17
19347.0	7.376717212898644e+17
19348.0	7.374118265552893e+17
19349.0	7.371436212267689e+17
19350.0	7.368739553017855e+17
19351.0	7.366016683562323e+17
19352.0	7.363240986847913e+17
19353.0	7.360518524239871e+17
19354.0	7.357730240419155e+17
19355.0	7.35441729810159e+17
19356.0	7.351462422118399e+17
19357.0	7.348485551205033e+17
19358.0	7.345466366754815e+17
19359.0	7.342393913245693e+17
19360.0	7.339289222316032e+17
19361.0	7.336166245619028e+17
19362.0	7.332996442314067e+17
19363.0	7.329476917941587e+17
19364.0	7.326166451661481e+17
19365.0	7.322849309447508e+17
19366.0	7.318919639465983e+17
19367.0	7.315438659349161e+17
19368.0	7.311977946109268e+17
19369.0	7.308443819966463e+17
19370.0	7.304873455037098e+17
19371.0	7.301237797377363e+17
19372.0	7.297578253156351e+17
19373.0	7.29381776462097e+17
19374.0	7.290011296727037e+17
19375.0	7.286123140568404e+17
19376.0	7.28214466007313e+17
19377.0	7.277540864775508e+17
19378.0	7.27305464001331e+17
19379.0	7.268450893649236e+17
19380.0	7.26418073006899e+17
19381.0	7.259793507658408e+17
19382.0	7.255257921530538e+17
19383.0	7.250682002975402e+17
19384.0	7.245988249643689e+17
19385.0	7.24118989316642e+17
19386.0	7.23634533643059e+17
19387.0	7.231405426387626e+17
19388.0	7.226366964181676e+17
19389.0	7.22107542745907e+17
19390.0	7.215155349116242e+17
19391.0	7.20370483628168e+17
19392.0	7.202994157606228e+17
19393.0	7.198218640512339e+17
19394.0	7.192661825246548e+17
19395.0	7.186871450162516e+17
19396.0	7.180828921910611e+17
19397.0	7.174635916012202e+17
19398.0	7.16825869488401e+17
19399.0	7.161551465917097e+17
19400.0	7.154984393812649e+17
19401.0	7.147949936432467e+17
19402.0	7.140559592357887e+17
19403.0	7.132489887077716e+17
19404.0	7.124978695318186e+17
19405.0	7.117215308447743e+17
19406.0	7.109186079599274e+17
19407.0	7.100867551428607e+17
19408.0	7.0920976742045e+17
19409.0	7.083465606430719e+17
19410.0	7.074438126239743e+17
19411.0	7.065125970247679e+17
19412.0	7.055565796671488e+17
19413.0	7.045266249788072e+17
19414.0	7.034991099073875e+17
19415.0	7.02437092491264e+17
19416.0	7.013267456480595e+17
19417.0	7.001689129921193e+17
19418.0	6.989670304273748e+17
19419.0	6.97716333154577e+17
19420.0	6.96414097322803e+17
19421.0	6.950593901188436e+17
19422.0	6.936598986533546e+17
19423.0	6.92190249694003e+17
19424.0	6.906515199885311e+17
19425.0	6.89058724516113e+17
19426.0	6.873932455302483e+17
19427.0	6.85639564665378e+17
19428.0	6.838076335368874e+17
19429.0	6.81859855102771e+17
19430.0	6.797775322043734e+17
19431.0	6.775873009090559e+17
19432.0	6.754168059112104e+17
19433.0	6.730334006323884e+17
19434.0	6.704758266702506e+17
19435.0	6.677740705721001e+17
19436.0	6.649072456826879e+17
19437.0	6.618566314950655e+17
19438.0	6.579438550515711e+17
19439.0	6.549744385348948e+17
19440.0	6.5126724548253e+17
19441.0	6.471520957584723e+17
19442.0	6.426468399710208e+17
19443.0	6.377020063743999e+17
19444.0	6.322229973352444e+17
19445.0	6.261020130891095e+17
19446.0	6.191883827718825e+17
19447.0	6.112800667598844e+17
19448.0	6.020908546960046e+17
19449.0	5.911579630152362e+17
19450.0	5.77329546780125e+17
19451.0	5.690487245635583e+17
19452.0	5.847453408428031e+17
19453.0	5.966169859162115e+17
19454.0	6.06356398250393e+17
19455.0	6.146169321291775e+17
19456.0	6.217510122684419e+17
19457.0	6.27997166359893e+17
19458.0	6.328005155968351e+17
19459.0	6.384434780919128e+17
19460.0	6.42963990799974e+17
19461.0	6.470222686278995e+17
19462.0	6.50737843507473e+17
19463.0	6.541333374872233e+17
19464.0	6.572765609284948e+17
19465.0	6.602018674180096e+17
19466.0	6.628913014199635e+17
19467.0	6.653888961358506e+17
19468.0	6.677533741285376e+17
19469.0	6.699651158420136e+17
19470.0	6.720139284185087e+17
19471.0	6.73946543464994e+17
19472.0	6.757806584277672e+17
19473.0	6.775210097246207e+17
19474.0	6.791331952547158e+17
19475.0	6.806402796355581e+17
19476.0	6.821043454869504e+17
19477.0	6.834653560307712e+17
19478.0	6.847648482284884e+17
19479.0	6.860038363327146e+17
19480.0	6.871661320077311e+17
19481.0	6.882750101454847e+17
19482.0	6.893343800470185e+17
19483.0	6.903407687587156e+17
19484.0	6.913002065712467e+17
19485.0	6.922111775233364e+17
19486.0	6.930724990309716e+17
19487.0	6.938863955432787e+17
19488.0	6.946492467467604e+17
19489.0	6.954072600302932e+17
19490.0	6.960938011153748e+17
19491.0	6.967992440411476e+17
19492.0	6.974490524603731e+17
19493.0	6.980698197284179e+17
19494.0	6.986648418691753e+17
19495.0	6.9923381968896e+17
19496.0	6.997626313157289e+17
19497.0	7.002752537679187e+17
19498.0	7.005775650095104e+17
19499.0	7.004323454823081e+17
19500.0	7.017593985914196e+17
19501.0	7.022325415280639e+17
19502.0	7.026472854224896e+17
19503.0	7.030360609827497e+17
19504.0	7.03406403625506e+17
19505.0	7.037605635249491e+17
19506.0	7.040985185211731e+17
19507.0	7.044172860446036e+17
19508.0	7.047097687037267e+17
19509.0	7.049882355367935e+17
19510.0	7.052372268985002e+17
19511.0	7.045907756001957e+17
19512.0	7.056580145752744e+17
19513.0	7.058754833656486e+17
19514.0	7.061630935018152e+17
19515.0	7.065887935474345e+17
19516.0	7.068257780148905e+17
19517.0	7.070327937608361e+17
19518.0	7.072396375403178e+17
19519.0	7.074280515480233e+17
19520.0	7.076051361813844e+17
19521.0	7.077755260065108e+17
19522.0	7.079307517449555e+17
19523.0	7.080862337553748e+17
19524.0	7.08278252347938e+17
19525.0	7.084639589324116e+17
19526.0	7.08603945226513e+17
19527.0	7.087212404757844e+17
19528.0	7.088298770038783e+17
19529.0	7.089327311246675e+17
19530.0	7.090291113372329e+17
19531.0	7.091190885253117e+17
19532.0	7.092031416784211e+17
19533.0	7.092814333957459e+17
19534.0	7.093540787410262e+17
19535.0	7.094208528995667e+17
19536.0	7.09521887531281e+17
19537.0	7.096015114993663e+17
19538.0	7.096459265223338e+17
19539.0	7.096985997104468e+17
19540.0	7.097770762567679e+17
19541.0	7.098191451258879e+17
19542.0	7.098546996816553e+17
19543.0	7.098854303683923e+17
19544.0	7.09912408690961e+17
19545.0	7.099149522567165e+17
19546.0	7.099267266467155e+17
19547.0	7.099984976194216e+17
19548.0	7.100217456678228e+17
19549.0	7.100193241563135e+17
19550.0	7.10024937672977e+17
19551.0	7.100229358714879e+17
19552.0	7.100184539780435e+17
19553.0	7.100108066433705e+17
19554.0	7.100015721840639e+17
19555.0	7.099907912848723e+17
19556.0	7.09978083242803e+17
19557.0	7.099622043069097e+17
19558.0	7.099442609345875e+17
19559.0	7.099242130003284e+17
19560.0	7.099333400854525e+17
19561.0	7.09912431759633e+17
19562.0	7.098871933741738e+17
19563.0	7.09858537050385e+17
19564.0	7.09827945894161e+17
19565.0	7.098060505087999e+17
19566.0	7.097730065235968e+17
19567.0	7.097369212485632e+17
19568.0	7.096970900406271e+17
19569.0	7.096581157289983e+17
19570.0	7.096162511224832e+17
19571.0	7.095712290439168e+17
19572.0	7.09521302425873e+17
19573.0	7.09472328753698e+17
19574.0	7.094157805879293e+17
19575.0	7.093807563319977e+17
19576.0	7.093373422097748e+17
19577.0	7.092801602846719e+17
19578.0	7.092206858928127e+17
19579.0	7.091605395734527e+17
19580.0	7.09099185713971e+17
19581.0	7.090610571138387e+17
19582.0	7.089974854462121e+17
19583.0	7.089318715719679e+17
19584.0	7.08864736563473e+17
19585.0	7.087903466673492e+17
19586.0	7.087188290306047e+17
19587.0	7.086529913203369e+17
19588.0	7.085677763450195e+17
19589.0	7.085080591029587e+17
19590.0	7.084323000461994e+17
19591.0	7.083591209058304e+17
19592.0	7.083130270427817e+17
19593.0	7.08242553647923e+17
19594.0	7.081516594451795e+17
19595.0	7.08082504180258e+17
19596.0	7.079865958268927e+17
19597.0	7.079336908335785e+17
19598.0	7.078387843596287e+17
19599.0	7.07767926067473e+17
19600.0	7.076835478558036e+17
19601.0	7.075949339563347e+17
19602.0	7.075065497649151e+17
19603.0	7.07406945390865e+17
19604.0	7.073534164249258e+17
19605.0	7.072702197486931e+17
19606.0	7.071958369828863e+17
19607.0	7.071073728200704e+17
19608.0	7.070173247482536e+17
19609.0	7.069250272712019e+17
19610.0	7.068355959018838e+17
19611.0	7.067436149549736e+17
19612.0	7.066518974103552e+17
19613.0	7.065581115146239e+17
19614.0	7.06462522347793e+17
19615.0	7.063694174672211e+17
19616.0	7.062692477009919e+17
19617.0	7.061771082093908e+17
19618.0	7.06061838389521e+17
19619.0	7.059797357275816e+17
19620.0	7.058901892945236e+17
19621.0	7.058141753638911e+17
19622.0	7.057182717640701e+17
19623.0	7.056195151986687e+17
19624.0	7.055197230596096e+17
19625.0	7.054187437927081e+17
19626.0	7.053157820181161e+17
19627.0	7.052084720085674e+17
19628.0	7.050912159061331e+17
19629.0	7.049649522562387e+17
19630.0	7.047076031845716e+17
19631.0	7.043540732695892e+17
19632.0	7.046386734333952e+17
19633.0	7.045835853048492e+17
19634.0	7.045178669924351e+17
19635.0	7.044451977396223e+17
19636.0	7.043493079810045e+17
19637.0	7.042232662097919e+17
19638.0	7.041404204569939e+17
19639.0	7.040340719217321e+17
19640.0	7.039212128479914e+17
19641.0	7.037951573753855e+17
19642.0	7.037143198553428e+17
19643.0	7.036063553945597e+17
19644.0	7.034945360887807e+17
19645.0	7.033812621983743e+17
19646.0	7.032802752419156e+17
19647.0	7.031725288849407e+17
19648.0	7.030655375026857e+17
19649.0	7.029557295054847e+17
19650.0	7.028456711083348e+17
19651.0	7.027352561953449e+17
19652.0	7.026245481704105e+17
19653.0	7.025135199103657e+17
19654.0	7.024023121341097e+17
19655.0	7.022906196361215e+17
19656.0	7.021788031265449e+17
19657.0	7.020679930402131e+17
19658.0	7.019676882173951e+17
19659.0	7.018551691618985e+17
19660.0	7.017424869479763e+17
19661.0	7.016294851280896e+17
19662.0	7.015160199075155e+17
19663.0	7.014007674940074e+17
19664.0	7.012877702179497e+17
19665.0	7.011752710154922e+17
19666.0	7.010610464860842e+17
