# Flux units: erg / (cm m2 s)
# Wavelength units: Angstrom
wave	flux
19000.0	5.759424002697898e+17
19001.0	5.75821921194257e+17
19002.0	5.7573028383074976e+17
19003.0	5.7562306798332576e+17
19004.0	5.755168519181651e+17
19005.0	5.7540963110748154e+17
19006.0	5.7530456008731296e+17
19007.0	5.751973242470398e+17
19008.0	5.7508599210967034e+17
19009.0	5.74972743594803e+17
19010.0	5.7481775210823654e+17
19011.0	5.747692210050388e+17
19012.0	5.7459017259854483e+17
19013.0	5.745639116417706e+17
19014.0	5.744518526315177e+17
19015.0	5.743471380572841e+17
19016.0	5.7424002350230176e+17
19017.0	5.7414099766258336e+17
19018.0	5.74031758692625e+17
19019.0	5.739287853137919e+17
19020.0	5.738221164036094e+17
19021.0	5.73718668718899e+17
19022.0	5.7361235499636045e+17
19023.0	5.735009052087636e+17
19024.0	5.733941641565523e+17
19025.0	5.7328874004589216e+17
19026.0	5.7317761426827936e+17
19027.0	5.7302120426810016e+17
19028.0	5.72977734361634e+17
19029.0	5.728698047135744e+17
19030.0	5.7276798092356256e+17
19031.0	5.7266306383435085e+17
19032.0	5.725558388293631e+17
19033.0	5.724370935392937e+17
19034.0	5.7233574146867194e+17
19035.0	5.721789884443305e+17
19036.0	5.678391776073028e+17
19037.0	5.7198513365538125e+17
19038.0	5.7191407368710816e+17
19039.0	5.7181638177587194e+17
19040.0	5.717132287410175e+17
19041.0	5.716074695054677e+17
19042.0	5.7137926553381523e+17
19043.0	5.7139968207749114e+17
19044.0	5.712929078203732e+17
19045.0	5.711857996966569e+17
19046.0	5.710757786987177e+17
19047.0	5.7097531672930976e+17
19048.0	5.708267991509673e+17
19049.0	5.7052464596473146e+17
19050.0	5.7064765693187405e+17
19051.0	5.699118598280524e+17
19052.0	5.7031343234962765e+17
19053.0	5.703429485756415e+17
19054.0	5.7024220146346656e+17
19055.0	5.7007270565423776e+17
19056.0	5.7001863820957005e+17
19057.0	5.699278552956926e+17
19058.0	5.6970257706079546e+17
19059.0	5.69673119904563e+17
19060.0	5.6961077919525536e+17
19061.0	5.6950946319564794e+17
19062.0	5.6940395862425594e+17
19063.0	5.692992656506879e+17
19064.0	5.6917911974270285e+17
19065.0	5.690676372395349e+17
19066.0	5.6893497224287565e+17
19067.0	5.6887896038877856e+17
19068.0	5.68775836574242e+17
19069.0	5.686712760008703e+17
19070.0	5.6856269329967776e+17
19071.0	5.684583335635626e+17
19072.0	5.683122090453673e+17
19073.0	5.682520611880958e+17
19074.0	5.681480732770303e+17
19075.0	5.6804345370378234e+17
19076.0	5.6793637598877e+17
19077.0	5.6783194082508794e+17
19078.0	5.6772372197976723e+17
19079.0	5.6762484713499296e+17
19080.0	5.6751885546509645e+17
19081.0	5.6740982963568614e+17
19082.0	5.673064026428756e+17
19083.0	5.671945440504489e+17
19084.0	5.6707459758161914e+17
19085.0	5.6699461765693434e+17
19086.0	5.667767778803711e+17
19087.0	5.66596477334323e+17
19088.0	5.665926024964777e+17
19089.0	5.6650621024993274e+17
19090.0	5.664642683983189e+17
19091.0	5.663558650036224e+17
19092.0	5.6614694895834464e+17
19093.0	5.661618365704874e+17
19094.0	5.66059448996113e+17
19095.0	5.659556148761941e+17
19096.0	5.658495179292671e+17
19097.0	5.6574711714283514e+17
19098.0	5.655934609828521e+17
19099.0	5.65479313698543e+17
19100.0	5.6542648294440954e+17
19101.0	5.6532774916805965e+17
19102.0	5.6521109564730016e+17
19103.0	5.6512250838166176e+17
19104.0	5.650187380151636e+17
19105.0	5.648048547954689e+17
19106.0	5.6479115095572474e+17
19107.0	5.646736967423317e+17
19108.0	5.645540627491498e+17
19109.0	5.642453983253841e+17
19110.0	5.643637442478079e+17
19111.0	5.6425589596924576e+17
19112.0	5.6414935037160083e+17
19113.0	5.64082903228962e+17
19114.0	5.6395754687692794e+17
19115.0	5.638542844406441e+17
19116.0	5.6376718811026765e+17
19117.0	5.636613887492096e+17
19118.0	5.635318564083028e+17
19119.0	5.624231665248922e+17
19120.0	5.633140942962687e+17
19121.0	5.6322399393546234e+17
19122.0	5.6314819160746643e+17
19123.0	5.630450646472021e+17
19124.0	5.629195812776617e+17
19125.0	5.6283630966319776e+17
19126.0	5.62730255847697e+17
19127.0	5.623991391748094e+17
19128.0	5.625046961050963e+17
19129.0	5.624130500733609e+17
19130.0	5.623187879144106e+17
19131.0	5.622170768113662e+17
19132.0	5.621134682051924e+17
19133.0	5.6200156892801696e+17
19134.0	5.618978916750677e+17
19135.0	5.6180239100805114e+17
19136.0	5.6170034694717434e+17
19137.0	5.615769027084287e+17
19138.0	5.614916048257023e+17
19139.0	5.613907749459285e+17
19140.0	5.612878493122558e+17
19141.0	5.611846544042666e+17
19142.0	5.610769662083071e+17
19143.0	5.609706833838079e+17
19144.0	5.608698936295423e+17
19145.0	5.607714043811156e+17
19146.0	5.605876175994881e+17
19147.0	5.605537618766506e+17
19148.0	5.604220321398784e+17
19149.0	5.603122257504937e+17
19150.0	5.602554661918036e+17
19151.0	5.601524433201835e+17
19152.0	5.6004522243959456e+17
19153.0	5.5986417237142163e+17
19154.0	5.5981937587650554e+17
19155.0	5.597381619875838e+17
19156.0	5.5963452723691514e+17
19157.0	5.594870285948246e+17
19158.0	5.592192502464511e+17
19159.0	5.593144228489898e+17
19160.0	5.592167352718677e+17
19161.0	5.591091301231273e+17
19162.0	5.58626099743949e+17
19163.0	5.5887044940922874e+17
19164.0	5.5880856979374074e+17
19165.0	5.5861317101158374e+17
19166.0	5.585804510363647e+17
19167.0	5.584674518728703e+17
19168.0	5.583982487928831e+17
19169.0	5.582931479931561e+17
19170.0	5.5819642985949856e+17
19171.0	5.580728136542889e+17
19172.0	5.5798682916399776e+17
19173.0	5.578890924436137e+17
19174.0	5.577810910030507e+17
19175.0	5.5768597558285645e+17
19176.0	5.5758324155897165e+17
19177.0	5.574601599178068e+17
19178.0	5.573612756358484e+17
19179.0	5.572431381703337e+17
19180.0	5.571702316597248e+17
19181.0	5.5705244357973325e+17
19182.0	5.5696519394754554e+17
19183.0	5.5686681221311136e+17
19184.0	5.5676417808356685e+17
19185.0	5.566604895759018e+17
19186.0	5.56559535125299e+17
19187.0	5.5644783612613965e+17
19188.0	5.563536937844734e+17
19189.0	5.5625122595908256e+17
19190.0	5.561465551454207e+17
19191.0	5.560382546509823e+17
19192.0	5.559431813136383e+17
19193.0	5.558277527393619e+17
19194.0	5.557165418872832e+17
19195.0	5.556294965177002e+17
19196.0	5.5551768525100365e+17
19197.0	5.553982980227071e+17
19198.0	5.552156244093609e+17
19199.0	5.526752278697294e+17
19200.0	5.5316576598316435e+17
19201.0	5.5492155448579405e+17
19202.0	5.548914105821866e+17
19203.0	5.547980903940094e+17
19204.0	5.5470711691892045e+17
19205.0	5.546120390377471e+17
19206.0	5.5451112687970976e+17
19207.0	5.54394358784546e+17
19208.0	5.5427701530077843e+17
19209.0	5.54205684240657e+17
19210.0	5.54104080371985e+17
19211.0	5.540041075283285e+17
19212.0	5.539009789602474e+17
19213.0	5.5376833822064634e+17
19214.0	5.5365498484817914e+17
19215.0	5.5358481337330336e+17
19216.0	5.534947588003158e+17
19217.0	5.5339091433444685e+17
19218.0	5.531881545487699e+17
19219.0	5.531692212507987e+17
19220.0	5.530837514016083e+17
19221.0	5.529478207198549e+17
19222.0	5.528826829690196e+17
19223.0	5.5278158311587834e+17
19224.0	5.5267673033932794e+17
19225.0	5.525630556831742e+17
19226.0	5.524768503627774e+17
19227.0	5.52375478788642e+17
19228.0	5.522771405351594e+17
19229.0	5.5217544166550176e+17
19230.0	5.520729126032726e+17
19231.0	5.519707637547007e+17
19232.0	5.518694718723411e+17
19233.0	5.5175978432157005e+17
19234.0	5.516651033613652e+17
19235.0	5.5156206853597856e+17
19236.0	5.51464837718562e+17
19237.0	5.5136139303976954e+17
19238.0	5.5124640927143245e+17
19239.0	5.511606514133673e+17
19240.0	5.5105891241820154e+17
19241.0	5.5095526739148794e+17
19242.0	5.508547043393534e+17
19243.0	5.507347787022335e+17
19244.0	5.5065416732508154e+17
19245.0	5.5055203147885216e+17
19246.0	5.50449355615983e+17
19247.0	5.503488899416062e+17
19248.0	5.5024791193299616e+17
19249.0	5.501425460532564e+17
19250.0	5.5002605638997325e+17
19251.0	5.4991425281283386e+17
19252.0	5.498067081319764e+17
19253.0	5.497389850820607e+17
19254.0	5.496407832133631e+17
19255.0	5.495153638768638e+17
19256.0	5.494357918482431e+17
19257.0	5.493371701996202e+17
19258.0	5.492360814613844e+17
19259.0	5.4912457966441805e+17
19260.0	5.4893180358055226e+17
19261.0	5.4893008286733645e+17
19262.0	5.488220449363285e+17
19263.0	5.487185708974079e+17
19264.0	5.485560358152873e+17
19265.0	5.484997490944681e+17
19266.0	5.4838762772889594e+17
19267.0	5.483254926103892e+17
19268.0	5.482236560976554e+17
19269.0	5.481228667628202e+17
19270.0	5.4802074783361696e+17
19271.0	5.47875947736815e+17
19272.0	5.4781499163716256e+17
19273.0	5.4767398409994234e+17
19274.0	5.475593533521919e+17
19275.0	5.475165053211989e+17
19276.0	5.4741287385606816e+17
19277.0	5.47312496681506e+17
19278.0	5.4720909359622816e+17
19279.0	5.471067831271423e+17
19280.0	5.4699861307555834e+17
19281.0	5.469060553419434e+17
19282.0	5.468050989339988e+17
19283.0	5.4667579825848326e+17
19284.0	5.465912112403796e+17
19285.0	5.464818184792745e+17
19286.0	5.463933963993087e+17
19287.0	5.46287190610193e+17
19288.0	5.450059551692108e+17
19289.0	5.432138063850106e+17
19290.0	5.4598066206583456e+17
19291.0	5.45860323709201e+17
19292.0	5.457948465692671e+17
19293.0	5.4569410819522554e+17
19294.0	5.4559186175918074e+17
19295.0	5.4549347219537914e+17
19296.0	5.4533926294650886e+17
19297.0	5.452766226939904e+17
19298.0	5.4518599482955085e+17
19299.0	5.450286711701503e+17
19300.0	5.4498518196988576e+17
19301.0	5.448838994548052e+17
19302.0	5.4477818342058656e+17
19303.0	5.446670049345535e+17
19304.0	5.445729003416234e+17
19305.0	5.4447263368697165e+17
19306.0	5.4437013503344634e+17
19307.0	5.4426064293724154e+17
19308.0	5.441601444074836e+17
19309.0	5.439730435664553e+17
19310.0	5.438397234894164e+17
19311.0	5.438408607050409e+17
19312.0	5.437547295539199e+17
19313.0	5.4364116094375245e+17
19314.0	5.3635192238462035e+17
19315.0	5.3689344981293485e+17
19316.0	5.432530691249494e+17
19317.0	5.4324641115668474e+17
19318.0	5.4314900522707616e+17
19319.0	5.430512427816277e+17
19320.0	5.429275861712894e+17
19321.0	5.428002043898538e+17
19322.0	5.4272780091610445e+17
19323.0	5.426083242792277e+17
19324.0	5.4252936357041485e+17
19325.0	5.4235838248823456e+17
19326.0	5.42328652702242e+17
19327.0	5.422317523959807e+17
19328.0	5.420369585722709e+17
19329.0	5.420313898647551e+17
19330.0	5.419242518915754e+17
19331.0	5.41813574415155e+17
19332.0	5.41715895226641e+17
19333.0	5.4161058366313805e+17
19334.0	5.4150824474269005e+17
19335.0	5.412138378067969e+17
19336.0	5.413009240009385e+17
19337.0	5.412011433263104e+17
19338.0	5.410708423092905e+17
19339.0	5.409932320265556e+17
19340.0	5.408664153576787e+17
19341.0	5.4070913049559046e+17
19342.0	5.4060796730845856e+17
19343.0	5.4057759565414394e+17
19344.0	5.404013345024683e+17
19345.0	5.400666907694416e+17
19346.0	5.401402897596414e+17
19347.0	5.4005098226210125e+17
19348.0	5.4004668072372896e+17
19349.0	5.3993405086870176e+17
19350.0	5.3979393399193594e+17
19351.0	5.3972165977265485e+17
19352.0	5.3951498432457363e+17
19353.0	5.395165116803754e+17
19354.0	5.394110626835113e+17
19355.0	5.392918889452885e+17
19356.0	5.391964019097599e+17
19357.0	5.3908496414583456e+17
19358.0	5.389759663483562e+17
19359.0	5.388422357188606e+17
19360.0	5.3868193249580365e+17
19361.0	5.386488446102185e+17
19362.0	5.3854600705693005e+17
19363.0	5.3843722302914554e+17
19364.0	5.3832790877143046e+17
19365.0	5.3821826526085114e+17
19366.0	5.3810819770613754e+17
19367.0	5.3799717874346656e+17
19368.0	5.3788694837985274e+17
19369.0	5.3776736954176845e+17
19370.0	5.3765698377919136e+17
19371.0	5.3754393337528314e+17
19372.0	5.3743751668258125e+17
19373.0	5.373212507854164e+17
19374.0	5.3720318937661434e+17
19375.0	5.3708684490615456e+17
19376.0	5.369721694191615e+17
19377.0	5.368543059815081e+17
19378.0	5.367375074776403e+17
19379.0	5.366197759508479e+17
19380.0	5.365004600257193e+17
19381.0	5.363802983191892e+17
19382.0	5.362499750024532e+17
19383.0	5.361244378759166e+17
19384.0	5.3601306155854496e+17
19385.0	5.358828430295039e+17
19386.0	5.3575272411518285e+17
19387.0	5.3562463125940883e+17
19388.0	5.3549550541646496e+17
19389.0	5.3536176667798176e+17
19390.0	5.352095037958826e+17
19391.0	5.3116572861289254e+17
19392.0	5.348136635596796e+17
19393.0	5.3479775337622176e+17
19394.0	5.346628521164799e+17
19395.0	5.344923384894805e+17
19396.0	5.343704422984362e+17
19397.0	5.3421311136890874e+17
19398.0	5.340325788079445e+17
19399.0	5.337818325494441e+17
19400.0	5.337080652278443e+17
19401.0	5.3356254392046925e+17
19402.0	5.3340008685240314e+17
19403.0	5.332012354590037e+17
19404.0	5.3301738827939834e+17
19405.0	5.3280995820612256e+17
19406.0	5.325998493706922e+17
19407.0	5.323231704296104e+17
19408.0	5.320340002220715e+17
19409.0	5.3189284623373645e+17
19410.0	5.316969935579819e+17
19411.0	5.314914134523904e+17
19412.0	5.312771726682794e+17
19413.0	5.310075375015253e+17
19414.0	5.3079777455636474e+17
19415.0	5.3055972543474336e+17
19416.0	5.3027106840029856e+17
19417.0	5.2997122620566176e+17
19418.0	5.297405069099007e+17
19419.0	5.2943365093021e+17
19420.0	5.290971800185515e+17
19421.0	5.287482917999956e+17
19422.0	5.2835523672145914e+17
19423.0	5.279274125404843e+17
19424.0	5.274792376664062e+17
19425.0	5.269224111647402e+17
19426.0	5.2629480242763085e+17
19427.0	5.2555529273562464e+17
19428.0	5.246966426501118e+17
19429.0	5.238233737374379e+17
19430.0	5.2306707990882995e+17
19431.0	5.218532326025908e+17
19432.0	5.218287772936873e+17
19433.0	5.2109619106938874e+17
19434.0	5.20215852167987e+17
19435.0	5.19034932035584e+17
19436.0	5.174956425303377e+17
19437.0	5.161563195441151e+17
19438.0	5.068414366952107e+17
19439.0	5.104300678884016e+17
19440.0	5.073980778086398e+17
19441.0	5.0535324234110285e+17
19442.0	5.0313517107336525e+17
19443.0	5.0032437558422125e+17
19444.0	4.9627937237893094e+17
19445.0	4.898926357031589e+17
19446.0	4.8184277024986515e+17
19447.0	4.753251532537852e+17
19448.0	4.665215568314375e+17
19449.0	4.514535506793812e+17
19450.0	4.1696563074608384e+17
19451.0	3.955882882061703e+17
19452.0	4.3817436408272346e+17
19453.0	4.6008119059633536e+17
19454.0	4.7101142015235354e+17
19455.0	4.7813114605513376e+17
19456.0	4.849390395064314e+17
19457.0	4.9244753523725594e+17
19458.0	4.781941389088422e+17
19459.0	4.9992039623120634e+17
19460.0	5.0267703927111674e+17
19461.0	5.045944180189866e+17
19462.0	5.070138792826187e+17
19463.0	5.103290322081112e+17
19464.0	5.127721196366501e+17
19465.0	5.145412396646404e+17
19466.0	5.157891021471745e+17
19467.0	5.1674945445778765e+17
19468.0	5.1749791514405555e+17
19469.0	5.1804233678192614e+17
19470.0	5.1866170825550496e+17
19471.0	5.191440578991445e+17
19472.0	5.195395788789076e+17
19473.0	5.2009342875293005e+17
19474.0	5.2077871112738144e+17
19475.0	5.213032246411262e+17
19476.0	5.218786635765077e+17
19477.0	5.22265277881822e+17
19478.0	5.2258202095452154e+17
19479.0	5.227780906855081e+17
19480.0	5.2302146629358925e+17
19481.0	5.2322404691258016e+17
19482.0	5.2334870281584634e+17
19483.0	5.2350180113339725e+17
19484.0	5.235842330482004e+17
19485.0	5.236734697319083e+17
19486.0	5.2368046806794246e+17
19487.0	5.23805093073169e+17
19488.0	5.238473809548628e+17
19489.0	5.238770785845247e+17
19490.0	5.2372847460351974e+17
19491.0	5.239346939210409e+17
19492.0	5.2395021711005e+17
19493.0	5.239765224565419e+17
19494.0	5.239955062958762e+17
19495.0	5.240493427042985e+17
19496.0	5.239950433146195e+17
19497.0	5.2407394285649914e+17
19498.0	5.235560977967791e+17
19499.0	5.178274456010709e+17
19500.0	5.240306319840596e+17
19501.0	5.2402668004092576e+17
19502.0	5.240279985902932e+17
19503.0	5.239960982519807e+17
19504.0	5.239531450837674e+17
19505.0	5.239120514602324e+17
19506.0	5.238835511645524e+17
19507.0	5.2382776817964365e+17
19508.0	5.237750764666879e+17
19509.0	5.2371157435460256e+17
19510.0	5.235844238890324e+17
19511.0	5.111723100296428e+17
19512.0	5.2253024562708256e+17
19513.0	5.216901930855055e+17
19514.0	5.221165390539419e+17
19515.0	5.232624481424726e+17
19516.0	5.232888733761536e+17
19517.0	5.232289734022485e+17
19518.0	5.2315907882134176e+17
19519.0	5.230849259732991e+17
19520.0	5.229642314503508e+17
19521.0	5.2296704519918925e+17
19522.0	5.2287847387190605e+17
19523.0	5.227992623437142e+17
19524.0	5.226903868101973e+17
19525.0	5.226647594030421e+17
19526.0	5.225911355266388e+17
19527.0	5.2251241046780576e+17
19528.0	5.224281858375679e+17
19529.0	5.223461381210111e+17
19530.0	5.222830991299924e+17
19531.0	5.2220288089893536e+17
19532.0	5.2212210119038285e+17
19533.0	5.2204080201727994e+17
19534.0	5.2195865223932576e+17
19535.0	5.2187404949258234e+17
19536.0	5.217885290321235e+17
19537.0	5.2170925619718816e+17
19538.0	5.215446283670869e+17
19539.0	5.2146850622341126e+17
19540.0	5.214547537996458e+17
19541.0	5.2135750368843085e+17
19542.0	5.212810279649279e+17
19543.0	5.211317166844586e+17
19544.0	5.211120214911658e+17
19545.0	5.209639063562921e+17
19546.0	5.208245675928234e+17
19547.0	5.208612513950378e+17
19548.0	5.207790387724287e+17
19549.0	5.2067939189609805e+17
19550.0	5.2060521849596576e+17
19551.0	5.205182661001215e+17
19552.0	5.204306140943701e+17
19553.0	5.203419767067989e+17
19554.0	5.20252234469649e+17
19555.0	5.201592380817407e+17
19556.0	5.200751830411946e+17
19557.0	5.1999142740404896e+17
19558.0	5.199052845787817e+17
19559.0	5.19825815310609e+17
19560.0	5.197096249808213e+17
19561.0	5.19645961597747e+17
19562.0	5.195340747636735e+17
19563.0	5.19471448981504e+17
19564.0	5.193821059022846e+17
19565.0	5.19292628954863e+17
19566.0	5.1919914784522234e+17
19567.0	5.191132202576554e+17
19568.0	5.190205873061887e+17
19569.0	5.189308452787541e+17
19570.0	5.1884292295010976e+17
19571.0	5.187527048691711e+17
19572.0	5.1865896615935994e+17
19573.0	5.185622547365887e+17
19574.0	5.1846787276035405e+17
19575.0	5.18392864973346e+17
19576.0	5.182970855249236e+17
19577.0	5.181972484369065e+17
19578.0	5.181213360783359e+17
19579.0	5.1803279991330125e+17
19580.0	5.179423863078911e+17
19581.0	5.178529281649321e+17
19582.0	5.177644254844244e+17
19583.0	5.176735862270634e+17
19584.0	5.17580791025937e+17
19585.0	5.1747647029684896e+17
19586.0	5.1737950602745165e+17
19587.0	5.172940958771881e+17
19588.0	5.1715640603443194e+17
19589.0	5.1712353135930003e+17
19590.0	5.170183205989034e+17
19591.0	5.1694388554410656e+17
19592.0	5.168537101052586e+17
19593.0	5.167533861284521e+17
19594.0	5.1663218311604883e+17
19595.0	5.1657688100809376e+17
19596.0	5.164497566171135e+17
19597.0	5.163954539418964e+17
19598.0	5.1624025211098445e+17
19599.0	5.1621368664773965e+17
19600.0	5.1612376643229005e+17
19601.0	5.1602338030987936e+17
19602.0	5.159318076085588e+17
19603.0	5.1575782081822694e+17
19604.0	5.157439518627156e+17
19605.0	5.156268053015211e+17
19606.0	5.155739106541567e+17
19607.0	5.154837907199315e+17
19608.0	5.1539010506806605e+17
19609.0	5.1529397036209485e+17
19610.0	5.15174897357073e+17
19611.0	5.1506741132656634e+17
19612.0	5.150262454211924e+17
19613.0	5.149332846848681e+17
19614.0	5.1483785595016525e+17
19615.0	5.1474986078044154e+17
19616.0	5.145905713905664e+17
19617.0	5.145161162031104e+17
19618.0	5.143929198477311e+17
19619.0	5.142751831479635e+17
19620.0	5.141834430939134e+17
19621.0	5.1413004631845536e+17
19622.0	5.1410937518052685e+17
19623.0	5.1401728916630176e+17
19624.0	5.139172549459967e+17
19625.0	5.1383720413757434e+17
19626.0	5.1374368255290016e+17
19627.0	5.136472402646356e+17
19628.0	5.134908016033792e+17
19629.0	5.132614164458153e+17
19630.0	5.1300958819669325e+17
19631.0	5.106092312887296e+17
19632.0	5.131405073842174e+17
19633.0	5.130791625424896e+17
19634.0	5.1300816513925126e+17
19635.0	5.129060882229929e+17
19636.0	5.127504317994324e+17
19637.0	5.126207439197525e+17
19638.0	5.126398686877012e+17
19639.0	5.1255473920628045e+17
19640.0	5.12451344929041e+17
19641.0	5.1220894253929856e+17
19642.0	5.1227525078056954e+17
19643.0	5.1218295386275834e+17
19644.0	5.1209034537806496e+17
19645.0	5.1197182280553805e+17
19646.0	5.1183251731688083e+17
19647.0	5.118238060969983e+17
19648.0	5.1173374131787085e+17
19649.0	5.1164192541682336e+17
19650.0	5.1155125162475514e+17
19651.0	5.1145924089828685e+17
19652.0	5.1136763869702816e+17
19653.0	5.112754249662462e+17
19654.0	5.111848262522196e+17
19655.0	5.110929359022761e+17
