# Flux units: erg / (cm m2 s)
# Wavelength units: Angstrom
wave	flux
19000.0	8.999873648350548e+17
19001.0	8.998176382692009e+17
19002.0	8.997656347716264e+17
19003.0	8.996197291961001e+17
19004.0	8.99475573064772e+17
19005.0	8.993280919688531e+17
19006.0	8.991813138382845e+17
19007.0	8.990322720418476e+17
19008.0	8.988718566910632e+17
19009.0	8.986983593061033e+17
19010.0	8.984801697944914e+17
19011.0	8.984347291243859e+17
19012.0	8.982613449856339e+17
19013.0	8.981452205064191e+17
19014.0	8.979738248871935e+17
19015.0	8.978346767548413e+17
19016.0	8.976880931001684e+17
19017.0	8.975394222200148e+17
19018.0	8.973926672979283e+17
19019.0	8.972418843060904e+17
19020.0	8.970853892314451e+17
19021.0	8.969421435437055e+17
19022.0	8.967891238693545e+17
19023.0	8.966219243716608e+17
19024.0	8.964787330700628e+17
19025.0	8.963296427595092e+17
19026.0	8.961719854432255e+17
19027.0	8.960164672219818e+17
19028.0	8.958684858854056e+17
19029.0	8.957093310627837e+17
19030.0	8.95563916780066e+17
19031.0	8.954109141625513e+17
19032.0	8.952551888825001e+17
19033.0	8.950672995822246e+17
19034.0	8.949327341464234e+17
19035.0	8.947462156845053e+17
19036.0	8.938260190811476e+17
19037.0	8.944477269218643e+17
19038.0	8.943043113648127e+17
19039.0	8.941563206609578e+17
19040.0	8.9400159516317e+17
19041.0	8.938412276274518e+17
19042.0	8.936544707892564e+17
19043.0	8.935278974599167e+17
19044.0	8.93364608172032e+17
19045.0	8.932091341307903e+17
19046.0	8.930313638685354e+17
19047.0	8.92876505690931e+17
19048.0	8.926778640127315e+17
19049.0	8.925432214017362e+17
19050.0	8.923878325048659e+17
19051.0	8.921093093283156e+17
19052.0	8.920415657263101e+17
19053.0	8.919236267911849e+17
19054.0	8.917648730838355e+17
19055.0	8.915179792935597e+17
19056.0	8.914339005551956e+17
19057.0	8.91278561850163e+17
19058.0	8.911130992137555e+17
19059.0	8.909542500160852e+17
19060.0	8.907890019882323e+17
19061.0	8.906696455181652e+17
19062.0	8.905153286853971e+17
19063.0	8.903521090229588e+17
19064.0	8.901525574604115e+17
19065.0	8.899614002380799e+17
19066.0	8.898380724611752e+17
19067.0	8.896930573363881e+17
19068.0	8.895338865754111e+17
19069.0	8.893689515824466e+17
19070.0	8.891948270092285e+17
19071.0	8.890962169648467e+17
19072.0	8.890132646767272e+17
19073.0	8.888447903902377e+17
19074.0	8.886813945670313e+17
19075.0	8.885148836342441e+17
19076.0	8.883436651544572e+17
19077.0	8.881767908551337e+17
19078.0	8.880021344441683e+17
19079.0	8.878459012339028e+17
19080.0	8.876738629074943e+17
19081.0	8.87495803657694e+17
19082.0	8.873335958011901e+17
19083.0	8.871273526460413e+17
19084.0	8.86915089825792e+17
19085.0	8.868332335093078e+17
19086.0	8.865234634670081e+17
19087.0	8.864893485361833e+17
19088.0	8.862987203553961e+17
19089.0	8.860884828247383e+17
19090.0	8.859793322147839e+17
19091.0	8.858137078180522e+17
19092.0	8.856307431899136e+17
19093.0	8.854830031656276e+17
19094.0	8.853142056381097e+17
19095.0	8.85143974916915e+17
19096.0	8.849705418446164e+17
19097.0	8.848023604603561e+17
19098.0	8.846311170943658e+17
19099.0	8.844597520935594e+17
19100.0	8.842880270816595e+17
19101.0	8.84116476273186e+17
19102.0	8.839229653472595e+17
19103.0	8.837719084673705e+17
19104.0	8.836025022065322e+17
19105.0	8.83428214195268e+17
19106.0	8.832544668297898e+17
19107.0	8.830767340366505e+17
19108.0	8.829032408459944e+17
19109.0	8.826699680579581e+17
19110.0	8.825122805426856e+17
19111.0	8.823545858970964e+17
19112.0	8.821836747199826e+17
19113.0	8.820107231537833e+17
19114.0	8.818345822388224e+17
19115.0	8.816476830739113e+17
19116.0	8.814789662168403e+17
19117.0	8.813035648974847e+17
19118.0	8.811058921035092e+17
19119.0	8.803453396582391e+17
19120.0	8.807227857742505e+17
19121.0	8.80558583666005e+17
19122.0	8.803897278376618e+17
19123.0	8.802127853912061e+17
19124.0	8.800305729415849e+17
19125.0	8.798561676296191e+17
19126.0	8.796600190457174e+17
19127.0	8.790557163083092e+17
19128.0	8.792733861456553e+17
19129.0	8.791184033972221e+17
19130.0	8.789700709974012e+17
19131.0	8.78799341433651e+17
19132.0	8.786188714377213e+17
19133.0	8.784073536656723e+17
19134.0	8.782505556224681e+17
19135.0	8.780870714392576e+17
19136.0	8.779085557093715e+17
19137.0	8.776931341587795e+17
19138.0	8.775467143615828e+17
19139.0	8.773741562210985e+17
19140.0	8.771960414666752e+17
19141.0	8.770166407386451e+17
19142.0	8.76828211351825e+17
19143.0	8.766417268637693e+17
19144.0	8.764598615627092e+17
19145.0	8.762935033025875e+17
19146.0	8.759141873658541e+17
19147.0	8.759117376126976e+17
19148.0	8.757503230388905e+17
19149.0	8.755679375043242e+17
19150.0	8.753876864510633e+17
19151.0	8.752039496515583e+17
19152.0	8.750213998400851e+17
19153.0	8.74831824569412e+17
19154.0	8.746262267778387e+17
19155.0	8.744703854553769e+17
19156.0	8.742875630141437e+17
19157.0	8.740967425944232e+17
19158.0	8.738976389835433e+17
19159.0	8.737270146968233e+17
19160.0	8.735451840686761e+17
19161.0	8.733534322338472e+17
19162.0	8.730964635855528e+17
19163.0	8.729708458584745e+17
19164.0	8.728101125794473e+17
19165.0	8.726247474113196e+17
19166.0	8.724154136133628e+17
19167.0	8.722483125420031e+17
19168.0	8.720626265096191e+17
19169.0	8.71879686907494e+17
19170.0	8.716897144362324e+17
19171.0	8.71445671514385e+17
19172.0	8.712594732176724e+17
19173.0	8.71073762578705e+17
19174.0	8.708708439687165e+17
19175.0	8.706970557786794e+17
19176.0	8.705070436013396e+17
19177.0	8.702702011809791e+17
19178.0	8.701283375164072e+17
19179.0	8.699369654059004e+17
19180.0	8.697458877355348e+17
19181.0	8.695363726038356e+17
19182.0	8.693634334807378e+17
19183.0	8.691796915082582e+17
19184.0	8.689842731526825e+17
19185.0	8.687928420422995e+17
19186.0	8.686055502905339e+17
19187.0	8.683824341494441e+17
19188.0	8.682201614210387e+17
19189.0	8.680273407377407e+17
19190.0	8.678328372996777e+17
19191.0	8.676282265676456e+17
19192.0	8.674441125604008e+17
19193.0	8.672448157319167e+17
19194.0	8.670432235006633e+17
19195.0	8.668465339913556e+17
19196.0	8.666353770692607e+17
19197.0	8.664190373855231e+17
19198.0	8.661478223642621e+17
19199.0	8.654612392662356e+17
19200.0	8.653072076461395e+17
19201.0	8.654902705608019e+17
19202.0	8.653616621551616e+17
19203.0	8.651856579745107e+17
19204.0	8.64994216657988e+17
19205.0	8.648012030367059e+17
19206.0	8.646052283766102e+17
19207.0	8.6434466772637e+17
19208.0	8.641068244052649e+17
19209.0	8.639482019796307e+17
19210.0	8.637493465317375e+17
19211.0	8.635533056016381e+17
19212.0	8.633495914719913e+17
19213.0	8.631186672145747e+17
19214.0	8.629149511275863e+17
19215.0	8.627378327999828e+17
19216.0	8.62533585294677e+17
19217.0	8.623154538042707e+17
19218.0	8.61924180186453e+17
19219.0	8.618409308018e+17
19220.0	8.616255992889343e+17
19221.0	8.613357215722154e+17
19222.0	8.61189095694882e+17
19223.0	8.609873278621011e+17
19224.0	8.60767715223142e+17
19225.0	8.605437728041641e+17
19226.0	8.603590632057513e+17
19227.0	8.601495901569024e+17
19228.0	8.599498864809298e+17
19229.0	8.597389247337811e+17
19230.0	8.595230834731689e+17
19231.0	8.593075823706112e+17
19232.0	8.590959973498879e+17
19233.0	8.588608137767594e+17
19234.0	8.586634145912147e+17
19235.0	8.584396386861056e+17
19236.0	8.582358827532288e+17
19237.0	8.579859739574268e+17
19238.0	8.577125855876434e+17
19239.0	8.575210570295977e+17
19240.0	8.572914844565501e+17
19241.0	8.570662931136512e+17
19242.0	8.568502970832212e+17
19243.0	8.565698270505641e+17
19244.0	8.563741592737107e+17
19245.0	8.560885020054867e+17
19246.0	8.55861327176226e+17
19247.0	8.556354906095616e+17
19248.0	8.554131035783167e+17
19249.0	8.55184998871859e+17
19250.0	8.549505216195241e+17
19251.0	8.546886590573222e+17
19252.0	8.543939064408745e+17
19253.0	8.542615969813843e+17
19254.0	8.540361229423956e+17
19255.0	8.537374197110098e+17
19256.0	8.535621186355199e+17
19257.0	8.533376712223401e+17
19258.0	8.531037417461076e+17
19259.0	8.52841679115605e+17
19260.0	8.526131553981778e+17
19261.0	8.523888817689939e+17
19262.0	8.521342345281536e+17
19263.0	8.518880452411391e+17
19264.0	8.51542321345331e+17
19265.0	8.51383171835494e+17
19266.0	8.511593812503209e+17
19267.0	8.509382284629331e+17
19268.0	8.506316245609128e+17
19269.0	8.503060636631039e+17
19270.0	8.500545985008977e+17
19271.0	8.497305290975916e+17
19272.0	8.495442785118889e+17
19273.0	8.489649583073961e+17
19274.0	8.487764604136101e+17
19275.0	8.488117895954431e+17
19276.0	8.485618503210323e+17
19277.0	8.483122285554344e+17
19278.0	8.480605114553684e+17
19279.0	8.477945815367679e+17
19280.0	8.47524163293457e+17
19281.0	8.4727647202618e+17
19282.0	8.470170249636522e+17
19283.0	8.467462235007656e+17
19284.0	8.464590368494931e+17
19285.0	8.461830447955967e+17
19286.0	8.457980713020073e+17
19287.0	8.45478767047475e+17
19288.0	8.449614819972434e+17
19289.0	8.444606142917284e+17
19290.0	8.446532130963455e+17
19291.0	8.442928860321111e+17
19292.0	8.44101796897314e+17
19293.0	8.438198982847145e+17
19294.0	8.435333997789183e+17
19295.0	8.432522705414825e+17
19296.0	8.429626159617364e+17
19297.0	8.426666846060544e+17
19298.0	8.423735732207616e+17
19299.0	8.420896522545832e+17
19300.0	8.417550754207059e+17
19301.0	8.412604373751124e+17
19302.0	8.409568368743764e+17
19303.0	8.406387492476243e+17
19304.0	8.403488444077394e+17
19305.0	8.40027001201186e+17
19306.0	8.396978594862417e+17
19307.0	8.393745089866408e+17
19308.0	8.390650146499241e+17
19309.0	8.387397858011814e+17
19310.0	8.384062111263401e+17
19311.0	8.381054950484649e+17
19312.0	8.377537078667945e+17
19313.0	8.371842321132202e+17
19314.0	8.36559299411968e+17
19315.0	8.362481644033368e+17
19316.0	8.361921989662036e+17
19317.0	8.35854118630195e+17
19318.0	8.355125905762985e+17
19319.0	8.351744629844649e+17
19320.0	8.348285302123178e+17
19321.0	8.3447645236538e+17
19322.0	8.341065316696064e+17
19323.0	8.337479059548841e+17
19324.0	8.33072591413794e+17
19325.0	8.327065328331433e+17
19326.0	8.3229340087965e+17
19327.0	8.318944884555776e+17
19328.0	8.315230652203007e+17
19329.0	8.31145570869794e+17
19330.0	8.307560959093418e+17
19331.0	8.30364417261568e+17
19332.0	8.299892715814911e+17
19333.0	8.295923650134015e+17
19334.0	8.28846415037508e+17
19335.0	8.284343045368489e+17
19336.0	8.280352303524521e+17
19337.0	8.276310231788204e+17
19338.0	8.271644553729364e+17
19339.0	8.268117637595133e+17
19340.0	8.263854840610815e+17
19341.0	8.258539429909843e+17
19342.0	8.253553410484904e+17
19343.0	8.248256444934825e+17
19344.0	8.241650249760767e+17
19345.0	8.233433781589326e+17
19346.0	8.230761766671698e+17
19347.0	8.228590719423828e+17
19348.0	8.224384595875155e+17
19349.0	8.219861673749162e+17
19350.0	8.215308821069821e+17
19351.0	8.2105727989405e+17
19352.0	8.204313344081919e+17
19353.0	8.198599481491455e+17
19354.0	8.192476649095165e+17
19355.0	8.187274992112982e+17
19356.0	8.18254273646865e+17
19357.0	8.177466266877948e+17
19358.0	8.172282393744724e+17
19359.0	8.166962739806204e+17
19360.0	8.161712367381161e+17
19361.0	8.156215018957485e+17
19362.0	8.148862880798034e+17
19363.0	8.143342281949181e+17
19364.0	8.137731916606122e+17
19365.0	8.1320194633018e+17
19366.0	8.126214970190506e+17
19367.0	8.120296197674323e+17
19368.0	8.114224107967828e+17
19369.0	8.1078730634909e+17
19370.0	8.100744346118826e+17
19371.0	8.09266331342165e+17
19372.0	8.086334811930624e+17
19373.0	8.079697929830397e+17
19374.0	8.073055205064703e+17
19375.0	8.066281806757885e+17
19376.0	8.05939472044305e+17
19377.0	8.052319455281151e+17
19378.0	8.045190637245779e+17
19379.0	8.036555183270565e+17
19380.0	8.027873796074153e+17
19381.0	8.020507579034284e+17
19382.0	8.01286397449557e+17
19383.0	8.005290423222271e+17
19384.0	7.997770361907881e+17
19385.0	7.989752703746048e+17
19386.0	7.98153076060979e+17
19387.0	7.973128705671167e+17
19388.0	7.964438836193965e+17
19389.0	7.952813823535785e+17
19390.0	7.943828609346217e+17
19391.0	7.930244589682682e+17
19392.0	7.925099957059581e+17
19393.0	7.915760181575679e+17
19394.0	7.905749079774547e+17
19395.0	7.89576340943667e+17
19396.0	7.885593462352552e+17
19397.0	7.875221242161833e+17
19398.0	7.864553612946088e+17
19399.0	7.852684495989417e+17
19400.0	7.842421119385599e+17
19401.0	7.831254628040701e+17
19402.0	7.819677191372797e+17
19403.0	7.807820202945194e+17
19404.0	7.79570801488691e+17
19405.0	7.782844488570196e+17
19406.0	7.769633185944915e+17
19407.0	7.756289251038548e+17
19408.0	7.741544393430358e+17
19409.0	7.728415868190719e+17
19410.0	7.713990322946045e+17
19411.0	7.699033049006076e+17
19412.0	7.683654563485012e+17
19413.0	7.667924686165331e+17
19414.0	7.651740888683858e+17
19415.0	7.635204747296765e+17
19416.0	7.61795714289937e+17
19417.0	7.600396089775444e+17
19418.0	7.581739168475817e+17
19419.0	7.562812813475837e+17
19420.0	7.543445175752019e+17
19421.0	7.523268437213183e+17
19422.0	7.502409661502803e+17
19423.0	7.481028778830504e+17
19424.0	7.458654655610881e+17
19425.0	7.435322666603862e+17
19426.0	7.411194263153321e+17
19427.0	7.386379082967722e+17
19428.0	7.360616605242708e+17
19429.0	7.333769790881791e+17
19430.0	7.305516384518143e+17
19431.0	7.275967512838143e+17
19432.0	7.246331881979901e+17
19433.0	7.214825509049686e+17
19434.0	7.18174322425856e+17
19435.0	7.147123307621032e+17
19436.0	7.111021284731565e+17
19437.0	7.07360562680081e+17
19438.0	7.031099222567593e+17
19439.0	6.992311092598102e+17
19440.0	6.949057443747155e+17
19441.0	6.903235870020946e+17
19442.0	6.855197378740225e+17
19443.0	6.804480890765311e+17
19444.0	6.751094440984573e+17
19445.0	6.694706635341825e+17
19446.0	6.635070515314687e+17
19447.0	6.57182012368486e+17
19448.0	6.504554410191533e+17
19449.0	6.432992541715114e+17
19450.0	6.354194049706661e+17
19451.0	6.30923797130991e+17
19452.0	6.393792169683625e+17
19453.0	6.465605456625665e+17
19454.0	6.532606403979942e+17
19455.0	6.595407660449792e+17
19456.0	6.654341470836054e+17
19457.0	6.709841039633062e+17
19458.0	6.76069185019358e+17
19459.0	6.811605088774829e+17
19460.0	6.858452024426493e+17
19461.0	6.902725841955497e+17
19462.0	6.944786555950422e+17
19463.0	6.984449904345085e+17
19464.0	7.022366700513962e+17
19465.0	7.058283497346391e+17
19466.0	7.092260274787667e+17
19467.0	7.12477400769058e+17
19468.0	7.155843130021204e+17
19469.0	7.185120867909628e+17
19470.0	7.213285535383551e+17
19471.0	7.240174371078144e+17
19472.0	7.265996201000956e+17
19473.0	7.290585070523731e+17
19474.0	7.314059328924332e+17
19475.0	7.33559576015667e+17
19476.0	7.357894664126463e+17
19477.0	7.378841634865152e+17
19478.0	7.398809420169216e+17
19479.0	7.417751369591464e+17
19480.0	7.435885600920915e+17
19481.0	7.453449357972819e+17
19482.0	7.470409343565824e+17
19483.0	7.486378034768553e+17
19484.0	7.502415395116372e+17
19485.0	7.517519940856489e+17
19486.0	7.531949253984255e+17
19487.0	7.545741615912274e+17
19488.0	7.559100542659242e+17
19489.0	7.571714527461377e+17
19490.0	7.582834372553385e+17
19491.0	7.596634138826067e+17
19492.0	7.60846212084531e+17
19493.0	7.619717272786259e+17
19494.0	7.630561820540927e+17
19495.0	7.641037688973994e+17
19496.0	7.650684651088552e+17
19497.0	7.661228614047059e+17
19498.0	7.669742848442367e+17
19499.0	7.672949136599718e+17
19500.0	7.688152686089556e+17
19501.0	7.696657076453375e+17
19502.0	7.704824425130664e+17
19503.0	7.712733449420799e+17
19504.0	7.720384750507347e+17
19505.0	7.727787976687615e+17
19506.0	7.735005290343081e+17
19507.0	7.741962343241044e+17
19508.0	7.748880405889021e+17
19509.0	7.755628894224384e+17
19510.0	7.761635884138496e+17
19511.0	7.762302154921297e+17
19512.0	7.772571353219071e+17
19513.0	7.779515265362598e+17
19514.0	7.786315654015657e+17
19515.0	7.792788468924415e+17
19516.0	7.798726459741526e+17
19517.0	7.803720760120659e+17
19518.0	7.808588003846825e+17
19519.0	7.813096613609472e+17
19520.0	7.817428202771795e+17
19521.0	7.821777100428627e+17
19522.0	7.826820482553175e+17
19523.0	7.83281541104708e+17
19524.0	7.836815756449106e+17
19525.0	7.84079395173171e+17
19526.0	7.844632465506305e+17
19527.0	7.848317474745002e+17
19528.0	7.851906656720211e+17
19529.0	7.855388121978196e+17
19530.0	7.85880514035712e+17
19531.0	7.863473768409769e+17
19532.0	7.867734799592105e+17
19533.0	7.870813709533183e+17
19534.0	7.87377753616111e+17
19535.0	7.876560640016383e+17
19536.0	7.879236870209535e+17
19537.0	7.881919303778301e+17
19538.0	7.884088200746326e+17
19539.0	7.88585107091183e+17
19540.0	7.890661920822611e+17
19541.0	7.893486128857085e+17
19542.0	7.895649069913428e+17
19543.0	7.897734584117928e+17
19544.0	7.899730263321257e+17
19545.0	7.900523220260178e+17
19546.0	7.901807258894335e+17
19547.0	7.905381906208084e+17
19548.0	7.908821057929217e+17
19549.0	7.910532651330217e+17
19550.0	7.914023201450668e+17
19551.0	7.915629141732009e+17
19552.0	7.917124444662441e+17
19553.0	7.918425496791721e+17
19554.0	7.919663104480595e+17
19555.0	7.920943577956351e+17
19556.0	7.92217353663283e+17
19557.0	7.923341717405696e+17
19558.0	7.927576819400707e+17
19559.0	7.929360670872915e+17
19560.0	7.930359178067965e+17
19561.0	7.932330080119466e+17
19562.0	7.933548395408041e+17
19563.0	7.934528946787668e+17
19564.0	7.935441659494397e+17
19565.0	7.936327300765012e+17
19566.0	7.937111817366185e+17
19567.0	7.939070890082305e+17
19568.0	7.942113375289343e+17
19569.0	7.942921503025833e+17
19570.0	7.943717492446548e+17
19571.0	7.944413650441556e+17
19572.0	7.944962937891497e+17
19573.0	7.945664558268416e+17
19574.0	7.946000961022633e+17
19575.0	7.946895772439892e+17
19576.0	7.948052807548928e+17
19577.0	7.949473098148524e+17
19578.0	7.951945810924884e+17
19579.0	7.952354066300928e+17
19580.0	7.952730432383658e+17
19581.0	7.953126594183165e+17
19582.0	7.95346534015522e+17
19583.0	7.953737553281024e+17
19584.0	7.95397191700753e+17
19585.0	7.953844752700755e+17
19586.0	7.953947008434173e+17
19587.0	7.954453597869396e+17
19588.0	7.954310200208042e+17
19589.0	7.957187590619135e+17
19590.0	7.957189533979987e+17
19591.0	7.957417084758697e+17
19592.0	7.957463743594493e+17
19593.0	7.957389964389033e+17
19594.0	7.956687949747538e+17
19595.0	7.957270208621225e+17
19596.0	7.956687410080426e+17
19597.0	7.957480016095914e+17
19598.0	7.956722565338451e+17
19599.0	7.957230784959827e+17
19600.0	7.957677935514964e+17
19601.0	7.958801653869225e+17
19602.0	7.958540424227496e+17
19603.0	7.95758789359479e+17
19604.0	7.95806716273186e+17
19605.0	7.957143206494208e+17
19606.0	7.957725361908394e+17
19607.0	7.957440849685162e+17
19608.0	7.957077290210644e+17
19609.0	7.956631862116352e+17
19610.0	7.956410671300608e+17
19611.0	7.956018933093715e+17
19612.0	7.955660661238442e+17
19613.0	7.95521628311825e+17
19614.0	7.954685499539455e+17
19615.0	7.955971034142036e+17
19616.0	7.955498334683133e+17
19617.0	7.9550330451613e+17
19618.0	7.953055801322152e+17
19619.0	7.952196008148991e+17
19620.0	7.951954494532264e+17
19621.0	7.952969627948372e+17
19622.0	7.952489893243562e+17
19623.0	7.951925257437181e+17
19624.0	7.951269697508691e+17
19625.0	7.950664944582653e+17
19626.0	7.949968072157866e+17
19627.0	7.949306838734166e+17
19628.0	7.948443142062079e+17
19629.0	7.947452827740841e+17
19630.0	7.945365941998932e+17
19631.0	7.940378717410644e+17
19632.0	7.945917472003411e+17
19633.0	7.946132505580883e+17
19634.0	7.945651642608297e+17
19635.0	7.944804906303485e+17
19636.0	7.944285501871444e+17
19637.0	7.942167045603328e+17
19638.0	7.942843586838527e+17
19639.0	7.942050922102781e+17
19640.0	7.941003222712319e+17
19641.0	7.93920529795209e+17
19642.0	7.939708204788392e+17
19643.0	7.938899706555049e+17
19644.0	7.93789704839714e+17
19645.0	7.936675191717888e+17
19646.0	7.936490891203923e+17
19647.0	7.935677499615914e+17
19648.0	7.934821909135357e+17
19649.0	7.933968199101096e+17
19650.0	7.933133345259519e+17
19651.0	7.932244422645076e+17
19652.0	7.931360829592915e+17
19653.0	7.930512014311424e+17
19654.0	7.929591866501802e+17
19655.0	7.928725882535935e+17
19656.0	7.928614525162836e+17
19657.0	7.927698335378088e+17
19658.0	7.926805963647658e+17
19659.0	7.926151909474303e+17
19660.0	7.925437356660054e+17
19661.0	7.924492352006825e+17
19662.0	7.923554309898237e+17
19663.0	7.922485116097875e+17
19664.0	7.921605685193385e+17
19665.0	7.920696653687464e+17
19666.0	7.919694185671338e+17
