# Flux units: erg / (cm m2 s)
# Wavelength units: Angstrom
wave	flux
19000.0	5.263451091894271e+17
19001.0	5.262357537576276e+17
19002.0	5.261550289245524e+17
19003.0	5.2605958732731725e+17
19004.0	5.259647158758057e+17
19005.0	5.258678440209066e+17
19006.0	5.257736621828778e+17
19007.0	5.256797291369812e+17
19008.0	5.2557612870970016e+17
19009.0	5.254710948790272e+17
19010.0	5.253279132243283e+17
19011.0	5.2529416648349e+17
19012.0	5.251835547178324e+17
19013.0	5.251089622368255e+17
19014.0	5.2500766986513056e+17
19015.0	5.2491267188544845e+17
19016.0	5.248171659056468e+17
19017.0	5.2472990697608525e+17
19018.0	5.2463325259584845e+17
19019.0	5.2453951339670176e+17
19020.0	5.2444375303236256e+17
19021.0	5.24351162093841e+17
19022.0	5.24255802495249e+17
19023.0	5.2415615443053216e+17
19024.0	5.2406159091083936e+17
19025.0	5.239709178178217e+17
19026.0	5.2387332391348896e+17
19027.0	5.2377384550836896e+17
19028.0	5.2368809631853216e+17
19029.0	5.235912699718313e+17
19030.0	5.235001428454058e+17
19031.0	5.2340591452050765e+17
19032.0	5.233100955058175e+17
19033.0	5.232032601516713e+17
19034.0	5.231180536348671e+17
19035.0	5.230080646534483e+17
19036.0	5.221968666864295e+17
19037.0	5.228260578645332e+17
19038.0	5.227396378656767e+17
19039.0	5.226491466656425e+17
19040.0	5.225557808993621e+17
19041.0	5.224605110588757e+17
19042.0	5.222891632547155e+17
19043.0	5.222735832328873e+17
19044.0	5.221777898733567e+17
19045.0	5.2208397769332045e+17
19046.0	5.219820411464362e+17
19047.0	5.218916360694442e+17
19048.0	5.217636997311146e+17
19049.0	5.215619754491902e+17
19050.0	5.216038933233662e+17
19051.0	5.214095959654398e+17
19052.0	5.213967535658325e+17
19053.0	5.2133055081130656e+17
19054.0	5.212370498486271e+17
19055.0	5.210895248523264e+17
19056.0	5.2103928135461536e+17
19057.0	5.20954820305442e+17
19058.0	5.207904158919336e+17
19059.0	5.207399899419988e+17
19060.0	5.206710893412351e+17
19061.0	5.2057993320420685e+17
19062.0	5.2048532319764474e+17
19063.0	5.203914455165609e+17
19064.0	5.202824315011071e+17
19065.0	5.201811446519125e+17
19066.0	5.200774345435819e+17
19067.0	5.2001503196829e+17
19068.0	5.1992288835229e+17
19069.0	5.198292519834964e+17
19070.0	5.197315182690304e+17
19071.0	5.1964062979850234e+17
19072.0	5.1952160404930554e+17
19073.0	5.194534087906644e+17
19074.0	5.1936077555957754e+17
19075.0	5.192670828473002e+17
19076.0	5.1917104635794765e+17
19077.0	5.1907696595217056e+17
19078.0	5.189801403744255e+17
19079.0	5.1889229018781005e+17
19080.0	5.1879736826484045e+17
19081.0	5.186988994286932e+17
19082.0	5.186070573132458e+17
19083.0	5.185061124396372e+17
19084.0	5.183972424286207e+17
19085.0	5.1832916104533325e+17
19086.0	5.181551070063273e+17
19087.0	5.180728891408383e+17
19088.0	5.180032366411775e+17
19089.0	5.1792734518422176e+17
19090.0	5.1785917565064525e+17
19091.0	5.177627060994047e+17
19092.0	5.1761480662166195e+17
19093.0	5.1758419729012045e+17
19094.0	5.1749131526690125e+17
19095.0	5.173981108415145e+17
19096.0	5.173028778409983e+17
19097.0	5.1721115190777165e+17
19098.0	5.1708924774754976e+17
19099.0	5.169902140784639e+17
19100.0	5.169280983236607e+17
19101.0	5.168372098531328e+17
19102.0	5.1672823155916794e+17
19103.0	5.166517364020566e+17
19104.0	5.165596008950442e+17
19105.0	5.164035175612417e+17
19106.0	5.163702825254911e+17
19107.0	5.162619492455764e+17
19108.0	5.161620265937577e+17
19109.0	5.160594929876991e+17
19110.0	5.1599503436458656e+17
19111.0	5.158903165048149e+17
19112.0	5.157940927397887e+17
19113.0	5.157218501175978e+17
19114.0	5.1561679356777805e+17
19115.0	5.1552646594559994e+17
19116.0	5.1544034129565005e+17
19117.0	5.153460681616042e+17
19118.0	5.152333664441683e+17
19119.0	5.137630493321877e+17
19120.0	5.1505786844610554e+17
19121.0	5.149736087235243e+17
19122.0	5.1488663570568525e+17
19123.0	5.1479425413283834e+17
19124.0	5.1469785029236045e+17
19125.0	5.146078119373481e+17
19126.0	5.145092075552768e+17
19127.0	5.141822983984467e+17
19128.0	5.14321009484322e+17
19129.0	5.142266657461587e+17
19130.0	5.1414406724758176e+17
19131.0	5.140531631183189e+17
19132.0	5.1396055735992314e+17
19133.0	5.138622804131839e+17
19134.0	5.1377535451135994e+17
19135.0	5.136831444156415e+17
19136.0	5.135908203746645e+17
19137.0	5.1347828978483194e+17
19138.0	5.1340377531787936e+17
19139.0	5.1331404167905274e+17
19140.0	5.1322204192767994e+17
19141.0	5.1312972634521594e+17
19142.0	5.130338295261866e+17
19143.0	5.129374253361835e+17
19144.0	5.1284713623169696e+17
19145.0	5.127599047049214e+17
19146.0	5.1258169844476595e+17
19147.0	5.125639656265044e+17
19148.0	5.1246076966993914e+17
19149.0	5.123639609393151e+17
19150.0	5.1229862018416634e+17
19151.0	5.122063554925909e+17
19152.0	5.1211394665676794e+17
19153.0	5.1197201525418656e+17
19154.0	5.119104692256767e+17
19155.0	5.118376642871294e+17
19156.0	5.1174558861885434e+17
19157.0	5.116348757704703e+17
19158.0	5.115073639656107e+17
19159.0	5.114654761506132e+17
19160.0	5.113758748420777e+17
19161.0	5.1128344622312083e+17
19162.0	5.1113869827549856e+17
19163.0	5.1109295953018874e+17
19164.0	5.1100923395222176e+17
19165.0	5.108641538856276e+17
19166.0	5.108069579795113e+17
19167.0	5.107292176733525e+17
19168.0	5.1064171134975994e+17
19169.0	5.105498993633962e+17
19170.0	5.1045924458550605e+17
19171.0	5.10364323151872e+17
19172.0	5.102751201624062e+17
19173.0	5.1018421673219405e+17
19174.0	5.100847086873258e+17
19175.0	5.100003076866046e+17
19176.0	5.0990893309624314e+17
19177.0	5.097965148438528e+17
19178.0	5.097234832730794e+17
19179.0	5.0962991576077645e+17
19180.0	5.0954124258181114e+17
19181.0	5.094302064224938e+17
19182.0	5.093565659785898e+17
19183.0	5.0926830083549856e+17
19184.0	5.091765581949611e+17
19185.0	5.0908392314634234e+17
19186.0	5.089935983203668e+17
19187.0	5.0889447775928314e+17
19188.0	5.0881033610635936e+17
19189.0	5.087196020561236e+17
19190.0	5.086277596610559e+17
19191.0	5.0853212862109005e+17
19192.0	5.084449673489065e+17
19193.0	5.0834643440981325e+17
19194.0	5.082497064894462e+17
19195.0	5.081689852914346e+17
19196.0	5.0807372775423994e+17
19197.0	5.07979493347601e+17
19198.0	5.078696810861908e+17
19199.0	5.0741683927995725e+17
19200.0	5.074043621343232e+17
19201.0	5.075988273343146e+17
19202.0	5.075248825936554e+17
19203.0	5.074363860647935e+17
19204.0	5.073449809958228e+17
19205.0	5.072563267611306e+17
19206.0	5.071649070820009e+17
19207.0	5.0705907912977056e+17
19208.0	5.069519741517823e+17
19209.0	5.068927118518954e+17
19210.0	5.0680227014464845e+17
19211.0	5.067131583113898e+17
19212.0	5.0662146565297485e+17
19213.0	5.065166353858559e+17
19214.0	5.0642364640788474e+17
19215.0	5.0634703667636896e+17
19216.0	5.0625768087442765e+17
19217.0	5.06163120710178e+17
19218.0	5.059732830158846e+17
19219.0	5.0596203773733536e+17
19220.0	5.058900004263253e+17
19221.0	5.057644293958315e+17
19222.0	5.0570843473838074e+17
19223.0	5.056189482139647e+17
19224.0	5.0552487899299834e+17
19225.0	5.054227567083519e+17
19226.0	5.053467779399679e+17
19227.0	5.052569991424683e+17
19228.0	5.0516948694685005e+17
19229.0	5.0507863734353914e+17
19230.0	5.0498704353088845e+17
19231.0	5.048957261228713e+17
19232.0	5.048057204135253e+17
19233.0	5.0470716237851296e+17
19234.0	5.046228769308671e+17
19235.0	5.045305745604607e+17
19236.0	5.044442511704062e+17
19237.0	5.043514129776639e+17
19238.0	5.0424968621588474e+17
19239.0	5.041719300412755e+17
19240.0	5.0408129106193056e+17
19241.0	5.039882974702251e+17
19242.0	5.0389854320940365e+17
19243.0	5.0378948760043514e+17
19244.0	5.037199255579306e+17
19245.0	5.0362870783453856e+17
19246.0	5.035371017185962e+17
19247.0	5.034473568250538e+17
19248.0	5.0335845953044474e+17
19249.0	5.032662541882708e+17
19250.0	5.031652652744703e+17
19251.0	5.030651256373247e+17
19252.0	5.029588386185215e+17
19253.0	5.029029985211732e+17
19254.0	5.0281676677666125e+17
19255.0	5.027009836438868e+17
19256.0	5.0263368079332685e+17
19257.0	5.02545806209843e+17
19258.0	5.0245585104186016e+17
19259.0	5.0235581332630176e+17
19260.0	5.0225456191897594e+17
19261.0	5.0218338555876685e+17
19262.0	5.0208634313550496e+17
19263.0	5.0199192977189536e+17
19264.0	5.018380933966504e+17
19265.0	5.017940371963902e+17
19266.0	5.016865624205994e+17
19267.0	5.016447004005715e+17
19268.0	5.015539963396095e+17
19269.0	5.0146430352534176e+17
19270.0	5.0137241541236045e+17
19271.0	5.0123806332682246e+17
19272.0	5.011897403310079e+17
19273.0	5.010692593680382e+17
19274.0	5.009585683999401e+17
19275.0	5.009253281213098e+17
19276.0	5.00832805130513e+17
19277.0	5.007438173787477e+17
19278.0	5.0065315260443296e+17
19279.0	5.005618345672703e+17
19280.0	5.004640889689428e+17
19281.0	5.003832520081407e+17
19282.0	5.0029573226277536e+17
19283.0	5.0020212196857165e+17
19284.0	5.001105854081706e+17
19285.0	5.0000741699420154e+17
19286.0	4.999300222287871e+17
19287.0	4.998432368361471e+17
19288.0	4.995414409347071e+17
19289.0	4.991748076645026e+17
19290.0	4.9957351652502176e+17
19291.0	4.994544012274347e+17
19292.0	4.9939866983246496e+17
19293.0	4.993086779643219e+17
19294.0	4.992179917291519e+17
19295.0	4.991304012398592e+17
19296.0	4.990099876653739e+17
19297.0	4.9894282602304845e+17
19298.0	4.9885730814907725e+17
19299.0	4.987378263392256e+17
19300.0	4.9868022603229856e+17
19301.0	4.9859200751588685e+17
19302.0	4.9850106472912205e+17
19303.0	4.984028630701396e+17
19304.0	4.983198636660053e+17
19305.0	4.982315402919934e+17
19306.0	4.9814298665069216e+17
19307.0	4.9804725459790496e+17
19308.0	4.979604930428927e+17
19309.0	4.9785968015005e+17
19310.0	4.9776410475451725e+17
19311.0	4.97687815258112e+17
19312.0	4.9760296309009056e+17
19313.0	4.975101739707051e+17
19314.0	4.955313441953091e+17
19315.0	4.9562664786985274e+17
19316.0	4.972003650611883e+17
19317.0	4.971551144629588e+17
19318.0	4.970674206539775e+17
19319.0	4.969806146393428e+17
19320.0	4.9687929248808954e+17
19321.0	4.9677498818669216e+17
19322.0	4.967032330125311e+17
19323.0	4.9661768997273594e+17
19324.0	4.9653108996833274e+17
19325.0	4.9643356135533216e+17
19326.0	4.9635347685266765e+17
19327.0	4.962632444411903e+17
19328.0	4.961198296530945e+17
19329.0	4.96086612582946e+17
19330.0	4.959925151902378e+17
19331.0	4.959006709776383e+17
19332.0	4.958181177775444e+17
19333.0	4.9572517696416416e+17
19334.0	4.956361530015743e+17
19335.0	4.9543479711935155e+17
19336.0	4.9545681413952845e+17
19337.0	4.953680316989439e+17
19338.0	4.95250320794146e+17
19339.0	4.9518862670670496e+17
19340.0	4.9506508557953696e+17
19341.0	4.9495736445829126e+17
19342.0	4.9485998334498125e+17
19343.0	4.9482784491001165e+17
19344.0	4.946938387147434e+17
19345.0	4.9435186886082515e+17
19346.0	4.9442093220058445e+17
19347.0	4.944077673289045e+17
19348.0	4.9438060983965e+17
19349.0	4.9428726036125e+17
19350.0	4.9417853875869005e+17
19351.0	4.941062002267476e+17
19352.0	4.939570711188819e+17
19353.0	4.939327131178324e+17
19354.0	4.938432337237332e+17
19355.0	4.937397308839253e+17
19356.0	4.9366267921257805e+17
19357.0	4.935727850018132e+17
19358.0	4.9348135553597434e+17
19359.0	4.933735162052607e+17
19360.0	4.932498664456192e+17
19361.0	4.9320442109187405e+17
19362.0	4.9311866603001165e+17
19363.0	4.9302813785019725e+17
19364.0	4.9293733012002125e+17
19365.0	4.928461134452053e+17
19366.0	4.927555783447892e+17
19367.0	4.926646239537833e+17
19368.0	4.925736097240405e+17
19369.0	4.924765879926783e+17
19370.0	4.92386916569361e+17
19371.0	4.9229205951829325e+17
19372.0	4.9220793338429434e+17
19373.0	4.921138506017449e+17
19374.0	4.9202348585997645e+17
19375.0	4.919316667432959e+17
19376.0	4.9183990942269434e+17
19377.0	4.9174599762793805e+17
19378.0	4.916537243380394e+17
19379.0	4.915612764951892e+17
19380.0	4.9146833386427725e+17
19381.0	4.9137398970668365e+17
19382.0	4.9127084065641805e+17
19383.0	4.9117399424696314e+17
19384.0	4.9109027118557843e+17
19385.0	4.9099803739204256e+17
19386.0	4.909036056434005e+17
19387.0	4.908081416765438e+17
19388.0	4.907117852317013e+17
19389.0	4.90612841320721e+17
19390.0	4.9051058411929594e+17
19391.0	4.8974254295394886e+17
19392.0	4.9028804434548045e+17
19393.0	4.902220302647295e+17
19394.0	4.9012380225153696e+17
19395.0	4.9000861310211405e+17
19396.0	4.899213009747968e+17
19397.0	4.8982519849506125e+17
19398.0	4.8970405888655354e+17
19399.0	4.8949640609573536e+17
19400.0	4.894845574665556e+17
19401.0	4.8940708951053645e+17
19402.0	4.8930316241687885e+17
19403.0	4.89193778254097e+17
19404.0	4.890876481721685e+17
19405.0	4.889725882073087e+17
19406.0	4.888591710814208e+17
19407.0	4.887260988877482e+17
19408.0	4.885196435707222e+17
19409.0	4.8850164965703674e+17
19410.0	4.8838500270735354e+17
19411.0	4.882629029527551e+17
19412.0	4.881313393803264e+17
19413.0	4.8797810174197754e+17
19414.0	4.878556532310015e+17
19415.0	4.8771263634254496e+17
19416.0	4.875410432415061e+17
19417.0	4.874037274607615e+17
19418.0	4.872470177076564e+17
19419.0	4.8708869531456845e+17
19420.0	4.869272947217749e+17
19421.0	4.8675733956635296e+17
19422.0	4.865715170792789e+17
19423.0	4.8638142667816954e+17
19424.0	4.861830353999189e+17
19425.0	4.859648465873578e+17
19426.0	4.857319028424703e+17
19427.0	4.854818968087209e+17
19428.0	4.852130207410858e+17
19429.0	4.849084473715369e+17
19430.0	4.845509041367722e+17
19431.0	4.840759373769387e+17
19432.0	4.837543454091945e+17
19433.0	4.832446709934763e+17
19434.0	4.8267146279867725e+17
19435.0	4.821158759235583e+17
19436.0	4.815043193470976e+17
19437.0	4.8088486825164794e+17
19438.0	4.787007880429566e+17
19439.0	4.7906246539345894e+17
19440.0	4.779887609686697e+17
19441.0	4.765027734476118e+17
19442.0	4.745903760648877e+17
19443.0	4.7255347132716365e+17
19444.0	4.704223113510911e+17
19445.0	4.675260232936106e+17
19446.0	4.6341504871956525e+17
19447.0	4.5772685960369485e+17
19448.0	4.4998797907285395e+17
19449.0	4.377103593461073e+17
19450.0	4.080516470232411e+17
19451.0	3.876041975485826e+17
19452.0	4.265569904405172e+17
19453.0	4.447132494856195e+17
19454.0	4.5374527518365e+17
19455.0	4.602364831640231e+17
19456.0	4.648917830467584e+17
19457.0	4.6812066347308346e+17
19458.0	4.640711218910658e+17
19459.0	4.720352623416675e+17
19460.0	4.7411631863016083e+17
19461.0	4.7562052432035834e+17
19462.0	4.767485122663763e+17
19463.0	4.776256358842368e+17
19464.0	4.7830844781363194e+17
19465.0	4.788584452194304e+17
19466.0	4.793034103324671e+17
19467.0	4.796613226659839e+17
19468.0	4.8005469427466234e+17
19469.0	4.803437782892542e+17
19470.0	4.807122941029033e+17
19471.0	4.809549113808213e+17
19472.0	4.8113177986771616e+17
19473.0	4.8126760785892685e+17
19474.0	4.8133602562539514e+17
19475.0	4.8133876702248954e+17
19476.0	4.815168181633023e+17
19477.0	4.815852079677439e+17
19478.0	4.816207697237332e+17
19479.0	4.8160374735066426e+17
19480.0	4.8165355617867085e+17
19481.0	4.816498472255487e+17
19482.0	4.816480171109034e+17
19483.0	4.8163637966493e+17
19484.0	4.8162379975884794e+17
19485.0	4.815961500680191e+17
19486.0	4.8154323640647686e+17
19487.0	4.815560237208917e+17
19488.0	4.8153019561629005e+17
19489.0	4.814586338694483e+17
19490.0	4.812427543008595e+17
19491.0	4.813951867726506e+17
19492.0	4.8135095000760314e+17
19493.0	4.813029758380713e+17
19494.0	4.8124767491850234e+17
19495.0	4.8118731692660045e+17
19496.0	4.810599452114943e+17
19497.0	4.8105802422026234e+17
19498.0	4.8089182387568634e+17
19499.0	4.798395798170275e+17
19500.0	4.8086367310533965e+17
19501.0	4.80804640863027e+17
19502.0	4.8073701456172365e+17
19503.0	4.806697853211989e+17
19504.0	4.8060090541233485e+17
19505.0	4.805285450001066e+17
19506.0	4.8045788607720096e+17
19507.0	4.8038078512278176e+17
19508.0	4.8030981253584205e+17
19509.0	4.8023195877376e+17
19510.0	4.8011092045769376e+17
19511.0	4.7710568842963334e+17
19512.0	4.7980896447365075e+17
19513.0	4.795715007370575e+17
19514.0	4.796091700609021e+17
19515.0	4.797118976535211e+17
19516.0	4.796929054954837e+17
19517.0	4.796136369247571e+17
19518.0	4.7953563335611725e+17
19519.0	4.794559193503061e+17
19520.0	4.793464035562836e+17
19521.0	4.793120050905087e+17
19522.0	4.7922262621989536e+17
19523.0	4.7914291445104634e+17
19524.0	4.790432068272128e+17
19525.0	4.7899092168212486e+17
19526.0	4.789131638297941e+17
19527.0	4.7883069898970445e+17
19528.0	4.787474535896403e+17
19529.0	4.786645183583572e+17
19530.0	4.7859013517311994e+17
19531.0	4.785089635068585e+17
19532.0	4.7842765196055885e+17
19533.0	4.7834620703539194e+17
19534.0	4.7826431730428576e+17
19535.0	4.781802056406355e+17
19536.0	4.780953784986282e+17
19537.0	4.7801788132229114e+17
19538.0	4.7787917995322035e+17
19539.0	4.7777807800292704e+17
19540.0	4.777680469753855e+17
19541.0	4.7768132274967885e+17
19542.0	4.776033846121813e+17
19543.0	4.774846849701205e+17
19544.0	4.774386396211882e+17
19545.0	4.7728498115433805e+17
19546.0	4.771522275180543e+17
19547.0	4.7719399369823565e+17
19548.0	4.771131273074004e+17
19549.0	4.770183280678228e+17
19550.0	4.7694911310397434e+17
19551.0	4.768667045374634e+17
19552.0	4.7678372953019725e+17
19553.0	4.766980781375487e+17
19554.0	4.766128772131498e+17
19555.0	4.7652965348365645e+17
19556.0	4.764501348625066e+17
19557.0	4.7636936563971405e+17
19558.0	4.7628668654059514e+17
19559.0	4.762041816449023e+17
19560.0	4.7610373799062176e+17
19561.0	4.760345330931029e+17
19562.0	4.7594016768436896e+17
19563.0	4.7587233019985914e+17
19564.0	4.757892309013844e+17
19565.0	4.7570569630405965e+17
19566.0	4.7561896788404896e+17
19567.0	4.75539540489011e+17
19568.0	4.7545373852084896e+17
19569.0	4.7537044600477005e+17
19570.0	4.752899389259775e+17
19571.0	4.752063479152638e+17
19572.0	4.751191049939626e+17
19573.0	4.750340393358677e+17
19574.0	4.7494334904620365e+17
19575.0	4.7487402621883725e+17
19576.0	4.747880998196563e+17
19577.0	4.7469800218514765e+17
19578.0	4.74618683073058e+17
19579.0	4.745376082253141e+17
19580.0	4.7445462538868045e+17
19581.0	4.7437280101881165e+17
19582.0	4.742919098815828e+17
19583.0	4.74208705515793e+17
19584.0	4.7412528919784096e+17
19585.0	4.7402632459496083e+17
19586.0	4.739393273200639e+17
19587.0	4.7387189975886496e+17
19588.0	4.737286341481813e+17
19589.0	4.7370575820445005e+17
19590.0	4.736080866355882e+17
19591.0	4.7354290519408634e+17
19592.0	4.734605139640319e+17
19593.0	4.7337159548818765e+17
19594.0	4.732560115149481e+17
19595.0	4.732080528643413e+17
19596.0	4.731235064610815e+17
19597.0	4.730428091706026e+17
19598.0	4.7288112399428243e+17
19599.0	4.7287691801613645e+17
19600.0	4.727956677066751e+17
19601.0	4.7270335198440096e+17
19602.0	4.7261891994583034e+17
19603.0	4.7248720258225485e+17
19604.0	4.724552572949845e+17
19605.0	4.723396385090219e+17
19606.0	4.7229592141824e+17
19607.0	4.7221435842341536e+17
19608.0	4.721291210085717e+17
19609.0	4.7204138357882874e+17
19610.0	4.719457318469632e+17
19611.0	4.718525346917034e+17
19612.0	4.7179935916578125e+17
19613.0	4.7171494327528096e+17
19614.0	4.7162805253570554e+17
19615.0	4.715498043692372e+17
19616.0	4.714419513371307e+17
19617.0	4.71351473209344e+17
19618.0	4.712117336102227e+17
19619.0	4.711039279038463e+17
19620.0	4.710305670103038e+17
19621.0	4.710097359994879e+17
19622.0	4.7096915953363616e+17
19623.0	4.708845836304383e+17
19624.0	4.7079679279322445e+17
19625.0	4.707208412179113e+17
19626.0	4.7063676164068685e+17
19627.0	4.7055365870714874e+17
19628.0	4.7046041443587405e+17
19629.0	4.702737714730323e+17
19630.0	4.702310571005268e+17
19631.0	4.698311172117845e+17
19632.0	4.701277729237675e+17
19633.0	4.700490744987647e+17
19634.0	4.6997472298052256e+17
19635.0	4.698835976716287e+17
19636.0	4.6976428097754445e+17
19637.0	4.6964140618547194e+17
19638.0	4.6964016956484256e+17
19639.0	4.695611231524181e+17
19640.0	4.69461333250321e+17
19641.0	4.69192297379704e+17
19642.0	4.6930980143540896e+17
19643.0	4.6922727605753165e+17
19644.0	4.6913901475921914e+17
19645.0	4.690293581064874e+17
19646.0	4.6893569139889485e+17
19647.0	4.689015696872789e+17
19648.0	4.688194796082517e+17
19649.0	4.68736625606656e+17
19650.0	4.6865488225675936e+17
19651.0	4.685718627898709e+17
19652.0	4.684892726799017e+17
19653.0	4.684076048973823e+17
19654.0	4.6832436865488205e+17
19655.0	4.6824108389826554e+17
