# Flux units: erg / (cm m2 s)
# Wavelength units: Angstrom
wave	flux
19000.0	6.290952029208576e+17
19001.0	6.289692542631936e+17
19002.0	6.288607864859305e+17
19003.0	6.287433512867156e+17
19004.0	6.286259710328831e+17
19005.0	6.285089604370431e+17
19006.0	6.283916755337215e+17
19007.0	6.282736295739392e+17
19008.0	6.281517117123241e+17
19009.0	6.280319981671764e+17
19010.0	6.278805656873641e+17
19011.0	6.278022219606697e+17
19012.0	6.276782844717737e+17
19013.0	6.275695456026623e+17
19014.0	6.274474823385087e+17
19015.0	6.273348776493053e+17
19016.0	6.272194081805652e+17
19017.0	6.271069036653226e+17
19018.0	6.269886460329983e+17
19019.0	6.268716295651327e+17
19020.0	6.267527922100905e+17
19021.0	6.266372935210324e+17
19022.0	6.265204279782057e+17
19023.0	6.263995165398356e+17
19024.0	6.262840920899583e+17
19025.0	6.261685906046975e+17
19026.0	6.260491699617791e+17
19027.0	6.259305068101631e+17
19028.0	6.25816508633361e+17
19029.0	6.256989104854356e+17
19030.0	6.255830615719935e+17
19031.0	6.254658307751935e+17
19032.0	6.25348224028945e+17
19033.0	6.252233844151636e+17
19034.0	6.251129214074879e+17
19035.0	6.249934855252649e+17
19036.0	6.24581648982562e+17
19037.0	6.247613229694976e+17
19038.0	6.246431631343615e+17
19039.0	6.24528133927731e+17
19040.0	6.244109662552063e+17
19041.0	6.242937355982164e+17
19042.0	6.241681727466154e+17
19043.0	6.240595160159572e+17
19044.0	6.239413095541418e+17
19045.0	6.238252337987581e+17
19046.0	6.237035562008573e+17
19047.0	6.235895999670953e+17
19048.0	6.234551679800659e+17
19049.0	6.233500592111615e+17
19050.0	6.232359798046719e+17
19051.0	6.230742841425919e+17
19052.0	6.229980396650495e+17
19053.0	6.228885538603007e+17
19054.0	6.227714648309759e+17
19055.0	6.226320730095615e+17
19056.0	6.225349025202176e+17
19057.0	6.224197390958591e+17
19058.0	6.223021560474281e+17
19059.0	6.22186436038929e+17
19060.0	6.220674807540393e+17
19061.0	6.219526354676393e+17
19062.0	6.218352476640596e+17
19063.0	6.217184917323775e+17
19064.0	6.215907414114303e+17
19065.0	6.214696246618793e+17
19066.0	6.213628943750484e+17
19067.0	6.212509545529344e+17
19068.0	6.211342087574867e+17
19069.0	6.210174222772906e+17
19070.0	6.208984386808489e+17
19071.0	6.207838061854719e+17
19072.0	6.206669911840084e+17
19073.0	6.205497194228393e+17
19074.0	6.204334189925716e+17
19075.0	6.203166437670912e+17
19076.0	6.201980459767124e+17
19077.0	6.200818543187284e+17
19078.0	6.199639899723092e+17
19079.0	6.198495237111808e+17
19080.0	6.197315189254825e+17
19081.0	6.196126249473363e+17
19082.0	6.194956748193792e+17
19083.0	6.193737970133674e+17
19084.0	6.192464643052884e+17
19085.0	6.191496732606464e+17
19086.0	6.190012622176255e+17
19087.0	6.189079146266623e+17
19088.0	6.187936003391487e+17
19089.0	6.186636455619242e+17
19090.0	6.185642167194963e+17
19091.0	6.184477854269437e+17
19092.0	6.183280270027434e+17
19093.0	6.1821712610973e+17
19094.0	6.181004717501097e+17
19095.0	6.179839473440083e+17
19096.0	6.17866201346867e+17
19097.0	6.177509920647849e+17
19098.0	6.176346297685334e+17
19099.0	6.175181582106623e+17
19100.0	6.17401241637137e+17
19101.0	6.172852991208105e+17
19102.0	6.171599217273514e+17
19103.0	6.170528237398698e+17
19104.0	6.169364715798527e+17
19105.0	6.168197306078548e+17
19106.0	6.167022577298089e+17
19107.0	6.165861777102163e+17
19108.0	6.164711215202304e+17
19109.0	6.163320688082943e+17
19110.0	6.162379170294441e+17
19111.0	6.161223986271572e+17
19112.0	6.160061880249002e+17
19113.0	6.158899736477695e+17
19114.0	6.157735938053459e+17
19115.0	6.156532750221311e+17
19116.0	6.155394379066026e+17
19117.0	6.154233784390996e+17
19118.0	6.153011624323754e+17
19119.0	6.147495619635876e+17
19120.0	6.150732531804842e+17
19121.0	6.149587902048936e+17
19122.0	6.148446591385599e+17
19123.0	6.147285519258963e+17
19124.0	6.146111225987071e+17
19125.0	6.144962590670847e+17
19126.0	6.143798805528576e+17
19127.0	6.141085653576361e+17
19128.0	6.141433476721321e+17
19129.0	6.140253990202025e+17
19130.0	6.139146847737172e+17
19131.0	6.138002123609428e+17
19132.0	6.136841704396116e+17
19133.0	6.13558279873058e+17
19134.0	6.134502189432831e+17
19135.0	6.133362924890793e+17
19136.0	6.132209668849664e+17
19137.0	6.130907630359891e+17
19138.0	6.129878404082345e+17
19139.0	6.128733143083689e+17
19140.0	6.127576066730666e+17
19141.0	6.126417755155113e+17
19142.0	6.125237861788329e+17
19143.0	6.124053846818816e+17
19144.0	6.122911349167443e+17
19145.0	6.121786213837482e+17
19146.0	6.120115637234346e+17
19147.0	6.119381051026089e+17
19148.0	6.118312911394132e+17
19149.0	6.11715615171106e+17
19150.0	6.115992058287443e+17
19151.0	6.114843137059498e+17
19152.0	6.113681776224937e+17
19153.0	6.112511655586474e+17
19154.0	6.111260577890304e+17
19155.0	6.110216480008873e+17
19156.0	6.109057730827604e+17
19157.0	6.107898647500116e+17
19158.0	6.106588912462505e+17
19159.0	6.105574169116671e+17
19160.0	6.104424029443414e+17
19161.0	6.103278112735231e+17
19162.0	6.101764045187753e+17
19163.0	6.100958841580201e+17
19164.0	6.099813886066688e+17
19165.0	6.098650232345939e+17
19166.0	6.097392487104511e+17
19167.0	6.096314941046783e+17
19168.0	6.095176946679808e+17
19169.0	6.094020110101162e+17
19170.0	6.092882625342121e+17
19171.0	6.091706433448618e+17
19172.0	6.090574095100586e+17
19173.0	6.089419526242301e+17
19174.0	6.088214506198356e+17
19175.0	6.087111853036884e+17
19176.0	6.085957725279572e+17
19177.0	6.084670591948116e+17
19178.0	6.083639420911615e+17
19179.0	6.082462307669332e+17
19180.0	6.081328418826922e+17
19181.0	6.080080677000532e+17
19182.0	6.079013609712297e+17
19183.0	6.077878649225215e+17
19184.0	6.076710502006783e+17
19185.0	6.075566307759444e+17
19186.0	6.074415962565289e+17
19187.0	6.073202957964627e+17
19188.0	6.072107363816788e+17
19189.0	6.070958816580948e+17
19190.0	6.06980399047202e+17
19191.0	6.068622274680148e+17
19192.0	6.067497832109396e+17
19193.0	6.066342037116244e+17
19194.0	6.065179715786067e+17
19195.0	6.064036786820436e+17
19196.0	6.062873432992426e+17
19197.0	6.061720066501289e+17
19198.0	6.060565030677161e+17
19199.0	6.057291961510569e+17
19200.0	6.056813099920042e+17
19201.0	6.057108104194729e+17
19202.0	6.055963726796116e+17
19203.0	6.054812742669652e+17
19204.0	6.053637060384084e+17
19205.0	6.052496578794836e+17
19206.0	6.051341222106452e+17
19207.0	6.050110281962835e+17
19208.0	6.048856574438057e+17
19209.0	6.047884352946175e+17
19210.0	6.04673469981218e+17
19211.0	6.045589241681238e+17
19212.0	6.044436110071124e+17
19213.0	6.04320104063522e+17
19214.0	6.04202125632034e+17
19215.0	6.040967531812179e+17
19216.0	6.039820393862484e+17
19217.0	6.038667573329919e+17
19218.0	6.036793844913491e+17
19219.0	6.036229213301418e+17
19220.0	6.035186251377322e+17
19221.0	6.033770550744404e+17
19222.0	6.032892431958015e+17
19223.0	6.031725538137428e+17
19224.0	6.030548970853716e+17
19225.0	6.029309126202708e+17
19226.0	6.028261962984106e+17
19227.0	6.027105473833642e+17
19228.0	6.025973852711594e+17
19229.0	6.024818379980799e+17
19230.0	6.023660012481193e+17
19231.0	6.022496748131667e+17
19232.0	6.021344101662719e+17
19233.0	6.020135956862292e+17
19234.0	6.018619570563753e+17
19235.0	6.016593293912745e+17
19236.0	6.015455746938195e+17
19237.0	6.014285253705727e+17
19238.0	6.013061892669437e+17
19239.0	6.011986849213097e+17
19240.0	6.010799582958931e+17
19241.0	6.009643709672106e+17
19242.0	6.008498851326633e+17
19243.0	6.007214534470313e+17
19244.0	6.006198911019689e+17
19245.0	6.005035234230272e+17
19246.0	6.00386493882914e+17
19247.0	6.002721306618537e+17
19248.0	6.001562572816383e+17
19249.0	6.000400095597908e+17
19250.0	5.999224465042089e+17
19251.0	5.997973776717139e+17
19252.0	5.996681579462656e+17
19253.0	5.995737052261033e+17
19254.0	5.994592399436457e+17
19255.0	5.993278422559401e+17
19256.0	5.992237305430015e+17
19257.0	5.991108983827114e+17
19258.0	5.989944666707284e+17
19259.0	5.988720228433919e+17
19260.0	5.987547726129833e+17
19261.0	5.986438840931667e+17
19262.0	5.985233864927914e+17
19263.0	5.984063393366015e+17
19264.0	5.982468739257684e+17
19265.0	5.981607080318291e+17
19266.0	5.98042336174626e+17
19267.0	5.979447754052948e+17
19268.0	5.978278382796799e+17
19269.0	5.977108218118143e+17
19270.0	5.975935304073215e+17
19271.0	5.974460173647871e+17
19272.0	5.973553425940479e+17
19273.0	5.97139272184627e+17
19274.0	5.970528679843156e+17
19275.0	5.970063203674794e+17
19276.0	5.968870848331775e+17
19277.0	5.967698888491008e+17
19278.0	5.966523936713386e+17
19279.0	5.965337500931412e+17
19280.0	5.964100618857129e+17
19281.0	5.962981352756564e+17
19282.0	5.961816475697151e+17
19283.0	5.960601330603348e+17
19284.0	5.95941863334434e+17
19285.0	5.958100583798099e+17
19286.0	5.957049111631188e+17
19287.0	5.955894009397247e+17
19288.0	5.95386053182532e+17
19289.0	5.95159402571366e+17
19290.0	5.952327989766825e+17
19291.0	5.950913998312788e+17
19292.0	5.949944252159316e+17
19293.0	5.948743254452906e+17
19294.0	5.947544720900096e+17
19295.0	5.946357431577257e+17
19296.0	5.945158218547199e+17
19297.0	5.943947542484308e+17
19298.0	5.942731965377193e+17
19299.0	5.94155272142848e+17
19300.0	5.940342517224788e+17
19301.0	5.939133420317354e+17
19302.0	5.937915323132586e+17
19303.0	5.936652611136169e+17
19304.0	5.935472451431082e+17
19305.0	5.934272275808255e+17
19306.0	5.933063524930899e+17
19307.0	5.931807635668991e+17
19308.0	5.930604258394111e+17
19309.0	5.929321130622975e+17
19310.0	5.92806530846993e+17
19311.0	5.926917434419882e+17
19312.0	5.925711230184105e+17
19313.0	5.924486659091112e+17
19314.0	5.920195957402284e+17
19315.0	5.919151676369582e+17
19316.0	5.92076769067008e+17
19317.0	5.918652872261632e+17
19318.0	5.916581188075519e+17
19319.0	5.915342834499583e+17
19320.0	5.91408469639168e+17
19321.0	5.912825111248895e+17
19322.0	5.911489559571113e+17
19323.0	5.910260561390249e+17
19324.0	5.909020072913577e+17
19325.0	5.90767553843473e+17
19326.0	5.906465108437674e+17
19327.0	5.905169018170026e+17
19328.0	5.903894668378112e+17
19329.0	5.902603636441087e+17
19330.0	5.901272741838847e+17
19331.0	5.899966300028927e+17
19332.0	5.89869600612898e+17
19333.0	5.89738858844433e+17
19334.0	5.89607040328226e+17
19335.0	5.894747660309844e+17
19336.0	5.893421320721747e+17
19337.0	5.892085178346153e+17
19338.0	5.890567925224788e+17
19339.0	5.889403593424895e+17
19340.0	5.887968368306857e+17
19341.0	5.886670157119487e+17
19342.0	5.885006456378708e+17
19343.0	5.88186212508194e+17
19344.0	5.88037370290722e+17
19345.0	5.877272751199569e+17
19346.0	5.876813677636265e+17
19347.0	5.876110346682368e+17
19348.0	5.874753320867156e+17
19349.0	5.873296820142079e+17
19350.0	5.87186360619281e+17
19351.0	5.870415278069076e+17
19352.0	5.868913792035497e+17
19353.0	5.867513630599849e+17
19354.0	5.866037573233321e+17
19355.0	5.864465002834601e+17
19356.0	5.861952298767699e+17
19357.0	5.858752141983744e+17
19358.0	5.857200195676841e+17
19359.0	5.855589392100009e+17
19360.0	5.854044086774442e+17
19361.0	5.852464127410176e+17
19362.0	5.850900107799209e+17
19363.0	5.849286037558612e+17
19364.0	5.84765740749073e+17
19365.0	5.843843129103699e+17
19366.0	5.840906989076477e+17
19367.0	5.839194544231763e+17
19368.0	5.837462849628842e+17
19369.0	5.835658216079359e+17
19370.0	5.83382626013457e+17
19371.0	5.830468456939516e+17
19372.0	5.826169634379092e+17
19373.0	5.824258295638697e+17
19374.0	5.822357095230122e+17
19375.0	5.820406989236905e+17
19376.0	5.81537918755362e+17
19377.0	5.811480584082771e+17
19378.0	5.809372789036371e+17
19379.0	5.807226627293183e+17
19380.0	5.800213637758968e+17
19381.0	5.797019278901247e+17
19382.0	5.794599770172073e+17
19383.0	5.789780937801725e+17
19384.0	5.786466153485652e+17
19385.0	5.78390529741073e+17
19386.0	5.781289809827156e+17
19387.0	5.778611541901311e+17
19388.0	5.775871600230399e+17
19389.0	5.773067099133268e+17
19390.0	5.77019446366481e+17
19391.0	5.764748685606907e+17
19392.0	5.764193891035817e+17
19393.0	5.76114750792226e+17
19394.0	5.7579693873124685e+17
19395.0	5.754716540982611e+17
19396.0	5.751381379339604e+17
19397.0	5.74789901230626e+17
19398.0	5.7443272597613216e+17
19399.0	5.7401510849413114e+17
19400.0	5.736992709017599e+17
19401.0	5.7332443643904e+17
19402.0	5.7293473589493754e+17
19403.0	5.7253141197182285e+17
19404.0	5.7211960562810874e+17
19405.0	5.716931905235626e+17
19406.0	5.712567030076756e+17
19407.0	5.7080785767410336e+17
19408.0	5.702875374157825e+17
19409.0	5.6987860193334605e+17
19410.0	5.6939713071677434e+17
19411.0	5.689003542751913e+17
19412.0	5.6838978822034765e+17
19413.0	5.6786692887019514e+17
19414.0	5.6732620493073043e+17
19415.0	5.6677528631596365e+17
19416.0	5.6619590704168954e+17
19417.0	5.655894493407913e+17
19418.0	5.6497176600466765e+17
19419.0	5.643635082483028e+17
19420.0	5.6374924802348365e+17
19421.0	5.631285294093653e+17
19422.0	5.624766176864937e+17
19423.0	5.617718612983807e+17
19424.0	5.611022897381375e+17
19425.0	5.603522831013205e+17
19426.0	5.5955692030962336e+17
19427.0	5.5870478348888723e+17
19428.0	5.5779094796697594e+17
19429.0	5.567200160470355e+17
19430.0	5.554370806546434e+17
19431.0	5.53852816746086e+17
19432.0	5.517649683415049e+17
19433.0	5.4882156210203405e+17
19434.0	5.45418056652117e+17
19435.0	5.43419753771827e+17
19436.0	5.413856234263894e+17
19437.0	5.392281483870207e+17
19438.0	5.3657507145099936e+17
19439.0	5.346286354038785e+17
19440.0	5.3206978875009683e+17
19441.0	5.292341863994705e+17
19442.0	5.2585986323906534e+17
19443.0	5.2071680417901165e+17
19444.0	5.123306641773906e+17
19445.0	5.0590705747230746e+17
19446.0	4.99165110922991e+17
19447.0	4.903959001737896e+17
19448.0	4.755825740480521e+17
19449.0	4.5584036113940454e+17
19450.0	4.117484273663996e+17
19451.0	3.9522880412712576e+17
19452.0	4.372433249239041e+17
19453.0	4.667422837571596e+17
19454.0	4.8361405013469965e+17
19455.0	4.946294290950826e+17
19456.0	5.018991165352621e+17
19457.0	5.0794095062985363e+17
19458.0	5.149018854959795e+17
19459.0	5.2221681584483014e+17
19460.0	5.260310882899283e+17
19461.0	5.288699482865661e+17
19462.0	5.313339853548203e+17
19463.0	5.3357695883455123e+17
19464.0	5.3564825071342925e+17
19465.0	5.376834833219584e+17
19466.0	5.3957841695102285e+17
19467.0	5.4130062963070285e+17
19468.0	5.437190078551377e+17
19469.0	5.469328298213382e+17
19470.0	5.491654350514862e+17
19471.0	5.5079232951637344e+17
19472.0	5.519499496609109e+17
19473.0	5.528692452578645e+17
19474.0	5.536384785143124e+17
19475.0	5.543063177570985e+17
19476.0	5.549058630352897e+17
19477.0	5.555288811066708e+17
19478.0	5.560011255534932e+17
19479.0	5.564661482476883e+17
19480.0	5.5695121824699725e+17
19481.0	5.5736492978339834e+17
19482.0	5.57771293528337e+17
19483.0	5.581724225721686e+17
19484.0	5.585637045086889e+17
19485.0	5.589814388719615e+17
19486.0	5.5935335256118605e+17
19487.0	5.597012416965289e+17
19488.0	5.6003291698080403e+17
19489.0	5.6033910347967136e+17
19490.0	5.605353858618708e+17
19491.0	5.609342209709396e+17
19492.0	5.6121157016180045e+17
19493.0	5.6147197569269754e+17
19494.0	5.6171896217709216e+17
19495.0	5.6195569337849165e+17
19496.0	5.621492721123326e+17
19497.0	5.623939958396245e+17
19498.0	5.6256808560011936e+17
19499.0	5.623868906187432e+17
19500.0	5.6296710994220365e+17
19501.0	5.6313541023498234e+17
19502.0	5.632914675641002e+17
19503.0	5.634391459321172e+17
19504.0	5.635762385059839e+17
19505.0	5.637043184992255e+17
19506.0	5.638349860984147e+17
19507.0	5.639464328800938e+17
19508.0	5.6405189480939514e+17
19509.0	5.641472389589673e+17
19510.0	5.6421788390085965e+17
19511.0	5.637698383511548e+17
19512.0	5.6432422768257696e+17
19513.0	5.6431485075674426e+17
19514.0	5.6442695296832826e+17
19515.0	5.6452694643397965e+17
19516.0	5.6461205452445e+17
19517.0	5.6464971308291405e+17
19518.0	5.646911750362453e+17
19519.0	5.648658921248085e+17
19520.0	5.6505145764085754e+17
19521.0	5.6507033655268685e+17
19522.0	5.652170391857838e+17
19523.0	5.6562321677352954e+17
19524.0	5.6561897549332474e+17
19525.0	5.656100074422271e+17
19526.0	5.657354836115455e+17
19527.0	5.6604052541494605e+17
19528.0	5.6601659348527776e+17
19529.0	5.6599090651900576e+17
19530.0	5.6596261992311456e+17
19531.0	5.6604134386346656e+17
19532.0	5.662807629146793e+17
19533.0	5.66240504586786e+17
19534.0	5.6619790227210234e+17
19535.0	5.6615289697075194e+17
19536.0	5.6610415664168954e+17
19537.0	5.660596114554879e+17
19538.0	5.661798244723372e+17
19539.0	5.662262153620138e+17
19540.0	5.662153191893674e+17
19541.0	5.661601713618944e+17
19542.0	5.661011794548052e+17
19543.0	5.660412949998249e+17
19544.0	5.6597994358702074e+17
19545.0	5.658759405065556e+17
19546.0	5.6577653291526816e+17
19547.0	5.657888513764009e+17
19548.0	5.6595373289198906e+17
19549.0	5.659010258698239e+17
19550.0	5.658391823253503e+17
19551.0	5.657684036550655e+17
19552.0	5.6569638179307514e+17
19553.0	5.6562147830442656e+17
19554.0	5.6554654300897274e+17
19555.0	5.6547408403060045e+17
19556.0	5.6540002737192954e+17
19557.0	5.653234809744042e+17
19558.0	5.6524670661645645e+17
19559.0	5.651690089523881e+17
19560.0	5.650884916674558e+17
19561.0	5.6500929999230285e+17
19562.0	5.6493212654632954e+17
19563.0	5.6485874398221645e+17
19564.0	5.649702662613674e+17
19565.0	5.648878479780522e+17
19566.0	5.648021624717311e+17
19567.0	5.6472124337247565e+17
19568.0	5.646351456359764e+17
19569.0	5.645519428780031e+17
19570.0	5.644677152418474e+17
19571.0	5.643817960428884e+17
19572.0	5.642936897940137e+17
19573.0	5.64207858955059e+17
19574.0	5.641151713378303e+17
19575.0	5.640356750863018e+17
19576.0	5.6394808466691405e+17
19577.0	5.638582521823231e+17
19578.0	5.637679001632768e+17
19579.0	5.636803082059775e+17
19580.0	5.6359122335607456e+17
19581.0	5.6350274199661216e+17
19582.0	5.6341442337614496e+17
19583.0	5.633242945639764e+17
19584.0	5.632333080166398e+17
19585.0	5.6313364051831456e+17
19586.0	5.630399893296469e+17
19587.0	5.6295927274536954e+17
19588.0	5.628282905733802e+17
19589.0	5.6277527107556685e+17
19590.0	5.626766929078954e+17
19591.0	5.625927943847935e+17
19592.0	5.624999978554709e+17
19593.0	5.624055448556885e+17
19594.0	5.6229409506809165e+17
19595.0	5.622174333272063e+17
19596.0	5.621138681320789e+17
19597.0	5.6203219049294496e+17
19598.0	5.6190599192466746e+17
19599.0	5.619131005009919e+17
19600.0	5.6190063195368096e+17
19601.0	5.6179990588293114e+17
19602.0	5.6170644930996896e+17
19603.0	5.6157769053853005e+17
19604.0	5.615160223858688e+17
19605.0	5.613993892074836e+17
19606.0	5.613293671197354e+17
19607.0	5.6123399815386445e+17
19608.0	5.6113648596855456e+17
19609.0	5.6103745418690554e+17
19610.0	5.6094602884546554e+17
19611.0	5.608491851623081e+17
19612.0	5.6075342214157645e+17
19613.0	5.606560401894058e+17
19614.0	5.6055680386553165e+17
19615.0	5.604635490385919e+17
19616.0	5.603645004797269e+17
19617.0	5.6026916947230714e+17
19618.0	5.6012212080913043e+17
19619.0	5.600194171240447e+17
19620.0	5.599265353105407e+17
19621.0	5.598881626718207e+17
19622.0	5.5979077631563085e+17
19623.0	5.596932472831999e+17
19624.0	5.595947795655338e+17
19625.0	5.594978912130388e+17
19626.0	5.5940009982689274e+17
19627.0	5.5930215744580256e+17
19628.0	5.5919912926139725e+17
19629.0	5.590984131870719e+17
19630.0	5.5899434942900896e+17
19631.0	5.586764281763156e+17
19632.0	5.588112338758313e+17
19633.0	5.5871007642091514e+17
19634.0	5.58614956876322e+17
19635.0	5.585133401451177e+17
19636.0	5.584181618802687e+17
19637.0	5.5828849448277325e+17
19638.0	5.582201917101396e+17
19639.0	5.581209836279124e+17
19640.0	5.5801412226908154e+17
19641.0	5.578461108939435e+17
19642.0	5.578252023584084e+17
19643.0	5.5772603265406285e+17
19644.0	5.5762271205676365e+17
19645.0	5.575049250952532e+17
19646.0	5.5743039392098976e+17
19647.0	5.5733138898288634e+17
19648.0	5.572323236468052e+17
19649.0	5.571329749854889e+17
19650.0	5.5703407133982714e+17
19651.0	5.5693436427523405e+17
19652.0	5.568354381900458e+17
19653.0	5.567362623340543e+17
19654.0	5.566371462468947e+17
19655.0	5.5653741981859834e+17
19656.0	5.5643787877853856e+17
19657.0	5.563391170401621e+17
19658.0	5.5623971608985594e+17
19659.0	5.56140143382801e+17
19660.0	5.560408403694932e+17
19661.0	5.5594136329256954e+17
