# Flux units: erg / (cm m2 s)
# Wavelength units: Angstrom
wave	flux
19000.0	7.038853509895508e+17
19001.0	7.036987377363625e+17
19002.0	7.036286538525354e+17
19003.0	7.034972047846057e+17
19004.0	7.033676623773696e+17
19005.0	7.032349635466579e+17
19006.0	7.031064128826026e+17
19007.0	7.02971798233634e+17
19008.0	7.028107744990548e+17
19009.0	7.026632310478163e+17
19010.0	7.023174433286821e+17
19011.0	7.024385715426644e+17
19012.0	7.022634780852221e+17
19013.0	7.021940473943379e+17
19014.0	7.020294116649641e+17
19015.0	7.019132010627072e+17
19016.0	7.017761261748223e+17
19017.0	7.016623839204692e+17
19018.0	7.015371253656233e+17
19019.0	7.014071568870057e+17
19020.0	7.012679394787327e+17
19021.0	7.011500331193684e+17
19022.0	7.010212180044458e+17
19023.0	7.008689351994025e+17
19024.0	7.007504133958313e+17
19025.0	7.006294739255293e+17
19026.0	7.004853357598036e+17
19027.0	7.003509665475242e+17
19028.0	7.00239363248401e+17
19029.0	7.000993812884137e+17
19030.0	6.999847977265834e+17
19031.0	6.998576940275027e+17
19032.0	6.997249434670419e+17
19033.0	6.995386219976019e+17
19034.0	6.994545569606313e+17
19035.0	6.993101502196393e+17
19036.0	6.973350157658792e+17
19037.0	6.990640967581693e+17
19038.0	6.989276808653481e+17
19039.0	6.988088405742932e+17
19040.0	6.986807526817791e+17
19041.0	6.985459383839402e+17
19042.0	6.983648068064595e+17
19043.0	6.982878892130303e+17
19044.0	6.981517892212052e+17
19045.0	6.980273594608297e+17
19046.0	6.978591762590378e+17
19047.0	6.977548757325139e+17
19048.0	6.97510276576051e+17
19049.0	6.974607454808745e+17
19050.0	6.973430993780735e+17
19051.0	6.969250091980113e+17
19052.0	6.970550968647679e+17
19053.0	6.969785493487615e+17
19054.0	6.968440808013823e+17
19055.0	6.965644846519639e+17
19056.0	6.965717617694036e+17
19057.0	6.964516798944595e+17
19058.0	6.963158724553386e+17
19059.0	6.961930375790592e+17
19060.0	6.960507218384212e+17
19061.0	6.959338893606911e+17
19062.0	6.957994748499284e+17
19063.0	6.956702660995753e+17
19064.0	6.954609099319978e+17
19065.0	6.953018668176724e+17
19066.0	6.952422849118207e+17
19067.0	6.951384933640873e+17
19068.0	6.95029364564514e+17
19069.0	6.949000164933631e+17
19070.0	6.947515703579987e+17
19071.0	6.946349644425897e+17
19072.0	6.945069663780864e+17
19073.0	6.943719102786217e+17
19074.0	6.942464268391764e+17
19075.0	6.941153549090815e+17
19076.0	6.939718377100627e+17
19077.0	6.93845039915554e+17
19078.0	6.936958353102163e+17
19079.0	6.935881286593193e+17
19080.0	6.934485451582121e+17
19081.0	6.933023315110568e+17
19082.0	6.931698069536768e+17
19083.0	6.929977563239763e+17
19084.0	6.927920579390124e+17
19085.0	6.927950560974164e+17
19086.0	6.92443148119791e+17
19087.0	6.924805933978966e+17
19088.0	6.923601324277759e+17
19089.0	6.921420405036374e+17
19090.0	6.921285268056746e+17
19091.0	6.919977390396756e+17
19092.0	6.918400267780093e+17
19093.0	6.917516255996585e+17
19094.0	6.916205612193108e+17
19095.0	6.914916847976445e+17
19096.0	6.913513717672617e+17
19097.0	6.912284256720212e+17
19098.0	6.91095879094545e+17
19099.0	6.909638695976959e+17
19100.0	6.908305347007828e+17
19101.0	6.907026252059988e+17
19102.0	6.905152729863508e+17
19103.0	6.90438786916898e+17
19104.0	6.903119917088768e+17
19105.0	6.901768244603561e+17
19106.0	6.900390106759168e+17
19107.0	6.899060968871252e+17
19108.0	6.897859958581929e+17
19109.0	6.894932143549094e+17
19110.0	6.895179444606291e+17
19111.0	6.893924807344127e+17
19112.0	6.892619952379219e+17
19113.0	6.89129828454673e+17
19114.0	6.889963559845887e+17
19115.0	6.888380463841279e+17
19116.0	6.887234666670761e+17
19117.0	6.885902357189972e+17
19118.0	6.884205733259946e+17
19119.0	6.862037014194829e+17
19120.0	6.881863497591465e+17
19121.0	6.880684014567423e+17
19122.0	6.879501599724884e+17
19123.0	6.878168078789289e+17
19124.0	6.876763147031892e+17
19125.0	6.875523066800809e+17
19126.0	6.87420799660851e+17
19127.0	6.862716049642835e+17
19128.0	6.870970066621779e+17
19129.0	6.869806795281747e+17
19130.0	6.868868037345279e+17
19131.0	6.867646718235988e+17
19132.0	6.866343197059753e+17
19133.0	6.864071092950358e+17
19134.0	6.863446389118292e+17
19135.0	6.862396303168852e+17
19136.0	6.861123185104212e+17
19137.0	6.858856216221012e+17
19138.0	6.858388970755412e+17
19139.0	6.857173048317268e+17
19140.0	6.855874490400767e+17
19141.0	6.854560134638249e+17
19142.0	6.853089565518506e+17
19143.0	6.851587102212096e+17
19144.0	6.850365665662294e+17
19145.0	6.849276251821396e+17
19146.0	6.844481436035757e+17
19147.0	6.846076749348863e+17
19148.0	6.845335455050409e+17
19149.0	6.844001295182506e+17
19150.0	6.842670536895146e+17
19151.0	6.841385222493524e+17
19152.0	6.840052998296915e+17
19153.0	6.838661485516116e+17
19154.0	6.836713833190739e+17
19155.0	6.836162402451456e+17
19156.0	6.83482230624529e+17
19157.0	6.833454313024169e+17
19158.0	6.831073348550652e+17
19159.0	6.830776812655955e+17
19160.0	6.829483393460906e+17
19161.0	6.828184698530474e+17
19162.0	6.824390489189037e+17
19163.0	6.825526339567615e+17
19164.0	6.824322456879104e+17
19165.0	6.822904507400191e+17
19166.0	6.820988556323497e+17
19167.0	6.820129969711785e+17
19168.0	6.818863185046185e+17
19169.0	6.817574436208639e+17
19170.0	6.816421062027945e+17
19171.0	6.81493779325474e+17
19172.0	6.813751356773716e+17
19173.0	6.812474218468691e+17
19174.0	6.810804539446614e+17
19175.0	6.809837878902783e+17
19176.0	6.808498286013097e+17
19177.0	6.806302008628564e+17
19178.0	6.805821321117696e+17
19179.0	6.804355619487743e+17
19180.0	6.803154291130367e+17
19181.0	6.801292194917033e+17
19182.0	6.800458073680553e+17
19183.0	6.799285293853354e+17
19184.0	6.797801834938367e+17
19185.0	6.796564963349844e+17
19186.0	6.795321236171433e+17
19187.0	6.793545210571433e+17
19188.0	6.792664337525417e+17
19189.0	6.791345186974377e+17
19190.0	6.790021549217108e+17
19191.0	6.788527479412052e+17
19192.0	6.787399989679444e+17
19193.0	6.786024331367764e+17
19194.0	6.784641848923476e+17
19195.0	6.783404619421012e+17
19196.0	6.781985199838548e+17
19197.0	6.780695541536084e+17
19198.0	6.779309028365651e+17
19199.0	6.763077454965413e+17
19200.0	6.766271453812058e+17
19201.0	6.775365361991679e+17
19202.0	6.774134472878761e+17
19203.0	6.772793611212116e+17
19204.0	6.771340405112831e+17
19205.0	6.770101051894442e+17
19206.0	6.768728069548712e+17
19207.0	6.766863602854568e+17
19208.0	6.764995393443154e+17
19209.0	6.764778227761151e+17
19210.0	6.763465795087018e+17
19211.0	6.762218794254333e+17
19212.0	6.760872596733951e+17
19213.0	6.758995022839807e+17
19214.0	6.757476807125674e+17
19215.0	6.75683642638336e+17
19216.0	6.755541111362899e+17
19217.0	6.754172103120211e+17
19218.0	6.748049100854605e+17
19219.0	6.750608939111763e+17
19220.0	6.750068321987242e+17
19221.0	6.746953636730198e+17
19222.0	6.747480901287935e+17
19223.0	6.746060895201962e+17
19224.0	6.744565535648425e+17
19225.0	6.742625808460456e+17
19226.0	6.74203187544064e+17
19227.0	6.740690630694227e+17
19228.0	6.73949538128145e+17
19229.0	6.738154720941396e+17
19230.0	6.736755542370985e+17
19231.0	6.735390669012991e+17
19232.0	6.734066938281983e+17
19233.0	6.732359029577044e+17
19234.0	6.73128474808593e+17
19235.0	6.729870364464468e+17
19236.0	6.728746456667475e+17
19237.0	6.727285649790291e+17
19238.0	6.725505423594836e+17
19239.0	6.724705949406548e+17
19240.0	6.723012297839955e+17
19241.0	6.72175513281058e+17
19242.0	6.720524170297343e+17
19243.0	6.718242956159657e+17
19244.0	6.717935040419156e+17
19245.0	6.716544158182057e+17
19246.0	6.715106578661375e+17
19247.0	6.713784289372842e+17
19248.0	6.712490923305641e+17
19249.0	6.711110412184234e+17
19250.0	6.709646495230633e+17
19251.0	6.707600521428991e+17
19252.0	6.705363557897555e+17
19253.0	6.705517291023018e+17
19254.0	6.704244565824852e+17
19255.0	6.701834139860988e+17
19256.0	6.701285166983849e+17
19257.0	6.700157104728746e+17
19258.0	6.698788970998441e+17
19259.0	6.696984470268585e+17
19260.0	6.695586287845375e+17
19261.0	6.694563107657044e+17
19262.0	6.692915334785705e+17
19263.0	6.69151494476049e+17
19264.0	6.687355132619428e+17
19265.0	6.687963896698194e+17
19266.0	6.686680824152064e+17
19267.0	6.686327572179625e+17
19268.0	6.684887111172096e+17
19269.0	6.683488470171647e+17
19270.0	6.682100631601151e+17
19271.0	6.678734924240216e+17
19272.0	6.679079645697363e+17
19273.0	6.667877993502028e+17
19274.0	6.670067791385932e+17
19275.0	6.675084167785129e+17
19276.0	6.673559743102975e+17
19277.0	6.672158425437524e+17
19278.0	6.670765854294015e+17
19279.0	6.669204288350889e+17
19280.0	6.667402271348052e+17
19281.0	6.666450082551123e+17
19282.0	6.665117105476947e+17
19283.0	6.663463794726227e+17
19284.0	6.661907016581119e+17
19285.0	6.659640688028329e+17
19286.0	6.659144471106899e+17
19287.0	6.657928345245012e+17
19288.0	6.65108624423867e+17
19289.0	6.643176841063063e+17
19290.0	6.653578851997012e+17
19291.0	6.650566222544899e+17
19292.0	6.650647341782356e+17
19293.0	6.649145120347476e+17
19294.0	6.647652055078227e+17
19295.0	6.646243172985514e+17
19296.0	6.644723935259305e+17
19297.0	6.64309971620113e+17
19298.0	6.641602729956692e+17
19299.0	6.64028508725794e+17
19300.0	6.638775311881556e+17
19301.0	6.637247911340714e+17
19302.0	6.635662146360659e+17
19303.0	6.633813664858111e+17
19304.0	6.63249637937425e+17
19305.0	6.631092443764052e+17
19306.0	6.629618612174845e+17
19307.0	6.627830823649279e+17
19308.0	6.626397915884201e+17
19309.0	6.624460242507091e+17
19310.0	6.622620265654953e+17
19311.0	6.62169905598737e+17
19312.0	6.620300404501161e+17
19313.0	6.618767775061331e+17
19314.0	6.603821063776945e+17
19315.0	6.602938359218189e+17
19316.0	6.614018384986111e+17
19317.0	6.612417424741716e+17
19318.0	6.610790407383721e+17
19319.0	6.609266105734484e+17
19320.0	6.607644185853951e+17
19321.0	6.606025053088425e+17
19322.0	6.603888332024489e+17
19323.0	6.602477531736746e+17
19324.0	6.601058688871081e+17
19325.0	6.598980570622633e+17
19326.0	6.597740914016255e+17
19327.0	6.595996324025684e+17
19328.0	6.594400238261588e+17
19329.0	6.592718443992404e+17
19330.0	6.59077378220578e+17
19331.0	6.589025070612479e+17
19332.0	6.587533474048681e+17
19333.0	6.585711485867348e+17
19334.0	6.584023999927636e+17
19335.0	6.582262540446377e+17
19336.0	6.580489188016127e+17
19337.0	6.578697055589715e+17
19338.0	6.575694280654844e+17
19339.0	6.575091148827306e+17
19340.0	6.572839679994536e+17
19341.0	6.571290613776381e+17
19342.0	6.567332851045713e+17
19343.0	6.567702678907562e+17
19344.0	6.565753667627689e+17
19345.0	6.553086429145751e+17
19346.0	6.55704449386632e+17
19347.0	6.559719439204351e+17
19348.0	6.558179826248361e+17
19349.0	6.556024418162004e+17
19350.0	6.554084745499988e+17
19351.0	6.551974677140818e+17
19352.0	6.549436801657513e+17
19353.0	6.547864194209107e+17
19354.0	6.545817231949823e+17
19355.0	6.543173289508864e+17
19356.0	6.541649334588756e+17
19357.0	6.539528907696809e+17
19358.0	6.537291932980564e+17
19359.0	6.534689853188778e+17
19360.0	6.532799353847807e+17
19361.0	6.530670799792809e+17
19362.0	6.528690499005098e+17
19363.0	6.526451258665641e+17
19364.0	6.524182825970346e+17
19365.0	6.52186969317922e+17
19366.0	6.519576078581759e+17
19367.0	6.517240279771817e+17
19368.0	6.51488221340194e+17
19369.0	6.512062601625597e+17
19370.0	6.50897206018048e+17
19371.0	6.507308722946047e+17
19372.0	6.505128819425279e+17
19373.0	6.502481321612627e+17
19374.0	6.500027909625172e+17
19375.0	6.497471653303636e+17
19376.0	6.494871478424916e+17
19377.0	6.491510266658815e+17
19378.0	6.488796407966378e+17
19379.0	6.486071950966783e+17
19380.0	6.483275045055146e+17
19381.0	6.48041433539106e+17
19382.0	6.477157953961984e+17
19383.0	6.474043289676458e+17
19384.0	6.471746915226963e+17
19385.0	6.468781952641706e+17
19386.0	6.465791479600468e+17
19387.0	6.462378858250239e+17
19388.0	6.458508594293417e+17
19389.0	6.455400891853482e+17
19390.0	6.452206503635625e+17
19391.0	6.433365288113472e+17
19392.0	6.445331951299238e+17
19393.0	6.442343425114111e+17
19394.0	6.437263905565353e+17
19395.0	6.433695856590847e+17
19396.0	6.430113695880531e+17
19397.0	6.426475409091242e+17
19398.0	6.421119582775976e+17
19399.0	6.412740432931494e+17
19400.0	6.412237447102463e+17
19401.0	6.407300157800449e+17
19402.0	6.401512162983936e+17
19403.0	6.397084027234985e+17
19404.0	6.389557090058239e+17
19405.0	6.38435483329058e+17
19406.0	6.376019758590633e+17
19407.0	6.369833439111846e+17
19408.0	6.355654068054705e+17
19409.0	6.350197563763363e+17
19410.0	6.339742362763261e+17
19411.0	6.327005892400461e+17
19412.0	6.312715607867391e+17
19413.0	6.301592528966996e+17
19414.0	6.293813203741354e+17
19415.0	6.285992173851988e+17
19416.0	6.277069252766377e+17
19417.0	6.269118038671359e+17
19418.0	6.260438469705727e+17
19419.0	6.251168969086291e+17
19420.0	6.241510457256617e+17
19421.0	6.231093424422911e+17
19422.0	6.220556697337855e+17
19423.0	6.210173198663679e+17
19424.0	6.199400163093164e+17
19425.0	6.187517769067177e+17
19426.0	6.175802631301801e+17
19427.0	6.162281716340054e+17
19428.0	6.14895833771759e+17
19429.0	6.133839228654931e+17
19430.0	6.116648512301741e+17
19431.0	6.094725023006726e+17
19432.0	6.074874159519062e+17
19433.0	6.04540305023523e+17
19434.0	6.005018649952268e+17
19435.0	5.965080578140836e+17
19436.0	5.937739021156351e+17
19437.0	5.910819226604884e+17
19438.0	5.862101703371439e+17
19439.0	5.847217510285312e+17
19440.0	5.812360055532202e+17
19441.0	5.771421711422803e+17
19442.0	5.7218843590437523e+17
19443.0	5.6576701240442976e+17
19444.0	5.57268424440763e+17
19445.0	5.4970135392638317e+17
19446.0	5.410279693221888e+17
19447.0	5.295398483307169e+17
19448.0	5.140630375585116e+17
19449.0	4.932099781951488e+17
19450.0	4.5956021371972026e+17
19451.0	4.4869239869275974e+17
19452.0	4.774230158387888e+17
19453.0	5.046917129393501e+17
19454.0	5.2203896246545e+17
19455.0	5.35130677724228e+17
19456.0	5.448016985762476e+17
19457.0	5.523708195460433e+17
19458.0	5.583594760175646e+17
19459.0	5.676681268996794e+17
19460.0	5.730550835489449e+17
19461.0	5.773020485036714e+17
19462.0	5.8086152194403e+17
19463.0	5.840293855231999e+17
19464.0	5.869326257793706e+17
19465.0	5.896261382526294e+17
19466.0	5.920613224939517e+17
19467.0	5.949665416926542e+17
19468.0	5.99123329880338e+17
19469.0	6.020883647474349e+17
19470.0	6.046293999397539e+17
19471.0	6.064464166824617e+17
19472.0	6.079902725963776e+17
19473.0	6.09301715764292e+17
19474.0	6.105340468090198e+17
19475.0	6.112744907123364e+17
19476.0	6.126229168761513e+17
19477.0	6.135937812310697e+17
19478.0	6.144951052839593e+17
19479.0	6.153215041077247e+17
19480.0	6.161114244404566e+17
19481.0	6.169263647053139e+17
19482.0	6.176886459727871e+17
19483.0	6.184110633167532e+17
19484.0	6.190678318339412e+17
19485.0	6.196757975968425e+17
19486.0	6.202775364960255e+17
19487.0	6.208580304764927e+17
19488.0	6.21397491720738e+17
19489.0	6.220253537938085e+17
19490.0	6.224030032636576e+17
19491.0	6.241485604607316e+17
19492.0	6.250924976635904e+17
19493.0	6.259813519807823e+17
19494.0	6.265451697580709e+17
19495.0	6.271107753574399e+17
19496.0	6.27455674583176e+17
19497.0	6.280098834896212e+17
19498.0	6.28250549087983e+17
19499.0	6.263347854966774e+17
19500.0	6.289800045439657e+17
19501.0	6.294186877080916e+17
19502.0	6.295760828104703e+17
19503.0	6.297277164770644e+17
19504.0	6.300298444974761e+17
19505.0	6.302087498082985e+17
19506.0	6.303372512591871e+17
19507.0	6.304395173385556e+17
19508.0	6.306142871355391e+17
19509.0	6.308073313752404e+17
19510.0	6.307890791623337e+17
19511.0	6.283036999374156e+17
19512.0	6.306480403775483e+17
19513.0	6.302587444439711e+17
19514.0	6.306562318532602e+17
19515.0	6.311058940974424e+17
19516.0	6.31423136502033e+17
19517.0	6.314555341449897e+17
19518.0	6.315410483838975e+17
19519.0	6.315858826974548e+17
19520.0	6.316143891447808e+17
19521.0	6.316732676658516e+17
19522.0	6.316884925000361e+17
19523.0	6.317436115266218e+17
19524.0	6.317699099525119e+17
19525.0	6.317823225058644e+17
19526.0	6.318579310570153e+17
19527.0	6.318859159426388e+17
19528.0	6.318990406189055e+17
19529.0	6.319050739154944e+17
19530.0	6.319161994466644e+17
19531.0	6.319216886721193e+17
19532.0	6.319197390897151e+17
19533.0	6.319180082402644e+17
19534.0	6.319096482933418e+17
19535.0	6.318903586892457e+17
19536.0	6.318668637361491e+17
19537.0	6.318732773163007e+17
19538.0	6.317933129105409e+17
19539.0	6.315371752237745e+17
19540.0	6.317978496095572e+17
19541.0	6.317892026324308e+17
19542.0	6.317603491064489e+17
19543.0	6.317302993649663e+17
19544.0	6.317020830236671e+17
19545.0	6.313970658268498e+17
19546.0	6.311440313658028e+17
19547.0	6.316016748811604e+17
19548.0	6.315622494022313e+17
19549.0	6.314635670061055e+17
19550.0	6.314798112658772e+17
19551.0	6.31437035376913e+17
19552.0	6.313898816831487e+17
19553.0	6.313283534804308e+17
19554.0	6.312795904322218e+17
19555.0	6.312662877077501e+17
19556.0	6.312207853813759e+17
19557.0	6.311651217244159e+17
19558.0	6.311085118324733e+17
19559.0	6.310489397133311e+17
19560.0	6.309781335004502e+17
19561.0	6.30916930146577e+17
19562.0	6.308681409538729e+17
19563.0	6.308098470488746e+17
19564.0	6.30744129016081e+17
19565.0	6.306790049666388e+17
19566.0	6.305949316109652e+17
19567.0	6.305460610487636e+17
19568.0	6.304595949125631e+17
19569.0	6.303942449998506e+17
19570.0	6.303361577342291e+17
19571.0	6.302621003765076e+17
19572.0	6.301708637088425e+17
19573.0	6.301048926896127e+17
19574.0	6.299888945288532e+17
19575.0	6.299655459569663e+17
19576.0	6.298889917999785e+17
19577.0	6.297955500468906e+17
19578.0	6.297084697247743e+17
19579.0	6.296378956666195e+17
19580.0	6.295580240947881e+17
19581.0	6.294848116796074e+17
19582.0	6.294125540977321e+17
19583.0	6.293299665043455e+17
19584.0	6.292419079307263e+17
19585.0	6.290973155917823e+17
19586.0	6.289946274955264e+17
19587.0	6.289813216952319e+17
19588.0	6.286371192832003e+17
19589.0	6.288041077374975e+17
19590.0	6.286796135246505e+17
19591.0	6.286388804015444e+17
19592.0	6.285538274661716e+17
19593.0	6.284531366275754e+17
19594.0	6.282367740149756e+17
19595.0	6.282588564662953e+17
19596.0	6.28058958524143e+17
19597.0	6.280908562759679e+17
19598.0	6.27818537104179e+17
19599.0	6.279156186742783e+17
19600.0	6.278268638461951e+17
19601.0	6.276943870339756e+17
19602.0	6.2761001301661e+17
19603.0	6.272965968658428e+17
19604.0	6.274179203945812e+17
19605.0	6.271791126631766e+17
19606.0	6.272558663292244e+17
19607.0	6.271616716985684e+17
19608.0	6.270591253697875e+17
19609.0	6.26939329965807e+17
19610.0	6.268752139474259e+17
19611.0	6.267721648614057e+17
19612.0	6.266822496092159e+17
19613.0	6.265777309788841e+17
19614.0	6.264613150654463e+17
19615.0	6.263859496441172e+17
19616.0	6.262742845489151e+17
19617.0	6.261860627469652e+17
19618.0	6.257594256239269e+17
19619.0	6.255902661279736e+17
19620.0	6.255024256581628e+17
19621.0	6.257827133784063e+17
19622.0	6.256873446921556e+17
19623.0	6.255878473427626e+17
19624.0	6.254807641751551e+17
19625.0	6.253851780142419e+17
19626.0	6.252761465225215e+17
19627.0	6.251809587505833e+17
19628.0	6.250360698044416e+17
19629.0	6.249204844331005e+17
19630.0	6.247639725113343e+17
19631.0	6.231541094372694e+17
19632.0	6.246603025285119e+17
19633.0	6.24536020128017e+17
19634.0	6.244608550546089e+17
19635.0	6.243338474050899e+17
19636.0	6.242468372676605e+17
19637.0	6.23920148241886e+17
19638.0	6.240381194032468e+17
19639.0	6.239315034111999e+17
19640.0	6.237757420601345e+17
19641.0	6.233096031218354e+17
19642.0	6.236206947194196e+17
19643.0	6.235124639902377e+17
19644.0	6.233794259102377e+17
19645.0	6.23152535454788e+17
19646.0	6.232054387703807e+17
19647.0	6.231012366701908e+17
19648.0	6.229927704308394e+17
19649.0	6.228849840182612e+17
19650.0	6.227830065070079e+17
19651.0	6.226737013369513e+17
19652.0	6.225654820722004e+17
19653.0	6.224628461251241e+17
19654.0	6.223509892104192e+17
19655.0	6.222409783487146e+17
19656.0	6.221395187641002e+17
19657.0	6.220325979859625e+17
19658.0	6.219289143716521e+17
19659.0	6.218211402623657e+17
19660.0	6.217164556774057e+17
19661.0	6.21606404760098e+17
19662.0	6.215016219585194e+17
19663.0	6.213655282581504e+17
19664.0	6.212765394578089e+17
19665.0	6.211788330063188e+17
