# Flux units: erg / (cm m2 s)
# Wavelength units: Angstrom
wave	flux
19000.0	5.5775588680116896e+17
19001.0	5.5765247169221965e+17
19002.0	5.57551750165299e+17
19003.0	5.574496571009706e+17
19004.0	5.573476129002837e+17
19005.0	5.572456322433023e+17
19006.0	5.5714362327476896e+17
19007.0	5.570416180811092e+17
19008.0	5.569388894399145e+17
19009.0	5.5683624741109754e+17
19010.0	5.567291732612436e+17
19011.0	5.566333743792126e+17
19012.0	5.5653007985650336e+17
19013.0	5.564301212734805e+17
19014.0	5.563282767216639e+17
19015.0	5.562262453136042e+17
19016.0	5.561237581944147e+17
19017.0	5.5602276718346234e+17
19018.0	5.559210224560809e+17
19019.0	5.5581930016822605e+17
19020.0	5.557175541825536e+17
19021.0	5.5561583525014176e+17
19022.0	5.555141412738389e+17
19023.0	5.554124441518079e+17
19024.0	5.5531061239261856e+17
19025.0	5.552090848602794e+17
19026.0	5.5510709504573434e+17
19027.0	5.550048611226963e+17
19028.0	5.5490431051366394e+17
19029.0	5.548027500560383e+17
19030.0	5.5470121728081914e+17
19031.0	5.545996829676884e+17
19032.0	5.544981596995583e+17
19033.0	5.5439540896836256e+17
19034.0	5.5429504689329485e+17
19035.0	5.541926212905642e+17
19036.0	5.5401936437903334e+17
19037.0	5.539900627615743e+17
19038.0	5.5388939666937165e+17
19039.0	5.537881362442921e+17
19040.0	5.536868222719317e+17
19041.0	5.53585509348147e+17
19042.0	5.5348008747444896e+17
19043.0	5.5338292670190925e+17
19044.0	5.5328163118448634e+17
19045.0	5.531803948067497e+17
19046.0	5.5307846790676474e+17
19047.0	5.529776012569258e+17
19048.0	5.5287354840405325e+17
19049.0	5.5276854281502714e+17
19050.0	5.52673687581491e+17
19051.0	5.525624777080831e+17
19052.0	5.5246979323658234e+17
19053.0	5.5237106896732154e+17
19054.0	5.5227007096586234e+17
19055.0	5.5216476059074554e+17
19056.0	5.5206774501102925e+17
19057.0	5.519670302649002e+17
19058.0	5.518628453613567e+17
19059.0	5.5176383657847456e+17
19060.0	5.5166386058909e+17
19061.0	5.515632120430591e+17
19062.0	5.5146224172400634e+17
19063.0	5.513613676642304e+17
19064.0	5.5125915701957965e+17
19065.0	5.5115742117014176e+17
19066.0	5.510569887006719e+17
19067.0	5.5095809931564365e+17
19068.0	5.5085731704122016e+17
19069.0	5.5075657167667194e+17
19070.0	5.5065571900784634e+17
19071.0	5.505551209332735e+17
19072.0	5.5045322870620154e+17
19073.0	5.503536890642431e+17
19074.0	5.5025309057024e+17
19075.0	5.501524581023742e+17
19076.0	5.5005159306035194e+17
19077.0	5.4995098953318394e+17
19078.0	5.4985028093870086e+17
19079.0	5.497501192814592e+17
19080.0	5.496495422483113e+17
19081.0	5.495485579482453e+17
19082.0	5.49448068436241e+17
19083.0	5.493470761669973e+17
19084.0	5.4924486482329594e+17
19085.0	5.4914720332076365e+17
19086.0	5.490405051902634e+17
19087.0	5.489423399518207e+17
19088.0	5.488432809071958e+17
19089.0	5.4874279293310285e+17
19090.0	5.486452325832021e+17
19091.0	5.4854451769726285e+17
19092.0	5.4844145861481805e+17
19093.0	5.48344521957922e+17
19094.0	5.482443108777984e+17
19095.0	5.481440965820415e+17
19096.0	5.4804369291345914e+17
19097.0	5.479436754004649e+17
19098.0	5.4784223993309856e+17
19099.0	5.477418492668585e+17
19100.0	5.47643081167121e+17
19101.0	5.4754313006394016e+17
19102.0	5.474414964157098e+17
19103.0	5.473430697323179e+17
19104.0	5.4724304047527245e+17
19105.0	5.471401368616958e+17
19106.0	5.4704274204699296e+17
19107.0	5.469421092296021e+17
19108.0	5.468418736127998e+17
19109.0	5.467393070115498e+17
19110.0	5.4664271253995514e+17
19111.0	5.4654251180578125e+17
19112.0	5.4644251211857914e+17
19113.0	5.4634365272282445e+17
19114.0	5.4624325527579296e+17
19115.0	5.461434702670507e+17
19116.0	5.460441811648511e+17
19117.0	5.4594410374321485e+17
19118.0	5.458427402081619e+17
19119.0	5.4562644603262266e+17
19120.0	5.4564425274053965e+17
19121.0	5.4554506283362976e+17
19122.0	5.45445928710963e+17
19123.0	5.453463095170387e+17
19124.0	5.4524667920820896e+17
19125.0	5.4514701974896634e+17
19126.0	5.450469890938196e+17
19127.0	5.449241040257023e+17
19128.0	5.4484777027938976e+17
19129.0	5.447477622035796e+17
19130.0	5.4464936585898656e+17
19131.0	5.4454992303554554e+17
19132.0	5.4445044686738765e+17
19133.0	5.4435085892102816e+17
19134.0	5.442516754453844e+17
19135.0	5.4415227386593274e+17
19136.0	5.44052868231987e+17
19137.0	5.4395147379889485e+17
19138.0	5.4385398405311136e+17
19139.0	5.437549101886121e+17
19140.0	5.436556600934399e+17
19141.0	5.435563948987731e+17
19142.0	5.434571048179028e+17
19143.0	5.433571894362111e+17
19144.0	5.432585336040106e+17
19145.0	5.4315951237802656e+17
19146.0	5.430520376022357e+17
19147.0	5.429601167736832e+17
19148.0	5.428610178831701e+17
19149.0	5.4276175296812365e+17
19150.0	5.4266380695197005e+17
19151.0	5.425648192804181e+17
19152.0	5.4246577666348365e+17
19153.0	5.423645913863508e+17
19154.0	5.4226593653282125e+17
19155.0	5.421686957888852e+17
19156.0	5.42069722587682e+17
19157.0	5.4196978029253965e+17
19158.0	5.4186798635199136e+17
19159.0	5.417725761421311e+17
19160.0	5.4167402376942925e+17
19161.0	5.4157505245566285e+17
19162.0	5.4147029572867405e+17
19163.0	5.413768029448875e+17
19164.0	5.412787272548351e+17
19165.0	5.411775328900436e+17
19166.0	5.410793706575188e+17
19167.0	5.409819280976554e+17
19168.0	5.408837240619007e+17
19169.0	5.407849665877332e+17
19170.0	5.406864186889556e+17
19171.0	5.405874463266132e+17
19172.0	5.4048910744398496e+17
19173.0	5.403905242431487e+17
19174.0	5.402911942464852e+17
19175.0	5.4019336643979936e+17
19176.0	5.4009483217250976e+17
19177.0	5.3999421081954976e+17
19178.0	5.398974835283285e+17
19179.0	5.3979876373299194e+17
19180.0	5.3970069573249696e+17
19181.0	5.396003161112575e+17
19182.0	5.3950361845978445e+17
19183.0	5.394054557379242e+17
19184.0	5.393070233223167e+17
19185.0	5.39208601182754e+17
19186.0	5.3911027551218336e+17
19187.0	5.390118887445844e+17
19188.0	5.3891358166876154e+17
19189.0	5.3881534254066336e+17
19190.0	5.3871701610113696e+17
19191.0	5.3861870112604154e+17
19192.0	5.3852051260921165e+17
19193.0	5.384219663182506e+17
19194.0	5.383235524274858e+17
19195.0	5.382257246907049e+17
19196.0	5.381272921352874e+17
19197.0	5.380288356024319e+17
19198.0	5.379282462659924e+17
19199.0	5.3779159164736845e+17
19200.0	5.37702409629423e+17
19201.0	5.376342255555925e+17
19202.0	5.3753749483902285e+17
19203.0	5.374397839835135e+17
19204.0	5.373415509371562e+17
19205.0	5.372439361312085e+17
19206.0	5.3714585484875085e+17
19207.0	5.3704699615204685e+17
19208.0	5.369468632257876e+17
19209.0	5.3685224308299085e+17
19210.0	5.3675433838073165e+17
19211.0	5.366564712174932e+17
19212.0	5.3655858126520314e+17
19213.0	5.364594342800041e+17
19214.0	5.363612333899775e+17
19215.0	5.3626487883257165e+17
19216.0	5.361672466901674e+17
19217.0	5.3606926012907514e+17
19218.0	5.3596139779959456e+17
19219.0	5.358717779662164e+17
19220.0	5.3577618998777165e+17
19221.0	5.3567461939391136e+17
19222.0	5.3558051403202554e+17
19223.0	5.354831604613118e+17
19224.0	5.3538548602634234e+17
19225.0	5.3528617392537594e+17
19226.0	5.3519029500204365e+17
19227.0	5.350927483535359e+17
19228.0	5.349951702477481e+17
19229.0	5.348975854310741e+17
19230.0	5.3479999453265914e+17
19231.0	5.347025175095978e+17
19232.0	5.346048822913706e+17
19233.0	5.3450658374396576e+17
19234.0	5.344097131473577e+17
19235.0	5.343125297255764e+17
19236.0	5.342150583648255e+17
19237.0	5.3411742720109216e+17
19238.0	5.3401893669437434e+17
19239.0	5.339228281328981e+17
19240.0	5.338254023502506e+17
19241.0	5.337280599643476e+17
19242.0	5.3363072072417274e+17
19243.0	5.3353139464219296e+17
19244.0	5.334360588113236e+17
19245.0	5.3333874620497914e+17
19246.0	5.3324127253736083e+17
19247.0	5.3314414832517114e+17
19248.0	5.330469052044627e+17
19249.0	5.329496295778986e+17
19250.0	5.328518569263103e+17
19251.0	5.327534926681428e+17
19252.0	5.326541943384745e+17
19253.0	5.3256060382740474e+17
19254.0	5.324636020888917e+17
19255.0	5.323639166249642e+17
19256.0	5.322689918358868e+17
19257.0	5.32172146544913e+17
19258.0	5.3207501100810234e+17
19259.0	5.319769188903594e+17
19260.0	5.3187909199243936e+17
19261.0	5.317827635096234e+17
19262.0	5.3168484566521165e+17
19263.0	5.3158703505517216e+17
19264.0	5.31483471328051e+17
19265.0	5.313907623198719e+17
19266.0	5.312924194526549e+17
19267.0	5.3119965291260576e+17
19268.0	5.3110266165985274e+17
19269.0	5.3100565453864954e+17
19270.0	5.3090848824360954e+17
19271.0	5.308071167393791e+17
19272.0	5.3071421472331085e+17
19273.0	5.3061363859892896e+17
19274.0	5.305150524620799e+17
19275.0	5.304238777303039e+17
19276.0	5.303269695946751e+17
19277.0	5.3023004971499514e+17
19278.0	5.3013313102370125e+17
19279.0	5.300361666144938e+17
19280.0	5.299383244772694e+17
19281.0	5.2984232895228576e+17
19282.0	5.2974546751324154e+17
19283.0	5.296481556758526e+17
19284.0	5.295513951797248e+17
19285.0	5.2945305238241274e+17
19286.0	5.293573972951039e+17
19287.0	5.292608460248405e+17
19288.0	5.2914391001770656e+17
19289.0	5.2901834534857376e+17
19290.0	5.289702398973268e+17
19291.0	5.288703559729152e+17
19292.0	5.2877686598533114e+17
19293.0	5.2867996686745594e+17
19294.0	5.2858320993648634e+17
19295.0	5.284863732438356e+17
19296.0	5.283881464889343e+17
19297.0	5.282924105214634e+17
19298.0	5.281958325474645e+17
19299.0	5.2809738761885005e+17
19300.0	5.2800205150836045e+17
19301.0	5.2790516399472634e+17
19302.0	5.278081712040617e+17
19303.0	5.277104483947859e+17
19304.0	5.276141931025747e+17
19305.0	5.275176816781994e+17
19306.0	5.274208145768447e+17
19307.0	5.273236084359167e+17
19308.0	5.272268971529557e+17
19309.0	5.2712854400969376e+17
19310.0	5.270308964182698e+17
19311.0	5.2693533891843405e+17
19312.0	5.268390776143871e+17
19313.0	5.2674176836348576e+17
19314.0	5.264890584017577e+17
19315.0	5.264072726194861e+17
19316.0	5.26448699061043e+17
19317.0	5.263540084539391e+17
19318.0	5.262570233528319e+17
19319.0	5.2615997512744954e+17
19320.0	5.260622850337449e+17
19321.0	5.25964455060002e+17
19322.0	5.2586754154168314e+17
19323.0	5.2577078244365645e+17
19324.0	5.256739310709417e+17
19325.0	5.2557560463141536e+17
19326.0	5.254793718486356e+17
19327.0	5.253819577401343e+17
19328.0	5.252822309623124e+17
19329.0	5.251873997062143e+17
19330.0	5.250894585834154e+17
19331.0	5.249917544387925e+17
19332.0	5.248948505673726e+17
19333.0	5.247972634438313e+17
19334.0	5.246995164474026e+17
19335.0	5.2459669224598176e+17
19336.0	5.245039939332778e+17
19337.0	5.244045973869909e+17
19338.0	5.2430271970017274e+17
19339.0	5.242075883416233e+17
19340.0	5.2410682871644154e+17
19341.0	5.2400857427913376e+17
19342.0	5.2390808113206605e+17
19343.0	5.23814711730722e+17
19344.0	5.2371430135125325e+17
19345.0	5.2358934758249805e+17
19346.0	5.2350669644540576e+17
19347.0	5.2341728038529696e+17
19348.0	5.2332193253075616e+17
19349.0	5.2322309606386336e+17
19350.0	5.2312316565258234e+17
19351.0	5.230245451224404e+17
19352.0	5.229221587364522e+17
19353.0	5.228262718439424e+17
19354.0	5.2272675415217485e+17
19355.0	5.226258650628096e+17
19356.0	5.2252713352342176e+17
19357.0	5.2242712209216845e+17
19358.0	5.2232686941853005e+17
19359.0	5.2222488233028256e+17
19360.0	5.2211923277578234e+17
19361.0	5.2202037338002765e+17
19362.0	5.219198322081791e+17
19363.0	5.2181857821436576e+17
19364.0	5.217170675291476e+17
19365.0	5.2161529134448634e+17
19366.0	5.215132572101289e+17
19367.0	5.21410940379682e+17
19368.0	5.213083305771007e+17
19369.0	5.212049595083434e+17
19370.0	5.2110183436561056e+17
19371.0	5.2099598998568954e+17
19372.0	5.208883594614101e+17
19373.0	5.2078398161988256e+17
19374.0	5.2067920503985485e+17
19375.0	5.205739171741694e+17
19376.0	5.204663139128662e+17
19377.0	5.2035967953578656e+17
19378.0	5.202530021670911e+17
19379.0	5.2013957036113914e+17
19380.0	5.200292861706239e+17
19381.0	5.199208176943102e+17
19382.0	5.1981063584481274e+17
19383.0	5.197004784620883e+17
19384.0	5.1958819666438816e+17
19385.0	5.1946819280349856e+17
19386.0	5.1935605815596365e+17
19387.0	5.192429573505024e+17
19388.0	5.1912866815890765e+17
19389.0	5.190047126345045e+17
19390.0	5.1888812335650125e+17
19391.0	5.187042824683519e+17
19392.0	5.1865020915165856e+17
19393.0	5.1853224337298765e+17
19394.0	5.18406681010722e+17
19395.0	5.1828327997330765e+17
19396.0	5.181594324522324e+17
19397.0	5.180335665621674e+17
19398.0	5.1790477318772045e+17
19399.0	5.1776436851179514e+17
19400.0	5.1764150015098874e+17
19401.0	5.17508506390801e+17
19402.0	5.173632723932499e+17
19403.0	5.172233213313023e+17
19404.0	5.170807045794474e+17
19405.0	5.169348047361364e+17
19406.0	5.16785474441489e+17
19407.0	5.166188403359743e+17
19408.0	5.164509812839764e+17
19409.0	5.1629997494545056e+17
19410.0	5.1612474650132474e+17
19411.0	5.159419142034772e+17
19412.0	5.157642089529343e+17
19413.0	5.1555162100421965e+17
19414.0	5.1535594721553056e+17
19415.0	5.151202555723774e+17
19416.0	5.149013818998784e+17
19417.0	5.146472452456447e+17
19418.0	5.1438425448557216e+17
19419.0	5.14106787364864e+17
19420.0	5.137933312283988e+17
19421.0	5.134822206865407e+17
19422.0	5.1320478488330234e+17
19423.0	5.129161207185407e+17
19424.0	5.1259330960643405e+17
19425.0	5.1226118881716896e+17
19426.0	5.119008424591359e+17
19427.0	5.115082479850837e+17
19428.0	5.110869228082515e+17
19429.0	5.106190052054355e+17
19430.0	5.100817050763264e+17
19431.0	5.0944768974957216e+17
19432.0	5.087153010070868e+17
19433.0	5.0787077307323725e+17
19434.0	5.068375943632214e+17
19435.0	5.057036399498582e+17
19436.0	5.048429662524758e+17
19437.0	5.03864816111889e+17
19438.0	5.026032375562238e+17
19439.0	5.0128361689361075e+17
19440.0	4.9943080721885856e+17
19441.0	4.9704427928070816e+17
19442.0	4.936920661142185e+17
19443.0	4.896065596336798e+17
19444.0	4.863187240004268e+17
19445.0	4.8232520398929875e+17
19446.0	4.7610094500358906e+17
19447.0	4.668590317196626e+17
19448.0	4.5786331296563245e+17
19449.0	4.445021124864682e+17
19450.0	4.1209722813372115e+17
19451.0	3.8983729078599994e+17
19452.0	4.323477570628272e+17
19453.0	4.521139465704793e+17
19454.0	4.619917201156778e+17
19455.0	4.712126337777647e+17
19456.0	4.788231844746582e+17
19457.0	4.835733247710548e+17
19458.0	4.861871738497716e+17
19459.0	4.903056357457916e+17
19460.0	4.939946646656345e+17
19461.0	4.965657273696255e+17
19462.0	4.9848973961898624e+17
19463.0	4.9992489511157715e+17
19464.0	5.010108577393322e+17
19465.0	5.018578605921619e+17
19466.0	5.025526723553961e+17
19467.0	5.033843122416301e+17
19468.0	5.042970940844714e+17
19469.0	5.0505272954716154e+17
19470.0	5.0565326852587514e+17
19471.0	5.061316903436286e+17
19472.0	5.065141815083006e+17
19473.0	5.068215711432704e+17
19474.0	5.0709980113797114e+17
19475.0	5.072869084102655e+17
19476.0	5.0750197078862496e+17
19477.0	5.076504297166166e+17
19478.0	5.077982071401129e+17
19479.0	5.0791167005381965e+17
19480.0	5.080090213875711e+17
19481.0	5.081119361859582e+17
19482.0	5.082354115324585e+17
19483.0	5.0834477052941645e+17
19484.0	5.08440588006195e+17
19485.0	5.0849403853864954e+17
19486.0	5.085510758301694e+17
19487.0	5.085887624904702e+17
19488.0	5.086165604499455e+17
19489.0	5.0863106645032954e+17
19490.0	5.0862120235608736e+17
19491.0	5.08629120852514e+17
19492.0	5.086308462493696e+17
19493.0	5.0860941531327136e+17
19494.0	5.085822212636672e+17
19495.0	5.0855633017460045e+17
19496.0	5.085220996907006e+17
19497.0	5.0848877265988256e+17
19498.0	5.0843803570230605e+17
19499.0	5.082927308210174e+17
19500.0	5.0835595659837434e+17
19501.0	5.0831235219455994e+17
19502.0	5.082596502754644e+17
19503.0	5.0820476004816205e+17
19504.0	5.0814786494354765e+17
19505.0	5.0808889107196576e+17
19506.0	5.080280762504534e+17
19507.0	5.0796540943400954e+17
19508.0	5.0790164692555085e+17
19509.0	5.0783944064368634e+17
19510.0	5.077703622044329e+17
19511.0	5.0745582302876986e+17
19512.0	5.076186950533118e+17
19513.0	5.0753219074894496e+17
19514.0	5.074790810735956e+17
19515.0	5.074233007450794e+17
19516.0	5.07357394108416e+17
19517.0	5.072831916976809e+17
19518.0	5.072160914320041e+17
19519.0	5.071441251445417e+17
19520.0	5.070666107016532e+17
19521.0	5.069914941423615e+17
19522.0	5.0691391636548256e+17
19523.0	5.0683550902517754e+17
19524.0	5.0676283054489594e+17
19525.0	5.0668557125550074e+17
19526.0	5.06605950153523e+17
19527.0	5.065257424781311e+17
19528.0	5.064450830761983e+17
19529.0	5.0636609021105485e+17
19530.0	5.0628464885104634e+17
19531.0	5.062028073544362e+17
19532.0	5.06124269850897e+17
19533.0	5.0604367077703674e+17
19534.0	5.059608256533844e+17
19535.0	5.058776759533566e+17
19536.0	5.057936780951551e+17
19537.0	5.0571048743075834e+17
19538.0	5.056230633854292e+17
19539.0	5.055347218361002e+17
19540.0	5.054578487721983e+17
19541.0	5.0537334207501645e+17
19542.0	5.052903358201855e+17
19543.0	5.0520353959226016e+17
19544.0	5.0511989475464525e+17
19545.0	5.0502928352761165e+17
19546.0	5.0494024411600205e+17
19547.0	5.048668842710356e+17
19548.0	5.047811163466409e+17
19549.0	5.046938206470142e+17
19550.0	5.0460890577414816e+17
19551.0	5.045226206920703e+17
19552.0	5.044361688864085e+17
19553.0	5.043492969512959e+17
19554.0	5.042623960754857e+17
19555.0	5.041761952290132e+17
19556.0	5.040893235735209e+17
19557.0	5.040022963093503e+17
19558.0	5.03915249541666e+17
19559.0	5.038281304222378e+17
19560.0	5.0374022969425914e+17
19561.0	5.0365357719115085e+17
19562.0	5.035655229516457e+17
19563.0	5.034787281917268e+17
19564.0	5.0339119817031674e+17
19565.0	5.033035961466878e+17
19566.0	5.0321567004317005e+17
19567.0	5.031282009090729e+17
19568.0	5.0304044907888634e+17
19569.0	5.029524907491327e+17
19570.0	5.0286475262033914e+17
19571.0	5.02776830571315e+17
19572.0	5.026888333743445e+17
19573.0	5.026006444976809e+17
19574.0	5.0251318270361594e+17
19575.0	5.0242706126929914e+17
19576.0	5.0233893034393594e+17
19577.0	5.022506805100542e+17
19578.0	5.021620124341588e+17
19579.0	5.0207400705829536e+17
19580.0	5.019857856058708e+17
19581.0	5.0189756736907936e+17
19582.0	5.0180949236776954e+17
19583.0	5.0172115906723834e+17
19584.0	5.016327785807871e+17
19585.0	5.0154286927052794e+17
19586.0	5.014540975953236e+17
19587.0	5.0136724201799674e+17
19588.0	5.0127283103115936e+17
19589.0	5.011903405359103e+17
19590.0	5.011005627170815e+17
19591.0	5.01013739995136e+17
19592.0	5.009252204675071e+17
19593.0	5.008367680487423e+17
19594.0	5.0074485092515834e+17
19595.0	5.006596112733524e+17
19596.0	5.0057060569579514e+17
19597.0	5.004825916517034e+17
19598.0	5.003870478532608e+17
19599.0	5.003054558478335e+17
19600.0	5.002169338036223e+17
19601.0	5.001278413340671e+17
19602.0	5.0003885826594125e+17
19603.0	4.9994526439942816e+17
19604.0	4.998622878542506e+17
19605.0	4.997701716410368e+17
19606.0	4.9968541139817805e+17
19607.0	4.9959688599852365e+17
19608.0	4.995082407815849e+17
19609.0	4.9941940535295994e+17
19610.0	4.993302088646655e+17
19611.0	4.992411382054911e+17
19612.0	4.991539600162815e+17
19613.0	4.990653749876051e+17
19614.0	4.989762639233023e+17
19615.0	4.98888169558289e+17
19616.0	4.9879813092365645e+17
19617.0	4.9870940930048e+17
19618.0	4.9861409989372576e+17
19619.0	4.985233440331092e+17
19620.0	4.9843562324077216e+17
19621.0	4.98354820952883e+17
19622.0	4.9826823248281594e+17
19623.0	4.981797196660736e+17
19624.0	4.9809118986239994e+17
19625.0	4.980026560741375e+17
19626.0	4.979141159944191e+17
19627.0	4.9782550230466554e+17
19628.0	4.9773598753860256e+17
19629.0	4.9764243736275616e+17
19630.0	4.97553535734033e+17
19631.0	4.974292839519573e+17
19632.0	4.9738215395601056e+17
19633.0	4.972944570712062e+17
19634.0	4.972061910892543e+17
19635.0	4.971175848094377e+17
19636.0	4.9702735197853005e+17
19637.0	4.9693470553538554e+17
19638.0	4.9685228368691194e+17
19639.0	4.967641787662335e+17
19640.0	4.9667482527115936e+17
19641.0	4.9656928721524045e+17
19642.0	4.9649902367539194e+17
19643.0	4.964106951983104e+17
19644.0	4.963213725313706e+17
19645.0	4.9623029119276365e+17
19646.0	4.961434609909759e+17
19647.0	4.960573904475476e+17
19648.0	4.959691476740778e+17
19649.0	4.9588083632373754e+17
19650.0	4.957926015893503e+17
19651.0	4.9570434420572154e+17
19652.0	4.956160981467136e+17
19653.0	4.9552784453795834e+17
19654.0	4.954396469231615e+17
19655.0	4.953513821295956e+17
