# Flux units: erg / (cm m2 s)
# Wavelength units: Angstrom
wave	flux
19000.0	5.433228347310079e+17
19001.0	5.4321418548019194e+17
19002.0	5.431299593819477e+17
19003.0	5.4303214835247776e+17
19004.0	5.4293439359658656e+17
19005.0	5.4283451554420045e+17
19006.0	5.427382508847104e+17
19007.0	5.426428509508949e+17
19008.0	5.425431206079145e+17
19009.0	5.424330569678847e+17
19010.0	5.423366883595604e+17
19011.0	5.422465288590677e+17
19012.0	5.421356033594708e+17
19013.0	5.42062722224401e+17
19014.0	5.4196257154225485e+17
19015.0	5.418664192901119e+17
19016.0	5.4177390182181536e+17
19017.0	5.416788591727956e+17
19018.0	5.415808012386304e+17
19019.0	5.4148506541096954e+17
19020.0	5.4138782396798285e+17
19021.0	5.4129258530515616e+17
19022.0	5.4119556056787616e+17
19023.0	5.410916975771647e+17
19024.0	5.409909796853076e+17
19025.0	5.408998134819498e+17
19026.0	5.407996000949589e+17
19027.0	5.407020469452798e+17
19028.0	5.4060931193241594e+17
19029.0	5.405120621008211e+17
19030.0	5.4041730829953696e+17
19031.0	5.4031929776100685e+17
19032.0	5.40217034477841e+17
19033.0	5.400990385700862e+17
19034.0	5.3997455889749325e+17
19035.0	5.39709079097617e+17
19036.0	5.3908584550891514e+17
19037.0	5.395491541308757e+17
19038.0	5.3959309226147834e+17
19039.0	5.395312395594411e+17
19040.0	5.394456626855936e+17
19041.0	5.393546169985705e+17
19042.0	5.390095642613073e+17
19043.0	5.391689233465343e+17
19044.0	5.390726767924564e+17
19045.0	5.3897338601253536e+17
19046.0	5.388762893429418e+17
19047.0	5.3877761030225914e+17
19048.0	5.386403048674644e+17
19049.0	5.380582535419214e+17
19050.0	5.3845248078861645e+17
19051.0	5.3829120979981645e+17
19052.0	5.3822229437917856e+17
19053.0	5.3818055783874554e+17
19054.0	5.381027033077076e+17
19055.0	5.379196321442475e+17
19056.0	5.378975480851113e+17
19057.0	5.378276651084457e+17
19058.0	5.374712948806992e+17
19059.0	5.375383165031764e+17
19060.0	5.3754271381149e+17
19061.0	5.3744565475082234e+17
19062.0	5.3735008257092256e+17
19063.0	5.3725524565251405e+17
19064.0	5.371562779738111e+17
19065.0	5.370529649961643e+17
19066.0	5.3687066949932384e+17
19067.0	5.3687068718530554e+17
19068.0	5.3677916243886074e+17
19069.0	5.3668345639075834e+17
19070.0	5.365844789952511e+17
19071.0	5.3648981250539514e+17
19072.0	5.3629998585610214e+17
19073.0	5.3630163295928314e+17
19074.0	5.3620433999626234e+17
19075.0	5.361100946145279e+17
19076.0	5.3601372516734285e+17
19077.0	5.359176979054591e+17
19078.0	5.3582003297757856e+17
19079.0	5.3572665854306976e+17
19080.0	5.356309926204756e+17
19081.0	5.3553100027330554e+17
19082.0	5.3544018450404685e+17
19083.0	5.3533655562540365e+17
19084.0	5.352293597009236e+17
19085.0	5.351504024174592e+17
19086.0	5.348855093308073e+17
19087.0	5.347370394277201e+17
19088.0	5.347220166890835e+17
19089.0	5.3475182693580794e+17
19090.0	5.346716436572841e+17
19091.0	5.3456233862703795e+17
19092.0	5.3427628919139046e+17
19093.0	5.3439108959873696e+17
19094.0	5.3429730426224634e+17
19095.0	5.3420190090308256e+17
19096.0	5.3410734227674445e+17
19097.0	5.3401286508980896e+17
19098.0	5.338105833149779e+17
19099.0	5.336928337526784e+17
19100.0	5.3372301470597114e+17
19101.0	5.336286223138815e+17
19102.0	5.335322298679296e+17
19103.0	5.3344008380525216e+17
19104.0	5.333470083547134e+17
19105.0	5.3301552698709395e+17
19106.0	5.331517636433237e+17
19107.0	5.3299856536152723e+17
19108.0	5.3286666156113914e+17
19109.0	5.328559565788499e+17
19110.0	5.327651779291817e+17
19111.0	5.3260724281016294e+17
19112.0	5.325015936750931e+17
19113.0	5.324904041807871e+17
19114.0	5.323464580442793e+17
19115.0	5.3228761279802016e+17
19116.0	5.3219980574283085e+17
19117.0	5.3209835147100154e+17
19118.0	5.3193459242106874e+17
19119.0	5.313535641561767e+17
19120.0	5.317754711528789e+17
19121.0	5.317164443631615e+17
19122.0	5.3163423565523616e+17
19123.0	5.3154277578069325e+17
19124.0	5.3143656866338125e+17
19125.0	5.313487142125567e+17
19126.0	5.3123958646155936e+17
19127.0	5.311106999036586e+17
19128.0	5.310475470372862e+17
19129.0	5.3096484158395725e+17
19130.0	5.3088208321249274e+17
19131.0	5.3079095797350394e+17
19132.0	5.306967178346494e+17
19133.0	5.3060044289911456e+17
19134.0	5.305088139941205e+17
19135.0	5.304143352692736e+17
19136.0	5.303197697922389e+17
19137.0	5.302214395079338e+17
19138.0	5.301303391551487e+17
19139.0	5.3003829801997645e+17
19140.0	5.2994435343974394e+17
19141.0	5.298499445500585e+17
19142.0	5.297531852423167e+17
19143.0	5.296600117149694e+17
19144.0	5.295634275893247e+17
19145.0	5.294722232877055e+17
19146.0	5.293217437537621e+17
19147.0	5.292821192551081e+17
19148.0	5.291067324061013e+17
19149.0	5.289967628582911e+17
19150.0	5.29002584412433e+17
19151.0	5.289071900710227e+17
19152.0	5.2881084739747834e+17
19153.0	5.285382495840935e+17
19154.0	5.2860617333145594e+17
19155.0	5.2852676872546976e+17
19156.0	5.284325708092756e+17
19157.0	5.2828065206981984e+17
19158.0	5.2811341468357984e+17
19159.0	5.2814359647573325e+17
19160.0	5.280484166030677e+17
19161.0	5.279492763287551e+17
19162.0	5.278448204032683e+17
19163.0	5.277585322453673e+17
19164.0	5.276720127016959e+17
19165.0	5.273905498772817e+17
19166.0	5.2748595379568634e+17
19167.0	5.2739735450637645e+17
19168.0	5.2730663520610976e+17
19169.0	5.272140080567636e+17
19170.0	5.2712125354038605e+17
19171.0	5.2702707296064845e+17
19172.0	5.269336359611051e+17
19173.0	5.2684103922046285e+17
19174.0	5.267465363783679e+17
19175.0	5.266539734717779e+17
19176.0	5.265605218620756e+17
19177.0	5.264531348870483e+17
19178.0	5.263706706061994e+17
19179.0	5.2627843261835936e+17
19180.0	5.2618359227460256e+17
19181.0	5.260857441255424e+17
19182.0	5.2599192425594874e+17
19183.0	5.259036880535551e+17
19184.0	5.2581065957922125e+17
19185.0	5.257150845332138e+17
19186.0	5.2562186291118074e+17
19187.0	5.255213196421802e+17
19188.0	5.2543176447098874e+17
19189.0	5.2533540194440525e+17
19190.0	5.252396923311445e+17
19191.0	5.2513968698163194e+17
19192.0	5.2504202457033376e+17
19193.0	5.249160027220651e+17
19194.0	5.2479619075058336e+17
19195.0	5.247243496630953e+17
19196.0	5.2460282494757536e+17
19197.0	5.244680218345472e+17
19198.0	5.243084228351315e+17
19199.0	5.2411088076363085e+17
19200.0	5.240295574033749e+17
19201.0	5.24034266767906e+17
19202.0	5.240070932004864e+17
19203.0	5.2395072797627725e+17
19204.0	5.2388762355411616e+17
19205.0	5.238113883040426e+17
19206.0	5.237294985030315e+17
19207.0	5.2363146272877216e+17
19208.0	5.235505838948351e+17
19209.0	5.234677382119424e+17
19210.0	5.233780933525504e+17
19211.0	5.2329008266390176e+17
19212.0	5.231982636870313e+17
19213.0	5.2309737914149536e+17
19214.0	5.230093042799956e+17
19215.0	5.229211100905472e+17
19216.0	5.2282858863766176e+17
19217.0	5.2273074202651296e+17
19218.0	5.2262616306810874e+17
19219.0	5.2253132391273805e+17
19220.0	5.224548908313258e+17
19221.0	5.22362937217297e+17
19222.0	5.222736012683946e+17
19223.0	5.2218360059221325e+17
19224.0	5.2208935912516256e+17
19225.0	5.220002103820287e+17
19226.0	5.2190906130541216e+17
19227.0	5.218177004863487e+17
19228.0	5.217282271040854e+17
19229.0	5.2163418661410125e+17
19230.0	5.2154298685631136e+17
19231.0	5.214504241594366e+17
19232.0	5.2135883803634336e+17
19233.0	5.2126186537833805e+17
19234.0	5.211735273242624e+17
19235.0	5.210785961738238e+17
19236.0	5.209899592755881e+17
19237.0	5.2089563217483085e+17
19238.0	5.2079876507347616e+17
19239.0	5.207131891083946e+17
19240.0	5.206198215944873e+17
19241.0	5.205272653288789e+17
19242.0	5.204341104661845e+17
19243.0	5.203305006716245e+17
19244.0	5.202523321270272e+17
19245.0	5.2015971259733325e+17
19246.0	5.2006803259173536e+17
19247.0	5.199751750352894e+17
19248.0	5.198831494190419e+17
19249.0	5.197837133064873e+17
19250.0	5.196589579283115e+17
19251.0	5.195622890078206e+17
19252.0	5.1948791134508365e+17
19253.0	5.194209847934975e+17
19254.0	5.193311822282751e+17
19255.0	5.192208883908606e+17
19256.0	5.191453378609152e+17
19257.0	5.1905352615417165e+17
19258.0	5.189603242453674e+17
19259.0	5.1885669613567994e+17
19260.0	5.187448273371135e+17
19261.0	5.18678021092147e+17
19262.0	5.1858084584925856e+17
19263.0	5.1848445116634445e+17
19264.0	5.183854501429246e+17
19265.0	5.182982486753279e+17
19266.0	5.1820537979426125e+17
19267.0	5.1813080919354016e+17
19268.0	5.1804002963510605e+17
19269.0	5.179486814688596e+17
19270.0	5.1785274389517645e+17
19271.0	5.177544701640703e+17
19272.0	5.176701599001257e+17
19273.0	5.175670480393556e+17
19274.0	5.1745552100666016e+17
19275.0	5.173998031732735e+17
19276.0	5.1730596729541965e+17
19277.0	5.172149929115647e+17
19278.0	5.171172689838079e+17
19279.0	5.1702772080312314e+17
19280.0	5.1693600088173216e+17
19281.0	5.1684381511297696e+17
19282.0	5.167525791443625e+17
19283.0	5.1665838087864314e+17
19284.0	5.165597979574272e+17
19285.0	5.1646127417589754e+17
19286.0	5.1635140039802874e+17
19287.0	5.162064232316928e+17
19288.0	5.157702397329406e+17
19289.0	5.1557338993131514e+17
19290.0	5.1591769831942816e+17
19291.0	5.158726433854805e+17
19292.0	5.158234180550656e+17
19293.0	5.157402631121577e+17
19294.0	5.156502062323027e+17
19295.0	5.155634287389353e+17
19296.0	5.1535569178241734e+17
19297.0	5.1536136772430515e+17
19298.0	5.152889421605545e+17
19299.0	5.150683686764545e+17
19300.0	5.1510713718756685e+17
19301.0	5.150168531861504e+17
19302.0	5.149238468018175e+17
19303.0	5.148270850473983e+17
19304.0	5.147401211871232e+17
19305.0	5.1464619338410656e+17
19306.0	5.1455341670782285e+17
19307.0	5.1445478331514874e+17
19308.0	5.1436023125988685e+17
19309.0	5.1425941626989216e+17
19310.0	5.141594980919978e+17
19311.0	5.1405649870847994e+17
19312.0	5.13933177922082e+17
19313.0	5.1369854694850554e+17
19314.0	5.1017828291051584e+17
19315.0	5.102640618799118e+17
19316.0	5.132803986074284e+17
19317.0	5.1348075323938125e+17
19318.0	5.134280594292735e+17
19319.0	5.133524064185002e+17
19320.0	5.132232302439081e+17
19321.0	5.130758281407146e+17
19322.0	5.1309145045510816e+17
19323.0	5.130012630624938e+17
19324.0	5.129103852874409e+17
19325.0	5.128209309892607e+17
19326.0	5.12732158894626e+17
19327.0	5.1264190159694496e+17
19328.0	5.123416481508012e+17
19329.0	5.1246214959595514e+17
19330.0	5.123716859385172e+17
19331.0	5.122776299995135e+17
19332.0	5.1219041762672634e+17
19333.0	5.120981267906559e+17
19334.0	5.120037062268245e+17
19335.0	5.1148944058613805e+17
19336.0	5.1182247300737696e+17
19337.0	5.1173478430146554e+17
19338.0	5.1162511422696083e+17
19339.0	5.11548762235426e+17
19340.0	5.1144419348316154e+17
19341.0	5.1119799860374214e+17
19342.0	5.112163768554837e+17
19343.0	5.1117347387910816e+17
19344.0	5.1091229324083226e+17
19345.0	5.108537572545877e+17
19346.0	5.108377109659646e+17
19347.0	5.1059892015158605e+17
19348.0	5.1072142395746976e+17
19349.0	5.1063192610843296e+17
19350.0	5.1046474939979085e+17
19351.0	5.104500475953151e+17
19352.0	5.101456213759313e+17
19353.0	5.1027357218461005e+17
19354.0	5.101834462385492e+17
19355.0	5.1008316832918176e+17
19356.0	5.1000005567883936e+17
19357.0	5.099088079661738e+17
19358.0	5.0981595495355725e+17
19359.0	5.096771353051133e+17
19360.0	5.0946256400984723e+17
19361.0	5.0953945524906656e+17
19362.0	5.094482109617494e+17
19363.0	5.0935661330431994e+17
19364.0	5.09264749728017e+17
19365.0	5.0917187902941856e+17
19366.0	5.090790540487338e+17
19367.0	5.089869463639381e+17
19368.0	5.088949552807935e+17
19369.0	5.087994296576681e+17
19370.0	5.087074807272788e+17
19371.0	5.0861152672590496e+17
19372.0	5.085223414923264e+17
19373.0	5.08428076397363e+17
19374.0	5.0833595221497165e+17
19375.0	5.082436929759913e+17
19376.0	5.081504156396202e+17
19377.0	5.080560494619306e+17
19378.0	5.079621020854953e+17
19379.0	5.0786801259205965e+17
19380.0	5.0777059890298874e+17
19381.0	5.076755703048874e+17
19382.0	5.075739867785897e+17
19383.0	5.0748202624395936e+17
19384.0	5.073868455324329e+17
19385.0	5.0729225460995405e+17
19386.0	5.0719451774975994e+17
19387.0	5.0709332058876576e+17
19388.0	5.069866320352598e+17
19389.0	5.0686563384470176e+17
19390.0	5.066716985950207e+17
19391.0	5.0604873574864186e+17
19392.0	5.063153651373396e+17
19393.0	5.0644347008669e+17
19394.0	5.063868841022804e+17
19395.0	5.062401422524417e+17
19396.0	5.06192732426513e+17
19397.0	5.061072722242217e+17
19398.0	5.059449397269845e+17
19399.0	5.058123433771007e+17
19400.0	5.0573928824831994e+17
19401.0	5.0569633347229e+17
19402.0	5.0559557237910176e+17
19403.0	5.054894253102421e+17
19404.0	5.053826339263828e+17
19405.0	5.052711726044501e+17
19406.0	5.0516064724145485e+17
19407.0	5.0497075159586106e+17
19408.0	5.049101518722389e+17
19409.0	5.0480573614216525e+17
19410.0	5.046993449648128e+17
19411.0	5.0458214003288736e+17
19412.0	5.0445924070413645e+17
19413.0	5.0426024782288205e+17
19414.0	5.042073446470996e+17
19415.0	5.0407517276078074e+17
19416.0	5.039276812490068e+17
19417.0	5.037999683971754e+17
19418.0	5.036574869815296e+17
19419.0	5.035086260294996e+17
19420.0	5.033554789182121e+17
19421.0	5.031942222599509e+17
19422.0	5.0302174905412256e+17
19423.0	5.0284911583559674e+17
19424.0	5.0266454087434234e+17
19425.0	5.024709850693632e+17
19426.0	5.0226186860625914e+17
19427.0	5.020394136971947e+17
19428.0	5.0179777250372256e+17
19429.0	5.015307614333609e+17
19430.0	5.012109245022207e+17
19431.0	5.0089154782603936e+17
19432.0	5.006330596513108e+17
19433.0	5.0030561844701856e+17
19434.0	4.9991384584683514e+17
19435.0	4.994656174953812e+17
19436.0	4.9893863598325766e+17
19437.0	4.9826221575372794e+17
19438.0	4.9662953510666234e+17
19439.0	4.966727563608062e+17
19440.0	4.9645454531843405e+17
19441.0	4.9568170363234976e+17
19442.0	4.947090977325056e+17
19443.0	4.9357401085706234e+17
19444.0	4.921814354493438e+17
19445.0	4.9049223613644794e+17
19446.0	4.8843837585489914e+17
19447.0	4.8579169684029414e+17
19448.0	4.822743577701036e+17
19449.0	4.7718273709506554e+17
19450.0	4.6779099935757574e+17
19451.0	4.594784059872602e+17
19452.0	4.733624152752127e+17
19453.0	4.797083140401835e+17
19454.0	4.836776312395091e+17
19455.0	4.8646037116900685e+17
19456.0	4.885353042629973e+17
19457.0	4.897993055185577e+17
19458.0	4.812455302310639e+17
19459.0	4.9015119629953894e+17
19460.0	4.933901854179327e+17
19461.0	4.9434448003508896e+17
19462.0	4.9502565793355085e+17
19463.0	4.955570470300329e+17
19464.0	4.960049414449834e+17
19465.0	4.9638257770277536e+17
19466.0	4.9669848883527674e+17
19467.0	4.969596631121919e+17
19468.0	4.971736300781568e+17
19469.0	4.972061833297917e+17
19470.0	4.975015483146239e+17
19471.0	4.976280713822207e+17
19472.0	4.977290165354495e+17
19473.0	4.9781110465713485e+17
19474.0	4.977142740462247e+17
19475.0	4.978824462030166e+17
19476.0	4.9794275092725754e+17
19477.0	4.9797463714474656e+17
19478.0	4.9798901270227616e+17
19479.0	4.978464469112146e+17
19480.0	4.979844412604414e+17
19481.0	4.979699555325268e+17
19482.0	4.979533072214697e+17
19483.0	4.979288491163647e+17
19484.0	4.978960620322815e+17
19485.0	4.9785854517138765e+17
19486.0	4.9766409821661894e+17
19487.0	4.9777181290659834e+17
19488.0	4.9771821277730125e+17
19489.0	4.9764184344930976e+17
19490.0	4.975693987315711e+17
19491.0	4.9754489239197e+17
19492.0	4.974980780173994e+17
19493.0	4.974371355492351e+17
19494.0	4.9736818356824736e+17
19495.0	4.9728905557661e+17
19496.0	4.9717985358643194e+17
19497.0	4.9704265909097805e+17
19498.0	4.9653062803565216e+17
19499.0	4.9599494872541856e+17
19500.0	4.967567169596074e+17
19501.0	4.9683173292550816e+17
19502.0	4.967977801045332e+17
19503.0	4.9674016169219405e+17
19504.0	4.966703116408149e+17
19505.0	4.96590775263778e+17
19506.0	4.9651687840808954e+17
19507.0	4.9642882074323616e+17
19508.0	4.9632949151552845e+17
19509.0	4.961859732679338e+17
19510.0	4.95750000882483e+17
19511.0	4.91201613808707e+17
19512.0	4.9515422817102496e+17
19513.0	4.954279411100329e+17
19514.0	4.954699927126015e+17
19515.0	4.957150777092778e+17
19516.0	4.956807796970836e+17
19517.0	4.9564462458688845e+17
19518.0	4.9553375221514214e+17
19519.0	4.9545680777816736e+17
19520.0	4.9527078151782374e+17
19521.0	4.9535089349317965e+17
19522.0	4.9524323717393056e+17
19523.0	4.9514962401361926e+17
19524.0	4.949900852024663e+17
19525.0	4.950234785032874e+17
19526.0	4.949455472863914e+17
19527.0	4.9486281792552954e+17
19528.0	4.947676365149525e+17
19529.0	4.9467797103356576e+17
19530.0	4.9461544186019834e+17
19531.0	4.945317903816019e+17
19532.0	4.944482234182314e+17
19533.0	4.9436375796503885e+17
19534.0	4.9428087376445434e+17
19535.0	4.941949619055274e+17
19536.0	4.941079335927807e+17
19537.0	4.940222837380436e+17
19538.0	4.9378470270074886e+17
19539.0	4.9384121612369914e+17
19540.0	4.937676172034047e+17
19541.0	4.936527548601683e+17
19542.0	4.9358863073279994e+17
19543.0	4.933612414347947e+17
19544.0	4.934168745432404e+17
19545.0	4.9331695811297274e+17
19546.0	4.932326684011177e+17
19547.0	4.9317433548909235e+17
19548.0	4.9309732212572154e+17
19549.0	4.930054363895123e+17
19550.0	4.9293059826210125e+17
19551.0	4.928473632778922e+17
19552.0	4.9276189839196154e+17
19553.0	4.926768964173824e+17
19554.0	4.925905354184021e+17
19555.0	4.9248795525556896e+17
19556.0	4.9240975266720416e+17
19557.0	4.923364420354047e+17
19558.0	4.922534721312085e+17
19559.0	4.9216894306440525e+17
19560.0	4.920259717540521e+17
19561.0	4.9199687684587514e+17
19562.0	4.9185820246015994e+17
19563.0	4.918297299866964e+17
19564.0	4.917426138032809e+17
19565.0	4.916587623262889e+17
19566.0	4.9157209717036365e+17
19567.0	4.914889604726783e+17
19568.0	4.914020860908886e+17
19569.0	4.9131745202667514e+17
19570.0	4.912320321596075e+17
19571.0	4.911474453512191e+17
19572.0	4.9106019564912634e+17
19573.0	4.909580263882751e+17
19574.0	4.9087780990484474e+17
19575.0	4.908081755805013e+17
19576.0	4.907123620883114e+17
19577.0	4.9060638642667514e+17
19578.0	4.905510788661247e+17
19579.0	4.9046464495615994e+17
19580.0	4.9037951512521376e+17
19581.0	4.9029550349571405e+17
19582.0	4.902115757522943e+17
19583.0	4.901267725877247e+17
19584.0	4.900397472109908e+17
19585.0	4.89944869048593e+17
19586.0	4.8985664382129485e+17
19587.0	4.897792038273023e+17
19588.0	4.896846592518826e+17
19589.0	4.896067499152724e+17
19590.0	4.895192575027882e+17
19591.0	4.894427749285887e+17
19592.0	4.8935990736541005e+17
19593.0	4.892586472199508e+17
19594.0	4.891533865473363e+17
19595.0	4.891030762902868e+17
19596.0	4.8901475620181325e+17
19597.0	4.889303131182421e+17
19598.0	4.888161959630164e+17
19599.0	4.887583470037674e+17
19600.0	4.886763543724032e+17
19601.0	4.88587361447663e+17
19602.0	4.884984079493802e+17
19603.0	4.8840791409295354e+17
19604.0	4.8832790536738125e+17
19605.0	4.882325718433792e+17
19606.0	4.8816625640188576e+17
19607.0	4.8808399267867296e+17
19608.0	4.879972479707819e+17
19609.0	4.8791195197549216e+17
19610.0	4.877569137224364e+17
19611.0	4.8763569428234234e+17
19612.0	4.876600836707668e+17
19613.0	4.8757252701552634e+17
19614.0	4.874851754617514e+17
19615.0	4.874003729962325e+17
19616.0	4.872375647950166e+17
19617.0	4.871117583242581e+17
19618.0	4.8710253337204045e+17
19619.0	4.8699750387548154e+17
19620.0	4.869069759053822e+17
19621.0	4.86723707469824e+17
19622.0	4.868020580472149e+17
19623.0	4.8670978734380365e+17
19624.0	4.8660682577892685e+17
19625.0	4.865434804639061e+17
19626.0	4.864510477904555e+17
19627.0	4.863556963008511e+17
19628.0	4.86247336247296e+17
19629.0	4.857489182250322e+17
19630.0	4.8595862077221536e+17
19631.0	4.8581562576404474e+17
19632.0	4.8584610688969376e+17
19633.0	4.858105168221525e+17
19634.0	4.857598114616661e+17
19635.0	4.8566987432919014e+17
19636.0	4.8543688899078803e+17
19637.0	4.853337323907753e+17
19638.0	4.8543789855976083e+17
19639.0	4.8536343309626016e+17
19640.0	4.8525186705653754e+17
19641.0	4.8513208745110176e+17
19642.0	4.8509820803044685e+17
19643.0	4.850178623624534e+17
19644.0	4.8494196007021216e+17
19645.0	4.8485813410856954e+17
19646.0	4.845944771532114e+17
19647.0	4.8469443846253216e+17
19648.0	4.846148659445759e+17
19649.0	4.8453054750173856e+17
19650.0	4.8444703010106016e+17
19651.0	4.84362715992337e+17
19652.0	4.8427860069362336e+17
19653.0	4.841940410783061e+17
19654.0	4.8411027942932474e+17
