# Flux units: erg / (cm m2 s)
# Wavelength units: Angstrom
wave	flux
19000.0	5.994615923190442e+17
19001.0	5.993473530396672e+17
19002.0	5.992369894369961e+17
19003.0	5.991246048089427e+17
19004.0	5.990123395787433e+17
19005.0	5.989000036745215e+17
19006.0	5.987878911169876e+17
19007.0	5.986712211685375e+17
19008.0	5.985621557728596e+17
19009.0	5.984507986094761e+17
19010.0	5.98329054392047e+17
19011.0	5.982262063529983e+17
19012.0	5.981073144720042e+17
19013.0	5.98002249044241e+17
19014.0	5.978889857794047e+17
19015.0	5.977773060740436e+17
19016.0	5.976649749932714e+17
19017.0	5.975523526180864e+17
19018.0	5.974412011853139e+17
19019.0	5.973296042475519e+17
19020.0	5.972165742559231e+17
19021.0	5.971050762338301e+17
19022.0	5.969936787352233e+17
19023.0	5.968807973617663e+17
19024.0	5.967692277568852e+17
19025.0	5.966573504299008e+17
19026.0	5.965446621342378e+17
19027.0	5.964288813782356e+17
19028.0	5.963218770635433e+17
19029.0	5.962099035471871e+17
19030.0	5.960983572206931e+17
19031.0	5.959865091140265e+17
19032.0	5.958746094174207e+17
19033.0	5.957610884126036e+17
19034.0	5.956507372530346e+17
19035.0	5.955385095618559e+17
19036.0	5.950427509380431e+17
19037.0	5.953154804525738e+17
19038.0	5.952034958213119e+17
19039.0	5.950922749728084e+17
19040.0	5.949805774416553e+17
19041.0	5.948687389818879e+17
19042.0	5.947554390168915e+17
19043.0	5.94645620953361e+17
19044.0	5.945337415292244e+17
19045.0	5.944221636755455e+17
19046.0	5.943098090367657e+17
19047.0	5.941992148172799e+17
19048.0	5.940833382913363e+17
19049.0	5.939748201824255e+17
19050.0	5.938638335158954e+17
19051.0	5.936949123962195e+17
19052.0	5.93638542418466e+17
19053.0	5.935291449038164e+17
19054.0	5.934188378543444e+17
19055.0	5.933024666801492e+17
19056.0	5.931954448192852e+17
19057.0	5.930844293518676e+17
19058.0	5.929719709739689e+17
19059.0	5.928619886335316e+17
19060.0	5.927501863845885e+17
19061.0	5.926393830091433e+17
19062.0	5.925280216514559e+17
19063.0	5.92416827646498e+17
19064.0	5.923031694879402e+17
19065.0	5.921909160017919e+17
19066.0	5.920819957290324e+17
19067.0	5.919720470828372e+17
19068.0	5.918608850943999e+17
19069.0	5.917497853913769e+17
19070.0	5.91638179226146e+17
19071.0	5.915273771089919e+17
19072.0	5.91416481878289e+17
19073.0	5.913053628115625e+17
19074.0	5.911944431839914e+17
19075.0	5.910834371537577e+17
19076.0	5.909719970829651e+17
19077.0	5.908613037380948e+17
19078.0	5.907496379438419e+17
19079.0	5.906396044328959e+17
19080.0	5.905284452406612e+17
19081.0	5.90416906883345e+17
19082.0	5.903059421670058e+17
19083.0	5.901940553329321e+17
19084.0	5.900806784723626e+17
19085.0	5.899745551013206e+17
19086.0	5.898560879635114e+17
19087.0	5.897421630472191e+17
19088.0	5.896409983221759e+17
19089.0	5.895222947654313e+17
19090.0	5.894202709071188e+17
19091.0	5.893097986719744e+17
19092.0	5.891959731606867e+17
19093.0	5.890889558436522e+17
19094.0	5.889779456890196e+17
19095.0	5.888672377339903e+17
19096.0	5.887563643136681e+17
19097.0	5.886465644254547e+17
19098.0	5.885361148395519e+17
19099.0	5.884255733983913e+17
19100.0	5.883144430769492e+17
19101.0	5.882044410931882e+17
19102.0	5.880923608317951e+17
19103.0	5.879838050440532e+17
19104.0	5.878734045315071e+17
19105.0	5.877630147144362e+17
19106.0	5.876506811869866e+17
19107.0	5.875420310973097e+17
19108.0	5.874319916444329e+17
19109.0	5.872860418889043e+17
19110.0	5.872113189650431e+17
19111.0	5.871010461690537e+17
19112.0	5.869909540077567e+17
19113.0	5.868807473419604e+17
19114.0	5.867705446607529e+17
19115.0	5.86658809520674e+17
19116.0	5.865498010976255e+17
19117.0	5.864398370024105e+17
19118.0	5.863266204341587e+17
19119.0	5.861543980477096e+17
19120.0	5.861065279668223e+17
19121.0	5.859979174434132e+17
19122.0	5.858897989118633e+17
19123.0	5.857796599840767e+17
19124.0	5.856678571758932e+17
19125.0	5.855596170794324e+17
19126.0	5.854489946182995e+17
19127.0	5.853068439235241e+17
19128.0	5.852025075357012e+17
19129.0	5.851184537534464e+17
19130.0	5.850101120150185e+17
19131.0	5.848996316009812e+17
19132.0	5.847906575712255e+17
19133.0	5.846694977601535e+17
19134.0	5.845575438871209e+17
19135.0	5.844612051981652e+17
19136.0	5.843516995403775e+17
19137.0	5.84238818796066e+17
19138.0	5.841293369060009e+17
19139.0	5.840226095551828e+17
19140.0	5.839129930279594e+17
19141.0	5.838033731452927e+17
19142.0	5.836932850384895e+17
19143.0	5.835830272720895e+17
19144.0	5.834739963396095e+17
19145.0	5.83364962890547e+17
19146.0	5.832433932260692e+17
19147.0	5.831442534410921e+17
19148.0	5.830363342787924e+17
19149.0	5.829268214906879e+17
19150.0	5.828174011869865e+17
19151.0	5.827082456836778e+17
19152.0	5.8259818952349e+17
19153.0	5.824890162642943e+17
19154.0	5.823774680503638e+17
19155.0	5.822705696418474e+17
19156.0	5.821611896733695e+17
19157.0	5.820516250856105e+17
19158.0	5.819181667363497e+17
19159.0	5.818329485453993e+17
19160.0	5.817232182127274e+17
19161.0	5.81612263702528e+17
19162.0	5.814507227403604e+17
19163.0	5.813963644207104e+17
19164.0	5.812873825615872e+17
19165.0	5.811772694986751e+17
19166.0	5.810658377465855e+17
19167.0	5.809548087175849e+17
19168.0	5.808486389994835e+17
19169.0	5.807398247727104e+17
19170.0	5.80632774320674e+17
19171.0	5.805206493899434e+17
19172.0	5.804145346871295e+17
19173.0	5.803056404889599e+17
19174.0	5.801957270749183e+17
19175.0	5.800878808236031e+17
19176.0	5.799789440532479e+17
19177.0	5.798671201337343e+17
19178.0	5.797605699223551e+17
19179.0	5.79647478623983e+17
19180.0	5.795382769134249e+17
19181.0	5.794322767151103e+17
19182.0	5.793245020465833e+17
19183.0	5.792163245151572e+17
19184.0	5.791056877234857e+17
19185.0	5.789991759598931e+17
19186.0	5.788905410396159e+17
19187.0	5.787803522695168e+17
19188.0	5.786727666242899e+17
19189.0	5.785632320957098e+17
19190.0	5.784542920398164e+17
19191.0	5.783457845564756e+17
19192.0	5.782382153389396e+17
19193.0	5.781270555175593e+17
19194.0	5.780196482001578e+17
19195.0	5.779121123273386e+17
19196.0	5.778035974340607e+17
19197.0	5.776951579683498e+17
19198.0	5.775865761060179e+17
19199.0	5.771478261126484e+17
19200.0	5.771647615238144e+17
19201.0	5.772610762353321e+17
19202.0	5.771528025145344e+17
19203.0	5.770436312126804e+17
19204.0	5.769352918510249e+17
19205.0	5.768272853772969e+17
19206.0	5.767188749920937e+17
19207.0	5.766090098125482e+17
19208.0	5.764978586593962e+17
19209.0	5.763936697712639e+17
19210.0	5.762853738206549e+17
19211.0	5.761771417632768e+17
19212.0	5.760688867770368e+17
19213.0	5.759561812148222e+17
19214.0	5.7584647464987296e+17
19215.0	5.757428234715135e+17
19216.0	5.7563520678843725e+17
19217.0	5.755273942313643e+17
19218.0	5.754032561149268e+17
19219.0	5.753078298968064e+17
19220.0	5.7520197992448e+17
19221.0	5.7508784487355725e+17
19222.0	5.7498625834134176e+17
19223.0	5.748775714815999e+17
19224.0	5.7476826498334714e+17
19225.0	5.746585728188415e+17
19226.0	5.7455302735298554e+17
19227.0	5.7444481396026003e+17
19228.0	5.7433726096069965e+17
19229.0	5.742291229955411e+17
19230.0	5.7411990080279885e+17
19231.0	5.740118647592277e+17
19232.0	5.739040386405716e+17
19233.0	5.737952669859839e+17
19234.0	5.7368807385770656e+17
19235.0	5.7357988779786234e+17
19236.0	5.734724309876734e+17
19237.0	5.7336406002892794e+17
19238.0	5.7325409614342816e+17
19239.0	5.7314831404892154e+17
19240.0	5.730358019839315e+17
19241.0	5.729306496641705e+17
19242.0	5.7282384353034234e+17
19243.0	5.727127692727636e+17
19244.0	5.7260808944134816e+17
19245.0	5.725000114547369e+17
19246.0	5.7239179107150496e+17
19247.0	5.7228406680453114e+17
19248.0	5.7217614575479456e+17
19249.0	5.720679728371028e+17
19250.0	5.719597257501353e+17
19251.0	5.7185056612242765e+17
19252.0	5.717376356057087e+17
19253.0	5.7163568326027936e+17
19254.0	5.715274892312575e+17
19255.0	5.714160878179668e+17
19256.0	5.7131113899185485e+17
19257.0	5.711960615507284e+17
19258.0	5.710756812510549e+17
19259.0	5.7096618321291936e+17
19260.0	5.7085388114274976e+17
19261.0	5.707515023764138e+17
19262.0	5.7064257986669216e+17
19263.0	5.7053476772904954e+17
19264.0	5.704177738405205e+17
19265.0	5.703159060103168e+17
19266.0	5.702084175331328e+17
19267.0	5.7010369163427834e+17
19268.0	5.699956502080169e+17
19269.0	5.6988760479716685e+17
19270.0	5.697794627076094e+17
19271.0	5.696650796335103e+17
19272.0	5.6955663890950816e+17
19273.0	5.693170299262291e+17
19274.0	5.6926874188294803e+17
19275.0	5.6921701702696954e+17
19276.0	5.691084929062228e+17
19277.0	5.6900041883429536e+17
19278.0	5.6889232889391776e+17
19279.0	5.687830194596521e+17
19280.0	5.6867441389950285e+17
19281.0	5.6856757763659085e+17
19282.0	5.6845965504894285e+17
19283.0	5.6834623995030176e+17
19284.0	5.6823342554589856e+17
19285.0	5.6813055961115296e+17
19286.0	5.68025724031249e+17
19287.0	5.679179865522175e+17
19288.0	5.6772690615555405e+17
19289.0	5.674281635676153e+17
19290.0	5.675926357191339e+17
19291.0	5.6747901649769805e+17
19292.0	5.673755592359935e+17
19293.0	5.672667906572287e+17
19294.0	5.671580849930239e+17
19295.0	5.6704962951905274e+17
19296.0	5.6694090407171405e+17
19297.0	5.668317057165993e+17
19298.0	5.6672274182307834e+17
19299.0	5.6661442476113914e+17
19300.0	5.665054414340094e+17
19301.0	5.663963310194687e+17
19302.0	5.662873044910079e+17
19303.0	5.661764213538815e+17
19304.0	5.6606800698408954e+17
19305.0	5.659596021213867e+17
19306.0	5.658511026771284e+17
19307.0	5.657406234514773e+17
19308.0	5.6563181684435616e+17
19309.0	5.655121534910463e+17
19310.0	5.653973968442708e+17
19311.0	5.653023943207594e+17
19312.0	5.6519359442452474e+17
19313.0	5.650826657791998e+17
19314.0	5.647421228974073e+17
19315.0	5.6465453932871725e+17
19316.0	5.6475329323772576e+17
19317.0	5.646435194940074e+17
19318.0	5.645330685799081e+17
19319.0	5.6441252267513165e+17
19320.0	5.642885242290175e+17
19321.0	5.641781971167915e+17
19322.0	5.6404602753733965e+17
19323.0	5.6391151264290125e+17
19324.0	5.6380575683269965e+17
19325.0	5.6368509796133536e+17
19326.0	5.635832706760703e+17
19327.0	5.6347145444611405e+17
19328.0	5.633600867969706e+17
19329.0	5.632482097496063e+17
19330.0	5.631353279567189e+17
19331.0	5.63023049794082e+17
19332.0	5.629114692840106e+17
19333.0	5.627985132519423e+17
19334.0	5.626855474331647e+17
19335.0	5.625729635057663e+17
19336.0	5.624594698338302e+17
19337.0	5.6234600992604154e+17
19338.0	5.622282917511168e+17
19339.0	5.6211826928517114e+17
19340.0	5.620024710529023e+17
19341.0	5.618893564761428e+17
19342.0	5.617665337633449e+17
19343.0	5.616590888370175e+17
19344.0	5.61530325242129e+17
19345.0	5.6137208156214586e+17
19346.0	5.6128833634085536e+17
19347.0	5.6118074950724256e+17
19348.0	5.6106531387255456e+17
19349.0	5.609474282749951e+17
19350.0	5.6082978930251085e+17
19351.0	5.6071161954085555e+17
19352.0	5.6059242951475194e+17
19353.0	5.604749111285077e+17
19354.0	5.603554432297642e+17
19355.0	5.6023361086204576e+17
19356.0	5.6011494442489165e+17
19357.0	5.599938339667967e+17
19358.0	5.598712588577449e+17
19359.0	5.5974364610996896e+17
19360.0	5.5962639580965536e+17
19361.0	5.595026239957673e+17
19362.0	5.5935839984680954e+17
19363.0	5.5920499646354765e+17
19364.0	5.5907903137819296e+17
19365.0	5.589525672405674e+17
19366.0	5.5882509563112083e+17
19367.0	5.5869673329131514e+17
19368.0	5.585674331750399e+17
19369.0	5.5843473944739834e+17
19370.0	5.5829139211769165e+17
19371.0	5.5817218846010016e+17
19372.0	5.580396605472767e+17
19373.0	5.579043021783039e+17
19374.0	5.5776869033355936e+17
19375.0	5.5763115623929165e+17
19376.0	5.5749228989426336e+17
19377.0	5.5734586981744634e+17
19378.0	5.5714894507758925e+17
19379.0	5.5700528086821536e+17
19380.0	5.5685970804080634e+17
19381.0	5.567120804238677e+17
19382.0	5.565610352181247e+17
19383.0	5.5640907306762234e+17
19384.0	5.562573858537471e+17
19385.0	5.561011568377855e+17
19386.0	5.5591133787805005e+17
19387.0	5.5570764835498656e+17
19388.0	5.555432718335998e+17
19389.0	5.553758770211497e+17
19390.0	5.552050229564756e+17
19391.0	5.5468372647389805e+17
19392.0	5.547977192680105e+17
19393.0	5.5458464107506336e+17
19394.0	5.5439852813243725e+17
19395.0	5.542074578720085e+17
19396.0	5.5396791152366925e+17
19397.0	5.537107402205866e+17
19398.0	5.535043196463786e+17
19399.0	5.5325991860087443e+17
19400.0	5.529437785292798e+17
19401.0	5.526891722528084e+17
19402.0	5.52381807923473e+17
19403.0	5.520762600772947e+17
19404.0	5.517677434328403e+17
19405.0	5.514170541102421e+17
19406.0	5.5110116073362746e+17
19407.0	5.507857989850452e+17
19408.0	5.5048234780153165e+17
19409.0	5.501942995004073e+17
19410.0	5.4988234212857165e+17
19411.0	5.4955261852385274e+17
19412.0	5.491500059546964e+17
19413.0	5.487923613575849e+17
19414.0	5.4841854499225594e+17
19415.0	5.4802768066860365e+17
19416.0	5.4761089030335136e+17
19417.0	5.470985759227903e+17
19418.0	5.4663611448033274e+17
19419.0	5.4615104322273274e+17
19420.0	5.455562785423358e+17
19421.0	5.449869677647189e+17
19422.0	5.443316078346238e+17
19423.0	5.4365968879233696e+17
19424.0	5.428535139936939e+17
19425.0	5.4201644828590074e+17
19426.0	5.4105985372214605e+17
19427.0	5.3998057178180256e+17
19428.0	5.3871036190774586e+17
19429.0	5.372467434487809e+17
19430.0	5.3545880253016685e+17
19431.0	5.337838060393814e+17
19432.0	5.325676651479038e+17
19433.0	5.31190438236433e+17
19434.0	5.296404827559253e+17
19435.0	5.280225803894782e+17
19436.0	5.26149005274863e+17
19437.0	5.241628631498751e+17
19438.0	5.2132434387053184e+17
19439.0	5.1909738368423277e+17
19440.0	5.156318688051198e+17
19441.0	5.108788288465581e+17
19442.0	5.0608413266848435e+17
19443.0	5.019123829090987e+17
19444.0	4.9709423050533523e+17
19445.0	4.9111385687545184e+17
19446.0	4.826347949348188e+17
19447.0	4.730111814620496e+17
19448.0	4.615605565696683e+17
19449.0	4.4401440524861446e+17
19450.0	4.102494321202504e+17
19451.0	4.005458084539043e+17
19452.0	4.2838847893012525e+17
19453.0	4.538832837236058e+17
19454.0	4.675421883509412e+17
19455.0	4.771835159773182e+17
19456.0	4.866029307385176e+17
19457.0	4.933465387215527e+17
19458.0	4.9803182766817344e+17
19459.0	5.027070100198741e+17
19460.0	5.067189328893265e+17
19461.0	5.1171348289945536e+17
19462.0	5.1551618388896454e+17
19463.0	5.183514951548924e+17
19464.0	5.2064551107734176e+17
19465.0	5.2261708526605645e+17
19466.0	5.243177766223872e+17
19467.0	5.2584651430734496e+17
19468.0	5.27225640329762e+17
19469.0	5.2846469987696634e+17
19470.0	5.296029312221183e+17
19471.0	5.3075671127162854e+17
19472.0	5.323812387509587e+17
19473.0	5.337704769606992e+17
19474.0	5.348934628496726e+17
19475.0	5.358325236148905e+17
19476.0	5.366670911253162e+17
19477.0	5.37377775882513e+17
19478.0	5.3796259013591046e+17
19479.0	5.384594211733503e+17
19480.0	5.389691025096704e+17
19481.0	5.393338376475988e+17
19482.0	5.397291958184617e+17
19483.0	5.4005311052185594e+17
19484.0	5.4031702130251085e+17
19485.0	5.40596377817361e+17
19486.0	5.4085644326010874e+17
19487.0	5.4105243532656634e+17
19488.0	5.4122671348121594e+17
19489.0	5.4138568200683514e+17
19490.0	5.4151253020289696e+17
19491.0	5.417173681263956e+17
19492.0	5.4183159167713274e+17
19493.0	5.419320774142635e+17
19494.0	5.420205572358143e+17
19495.0	5.42097031701026e+17
19496.0	5.422182768661844e+17
19497.0	5.4230293085334176e+17
19498.0	5.424681127510016e+17
19499.0	5.4195521382427226e+17
19500.0	5.4264777135882234e+17
19501.0	5.427177125664085e+17
19502.0	5.4274483803914234e+17
19503.0	5.4288978955031866e+17
19504.0	5.429027226167979e+17
19505.0	5.4290059470656845e+17
19506.0	5.42939657867537e+17
19507.0	5.429760589037566e+17
19508.0	5.4295883289722874e+17
19509.0	5.4293696484474874e+17
19510.0	5.429085794729983e+17
19511.0	5.4242868286805286e+17
19512.0	5.428662548911441e+17
19513.0	5.427337954153809e+17
19514.0	5.427506745529683e+17
19515.0	5.427974453766826e+17
19516.0	5.427665316085758e+17
19517.0	5.427668453425151e+17
19518.0	5.4273747277141325e+17
19519.0	5.4268461377563296e+17
19520.0	5.426294934907562e+17
19521.0	5.4257344374811296e+17
19522.0	5.4251413482154656e+17
19523.0	5.424544358247081e+17
19524.0	5.423922821813588e+17
19525.0	5.4232765683466234e+17
19526.0	5.4226310188236794e+17
19527.0	5.422406492837205e+17
19528.0	5.421845464132266e+17
19529.0	5.4211523281332896e+17
19530.0	5.420446318417237e+17
19531.0	5.4197278285496314e+17
19532.0	5.41899832234257e+17
19533.0	5.418258496050517e+17
19534.0	5.4175083224104954e+17
19535.0	5.416746568996181e+17
19536.0	5.415973177087317e+17
19537.0	5.41520441778722e+17
19538.0	5.4144138355234125e+17
19539.0	5.413511434513066e+17
19540.0	5.4128212359249914e+17
19541.0	5.412019454170452e+17
19542.0	5.41120459317794e+17
19543.0	5.410385198142804e+17
19544.0	5.409559359258623e+17
19545.0	5.4086641088375443e+17
19546.0	5.407707017598291e+17
19547.0	5.4074955470820685e+17
19548.0	5.40664876044561e+17
19549.0	5.405776000581632e+17
19550.0	5.404938352634538e+17
19551.0	5.404076885934079e+17
19552.0	5.4032105370637645e+17
19553.0	5.4023369026874003e+17
19554.0	5.4014585511171405e+17
19555.0	5.400585970909183e+17
19556.0	5.399707738177535e+17
19557.0	5.39882230522402e+17
19558.0	5.3979349240162976e+17
19559.0	5.3970405173493766e+17
19560.0	5.3961451040494925e+17
19561.0	5.395248384223913e+17
19562.0	5.3943547248421536e+17
19563.0	5.393452147671039e+17
19564.0	5.3925484065805645e+17
19565.0	5.3916415805794976e+17
19566.0	5.3907264142049274e+17
19567.0	5.389820408190292e+17
19568.0	5.3889023365611514e+17
19569.0	5.387989147101866e+17
19570.0	5.387074848249172e+17
19571.0	5.3862413994994336e+17
19572.0	5.3853484587417594e+17
19573.0	5.384429225989459e+17
19574.0	5.3834877585326074e+17
19575.0	5.3825814449356794e+17
19576.0	5.3816542248304634e+17
19577.0	5.3807076109626003e+17
19578.0	5.379786772490921e+17
19579.0	5.3788569791802003e+17
19580.0	5.377925084523178e+17
19581.0	5.376992143387306e+17
19582.0	5.3760602004957856e+17
19583.0	5.3751235229341e+17
19584.0	5.3741843455672314e+17
19585.0	5.3732247020939936e+17
19586.0	5.372275081609216e+17
19587.0	5.371339930075135e+17
19588.0	5.370330256244736e+17
19589.0	5.3694674956014925e+17
19590.0	5.3685195514402125e+17
19591.0	5.367592075482452e+17
19592.0	5.366648146668202e+17
19593.0	5.3656983269539834e+17
19594.0	5.36470176801314e+17
19595.0	5.3638040625261216e+17
19596.0	5.362238960784726e+17
19597.0	5.361906697109502e+17
19598.0	5.360902060638207e+17
19599.0	5.36001073189137e+17
19600.0	5.3590619034309965e+17
19601.0	5.358097665796778e+17
19602.0	5.357151140009301e+17
19603.0	5.356077063340032e+17
19604.0	5.3552440130491725e+17
19605.0	5.3542417323786234e+17
19606.0	5.353344569354922e+17
19607.0	5.352393540283051e+17
19608.0	5.351435711545343e+17
19609.0	5.35047340958242e+17
19610.0	5.349529084406442e+17
19611.0	5.3485723294105594e+17
19612.0	5.34761761284642e+17
19613.0	5.346658514632703e+17
19614.0	5.345696683130879e+17
19615.0	5.344747868651519e+17
19616.0	5.343761183801343e+17
19617.0	5.342832661364736e+17
19618.0	5.3417791025315834e+17
19619.0	5.340780736544767e+17
19620.0	5.3398348860402336e+17
19621.0	5.3390013422196045e+17
19622.0	5.3380427578081274e+17
19623.0	5.3370840300912634e+17
19624.0	5.3361231129477114e+17
19625.0	5.335165140205566e+17
19626.0	5.334206532026366e+17
19627.0	5.3332470619176954e+17
19628.0	5.332211772074666e+17
19629.0	5.3313106852795725e+17
19630.0	5.330332429582335e+17
19631.0	5.325836861308925e+17
19632.0	5.3284459281121274e+17
19633.0	5.327477779988479e+17
19634.0	5.3265270263425696e+17
19635.0	5.3255589229581645e+17
19636.0	5.324604826451968e+17
19637.0	5.3235716330618874e+17
19638.0	5.322683537424384e+17
19639.0	5.321722429439999e+17
19640.0	5.3209275815690234e+17
19641.0	5.3198603178475514e+17
19642.0	5.319036495724543e+17
19643.0	5.3180727096770554e+17
19644.0	5.317104662216703e+17
19645.0	5.316103829979135e+17
19646.0	5.3151946181181434e+17
19647.0	5.3142335905245856e+17
19648.0	5.3132725419595085e+17
19649.0	5.312310950232062e+17
19650.0	5.311350438537898e+17
19651.0	5.3103880058525005e+17
19652.0	5.309428037320703e+17
19653.0	5.3084655745761274e+17
19654.0	5.307504584032255e+17
19655.0	5.306543179650388e+17
19656.0	5.305582666558122e+17
19657.0	5.304621755006975e+17
