# Flux units: erg / (cm m2 s)
# Wavelength units: Angstrom
wave	flux
19000.0	4.9120317800447994e+17
19001.0	4.911136161923071e+17
19002.0	4.9102710447800314e+17
19003.0	4.9093905953587194e+17
19004.0	4.9085103871098874e+17
19005.0	4.9076301774629536e+17
19006.0	4.906749902804308e+17
19007.0	4.905871502999551e+17
19008.0	4.9049833940800845e+17
19009.0	4.9040963505138336e+17
19010.0	4.903154483199998e+17
19011.0	4.902349515871572e+17
19012.0	4.9014544821562016e+17
19013.0	4.9005985561313274e+17
19014.0	4.899711756533759e+17
19015.0	4.898838150119423e+17
19016.0	4.897953323242836e+17
19017.0	4.89708625924369e+17
19018.0	4.896209057611775e+17
19019.0	4.895332167057407e+17
19020.0	4.8944550101647354e+17
19021.0	4.893578086055934e+17
19022.0	4.892701380050943e+17
19023.0	4.891824427281067e+17
19024.0	4.890941464073557e+17
19025.0	4.890070730757462e+17
19026.0	4.889191255812779e+17
19027.0	4.888307909525502e+17
19028.0	4.887444398800896e+17
19029.0	4.8865689196298234e+17
19030.0	4.885693799071743e+17
19031.0	4.884818600919039e+17
19032.0	4.88394167750929e+17
19033.0	4.8830544025572685e+17
19034.0	4.8821924052773536e+17
19035.0	4.881302149573289e+17
19036.0	4.8795579461577376e+17
19037.0	4.879561920260777e+17
19038.0	4.8786963067917645e+17
19039.0	4.8778238880645114e+17
19040.0	4.8769508457840634e+17
19041.0	4.876077737792853e+17
19042.0	4.875055769758377e+17
19043.0	4.874331941939882e+17
19044.0	4.8734589485929805e+17
19045.0	4.8725865487400954e+17
19046.0	4.8717059951602336e+17
19047.0	4.870838063639209e+17
19048.0	4.869917715901098e+17
19049.0	4.8688069523537914e+17
19050.0	4.868216679563264e+17
19051.0	4.867228126150654e+17
19052.0	4.866456855161513e+17
19053.0	4.865612291506175e+17
19054.0	4.864742178248021e+17
19055.0	4.8637927143505914e+17
19056.0	4.8629847264242336e+17
19057.0	4.862131117053268e+17
19058.0	4.8611160318716576e+17
19059.0	4.860334601579177e+17
19060.0	4.8595180691565216e+17
19061.0	4.85865173356817e+17
19062.0	4.857781538521087e+17
19063.0	4.8569125011019085e+17
19064.0	4.856028149579775e+17
19065.0	4.855149969975978e+17
19066.0	4.854245162833236e+17
19067.0	4.8534381612673696e+17
19068.0	4.8525699396403194e+17
19069.0	4.8517020262946125e+17
19070.0	4.850832795937449e+17
19071.0	4.8499664722329594e+17
19072.0	4.8490436386706765e+17
19073.0	4.848230951725738e+17
19074.0	4.8473645168721914e+17
19075.0	4.846497440290134e+17
19076.0	4.845627903748778e+17
19077.0	4.844760901965141e+17
19078.0	4.8438928138567674e+17
19079.0	4.843031499549353e+17
19080.0	4.8421650290442234e+17
19081.0	4.8412920783394125e+17
19082.0	4.840428040530601e+17
19083.0	4.8395578979123194e+17
19084.0	4.838673360442709e+17
19085.0	4.837837580358996e+17
19086.0	4.836851832935764e+17
19087.0	4.835972979447123e+17
19088.0	4.83516071612689e+17
19089.0	4.8343470491129165e+17
19090.0	4.8335134843207674e+17
19091.0	4.832637731820885e+17
19092.0	4.8316688944332794e+17
19093.0	4.83092350439697e+17
19094.0	4.8300603690625696e+17
19095.0	4.8291921474355194e+17
19096.0	4.8283262788130106e+17
19097.0	4.827465355274922e+17
19098.0	4.8265444846469114e+17
19099.0	4.8256704224515405e+17
19100.0	4.824874196052649e+17
19101.0	4.8240151851171834e+17
19102.0	4.823133222950229e+17
19103.0	4.822292302746964e+17
19104.0	4.8214307528594765e+17
19105.0	4.820441733879126e+17
19106.0	4.819704874358102e+17
19107.0	4.818813434462207e+17
19108.0	4.817937144392362e+17
19109.0	4.8170842354701645e+17
19110.0	4.816259568194902e+17
19111.0	4.815368704316757e+17
19112.0	4.8145014075337376e+17
19113.0	4.8136843123752954e+17
19114.0	4.8128006095721805e+17
19115.0	4.811955442636117e+17
19116.0	4.8111050356162554e+17
19117.0	4.810242096016042e+17
19118.0	4.809361616535552e+17
19119.0	4.806570133159932e+17
19120.0	4.8076560929914874e+17
19121.0	4.806804778603861e+17
19122.0	4.8059528951889914e+17
19123.0	4.805095097805483e+17
19124.0	4.8042371368441165e+17
19125.0	4.8033787955991885e+17
19126.0	4.8025162348844365e+17
19127.0	4.8013822153195514e+17
19128.0	4.8008002968835405e+17
19129.0	4.7999381716773536e+17
19130.0	4.799093303235925e+17
19131.0	4.7982369696645114e+17
19132.0	4.797380233439913e+17
19133.0	4.796517648258389e+17
19134.0	4.795668830879743e+17
19135.0	4.794812797201066e+17
19136.0	4.793956746046121e+17
19137.0	4.7930773130444794e+17
19138.0	4.792243461641558e+17
19139.0	4.7913910511424845e+17
19140.0	4.7905364770815994e+17
19141.0	4.789681707985577e+17
19142.0	4.7888231745017165e+17
19143.0	4.7879640104741536e+17
19144.0	4.787116502417408e+17
19145.0	4.786264344974676e+17
19146.0	4.7853149111364256e+17
19147.0	4.784543963807743e+17
19148.0	4.783655864674987e+17
19149.0	4.782794839075498e+17
19150.0	4.781995908049577e+17
19151.0	4.781143835891029e+17
19152.0	4.780290787857748e+17
19153.0	4.779336562726229e+17
19154.0	4.7785582474035194e+17
19155.0	4.777733113861461e+17
19156.0	4.7768809354472096e+17
19157.0	4.775994028195839e+17
19158.0	4.77508260593664e+17
19159.0	4.774321807425536e+17
19160.0	4.773474127402324e+17
19161.0	4.772621926618451e+17
19162.0	4.771707373311316e+17
19163.0	4.7709144401401165e+17
19164.0	4.7700705328933536e+17
19165.0	4.769112842567679e+17
19166.0	4.7683475184025594e+17
19167.0	4.7675146414762656e+17
19168.0	4.766670513329492e+17
19169.0	4.765819904283989e+17
19170.0	4.7649718943088634e+17
19171.0	4.7641190210382496e+17
19172.0	4.76327335428096e+17
19173.0	4.762424766889983e+17
19174.0	4.7615672707973114e+17
19175.0	4.7607276480320845e+17
19176.0	4.7598794954506234e+17
19177.0	4.759007592622762e+17
19178.0	4.7581800620359674e+17
19179.0	4.757329675288576e+17
19180.0	4.756486681001983e+17
19181.0	4.755613735190527e+17
19182.0	4.7547895915042125e+17
19183.0	4.753945575205546e+17
19184.0	4.7530983090203296e+17
19185.0	4.7522509841148576e+17
19186.0	4.7514048839461536e+17
19187.0	4.750552070094847e+17
19188.0	4.749711898574847e+17
19189.0	4.748866643558398e+17
19190.0	4.748020324586836e+17
19191.0	4.747174034975402e+17
19192.0	4.7463292469247994e+17
19193.0	4.7454714809985696e+17
19194.0	4.7446186112232096e+17
19195.0	4.7437921320086176e+17
19196.0	4.742944560338261e+17
19197.0	4.7420972109660154e+17
19198.0	4.7412390591638176e+17
19199.0	4.7399706478073165e+17
19200.0	4.7392311025336314e+17
19201.0	4.738709260511913e+17
19202.0	4.7378783136645114e+17
19203.0	4.7370378709128525e+17
19204.0	4.736191566621353e+17
19205.0	4.735352791105536e+17
19206.0	4.7345085063714125e+17
19207.0	4.7336522322193056e+17
19208.0	4.732784123838463e+17
19209.0	4.731982832817493e+17
19210.0	4.7311407941331616e+17
19211.0	4.7302987051171834e+17
19212.0	4.729456593731583e+17
19213.0	4.7286001692835834e+17
19214.0	4.727754067716777e+17
19215.0	4.726929591981396e+17
19216.0	4.726090144677888e+17
19217.0	4.725246813448874e+17
19218.0	4.72428910285073e+17
19219.0	4.7235441609058976e+17
19220.0	4.7227263813768525e+17
19221.0	4.721841105010687e+17
19222.0	4.721042789149355e+17
19223.0	4.720206112882688e+17
19224.0	4.719361632414377e+17
19225.0	4.71850707722786e+17
19226.0	4.717687775166463e+17
19227.0	4.7168490003496954e+17
19228.0	4.7160099864575994e+17
19229.0	4.7151708586202445e+17
19230.0	4.7143315881765536e+17
19231.0	4.713493636841471e+17
19232.0	4.712653798069589e+17
19233.0	4.7118066521210874e+17
19234.0	4.710975215938219e+17
19235.0	4.710140525674496e+17
19236.0	4.709302619078655e+17
19237.0	4.7084627872972794e+17
19238.0	4.707612902468266e+17
19239.0	4.706790762960213e+17
19240.0	4.7059535449292794e+17
19241.0	4.7051168427977376e+17
19242.0	4.7042802203579725e+17
19243.0	4.70342239780864e+17
19244.0	4.7026073690439674e+17
19245.0	4.701771138072576e+17
19246.0	4.700933032247295e+17
19247.0	4.7000990249560736e+17
19248.0	4.699263561542313e+17
19249.0	4.698425554283177e+17
19250.0	4.697572114781524e+17
19251.0	4.696724603928576e+17
19252.0	4.695881056692906e+17
19253.0	4.6950852706959354e+17
19254.0	4.6942529362329594e+17
19255.0	4.693390704771071e+17
19256.0	4.6925809021091834e+17
19257.0	4.6917499286978554e+17
19258.0	4.690915778101247e+17
19259.0	4.690071266175658e+17
19260.0	4.689224057312595e+17
19261.0	4.6884144671621114e+17
19262.0	4.687575223282345e+17
19263.0	4.6867341101410976e+17
19264.0	4.685827865750185e+17
19265.0	4.68504650256657e+17
19266.0	4.684187314771285e+17
19267.0	4.683416781979647e+17
19268.0	4.6825761218232314e+17
19269.0	4.681743706270377e+17
19270.0	4.680909646550357e+17
19271.0	4.680025356544682e+17
19272.0	4.679242327523327e+17
19273.0	4.6783769433429325e+17
19274.0	4.6775230096124576e+17
19275.0	4.676753967895892e+17
19276.0	4.675919874621438e+17
19277.0	4.675092132921344e+17
19278.0	4.6742591567298554e+17
19279.0	4.673430131572736e+17
19280.0	4.672588580825771e+17
19281.0	4.6717688970827085e+17
19282.0	4.670939061026814e+17
19283.0	4.670104428784298e+17
19284.0	4.669276043957589e+17
19285.0	4.6684299633623034e+17
19286.0	4.6676136050032634e+17
19287.0	4.6667875074703354e+17
19288.0	4.665718238871551e+17
19289.0	4.664530381919571e+17
19290.0	4.6642997804837536e+17
19291.0	4.663437816758271e+17
19292.0	4.6626460083595936e+17
19293.0	4.6618168776458234e+17
19294.0	4.660989521122644e+17
19295.0	4.6601614389848736e+17
19296.0	4.6592729113340576e+17
19297.0	4.658494645643946e+17
19298.0	4.657677670722217e+17
19299.0	4.65678100332544e+17
19300.0	4.656018916463955e+17
19301.0	4.655194017802921e+17
19302.0	4.6543653959980365e+17
19303.0	4.6535283268648954e+17
19304.0	4.652708594887338e+17
19305.0	4.6518859541599565e+17
19306.0	4.6510595406561274e+17
19307.0	4.6502246266961914e+17
19308.0	4.6494045235227296e+17
19309.0	4.6485632726685e+17
19310.0	4.6477294799858336e+17
19311.0	4.6469180254672205e+17
19312.0	4.646099230916608e+17
19313.0	4.645267872328362e+17
19314.0	4.641641130360828e+17
19315.0	4.6411007502144896e+17
19316.0	4.6427100515314336e+17
19317.0	4.641970909609983e+17
19318.0	4.641146877072724e+17
19319.0	4.6403223726762656e+17
19320.0	4.6394729016852474e+17
19321.0	4.6386183283234125e+17
19322.0	4.6378364485413536e+17
19323.0	4.637016788566015e+17
19324.0	4.636196260369749e+17
19325.0	4.635359333143893e+17
19326.0	4.634547070522708e+17
19327.0	4.6337209625040205e+17
19328.0	4.6327846526429856e+17
19329.0	4.6320753301258234e+17
19330.0	4.6312453941056845e+17
19331.0	4.63041898479616e+17
19332.0	4.629602306271914e+17
19333.0	4.6287784093504845e+17
19334.0	4.6279510269624314e+17
19335.0	4.626897318532437e+17
19336.0	4.6263034547186336e+17
19337.0	4.625480796514987e+17
19338.0	4.624625533190143e+17
19339.0	4.623833580787028e+17
19340.0	4.62296271954466e+17
19341.0	4.6220882791628794e+17
19342.0	4.6212844477917856e+17
19343.0	4.620535565298346e+17
19344.0	4.6196255264604154e+17
19345.0	4.618516457411924e+17
19346.0	4.617915115154089e+17
19347.0	4.617122427349674e+17
19348.0	4.6164161631791776e+17
19349.0	4.6155925801314976e+17
19350.0	4.614725202258602e+17
19351.0	4.613938661206697e+17
19352.0	4.6129944115281914e+17
19353.0	4.61229462196497e+17
19354.0	4.611470454510932e+17
19355.0	4.6106321990888083e+17
19356.0	4.609820174843904e+17
19357.0	4.6089953034458445e+17
19358.0	4.6081696169547085e+17
19359.0	4.607314229897898e+17
19360.0	4.6064247033036806e+17
19361.0	4.605686730194943e+17
19362.0	4.604865951738538e+17
19363.0	4.604039389336916e+17
19364.0	4.603212255111849e+17
19365.0	4.6023833676677114e+17
19366.0	4.601544634094931e+17
19367.0	4.60071661277457e+17
19368.0	4.599888313931093e+17
19369.0	4.5990544618291194e+17
19370.0	4.5982258777729696e+17
19371.0	4.5973918565007354e+17
19372.0	4.5965696002512205e+17
19373.0	4.5957384898259616e+17
19374.0	4.5949068551127034e+17
19375.0	4.594073754490197e+17
19376.0	4.5932411949329056e+17
19377.0	4.592406617915391e+17
19378.0	4.5915722170586445e+17
19379.0	4.5907365047828486e+17
19380.0	4.589899669831678e+17
19381.0	4.5890617527500794e+17
19382.0	4.588211261844138e+17
19383.0	4.587366696091647e+17
19384.0	4.586536965592404e+17
19385.0	4.5856862943313914e+17
19386.0	4.584834131296255e+17
19387.0	4.5839877375262714e+17
19388.0	4.5831393822201165e+17
19389.0	4.5822884774761805e+17
19390.0	4.581431629403477e+17
19391.0	4.579758024512851e+17
19392.0	4.5796967233617914e+17
19393.0	4.57886481322257e+17
19394.0	4.5779996310678176e+17
19395.0	4.577078670961321e+17
19396.0	4.576230142290602e+17
19397.0	4.5753620024524794e+17
19398.0	4.574452439668054e+17
19399.0	4.5734430021167776e+17
19400.0	4.5726743938116256e+17
19401.0	4.571811138939561e+17
19402.0	4.57091670151441e+17
19403.0	4.570014445906602e+17
19404.0	4.569107111695702e+17
19405.0	4.5681915943976954e+17
19406.0	4.5672679492375885e+17
19407.0	4.56629421150481e+17
19408.0	4.565261306822656e+17
19409.0	4.564437028219562e+17
19410.0	4.563478195645098e+17
19411.0	4.562483380136617e+17
19412.0	4.561490698130772e+17
19413.0	4.560441663553536e+17
19414.0	4.5594519511149216e+17
19415.0	4.558412607477076e+17
19416.0	4.5573198332996256e+17
19417.0	4.556217802293247e+17
19418.0	4.555099234544298e+17
19419.0	4.553947000515242e+17
19420.0	4.552743199615657e+17
19421.0	4.551465503468202e+17
19422.0	4.550180800036864e+17
19423.0	4.548802209207636e+17
19424.0	4.547384818969257e+17
19425.0	4.545837457036628e+17
19426.0	4.544219054079998e+17
19427.0	4.542441148732757e+17
19428.0	4.540454097911808e+17
19429.0	4.5383053377972896e+17
19430.0	4.5361784593667405e+17
19431.0	4.533877970305024e+17
19432.0	4.531582313081513e+17
19433.0	4.5289308369715194e+17
19434.0	4.52589918495266e+17
19435.0	4.5224053646731936e+17
19436.0	4.51838706065954e+17
19437.0	4.5135808741157536e+17
19438.0	4.505894557581311e+17
19439.0	4.499770803137193e+17
19440.0	4.491277265534975e+17
19441.0	4.483059564238165e+17
19442.0	4.472769992108713e+17
19443.0	4.458782236431699e+17
19444.0	4.4387023842181126e+17
19445.0	4.4097729951607456e+17
19446.0	4.380414333769045e+17
19447.0	4.3388428762480666e+17
19448.0	4.2657216074874797e+17
19449.0	4.1557509328076774e+17
19450.0	3.863456839106573e+17
19451.0	3.661451043187395e+17
19452.0	4.050892733721261e+17
19453.0	4.215598228351663e+17
19454.0	4.30389399755161e+17
19455.0	4.3566406209372166e+17
19456.0	4.387775822430208e+17
19457.0	4.416201890114216e+17
19458.0	4.4286107916260883e+17
19459.0	4.453637329780737e+17
19460.0	4.4640880163116365e+17
19461.0	4.47150110609681e+17
19462.0	4.477947738062847e+17
19463.0	4.4849785561852576e+17
19464.0	4.490087282769919e+17
19465.0	4.4937980163741e+17
19466.0	4.4965069663327565e+17
19467.0	4.498607022189225e+17
19468.0	4.5002091134976e+17
19469.0	4.5013267004784634e+17
19470.0	4.502357777143125e+17
19471.0	4.503064487307945e+17
19472.0	4.503541790714538e+17
19473.0	4.5040749063263565e+17
19474.0	4.504474620002302e+17
19475.0	4.504646387935913e+17
19476.0	4.5048991227139405e+17
19477.0	4.5048762371932154e+17
19478.0	4.5047299650355194e+17
19479.0	4.504464008413183e+17
19480.0	4.504253831839743e+17
19481.0	4.5039083987490125e+17
19482.0	4.503565621351765e+17
19483.0	4.50313986174703e+17
19484.0	4.502670800147797e+17
19485.0	4.502180923615913e+17
19486.0	4.5015897588367354e+17
19487.0	4.5011350599325005e+17
19488.0	4.500567270009514e+17
19489.0	4.4999544059985914e+17
19490.0	4.499127745729876e+17
19491.0	4.498755024497323e+17
19492.0	4.4981479318487034e+17
19493.0	4.497504654240426e+17
19494.0	4.496849978611028e+17
19495.0	4.4961843705282554e+17
19496.0	4.49543076385041e+17
19497.0	4.494818553451861e+17
19498.0	4.494029429407744e+17
19499.0	4.492092029359444e+17
19500.0	4.492732824638804e+17
19501.0	4.49203340976674e+17
19502.0	4.491331662162602e+17
19503.0	4.490621262408362e+17
19504.0	4.4899007313128096e+17
19505.0	4.4891744225634976e+17
19506.0	4.4884479194781e+17
19507.0	4.4877145167626234e+17
19508.0	4.4869977989884576e+17
19509.0	4.486272928885419e+17
19510.0	4.485479504980649e+17
19511.0	4.4805088639713235e+17
19512.0	4.483820845094228e+17
19513.0	4.482859061127849e+17
19514.0	4.482252144639999e+17
19515.0	4.48171093402146e+17
19516.0	4.4810226815904416e+17
19517.0	4.480267460804608e+17
19518.0	4.4795020094122656e+17
19519.0	4.478754996180308e+17
19520.0	4.4779424735122765e+17
19521.0	4.4772643020909216e+17
19522.0	4.4764915679887354e+17
19523.0	4.4757193344068275e+17
19524.0	4.4749148962597536e+17
19525.0	4.4742096471108256e+17
19526.0	4.473445462398293e+17
19527.0	4.4726769372801696e+17
19528.0	4.471906233221119e+17
19529.0	4.471135250240853e+17
19530.0	4.4703759351152634e+17
19531.0	4.469607000353449e+17
19532.0	4.468837472097621e+17
19533.0	4.4680674656911354e+17
19534.0	4.467297018882729e+17
19535.0	4.466526106506581e+17
19536.0	4.4657484727582714e+17
19537.0	4.4649825537010336e+17
19538.0	4.46411546173986e+17
19539.0	4.463346346622975e+17
19540.0	4.462661379730091e+17
19541.0	4.461876681375744e+17
19542.0	4.461113182431914e+17
19543.0	4.46026643284514e+17
19544.0	4.459567306681002e+17
19545.0	4.45872006705971e+17
19546.0	4.457886976922964e+17
19547.0	4.457261471279787e+17
19548.0	4.4564886798554445e+17
19549.0	4.4557007721594874e+17
19550.0	4.454940130235732e+17
19551.0	4.454165966574932e+17
19552.0	4.4533911758656845e+17
19553.0	4.45261273960721e+17
19554.0	4.4518349310962336e+17
19555.0	4.4510585423571616e+17
19556.0	4.450286512198996e+17
19557.0	4.4495167763251194e+17
19558.0	4.448742057618091e+17
19559.0	4.44796749549841e+17
19560.0	4.447160572226217e+17
19561.0	4.446417505135274e+17
19562.0	4.445614472779093e+17
19563.0	4.4448675769876474e+17
19564.0	4.444092577262251e+17
19565.0	4.443317592216917e+17
19566.0	4.442539420898644e+17
19567.0	4.441767492801876e+17
19568.0	4.4409928153388365e+17
19569.0	4.440216225972224e+17
19570.0	4.439443229026987e+17
19571.0	4.4386681880575994e+17
19572.0	4.4378892477835936e+17
19573.0	4.4371076818752845e+17
19574.0	4.4363278146600954e+17
19575.0	4.435570201023827e+17
19576.0	4.43479107899665e+17
19577.0	4.434007190142975e+17
19578.0	4.4332404119524685e+17
19579.0	4.432469187799721e+17
19580.0	4.43169538764527e+17
19581.0	4.4309218237699405e+17
19582.0	4.430150621287765e+17
19583.0	4.4293767428396365e+17
19584.0	4.428602691026943e+17
19585.0	4.4278116271172256e+17
19586.0	4.4270339332505594e+17
19587.0	4.42627805745425e+17
19588.0	4.425433274996053e+17
19589.0	4.4247312974042445e+17
19590.0	4.4239390507008e+17
19591.0	4.423188768008874e+17
19592.0	4.422415481656661e+17
19593.0	4.4216361170589005e+17
19594.0	4.4208252280722765e+17
19595.0	4.4200936365970765e+17
19596.0	4.419324173352959e+17
19597.0	4.418552325647018e+17
19598.0	4.4176792847646714e+17
19599.0	4.4170075865524896e+17
19600.0	4.416236122625366e+17
19601.0	4.4154538786379085e+17
19602.0	4.4146819162876576e+17
19603.0	4.413850346586111e+17
19604.0	4.4131412393765536e+17
19605.0	4.412332763512832e+17
19606.0	4.4116059696223565e+17
19607.0	4.41083555357218e+17
19608.0	4.410063858958336e+17
19609.0	4.4092900629981856e+17
19610.0	4.408483614381397e+17
19611.0	4.4076943015935994e+17
19612.0	4.4069818263579296e+17
19613.0	4.4062114487555405e+17
19614.0	4.4054354843402234e+17
19615.0	4.4046706243447456e+17
19616.0	4.40385509715695e+17
19617.0	4.403068674244607e+17
19618.0	4.4022579537291936e+17
19619.0	4.4014563124838394e+17
19620.0	4.40069088416017e+17
19621.0	4.399970764805461e+17
19622.0	4.399283788141909e+17
19623.0	4.3985112022384634e+17
19624.0	4.3977353573608096e+17
19625.0	4.396977447327059e+17
19626.0	4.3962087076003834e+17
19627.0	4.395439307270825e+17
19628.0	4.3946594225793696e+17
19629.0	4.393688506215082e+17
19630.0	4.3930694877620896e+17
19631.0	4.3919049811995296e+17
19632.0	4.391590425176746e+17
19633.0	4.390827865057961e+17
19634.0	4.390064953316693e+17
19635.0	4.3892838271112525e+17
19636.0	4.388439297709397e+17
19637.0	4.3876306533744634e+17
19638.0	4.3869890227295565e+17
19639.0	4.3862306436328096e+17
19640.0	4.3854487009361914e+17
19641.0	4.3844301456670726e+17
19642.0	4.3839256338104314e+17
19643.0	4.38316038024943e+17
19644.0	4.382389019082751e+17
19645.0	4.3815900195498656e+17
19646.0	4.380769819208362e+17
19647.0	4.380102274755242e+17
19648.0	4.379338846415529e+17
19649.0	4.378573399217493e+17
19650.0	4.377808831425194e+17
19651.0	4.3770440476262394e+17
19652.0	4.376279379170645e+17
19653.0	4.375514598866943e+17
19654.0	4.3747505546635955e+17
19655.0	4.373985626860202e+17
