# Flux units: erg / (cm m2 s)
# Wavelength units: Angstrom
wave	flux
19000.0	5.5695071597909325e+17
19001.0	5.5683986401962643e+17
19002.0	5.567529174259028e+17
19003.0	5.566530131591168e+17
19004.0	5.565513537159167e+17
19005.0	5.564490187101524e+17
19006.0	5.5635061607410336e+17
19007.0	5.5625332332079776e+17
19008.0	5.561524761744723e+17
19009.0	5.560425456336896e+17
19010.0	5.5594696939929594e+17
19011.0	5.558474992429738e+17
19012.0	5.557320542410068e+17
19013.0	5.5565801834414074e+17
19014.0	5.555552365051903e+17
19015.0	5.554574683275262e+17
19016.0	5.553629230530558e+17
19017.0	5.552652999983103e+17
19018.0	5.551645293281279e+17
19019.0	5.5506631746300576e+17
19020.0	5.5496560013038925e+17
19021.0	5.548678035013632e+17
19022.0	5.547686723846143e+17
19023.0	5.546602067045034e+17
19024.0	5.545548833969492e+17
19025.0	5.544619346143915e+17
19026.0	5.543584367378431e+17
19027.0	5.5426141528610125e+17
19028.0	5.5416202384288403e+17
19029.0	5.540609084708179e+17
19030.0	5.539605231173631e+17
19031.0	5.538578268422143e+17
19032.0	5.5374768281135763e+17
19033.0	5.536143130318163e+17
19034.0	5.534618212106239e+17
19035.0	5.531732009462442e+17
19036.0	5.527016557598036e+17
19037.0	5.5300446088069114e+17
19038.0	5.5307352890408954e+17
19039.0	5.530323404193791e+17
19040.0	5.529550818290347e+17
19041.0	5.528673780935337e+17
19042.0	5.524580756794021e+17
19043.0	5.526824139707733e+17
19044.0	5.5258482335197856e+17
19045.0	5.5248119461314554e+17
19046.0	5.5238296268526925e+17
19047.0	5.5228111624601594e+17
19048.0	5.521295641586345e+17
19049.0	5.514103114170359e+17
19050.0	5.5193887285357216e+17
19051.0	5.517959859885396e+17
19052.0	5.5171614447588685e+17
19053.0	5.5165983035228154e+17
19054.0	5.515821321988777e+17
19055.0	5.513849938291371e+17
19056.0	5.513737052793513e+17
19057.0	5.51308991992081e+17
19058.0	5.508804512841722e+17
19059.0	5.5098969605625146e+17
19060.0	5.510198498863786e+17
19061.0	5.509197201058473e+17
19062.0	5.5082224315269114e+17
19063.0	5.507263535338836e+17
19064.0	5.506261170782206e+17
19065.0	5.505211276372649e+17
19066.0	5.503104031479126e+17
19067.0	5.503298386438825e+17
19068.0	5.5023828034300576e+17
19069.0	5.5013995851721376e+17
19070.0	5.500377612244308e+17
19071.0	5.499396967191894e+17
19072.0	5.497230831474002e+17
19073.0	5.497482770033322e+17
19074.0	5.496464844608851e+17
19075.0	5.495516127297535e+17
19076.0	5.49452059316497e+17
19077.0	5.4935444863494816e+17
19078.0	5.492539776477866e+17
19079.0	5.491568900658515e+17
19080.0	5.4905948868007245e+17
19081.0	5.4895730285172045e+17
19082.0	5.4886408115978234e+17
19083.0	5.48758170579763e+17
19084.0	5.4864958801838074e+17
19085.0	5.485662739016363e+17
19086.0	5.4826284361973734e+17
19087.0	5.4808843914663206e+17
19088.0	5.48093776188757e+17
19089.0	5.4816009100110496e+17
19090.0	5.4807587937320954e+17
19091.0	5.479585743372288e+17
19092.0	5.47618527012455e+17
19093.0	5.4778672929832954e+17
19094.0	5.476899741149866e+17
19095.0	5.4759190751259296e+17
19096.0	5.4749544313432723e+17
19097.0	5.4739789306047136e+17
19098.0	5.47163875783475e+17
19099.0	5.4703732412470624e+17
19100.0	5.4709968965031245e+17
19101.0	5.470040105855658e+17
19102.0	5.469063841054719e+17
19103.0	5.468093254642345e+17
19104.0	5.4671452426731514e+17
19105.0	5.463150838502749e+17
19106.0	5.465133016940543e+17
19107.0	5.4634182764134374e+17
19108.0	5.461992817033215e+17
19109.0	5.462143066090153e+17
19110.0	5.461196290042538e+17
19111.0	5.459361082813097e+17
19112.0	5.458245606965245e+17
19113.0	5.458335608340479e+17
19114.0	5.456728124555262e+17
19115.0	5.4562450406987085e+17
19116.0	5.455339013013504e+17
19117.0	5.454269558467242e+17
19118.0	5.452582031982592e+17
19119.0	5.448754454855678e+17
19120.0	5.450931103596542e+17
19121.0	5.4503694939805e+17
19122.0	5.4495367911178234e+17
19123.0	5.4486093703850656e+17
19124.0	5.4474733732058445e+17
19125.0	5.446629346421418e+17
19126.0	5.445577888235519e+17
19127.0	5.444469855879168e+17
19128.0	5.4436147847932576e+17
19129.0	5.442712588604758e+17
19130.0	5.441843291837779e+17
19131.0	5.4409110707240954e+17
19132.0	5.4399436614970016e+17
19133.0	5.43895874244881e+17
19134.0	5.4380139209468576e+17
19135.0	5.437053079300777e+17
19136.0	5.436083897281194e+17
19137.0	5.435086826635264e+17
19138.0	5.434146316178772e+17
19139.0	5.433191434638676e+17
19140.0	5.432226799943679e+17
19141.0	5.4312558045866643e+17
19142.0	5.430263340684628e+17
19143.0	5.429312945651711e+17
19144.0	5.4283181014821536e+17
19145.0	5.427371663076009e+17
19146.0	5.42591741399313e+17
19147.0	5.425431046695593e+17
19148.0	5.4234197122525875e+17
19149.0	5.422246269026304e+17
19150.0	5.422547398382932e+17
19151.0	5.4215628959689376e+17
19152.0	5.4205654750986234e+17
19153.0	5.4173553743189286e+17
19154.0	5.4184464532985165e+17
19155.0	5.417659525671593e+17
19156.0	5.416685318176767e+17
19157.0	5.414992320921601e+17
19158.0	5.4131112398902624e+17
19159.0	5.41370827739409e+17
19160.0	5.4127337301606394e+17
19161.0	5.4117392250306554e+17
19162.0	5.4107118533345274e+17
19163.0	5.409797746720767e+17
19164.0	5.4088674025581216e+17
19165.0	5.4054974121137434e+17
19166.0	5.406966844577109e+17
19167.0	5.4060489512058874e+17
19168.0	5.405104740674218e+17
19169.0	5.4041557479369376e+17
19170.0	5.4032049782128634e+17
19171.0	5.402238335145301e+17
19172.0	5.401267828424703e+17
19173.0	5.400328936270506e+17
19174.0	5.399359541040468e+17
19175.0	5.3983995801982285e+17
19176.0	5.3974394928278176e+17
19177.0	5.396347628814334e+17
19178.0	5.3954785564426234e+17
19179.0	5.394529176431274e+17
19180.0	5.393553854649685e+17
19181.0	5.392567632571051e+17
19182.0	5.391562901727913e+17
19183.0	5.390641354418858e+17
19184.0	5.389687367663615e+17
19185.0	5.3886914238873594e+17
19186.0	5.3877182929305594e+17
19187.0	5.3866774127793485e+17
19188.0	5.3857368498940576e+17
19189.0	5.384721466916862e+17
19190.0	5.3837150233995936e+17
19191.0	5.3826584642409805e+17
19192.0	5.381607380746239e+17
19193.0	5.380209962385407e+17
19194.0	5.3789079602462714e+17
19195.0	5.3782470448906234e+17
19196.0	5.3770086388858874e+17
19197.0	5.37571153289762e+17
19198.0	5.374294910216875e+17
19199.0	5.372699807318015e+17
19200.0	5.371827207536639e+17
19201.0	5.371462384877567e+17
19202.0	5.3709720399817376e+17
19203.0	5.3702899210212685e+17
19204.0	5.369661105373183e+17
19205.0	5.368906478780415e+17
19206.0	5.368104166446421e+17
19207.0	5.367161871313578e+17
19208.0	5.36637741343266e+17
19209.0	5.365525111985492e+17
19210.0	5.3646234435802445e+17
19211.0	5.363743644975104e+17
19212.0	5.362823777484798e+17
19213.0	5.361818547519487e+17
19214.0	5.3609298304259405e+17
19215.0	5.3600318383281485e+17
19216.0	5.359089694889301e+17
19217.0	5.3581217543837005e+17
19218.0	5.357115086471166e+17
19219.0	5.3561068708604576e+17
19220.0	5.3552920469176314e+17
19221.0	5.354375499218943e+17
19222.0	5.353434811203583e+17
19223.0	5.352507711335083e+17
19224.0	5.351545681302868e+17
19225.0	5.350649430540287e+17
19226.0	5.3497089242781e+17
19227.0	5.3487641538068474e+17
19228.0	5.3478476382644896e+17
19229.0	5.34687337554466e+17
19230.0	5.345950762882388e+17
19231.0	5.3450088564217165e+17
19232.0	5.3440670324490234e+17
19233.0	5.343077412984149e+17
19234.0	5.3421645387967136e+17
19235.0	5.3411960446429856e+17
19236.0	5.3402813843810976e+17
19237.0	5.3393116654906016e+17
19238.0	5.3383353007254176e+17
19239.0	5.3374420286177274e+17
19240.0	5.3364830862923085e+17
19241.0	5.335540238210389e+17
19242.0	5.334574129916586e+17
19243.0	5.333535548243966e+17
19244.0	5.332707069045419e+17
19245.0	5.331764115406847e+17
19246.0	5.3308255469131085e+17
19247.0	5.329872127087956e+17
19248.0	5.3289180033187834e+17
19249.0	5.3278760822811296e+17
19250.0	5.32652110118912e+17
19251.0	5.325540153447764e+17
19252.0	5.32490544550161e+17
19253.0	5.3241793415741434e+17
19254.0	5.3232524786838176e+17
19255.0	5.322142865773908e+17
19256.0	5.321336455604906e+17
19257.0	5.320392690368511e+17
19258.0	5.319422400353621e+17
19259.0	5.318355564451156e+17
19260.0	5.317221739921407e+17
19261.0	5.3165092793658016e+17
19262.0	5.3155229761972896e+17
19263.0	5.314573833863168e+17
19264.0	5.3136319518692685e+17
19265.0	5.312696253677567e+17
19266.0	5.311755475484672e+17
19267.0	5.3109154927083514e+17
19268.0	5.3099795896948045e+17
19269.0	5.3090474391852365e+17
19270.0	5.308082965271892e+17
19271.0	5.307102641083732e+17
19272.0	5.306201579454462e+17
19273.0	5.305160149150378e+17
19274.0	5.3040333668570445e+17
19275.0	5.3034070775780685e+17
19276.0	5.3024391643354445e+17
19277.0	5.30150343119121e+17
19278.0	5.3004748704098976e+17
19279.0	5.299571255847593e+17
19280.0	5.298631582853802e+17
19281.0	5.2976684720892576e+17
19282.0	5.2967119904221856e+17
19283.0	5.295720802287614e+17
19284.0	5.294666612211711e+17
19285.0	5.2935875016785914e+17
19286.0	5.292305382637567e+17
19287.0	5.290530177024e+17
19288.0	5.2866245019566074e+17
19289.0	5.284993174252202e+17
19290.0	5.287524972888062e+17
19291.0	5.287373220173141e+17
19292.0	5.286997446186325e+17
19293.0	5.286220380766207e+17
19294.0	5.285336171850409e+17
19295.0	5.284468987614547e+17
19296.0	5.282049448127149e+17
19297.0	5.282369898545152e+17
19298.0	5.2816847226361165e+17
19299.0	5.279077390177622e+17
19300.0	5.2798174352725325e+17
19301.0	5.278891349027498e+17
19302.0	5.2779376027456845e+17
19303.0	5.276936905424894e+17
19304.0	5.2760323045021005e+17
19305.0	5.2750499733394765e+17
19306.0	5.2740816993867085e+17
19307.0	5.2730478174317216e+17
19308.0	5.2720544580457805e+17
19309.0	5.270974039588864e+17
19310.0	5.269868099491157e+17
19311.0	5.2686146051768314e+17
19312.0	5.2668947126463123e+17
19313.0	5.2629100203868154e+17
19314.0	5.223554207449095e+17
19315.0	5.2241211871723584e+17
19316.0	5.258278482564439e+17
19317.0	5.2622600682427725e+17
19318.0	5.262150875829588e+17
19319.0	5.2615337112589645e+17
19320.0	5.2601887244943334e+17
19321.0	5.2585787101457056e+17
19322.0	5.2590520764989434e+17
19323.0	5.258149259553449e+17
19324.0	5.2572264965952845e+17
19325.0	5.2563221109800954e+17
19326.0	5.2554080008710816e+17
19327.0	5.254487219721556e+17
19328.0	5.250879921848322e+17
19329.0	5.252641659551743e+17
19330.0	5.251720204517375e+17
19331.0	5.250757327934805e+17
19332.0	5.249851569384106e+17
19333.0	5.248904159297535e+17
19334.0	5.24791233642496e+17
19335.0	5.241589345550341e+17
19336.0	5.2460570888110086e+17
19337.0	5.2451703157773645e+17
19338.0	5.244057923442004e+17
19339.0	5.2432423137662285e+17
19340.0	5.2422134537912314e+17
19341.0	5.239276154038959e+17
19342.0	5.239735904982358e+17
19343.0	5.239386864790185e+17
19344.0	5.236353568604161e+17
19345.0	5.236284573701462e+17
19346.0	5.236219419383125e+17
19347.0	5.232992194658302e+17
19348.0	5.234723398527657e+17
19349.0	5.233799261235883e+17
19350.0	5.2318725112244896e+17
19351.0	5.2319254034950816e+17
19352.0	5.2282659885984365e+17
19353.0	5.230111708850858e+17
19354.0	5.229185405201066e+17
19355.0	5.2281621732829856e+17
19356.0	5.2272896965345274e+17
19357.0	5.226350140282196e+17
19358.0	5.2253910693314554e+17
19359.0	5.2238469950341094e+17
19360.0	5.221341026320381e+17
19361.0	5.2225430194749434e+17
19362.0	5.2215989697249274e+17
19363.0	5.220652881543167e+17
19364.0	5.21970328412706e+17
19365.0	5.2187401020593485e+17
19366.0	5.21777344291362e+17
19367.0	5.216823907713023e+17
19368.0	5.2158706899135136e+17
19369.0	5.2148733543273805e+17
19370.0	5.213921285767167e+17
19371.0	5.2129209344764576e+17
19372.0	5.211993033495893e+17
19373.0	5.211011130851326e+17
19374.0	5.210050230484992e+17
19375.0	5.2091010448097274e+17
19376.0	5.20812737208866e+17
19377.0	5.207143483441152e+17
19378.0	5.206167402490538e+17
19379.0	5.2051842170879994e+17
19380.0	5.204158265163774e+17
19381.0	5.2031765484666874e+17
19382.0	5.2021278347537043e+17
19383.0	5.201157425201151e+17
19384.0	5.2001406350349645e+17
19385.0	5.199139809787904e+17
19386.0	5.1980742028165114e+17
19387.0	5.196958377443328e+17
19388.0	5.1957525863464954e+17
19389.0	5.194307090776062e+17
19390.0	5.1920142807859194e+17
19391.0	5.187089118614868e+17
19392.0	5.188557482928809e+17
19393.0	5.189758760255487e+17
19394.0	5.1894067777590605e+17
19395.0	5.187856537135788e+17
19396.0	5.1875139268116474e+17
19397.0	5.1866760265072634e+17
19398.0	5.18487370961169e+17
19399.0	5.183556958901588e+17
19400.0	5.182787297127083e+17
19401.0	5.182388460759722e+17
19402.0	5.18131093147921e+17
19403.0	5.1801822191069856e+17
19404.0	5.179038063307434e+17
19405.0	5.1778521930574496e+17
19406.0	5.176677971088725e+17
19407.0	5.1745206993332883e+17
19408.0	5.174149846663167e+17
19409.0	5.1729452782059514e+17
19410.0	5.1717493947542176e+17
19411.0	5.1704824283354445e+17
19412.0	5.169166117328213e+17
19413.0	5.166882801145172e+17
19414.0	5.1664656650294605e+17
19415.0	5.165039219288747e+17
19416.0	5.163472347551059e+17
19417.0	5.162086590054398e+17
19418.0	5.1605276860962125e+17
19419.0	5.158912921698304e+17
19420.0	5.157286687976106e+17
19421.0	5.155548816561493e+17
19422.0	5.153696605623636e+17
19423.0	5.151838432482644e+17
19424.0	5.1498732172083194e+17
19425.0	5.147775300446889e+17
19426.0	5.145543153374549e+17
19427.0	5.1431574066954234e+17
19428.0	5.140608103131819e+17
19429.0	5.1378651149981005e+17
19430.0	5.134697615764138e+17
19431.0	5.131492725009066e+17
19432.0	5.1285964217821856e+17
19433.0	5.125167818036564e+17
19434.0	5.1212114722815994e+17
19435.0	5.116815435541161e+17
19436.0	5.111408628159828e+17
19437.0	5.104233298788352e+17
19438.0	5.090875154279083e+17
19439.0	5.0897329250631674e+17
19440.0	5.088174434243925e+17
19441.0	5.0820686950345363e+17
19442.0	5.074016594646357e+17
19443.0	5.06480073777698e+17
19444.0	5.0534797681186106e+17
19445.0	5.040296235980115e+17
19446.0	5.024511265079296e+17
19447.0	5.0049135837620896e+17
19448.0	4.979929819818667e+17
19449.0	4.945652331053055e+17
19450.0	4.8865016653632794e+17
19451.0	4.834925320601601e+17
19452.0	4.920273743992148e+17
19453.0	4.960819163605675e+17
19454.0	4.98747444437538e+17
19455.0	5.006733623689215e+17
19456.0	5.02079445602577e+17
19457.0	5.02489423089937e+17
19458.0	4.9323961088300806e+17
19459.0	5.0134198811361434e+17
19460.0	5.056360948782419e+17
19461.0	5.0668690616265376e+17
19462.0	5.073450907467775e+17
19463.0	5.07831791002146e+17
19464.0	5.082503896716628e+17
19465.0	5.086023387534677e+17
19466.0	5.088993144908457e+17
19467.0	5.0914273630617594e+17
19468.0	5.093454781961557e+17
19469.0	5.093393222161745e+17
19470.0	5.096747679001257e+17
19471.0	5.0980270039367674e+17
19472.0	5.099064139273556e+17
19473.0	5.0999155592178336e+17
19474.0	5.0985538693365715e+17
19475.0	5.1008470756884474e+17
19476.0	5.101433921732606e+17
19477.0	5.101783693131775e+17
19478.0	5.102011027204778e+17
19479.0	5.100244028446033e+17
19480.0	5.1021060946001914e+17
19481.0	5.102037508642134e+17
19482.0	5.101910947616085e+17
19483.0	5.1017225625490765e+17
19484.0	5.101455281924778e+17
19485.0	5.1011610990346234e+17
19486.0	5.0988348702283136e+17
19487.0	5.1003710837009056e+17
19488.0	5.099885281236308e+17
19489.0	5.0992799432048634e+17
19490.0	5.0986869462138874e+17
19491.0	5.098261308943019e+17
19492.0	5.0977747934467405e+17
19493.0	5.097149468857686e+17
19494.0	5.0964166938897056e+17
19495.0	5.0955329470463994e+17
19496.0	5.094303696508244e+17
19497.0	5.0924516113995085e+17
19498.0	5.0876876034757965e+17
19499.0	5.0838808203100154e+17
19500.0	5.0894387449692154e+17
19501.0	5.090688551092223e+17
19502.0	5.090652317898068e+17
19503.0	5.090213975381332e+17
19504.0	5.0895731255760205e+17
19505.0	5.088780365070335e+17
19506.0	5.088022870971732e+17
19507.0	5.0870342623341216e+17
19508.0	5.085779257371306e+17
19509.0	5.083674269712383e+17
19510.0	5.076503068235092e+17
19511.0	5.031021784683855e+17
19512.0	5.069887122702334e+17
19513.0	5.07592795296017e+17
19514.0	5.0770810887645856e+17
19515.0	5.079476081786879e+17
19516.0	5.079378966173012e+17
19517.0	5.079276212715518e+17
19518.0	5.078180880012627e+17
19519.0	5.0774662705752723e+17
19520.0	5.075329406904999e+17
19521.0	5.0766203752284154e+17
19522.0	5.0754822249731405e+17
19523.0	5.0745002209662304e+17
19524.0	5.0726775421228397e+17
19525.0	5.073344696505685e+17
19526.0	5.0725725475089056e+17
19527.0	5.0717524254610765e+17
19528.0	5.070746348945407e+17
19529.0	5.069821983064064e+17
19530.0	5.06925265592866e+17
19531.0	5.0684065760324256e+17
19532.0	5.0675569778141856e+17
19533.0	5.066699249636692e+17
19534.0	5.065861882707968e+17
19535.0	5.064995591159807e+17
19536.0	5.064112227396266e+17
19537.0	5.0632436024169805e+17
19538.0	5.0604904570770797e+17
19539.0	5.0614945804451834e+17
19540.0	5.0606662732130976e+17
19541.0	5.0593703835729914e+17
19542.0	5.0587770391538336e+17
19543.0	5.056082786735446e+17
19544.0	5.057063795993258e+17
19545.0	5.0561916855473485e+17
19546.0	5.0553680843243514e+17
19547.0	5.0546270130230605e+17
19548.0	5.0538171027073696e+17
19549.0	5.052885425455103e+17
19550.0	5.052110505421483e+17
19551.0	5.0512679277690874e+17
19552.0	5.0503933895202125e+17
19553.0	5.049532744204287e+17
19554.0	5.0486481137609376e+17
19555.0	5.047541178914134e+17
19556.0	5.0467534152226125e+17
19557.0	5.046040211576149e+17
19558.0	5.045202590192981e+17
19559.0	5.044336254604628e+17
19560.0	5.0427237530337254e+17
19561.0	5.0425818541370016e+17
19562.0	5.041011329160531e+17
19563.0	5.0408708472395085e+17
19564.0	5.039970466485589e+17
19565.0	5.0391156820104525e+17
19566.0	5.038228358124885e+17
19567.0	5.037383491081557e+17
19568.0	5.0364910158916256e+17
19569.0	5.0356274338638496e+17
19570.0	5.034747460496041e+17
19571.0	5.0338833646660256e+17
19572.0	5.03299874820369e+17
19573.0	5.0318913240214176e+17
19574.0	5.0311170967470074e+17
19575.0	5.030413999975081e+17
19576.0	5.0294019465762125e+17
19577.0	5.028264830915926e+17
19578.0	5.0277877232435194e+17
19579.0	5.0269056974629536e+17
19580.0	5.026031191370409e+17
19581.0	5.02516120883473e+17
19582.0	5.024305694550697e+17
19583.0	5.0234386766888954e+17
19584.0	5.022539550031871e+17
19585.0	5.021589305294847e+17
19586.0	5.020690321943209e+17
19587.0	5.0198970965688314e+17
19588.0	5.0189798791796045e+17
19589.0	5.018132271158612e+17
19590.0	5.0172341119877114e+17
19591.0	5.0164248070498976e+17
19592.0	5.0155715297279994e+17
19593.0	5.0144905862840314e+17
19594.0	5.0134521667911674e+17
19595.0	5.0129448146916685e+17
19596.0	5.012022936032596e+17
19597.0	5.01116818301474e+17
19598.0	5.0101069122546336e+17
19599.0	5.0094046417605965e+17
19600.0	5.0085563738357754e+17
19601.0	5.007657709950293e+17
19602.0	5.0067741833079443e+17
19603.0	5.005877448802303e+17
19604.0	5.0050157542113274e+17
19605.0	5.00404903215104e+17
19606.0	5.003326305337343e+17
19607.0	5.0024848475641165e+17
19608.0	5.0015849484561056e+17
19609.0	5.000721103585278e+17
19610.0	4.998940019654658e+17
19611.0	4.9976028294021114e+17
19612.0	4.998123663392766e+17
19613.0	4.997221479787177e+17
19614.0	4.996327430335146e+17
19615.0	4.9954475786021536e+17
19616.0	4.9935993697293664e+17
19617.0	4.9922188243544755e+17
19618.0	4.992512508821502e+17
19619.0	4.991445745620309e+17
19620.0	4.9903755235164134e+17
19621.0	4.988083557280425e+17
19622.0	4.989265091319124e+17
19623.0	4.9882783351657805e+17
19624.0	4.987155371087189e+17
19625.0	4.9865506517155834e+17
19626.0	4.985567925589332e+17
19627.0	4.9845670947498656e+17
19628.0	4.983440478131541e+17
19629.0	4.977466718289916e+17
19630.0	4.9808814088301216e+17
19631.0	4.979641510352213e+17
19632.0	4.9794924958187514e+17
19633.0	4.97896388628753e+17
19634.0	4.978437250875392e+17
19635.0	4.9775078105852563e+17
19636.0	4.974746573034833e+17
19637.0	4.973768246034429e+17
19638.0	4.9752187817601683e+17
19639.0	4.9744945289188685e+17
19640.0	4.9734352182968314e+17
19641.0	4.972434092457983e+17
19642.0	4.9717765933629434e+17
19643.0	4.970969059120469e+17
19644.0	4.970254509801471e+17
19645.0	4.969421297330858e+17
19646.0	4.9662075810611155e+17
19647.0	4.9676920885521056e+17
19648.0	4.966893336483157e+17
19649.0	4.966025949522603e+17
19650.0	4.9651720598323194e+17
19651.0	4.9643121366357325e+17
19652.0	4.9634503064289274e+17
19653.0	4.9625782819662496e+17
19654.0	4.9617268725077325e+17
19655.0	4.9608554527238816e+17
