# Flux units: erg / (cm m2 s)
# Wavelength units: Angstrom
wave	flux
19000.0	7.01782528570163e+17
19001.0	7.016474202516138e+17
19002.0	7.015245228102995e+17
19003.0	7.013952907116541e+17
19004.0	7.01266051412787e+17
19005.0	7.011370204310185e+17
19006.0	7.010077539390804e+17
19007.0	7.008724791066623e+17
19008.0	7.00745337868561e+17
19009.0	7.006142611150164e+17
19010.0	7.004623793553407e+17
19011.0	7.003579283232084e+17
19012.0	7.002093901228713e+17
19013.0	7.001017316365652e+17
19014.0	6.999677722077865e+17
19015.0	6.998395302445055e+17
19016.0	6.997091384907091e+17
19017.0	6.995820255641599e+17
19018.0	6.994512472353449e+17
19019.0	6.993225133501098e+17
19020.0	6.991914112909311e+17
19021.0	6.990635109537108e+17
19022.0	6.989341307961343e+17
19023.0	6.988015429746687e+17
19024.0	6.986724280369151e+17
19025.0	6.985422055931904e+17
19026.0	6.984107361828861e+17
19027.0	6.982658722627583e+17
19028.0	6.981542969955668e+17
19029.0	6.980232359706623e+17
19030.0	6.978941661915817e+17
19031.0	6.977640651030528e+17
19032.0	6.976339090691412e+17
19033.0	6.974981387496106e+17
19034.0	6.973725022180691e+17
19035.0	6.972393041253716e+17
19036.0	6.958980579808595e+17
19037.0	6.969816554405887e+17
19038.0	6.968509507917139e+17
19039.0	6.967223571360425e+17
19040.0	6.965921155383296e+17
19041.0	6.964617718792191e+17
19042.0	6.963259779317759e+17
19043.0	6.962012252798973e+17
19044.0	6.960706225526099e+17
19045.0	6.959398010923689e+17
19046.0	6.958069893649748e+17
19047.0	6.956786464587775e+17
19048.0	6.955368064920233e+17
19049.0	6.954137778388991e+17
19050.0	6.952855251801428e+17
19051.0	6.949715634203302e+17
19052.0	6.949935234678783e+17
19053.0	6.94895297831458e+17
19054.0	6.94766348079377e+17
19055.0	6.946201565921279e+17
19056.0	6.945040748249087e+17
19057.0	6.943743141740543e+17
19058.0	6.942420516208639e+17
19059.0	6.9411370710685e+17
19060.0	6.939817854806697e+17
19061.0	6.938526723604479e+17
19062.0	6.937217912012799e+17
19063.0	6.935913152118783e+17
19064.0	6.934537735678634e+17
19065.0	6.933315767850323e+17
19066.0	6.93210908406579e+17
19067.0	6.930838368638292e+17
19068.0	6.929532583236948e+17
19069.0	6.928226088998228e+17
19070.0	6.926904296035668e+17
19071.0	6.925606704906237e+17
19072.0	6.924303325637289e+17
19073.0	6.922995064897535e+17
19074.0	6.9216911767197e+17
19075.0	6.920383949875881e+17
19076.0	6.919063942987775e+17
19077.0	6.917761033480874e+17
19078.0	6.916445494924627e+17
19079.0	6.915154404267348e+17
19080.0	6.913842202978986e+17
19081.0	6.912515371958271e+17
19082.0	6.911204007433555e+17
19083.0	6.909853791070889e+17
19084.0	6.908469208678399e+17
19085.0	6.907306853793791e+17
19086.0	6.905753027739647e+17
19087.0	6.9043377143808e+17
19088.0	6.903311595383465e+17
19089.0	6.901776680047955e+17
19090.0	6.900741258084351e+17
19091.0	6.899439851536383e+17
19092.0	6.898039518833321e+17
19093.0	6.896843410986324e+17
19094.0	6.895530415576404e+17
19095.0	6.894221122338815e+17
19096.0	6.892910489021097e+17
19097.0	6.891611786401108e+17
19098.0	6.8903035221661e+17
19099.0	6.888994807043412e+17
19100.0	6.887667670537555e+17
19101.0	6.886373063655423e+17
19102.0	6.885014403459753e+17
19103.0	6.883765130712404e+17
19104.0	6.882456655364095e+17
19105.0	6.881141643193001e+17
19106.0	6.879774357411156e+17
19107.0	6.87851969777937e+17
19108.0	6.877217724301311e+17
19109.0	6.87486494065732e+17
19110.0	6.874562567689555e+17
19111.0	6.873296352051199e+17
19112.0	6.871989483820372e+17
19113.0	6.870681476136959e+17
19114.0	6.869373009177257e+17
19115.0	6.868017018656084e+17
19116.0	6.866741518925823e+17
19117.0	6.865431812549289e+17
19118.0	6.864030518651561e+17
19119.0	6.860567179777362e+17
19120.0	6.86141802020864e+17
19121.0	6.860135887885652e+17
19122.0	6.85890410189073e+17
19123.0	6.857594689814528e+17
19124.0	6.856222906340694e+17
19125.0	6.854968108995923e+17
19126.0	6.853662459909459e+17
19127.0	6.851304193611091e+17
19128.0	6.850685702941353e+17
19129.0	6.849690616201215e+17
19130.0	6.848426557833215e+17
19131.0	6.847115105228116e+17
19132.0	6.845811512748713e+17
19133.0	6.8443621045917e+17
19134.0	6.843031003070464e+17
19135.0	6.841879245793962e+17
19136.0	6.840577317055145e+17
19137.0	6.839169394758996e+17
19138.0	6.837937729699837e+17
19139.0	6.83664760513058e+17
19140.0	6.835339738655401e+17
19141.0	6.834030089601023e+17
19142.0	6.832705235495593e+17
19143.0	6.831379067174911e+17
19144.0	6.830084312094036e+17
19145.0	6.82878764720674e+17
19146.0	6.827115229304148e+17
19147.0	6.826112073422163e+17
19148.0	6.824853583691775e+17
19149.0	6.823544886744403e+17
19150.0	6.822233524316842e+17
19151.0	6.820928237338624e+17
19152.0	6.819602196944212e+17
19153.0	6.818294661819049e+17
19154.0	6.816917923474089e+17
19155.0	6.815683971820202e+17
19156.0	6.814368776497834e+17
19157.0	6.813029939281919e+17
19158.0	6.811048230606164e+17
19159.0	6.810414392978089e+17
19160.0	6.809108145504256e+17
19161.0	6.807774158301866e+17
19162.0	6.804881165079894e+17
19163.0	6.805128338210815e+17
19164.0	6.803876367826943e+17
19165.0	6.802535172014079e+17
19166.0	6.801148670727508e+17
19167.0	6.799787317788672e+17
19168.0	6.798606454139562e+17
19169.0	6.797276854878207e+17
19170.0	6.796000498810879e+17
19171.0	6.794595690086397e+17
19172.0	6.79336497713425e+17
19173.0	6.792058183002793e+17
19174.0	6.790716764891817e+17
19175.0	6.789437765014868e+17
19176.0	6.788123221906772e+17
19177.0	6.78671479349794e+17
19178.0	6.785447623655423e+17
19179.0	6.784047440549204e+17
19180.0	6.782836946938537e+17
19181.0	6.781480390885375e+17
19182.0	6.780217013392724e+17
19183.0	6.778913989241513e+17
19184.0	6.777584257859583e+17
19185.0	6.776279767799124e+17
19186.0	6.774965609867946e+17
19187.0	6.773603182488234e+17
19188.0	6.772326210557267e+17
19189.0	6.770997864693759e+17
19190.0	6.769672461134505e+17
19191.0	6.768340025824595e+17
19192.0	6.767055829204992e+17
19193.0	6.765723925173588e+17
19194.0	6.764403791058259e+17
19195.0	6.763093769409876e+17
19196.0	6.761760879717034e+17
19197.0	6.760425511190528e+17
19198.0	6.75903962227234e+17
19199.0	6.748179385024508e+17
19200.0	6.749710959596888e+17
19201.0	6.75508686754065e+17
19202.0	6.753825936725332e+17
19203.0	6.752494017314815e+17
19204.0	6.751185288211113e+17
19205.0	6.749879477643946e+17
19206.0	6.748548195068585e+17
19207.0	6.747171234425514e+17
19208.0	6.745785916631722e+17
19209.0	6.744575882297343e+17
19210.0	6.743258257773908e+17
19211.0	6.74193119187217e+17
19212.0	6.740603366102356e+17
19213.0	6.739157521006591e+17
19214.0	6.737774452757844e+17
19215.0	6.736578084863999e+17
19216.0	6.735286590155434e+17
19217.0	6.733958235903316e+17
19218.0	6.732126688204114e+17
19219.0	6.731199721854291e+17
19220.0	6.729949589973673e+17
19221.0	6.72843745600034e+17
19222.0	6.727292738863101e+17
19223.0	6.725961848455167e+17
19224.0	6.724598234087423e+17
19225.0	6.723204382982143e+17
19226.0	6.721945714993834e+17
19227.0	6.720606172435796e+17
19228.0	6.719281435770879e+17
19229.0	6.717942031624874e+17
19230.0	6.71658642977587e+17
19231.0	6.715243379381588e+17
19232.0	6.713912211450538e+17
19233.0	6.71253317882129e+17
19234.0	6.711219103378089e+17
19235.0	6.709875223909716e+17
19236.0	6.708543256264704e+17
19237.0	6.707187016182442e+17
19238.0	6.705780241727487e+17
19239.0	6.704501419409408e+17
19240.0	6.703119329132543e+17
19241.0	6.701776631059796e+17
19242.0	6.7004379707037e+17
19243.0	6.698992628225364e+17
19244.0	6.697743021331795e+17
19245.0	6.696387529932799e+17
19246.0	6.695021267561129e+17
19247.0	6.693672260556116e+17
19248.0	6.692313843630079e+17
19249.0	6.690951456795306e+17
19250.0	6.689578762458452e+17
19251.0	6.688149442221395e+17
19252.0	6.686691466499412e+17
19253.0	6.685482344426153e+17
19254.0	6.684124159584937e+17
19255.0	6.682648158841513e+17
19256.0	6.681354412490751e+17
19257.0	6.680015712288767e+17
19258.0	6.678642270666752e+17
19259.0	6.677222983204861e+17
19260.0	6.675674893560489e+17
19261.0	6.67450948592162e+17
19262.0	6.673098601747795e+17
19263.0	6.67170781667874e+17
19264.0	6.670040134145363e+17
19265.0	6.668857318047743e+17
19266.0	6.6674778177536e+17
19267.0	6.666194419449855e+17
19268.0	6.664801377146196e+17
19269.0	6.663406115356672e+17
19270.0	6.662007066110633e+17
19271.0	6.660408941914794e+17
19272.0	6.65918461129523e+17
19273.0	6.656788811568467e+17
19274.0	6.655736551571453e+17
19275.0	6.654986858179242e+17
19276.0	6.653563995772244e+17
19277.0	6.65215252369681e+17
19278.0	6.650745127785812e+17
19279.0	6.64930570416947e+17
19280.0	6.647856516213417e+17
19281.0	6.646465160719017e+17
19282.0	6.645045070047914e+17
19283.0	6.643475235034452e+17
19284.0	6.642045839299923e+17
19285.0	6.640624171570516e+17
19286.0	6.639279819543892e+17
19287.0	6.637855784129876e+17
19288.0	6.632968304285009e+17
19289.0	6.627213868793842e+17
19290.0	6.633501818355711e+17
19291.0	6.631887214739456e+17
19292.0	6.630585107742719e+17
19293.0	6.629114370850815e+17
19294.0	6.627649069776895e+17
19295.0	6.62617468314146e+17
19296.0	6.624695982664361e+17
19297.0	6.623205823348736e+17
19298.0	6.621714244261204e+17
19299.0	6.620233275364692e+17
19300.0	6.618735132890452e+17
19301.0	6.617230115252905e+17
19302.0	6.615716845322239e+17
19303.0	6.614169060463955e+17
19304.0	6.612673777805993e+17
19305.0	6.611162558190932e+17
19306.0	6.609636725620733e+17
19307.0	6.608071036676778e+17
19308.0	6.606543427119785e+17
19309.0	6.604688968034985e+17
19310.0	6.603019884604074e+17
19311.0	6.601861048740521e+17
19312.0	6.600353972398761e+17
19313.0	6.598788454722217e+17
19314.0	6.588381483324762e+17
19315.0	6.587309197623304e+17
19316.0	6.594013898123945e+17
19317.0	6.592449483549353e+17
19318.0	6.590842605841066e+17
19319.0	6.589243057679017e+17
19320.0	6.587622921076736e+17
19321.0	6.585996801299796e+17
19322.0	6.584287748947965e+17
19323.0	6.582569958462804e+17
19324.0	6.581054213892778e+17
19325.0	6.579097517249875e+17
19326.0	6.577721986864468e+17
19327.0	6.576042826618195e+17
19328.0	6.574363234358612e+17
19329.0	6.572664702719315e+17
19330.0	6.570931450631508e+17
19331.0	6.56920702755362e+17
19332.0	6.567500103112019e+17
19333.0	6.56576010658338e+17
19334.0	6.564003664887808e+17
19335.0	6.562235794412884e+17
19336.0	6.560460659403434e+17
19337.0	6.558667654561792e+17
19338.0	6.556743509213183e+17
19339.0	6.555060402126847e+17
19340.0	6.553194212272809e+17
19341.0	6.551380914689364e+17
19342.0	6.549303277387775e+17
19343.0	6.547675967127551e+17
19344.0	6.545792356231849e+17
19345.0	6.542765868799315e+17
19346.0	6.541466395825491e+17
19347.0	6.540014989082623e+17
19348.0	6.538113013426857e+17
19349.0	6.536134383370239e+17
19350.0	6.534151845620393e+17
19351.0	6.532156571866452e+17
19352.0	6.530106735809876e+17
19353.0	6.528120939784874e+17
19354.0	6.526067439304703e+17
19355.0	6.523727021867007e+17
19356.0	6.521514471981055e+17
19357.0	6.519397954879487e+17
19358.0	6.517249747014995e+17
19359.0	6.515040089101652e+17
19360.0	6.512884690802004e+17
19361.0	6.510688046415871e+17
19362.0	6.508493340497235e+17
19363.0	6.506250544786089e+17
19364.0	6.503982235123711e+17
19365.0	6.501689199340201e+17
19366.0	6.499369378731348e+17
19367.0	6.497022956448425e+17
19368.0	6.49464877486353e+17
19369.0	6.49220342223121e+17
19370.0	6.489704135043753e+17
19371.0	6.487318561030143e+17
19372.0	6.484857395172692e+17
19373.0	6.482321416912896e+17
19374.0	6.479775349254825e+17
19375.0	6.47718244590114e+17
19376.0	6.47455840473361e+17
19377.0	6.471895313197737e+17
19378.0	6.469060022413994e+17
19379.0	6.46574472499473e+17
19380.0	6.462944698520916e+17
19381.0	6.4601017286656e+17
19382.0	6.45717840433425e+17
19383.0	6.454244587252393e+17
19384.0	6.451364044122793e+17
19385.0	6.448380232335359e+17
19386.0	6.445362149588991e+17
19387.0	6.442303153504255e+17
19388.0	6.43914278109184e+17
19389.0	6.434912260674899e+17
19390.0	6.431714359028393e+17
19391.0	6.418314444144625e+17
19392.0	6.424991021137917e+17
19393.0	6.421862628196351e+17
19394.0	6.418449808315734e+17
19395.0	6.413301962156714e+17
19396.0	6.409633524613119e+17
19397.0	6.405984962478079e+17
19398.0	6.402223066753706e+17
19399.0	6.396189141718356e+17
19400.0	6.392123241441961e+17
19401.0	6.388123223195647e+17
19402.0	6.382065886254419e+17
19403.0	6.376701828617556e+17
19404.0	6.371605397635072e+17
19405.0	6.363967331674793e+17
19406.0	6.358546626467154e+17
19407.0	6.349685978213033e+17
19408.0	6.341552689381375e+17
19409.0	6.333387831421612e+17
19410.0	6.321381685854207e+17
19411.0	6.309347253900627e+17
19412.0	6.295736286532959e+17
19413.0	6.282550762100052e+17
19414.0	6.273190684087635e+17
19415.0	6.265270251989674e+17
19416.0	6.25690608280098e+17
19417.0	6.248313756057599e+17
19418.0	6.239547269928276e+17
19419.0	6.230249066288468e+17
19420.0	6.220490254669139e+17
19421.0	6.210405837832191e+17
19422.0	6.199644879760042e+17
19423.0	6.18889061999138e+17
19424.0	6.178025089531904e+17
19425.0	6.166829180037801e+17
19426.0	6.154397142046036e+17
19427.0	6.142153895269716e+17
19428.0	6.127953299636224e+17
19429.0	6.11366323949841e+17
19430.0	6.097495404838915e+17
19431.0	6.07785034815898e+17
19432.0	6.058629266407427e+17
19433.0	6.032072240704174e+17
19434.0	5.997006180144461e+17
19435.0	5.951672685690877e+17
19436.0	5.919396075667455e+17
19437.0	5.892198803439615e+17
19438.0	5.849665666809857e+17
19439.0	5.828911062231724e+17
19440.0	5.793987783469737e+17
19441.0	5.7540641288792723e+17
19442.0	5.7064845909251456e+17
19443.0	5.6457681489100794e+17
19444.0	5.561756792040106e+17
19445.0	5.480992752708269e+17
19446.0	5.3954990337338e+17
19447.0	5.2824918570216e+17
19448.0	5.128401063684786e+17
19449.0	4.918267553163945e+17
19450.0	4.578265377974951e+17
19451.0	4.468666612929859e+17
19452.0	4.758842304189787e+17
19453.0	5.0337870683395514e+17
19454.0	5.2083636281453146e+17
19455.0	5.337426797002752e+17
19456.0	5.4324507163579757e+17
19457.0	5.508975983678806e+17
19458.0	5.58045758296339e+17
19459.0	5.663057189535753e+17
19460.0	5.713992648840529e+17
19461.0	5.755006314960215e+17
19462.0	5.790089077937492e+17
19463.0	5.821868310615379e+17
19464.0	5.850750786382505e+17
19465.0	5.877708552667136e+17
19466.0	5.902732841975805e+17
19467.0	5.941586015813622e+17
19468.0	5.980574374166533e+17
19469.0	6.007469221696858e+17
19470.0	6.028851458430289e+17
19471.0	6.045807079150935e+17
19472.0	6.06014607213636e+17
19473.0	6.073372399457619e+17
19474.0	6.084917676998656e+17
19475.0	6.095325288027475e+17
19476.0	6.105688500251306e+17
19477.0	6.115174209552383e+17
19478.0	6.12381736566784e+17
19479.0	6.132202794385407e+17
19480.0	6.140709748867071e+17
19481.0	6.148684832047104e+17
19482.0	6.156246997183145e+17
19483.0	6.163396283422036e+17
19484.0	6.170091103540563e+17
19485.0	6.176407640779433e+17
19486.0	6.182419738656768e+17
19487.0	6.188125163006633e+17
19488.0	6.193494708890282e+17
19489.0	6.202579640560298e+17
19490.0	6.214311781335041e+17
19491.0	6.225261619402075e+17
19492.0	6.233705490852516e+17
19493.0	6.240362618858156e+17
19494.0	6.248281561279146e+17
19495.0	6.252493990963886e+17
19496.0	6.257628763477331e+17
19497.0	6.261200613190314e+17
19498.0	6.264499172540416e+17
19499.0	6.251746101122382e+17
19500.0	6.271914300058284e+17
19501.0	6.274128921231359e+17
19502.0	6.275709364338687e+17
19503.0	6.278603433399636e+17
19504.0	6.280779070614185e+17
19505.0	6.282077085368317e+17
19506.0	6.283300431724543e+17
19507.0	6.285046226878463e+17
19508.0	6.2871040964253e+17
19509.0	6.288050840316585e+17
19510.0	6.288823617060863e+17
19511.0	6.272142468797773e+17
19512.0	6.287948878184444e+17
19513.0	6.286951720856227e+17
19514.0	6.289733179845285e+17
19515.0	6.293373944769194e+17
19516.0	6.294372868598441e+17
19517.0	6.294923554149716e+17
19518.0	6.295494381447849e+17
19519.0	6.295984462102527e+17
19520.0	6.296437195276287e+17
19521.0	6.29688128049425e+17
19522.0	6.297252923790675e+17
19523.0	6.297605254414335e+17
19524.0	6.298257192561321e+17
19525.0	6.298797065196884e+17
19526.0	6.299013036900351e+17
19527.0	6.299185819855529e+17
19528.0	6.299317844661588e+17
19529.0	6.29942458130978e+17
19530.0	6.299499027409578e+17
19531.0	6.299537956143101e+17
19532.0	6.299547176621395e+17
19533.0	6.299526347008682e+17
19534.0	6.299474089476095e+17
19535.0	6.299390340410025e+17
19536.0	6.299266827244884e+17
19537.0	6.299157767651327e+17
19538.0	6.298933824673108e+17
19539.0	6.298501881965226e+17
19540.0	6.298585301778432e+17
19541.0	6.298369719446185e+17
19542.0	6.298121244682922e+17
19543.0	6.297853188811433e+17
19544.0	6.297561709849258e+17
19545.0	6.296970668802047e+17
19546.0	6.296404208473427e+17
19547.0	6.296561071947776e+17
19548.0	6.296184229112489e+17
19549.0	6.295732119491924e+17
19550.0	6.295561525963434e+17
19551.0	6.295290176864255e+17
19552.0	6.294837382174036e+17
19553.0	6.294353496506368e+17
19554.0	6.293859220149588e+17
19555.0	6.293368651557546e+17
19556.0	6.292858095708841e+17
19557.0	6.292319980486655e+17
19558.0	6.291770270111059e+17
19559.0	6.291203400837801e+17
19560.0	6.290608695366996e+17
19561.0	6.290014067490815e+17
19562.0	6.289424298016768e+17
19563.0	6.288803014639615e+17
19564.0	6.288169670541311e+17
19565.0	6.287526820752041e+17
19566.0	6.286860203939156e+17
19567.0	6.286204655894527e+17
19568.0	6.285510674044243e+17
19569.0	6.284832457184598e+17
19570.0	6.284136846546259e+17
19571.0	6.283422373423785e+17
19572.0	6.282685286711295e+17
19573.0	6.281957435856212e+17
19574.0	6.28117386437154e+17
19575.0	6.280477458213546e+17
19576.0	6.279717160222719e+17
19577.0	6.27893925384465e+17
19578.0	6.278143436390397e+17
19579.0	6.277365788661076e+17
19580.0	6.276570764629332e+17
19581.0	6.275771677016063e+17
19582.0	6.274969751956138e+17
19583.0	6.274150228994729e+17
19584.0	6.273319150026751e+17
19585.0	6.272422665082196e+17
19586.0	6.271557601766057e+17
19587.0	6.270740692555091e+17
19588.0	6.269666848669695e+17
19589.0	6.269068191465471e+17
19590.0	6.268160589518163e+17
19591.0	6.267339629308586e+17
19592.0	6.26645959442432e+17
19593.0	6.265561770797738e+17
19594.0	6.264537587471702e+17
19595.0	6.263762297640275e+17
19596.0	6.262079268847616e+17
19597.0	6.261947492903593e+17
19598.0	6.260871753192788e+17
19599.0	6.260153681357482e+17
19600.0	6.259232431144959e+17
19601.0	6.258264489940307e+17
19602.0	6.257342841268905e+17
19603.0	6.256054423781375e+17
19604.0	6.255448294424575e+17
19605.0	6.254375760560127e+17
19606.0	6.253605053005824e+17
19607.0	6.252655178765652e+17
19608.0	6.251692536365055e+17
19609.0	6.250705904642729e+17
19610.0	6.249774367899647e+17
19611.0	6.24880319078946e+17
19612.0	6.247835916479145e+17
19613.0	6.246861208464041e+17
19614.0	6.245857584917161e+17
19615.0	6.244898376952489e+17
19616.0	6.243825520126633e+17
19617.0	6.242926120140799e+17
19618.0	6.241600656463188e+17
19619.0	6.240531096360275e+17
19620.0	6.239552179361107e+17
19621.0	6.238947914372435e+17
19622.0	6.237946101366783e+17
19623.0	6.236941229315412e+17
19624.0	6.235933452708521e+17
19625.0	6.23492246676002e+17
19626.0	6.233909484322815e+17
19627.0	6.232890896198314e+17
19628.0	6.231643169051988e+17
19629.0	6.230790026646867e+17
19630.0	6.229129679951188e+17
19631.0	6.21844069543663e+17
19632.0	6.227755743401299e+17
19633.0	6.226720247338324e+17
19634.0	6.225724946688682e+17
19635.0	6.224670432253268e+17
19636.0	6.223661853835263e+17
19637.0	6.222393914337961e+17
19638.0	6.22158368944947e+17
19639.0	6.220539026036052e+17
19640.0	6.219445518554452e+17
19641.0	6.21802607939857e+17
19642.0	6.217420098240511e+17
19643.0	6.216366783376041e+17
19644.0	6.215287919607807e+17
19645.0	6.214113488622931e+17
19646.0	6.21322685260322e+17
19647.0	6.212174744300202e+17
19648.0	6.211121035870207e+17
19649.0	6.210064220159997e+17
19650.0	6.20900942750242e+17
19651.0	6.207951629626025e+17
19652.0	6.206892497261907e+17
19653.0	6.205830946881535e+17
19654.0	6.204770478631594e+17
19655.0	6.203704866067796e+17
19656.0	6.202639554794836e+17
19657.0	6.201578630763862e+17
19658.0	6.200512423307946e+17
19659.0	6.199444148060159e+17
19660.0	6.198376741033299e+17
19661.0	6.197307316546216e+17
19662.0	6.196236783364777e+17
19663.0	6.195134620936874e+17
19664.0	6.194054735156563e+17
19665.0	6.1930197235357e+17
