# Flux units: erg / (cm m2 s)
# Wavelength units: Angstrom
wave	flux
19000.0	5.6131875979482445e+17
19001.0	5.612011608080382e+17
19002.0	5.6111303918004896e+17
19003.0	5.610093598299477e+17
19004.0	5.6090643950906003e+17
19005.0	5.6080192912752634e+17
19006.0	5.607001240720724e+17
19007.0	5.605976464599722e+17
19008.0	5.604876364371284e+17
19009.0	5.603765287649279e+17
19010.0	5.602241219482963e+17
19011.0	5.601814659465215e+17
19012.0	5.600288522807977e+17
19013.0	5.5998175465089696e+17
19014.0	5.598727376994303e+17
19015.0	5.5977087790830925e+17
19016.0	5.596671007610196e+17
19017.0	5.595716982407167e+17
19018.0	5.5946654270532256e+17
19019.0	5.593658131393193e+17
19020.0	5.5926231826868896e+17
19021.0	5.5916206391732896e+17
19022.0	5.590589391940266e+17
19023.0	5.589507222361428e+17
19024.0	5.588474304397311e+17
19025.0	5.5874731757622605e+17
19026.0	5.5864023538728954e+17
19027.0	5.5850662841985696e+17
19028.0	5.584439374162602e+17
19029.0	5.583392310209193e+17
19030.0	5.582405673593513e+17
19031.0	5.5813885968165536e+17
19032.0	5.580349046958761e+17
19033.0	5.5791954749467296e+17
19034.0	5.5782314498239136e+17
19035.0	5.5768092752827725e+17
19036.0	5.5478466631434125e+17
19037.0	5.5749032716970656e+17
19038.0	5.574140881447593e+17
19039.0	5.5731844857637536e+17
19040.0	5.57217865671202e+17
19041.0	5.5711539819533645e+17
19042.0	5.568905035994451e+17
19043.0	5.569138010008235e+17
19044.0	5.5681024020971514e+17
19045.0	5.567072192255317e+17
19046.0	5.565992290396842e+17
19047.0	5.5650182003425274e+17
19048.0	5.563569495430484e+17
19049.0	5.56059148436548e+17
19050.0	5.561858876506111e+17
19051.0	5.556776333563215e+17
19052.0	5.558988155038377e+17
19053.0	5.5589103416115194e+17
19054.0	5.557919562421587e+17
19055.0	5.5562429005824006e+17
19056.0	5.55574497518114e+17
19057.0	5.5548688409995936e+17
19058.0	5.552653898263208e+17
19059.0	5.552384533069823e+17
19060.0	5.5517959519819085e+17
19061.0	5.550812807124308e+17
19062.0	5.549789708724907e+17
19063.0	5.548774585794558e+17
19064.0	5.5476030621614074e+17
19065.0	5.546517257519102e+17
19066.0	5.545226816978944e+17
19067.0	5.544700390582954e+17
19068.0	5.543701663885993e+17
19069.0	5.5426882445421216e+17
19070.0	5.5416336469196794e+17
19071.0	5.5406360652677114e+17
19072.0	5.5391959300177914e+17
19073.0	5.5386248622462285e+17
19074.0	5.5376171981864954e+17
19075.0	5.5366031420074656e+17
19076.0	5.535564461069652e+17
19077.0	5.534550433551699e+17
19078.0	5.533500395836756e+17
19079.0	5.532546071440041e+17
19080.0	5.5315183229556045e+17
19081.0	5.530457961660415e+17
19082.0	5.5294587148697594e+17
19083.0	5.528371324081492e+17
19084.0	5.5272022597085856e+17
19085.0	5.5264418379857914e+17
19086.0	5.524321750832468e+17
19087.0	5.522875247930024e+17
19088.0	5.5225897584339616e+17
19089.0	5.521874410100052e+17
19090.0	5.521320842362879e+17
19091.0	5.5202590738786976e+17
19092.0	5.518279335826774e+17
19093.0	5.5183737041715194e+17
19094.0	5.517376806191103e+17
19095.0	5.51636961468962e+17
19096.0	5.515340197571241e+17
19097.0	5.514347912626175e+17
19098.0	5.5128437995601914e+17
19099.0	5.5117389737492474e+17
19100.0	5.511258728038399e+17
19101.0	5.5102912579938976e+17
19102.0	5.5091393518196045e+17
19103.0	5.508290064678911e+17
19104.0	5.5072909514069325e+17
19105.0	5.505198234184365e+17
19106.0	5.505148873517738e+17
19107.0	5.5039508936130554e+17
19108.0	5.502798520472917e+17
19109.0	5.500691604133204e+17
19110.0	5.501027864980139e+17
19111.0	5.499905418199038e+17
19112.0	5.498861248315391e+17
19113.0	5.4982217162205856e+17
19114.0	5.4970041167598925e+17
19115.0	5.4960544725073914e+17
19116.0	5.495180068476245e+17
19117.0	5.494157320301226e+17
19118.0	5.4929314426825376e+17
19119.0	5.480521874276333e+17
19120.0	5.490896776025428e+17
19121.0	5.490000881079636e+17
19122.0	5.489183165863253e+17
19123.0	5.488183472379221e+17
19124.0	5.4870374221523616e+17
19125.0	5.4861633704427514e+17
19126.0	5.4851230544254285e+17
19127.0	5.481779525844991e+17
19128.0	5.4830216801594016e+17
19129.0	5.4820521402258765e+17
19130.0	5.4811450136330234e+17
19131.0	5.4801604448092154e+17
19132.0	5.4791564920094714e+17
19133.0	5.478081253517995e+17
19134.0	5.4771086419558394e+17
19135.0	5.47614654341666e+17
19136.0	5.4751536468022605e+17
19137.0	5.4739474551493965e+17
19138.0	5.4731306941371725e+17
19139.0	5.4721549137783456e+17
19140.0	5.4711579158336845e+17
19141.0	5.47015809512243e+17
19142.0	5.4691162789423776e+17
19143.0	5.4680810995493555e+17
19144.0	5.4671047683386003e+17
19145.0	5.466153984633513e+17
19146.0	5.464317832287574e+17
19147.0	5.4640396038307834e+17
19148.0	5.4627651254135456e+17
19149.0	5.4616971158050125e+17
19150.0	5.4611563574722534e+17
19151.0	5.4601580530018976e+17
19152.0	5.459134243667967e+17
19153.0	5.457338611094868e+17
19154.0	5.4569257643540474e+17
19155.0	5.456151709745151e+17
19156.0	5.455150351122432e+17
19157.0	5.453766272046421e+17
19158.0	5.4516656730275834e+17
19159.0	5.4520732573149856e+17
19160.0	5.45112005419554e+17
19161.0	5.4500905538901325e+17
19162.0	5.4467541360530784e+17
19163.0	5.447867082036564e+17
19164.0	5.447156864734549e+17
19165.0	5.4452559285671226e+17
19166.0	5.444960526532606e+17
19167.0	5.443973613092862e+17
19168.0	5.4431831252008954e+17
19169.0	5.4421761392203085e+17
19170.0	5.441219100409855e+17
19171.0	5.4400978168490656e+17
19172.0	5.439202727209642e+17
19173.0	5.4382422343898445e+17
19174.0	5.4371832823808e+17
19175.0	5.436265393203881e+17
19176.0	5.4352719023964154e+17
19177.0	5.434070296515924e+17
19178.0	5.433175292160681e+17
19179.0	5.432089520373758e+17
19180.0	5.431261194966357e+17
19181.0	5.430097251139583e+17
19182.0	5.429268606266026e+17
19183.0	5.4283150990595405e+17
19184.0	5.427321332826111e+17
19185.0	5.4263161839506765e+17
19186.0	5.425339210312362e+17
19187.0	5.424259167245652e+17
19188.0	5.423348399297876e+17
19189.0	5.422358845543763e+17
19190.0	5.4213539497246714e+17
19191.0	5.420310713772713e+17
19192.0	5.41937742520866e+17
19193.0	5.418262008081066e+17
19194.0	5.4171869198854816e+17
19195.0	5.416355510266538e+17
19196.0	5.4152894440188576e+17
19197.0	5.414179699687423e+17
19198.0	5.412605312456021e+17
19199.0	5.396257193328635e+17
19200.0	5.398865767301124e+17
19201.0	5.4097269699379194e+17
19202.0	5.409265711841279e+17
19203.0	5.408348047758676e+17
19204.0	5.407425648306857e+17
19205.0	5.406492259079508e+17
19206.0	5.40551538680354e+17
19207.0	5.4043962101814605e+17
19208.0	5.403248760455167e+17
19209.0	5.402579130733908e+17
19210.0	5.4015948799781536e+17
19211.0	5.400627776236203e+17
19212.0	5.399630962840915e+17
19213.0	5.398410509156351e+17
19214.0	5.397347582345216e+17
19215.0	5.3966064893733536e+17
19216.0	5.3956955124094285e+17
19217.0	5.3946863705565856e+17
19218.0	5.392677281464318e+17
19219.0	5.392525612635476e+17
19220.0	5.39171434336529e+17
19221.0	5.3903777878507514e+17
19222.0	5.389760792450388e+17
19223.0	5.388785627955198e+17
19224.0	5.3877677465709216e+17
19225.0	5.3866627704640845e+17
19226.0	5.385831546093567e+17
19227.0	5.384855621730303e+17
19228.0	5.3839051148492794e+17
19229.0	5.3829205718903456e+17
19230.0	5.381927851436713e+17
19231.0	5.3809388345535136e+17
19232.0	5.379960002838526e+17
19233.0	5.3788952598937594e+17
19234.0	5.377980316516351e+17
19235.0	5.376981958918143e+17
19236.0	5.376042816503807e+17
19237.0	5.375037047570432e+17
19238.0	5.3739352367650125e+17
19239.0	5.373100671631358e+17
19240.0	5.372116741040809e+17
19241.0	5.3711117151982925e+17
19242.0	5.370138549288958e+17
19243.0	5.3689690144549523e+17
19244.0	5.3681994442560845e+17
19245.0	5.3672108873482234e+17
19246.0	5.366217165154985e+17
19247.0	5.3652448443979085e+17
19248.0	5.364272122385747e+17
19249.0	5.363257016931669e+17
19250.0	5.3621193035830605e+17
19251.0	5.361034424483838e+17
19252.0	5.3599792033082016e+17
19253.0	5.3593438822946125e+17
19254.0	5.358400783253503e+17
19255.0	5.357169032211113e+17
19256.0	5.3564137100629325e+17
19257.0	5.3554605356045645e+17
19258.0	5.3544833613387085e+17
19259.0	5.3534014070674765e+17
19260.0	5.3518263361645203e+17
19261.0	5.3515245909442554e+17
19262.0	5.350475263464788e+17
19263.0	5.3494673449506125e+17
19264.0	5.3478572229481786e+17
19265.0	5.3473407985691296e+17
19266.0	5.346230028730367e+17
19267.0	5.345678909068628e+17
19268.0	5.3446945527562234e+17
19269.0	5.343720489964885e+17
19270.0	5.3427304678468256e+17
19271.0	5.34130535239953e+17
19272.0	5.3407424537340576e+17
19273.0	5.3393989405682336e+17
19274.0	5.33825995285026e+17
19275.0	5.3378625180794874e+17
19276.0	5.336859675372202e+17
19277.0	5.3358908988020045e+17
19278.0	5.334893622635177e+17
19279.0	5.333906769313792e+17
19280.0	5.332854856045909e+17
19281.0	5.331966710775807e+17
19282.0	5.331001123973802e+17
19283.0	5.329854721425406e+17
19284.0	5.328964277676713e+17
19285.0	5.327870856877398e+17
19286.0	5.3270231076481696e+17
19287.0	5.326022124415657e+17
19288.0	5.317150905117347e+17
19289.0	5.3050847411568326e+17
19290.0	5.323070591991807e+17
19291.0	5.321864337424384e+17
19292.0	5.3212457607714125e+17
19293.0	5.3202714777791136e+17
19294.0	5.319283879968767e+17
19295.0	5.3183346691276794e+17
19296.0	5.316833911504896e+17
19297.0	5.3162443706204154e+17
19298.0	5.315366160258389e+17
19299.0	5.313838853390335e+17
19300.0	5.3134314068159136e+17
19301.0	5.312471251637588e+17
19302.0	5.3114821340910925e+17
19303.0	5.310409744930132e+17
19304.0	5.3095043079427405e+17
19305.0	5.308539560001536e+17
19306.0	5.307560184425129e+17
19307.0	5.3065085193202336e+17
19308.0	5.3055485403026765e+17
19309.0	5.304039891795967e+17
19310.0	5.302858317212328e+17
19311.0	5.302509978167977e+17
19312.0	5.301639238560425e+17
19313.0	5.3005615296238925e+17
19314.0	5.244920969996942e+17
19315.0	5.248998738755671e+17
19316.0	5.296856318519979e+17
19317.0	5.2967497363619834e+17
19318.0	5.295807221028179e+17
19319.0	5.294867188023296e+17
19320.0	5.293673224863743e+17
19321.0	5.292442727219198e+17
19322.0	5.291785988691285e+17
19323.0	5.290718553003349e+17
19324.0	5.2898597755508045e+17
19325.0	5.2884644068065274e+17
19326.0	5.287926387354281e+17
19327.0	5.286975161849172e+17
19328.0	5.285071319029078e+17
19329.0	5.2850507340840954e+17
19330.0	5.2840210310539936e+17
19331.0	5.2830190467809274e+17
19332.0	5.282095309346132e+17
19333.0	5.2810890426886816e+17
19334.0	5.28010499325952e+17
19335.0	5.277214199949997e+17
19336.0	5.278126872810837e+17
19337.0	5.2771663778938874e+17
19338.0	5.2759006138422605e+17
19339.0	5.275182214851241e+17
19340.0	5.27392355525154e+17
19341.0	5.272424250256043e+17
19342.0	5.2714853483151334e+17
19343.0	5.271210239022421e+17
19344.0	5.269495632013994e+17
19345.0	5.266123865980924e+17
19346.0	5.266943977542996e+17
19347.0	5.2662422690856954e+17
19348.0	5.266245883177643e+17
19349.0	5.2652011708306765e+17
19350.0	5.263871510751913e+17
19351.0	5.2631902271569914e+17
19352.0	5.261171654044329e+17
19353.0	5.261211181864277e+17
19354.0	5.2602123447173114e+17
19355.0	5.259073077379072e+17
19356.0	5.2581931256818336e+17
19357.0	5.257185713280339e+17
19358.0	5.2561602632744954e+17
19359.0	5.2548830333938323e+17
19360.0	5.253338924143955e+17
19361.0	5.253069316379989e+17
19362.0	5.252102544687103e+17
19363.0	5.2510794644630163e+17
19364.0	5.250052263335253e+17
19365.0	5.2490230622235296e+17
19366.0	5.2479667050905594e+17
19367.0	5.2468816477334163e+17
19368.0	5.245838017516883e+17
19369.0	5.2447251267583994e+17
19370.0	5.2436955956947616e+17
19371.0	5.2426298971477325e+17
19372.0	5.2416468893040634e+17
19373.0	5.2405663142597965e+17
19374.0	5.2395263267962874e+17
19375.0	5.238402996415146e+17
19376.0	5.237301469424297e+17
19377.0	5.236210838536191e+17
19378.0	5.2351342061376845e+17
19379.0	5.234051401121791e+17
19380.0	5.2329555490242554e+17
19381.0	5.2317818590330874e+17
19382.0	5.2305346722529274e+17
19383.0	5.2293865724095136e+17
19384.0	5.2283807769122125e+17
19385.0	5.227265757544447e+17
19386.0	5.226058633357994e+17
19387.0	5.2248966986028365e+17
19388.0	5.223731459435178e+17
19389.0	5.222522395383124e+17
19390.0	5.2211442253823994e+17
19391.0	5.194043047455366e+17
19392.0	5.217934302161576e+17
19393.0	5.217649666206378e+17
19394.0	5.216445500402346e+17
19395.0	5.214916156500651e+17
19396.0	5.213863683992234e+17
19397.0	5.212694818848767e+17
19398.0	5.2110817880965114e+17
19399.0	5.2086515223756794e+17
19400.0	5.208278285243732e+17
19401.0	5.2072463480477e+17
19402.0	5.2058644632917325e+17
19403.0	5.2044156612116474e+17
19404.0	5.202962277553492e+17
19405.0	5.2013313762699936e+17
19406.0	5.199813941395456e+17
19407.0	5.197923251912702e+17
19408.0	5.1954845514465286e+17
19409.0	5.1947399086953805e+17
19410.0	5.19309105369361e+17
19411.0	5.191143012696064e+17
19412.0	5.1891603106693114e+17
19413.0	5.1867660488540154e+17
19414.0	5.184881860542462e+17
19415.0	5.1825532207103994e+17
19416.0	5.17992468394803e+17
19417.0	5.177125717934078e+17
19418.0	5.1746986818273274e+17
19419.0	5.171658389542228e+17
19420.0	5.168761022360233e+17
19421.0	5.166110473890474e+17
19422.0	5.163253197963262e+17
19423.0	5.1601129638024525e+17
19424.0	5.1569671456249165e+17
19425.0	5.1534607228600314e+17
19426.0	5.1496976590219936e+17
19427.0	5.145595523454293e+17
19428.0	5.141268766829226e+17
19429.0	5.1360143329198054e+17
19430.0	5.129494262185986e+17
19431.0	5.118849901570736e+17
19432.0	5.115413615957334e+17
19433.0	5.106166417850365e+17
19434.0	5.094835202905428e+17
19435.0	5.084804874414761e+17
19436.0	5.074647255089148e+17
19437.0	5.066708377141247e+17
19438.0	5.004597596782594e+17
19439.0	5.036865648328703e+17
19440.0	5.0192877613656723e+17
19441.0	4.9935388249511155e+17
19442.0	4.956810381361145e+17
19443.0	4.917990337631576e+17
19444.0	4.888198912846506e+17
19445.0	4.846931568929451e+17
19446.0	4.781414383179102e+17
19447.0	4.6880785579376634e+17
19448.0	4.600715149661528e+17
19449.0	4.465273571988817e+17
19450.0	4.1387314363324115e+17
19451.0	3.9172901059952954e+17
19452.0	4.342135097305774e+17
19453.0	4.542559491020121e+17
19454.0	4.6416147530820205e+17
19455.0	4.730716990472195e+17
19456.0	4.810329875109217e+17
19457.0	4.859498987170474e+17
19458.0	4.735512557737572e+17
19459.0	4.917810069241886e+17
19460.0	4.961226922655746e+17
19461.0	4.9901255108416864e+17
19462.0	5.0106162182007475e+17
19463.0	5.0266252956576403e+17
19464.0	5.038097486752426e+17
19465.0	5.0470178989451936e+17
19466.0	5.054479502846633e+17
19467.0	5.060823555418794e+17
19468.0	5.06972453540113e+17
19469.0	5.0774507537476256e+17
19470.0	5.084938576942422e+17
19471.0	5.090419811549183e+17
19472.0	5.094733384078676e+17
19473.0	5.0981494489524896e+17
19474.0	5.1002601478553594e+17
19475.0	5.102258874919593e+17
19476.0	5.105211899117566e+17
19477.0	5.1072282450548045e+17
19478.0	5.108602966638591e+17
19479.0	5.1092412467336506e+17
19480.0	5.110956613610154e+17
19481.0	5.111776226749098e+17
19482.0	5.1126110526286496e+17
19483.0	5.113722964716202e+17
19484.0	5.1149941030693555e+17
19485.0	5.115607763998037e+17
19486.0	5.115521754202113e+17
19487.0	5.116881365106686e+17
19488.0	5.1170737557340154e+17
19489.0	5.1172625287741434e+17
19490.0	5.1154185260892134e+17
19491.0	5.1175882535294285e+17
19492.0	5.1175598552951475e+17
19493.0	5.117371445761366e+17
19494.0	5.117292557893632e+17
19495.0	5.1169733364066976e+17
19496.0	5.115980667682815e+17
19497.0	5.1161011315889485e+17
19498.0	5.1122697516264115e+17
19499.0	5.073601293538617e+17
19500.0	5.114806714149547e+17
19501.0	5.1145526959144934e+17
19502.0	5.114072490748585e+17
19503.0	5.113602445585066e+17
19504.0	5.113102205627049e+17
19505.0	5.1125023733186554e+17
19506.0	5.111930376508757e+17
19507.0	5.1112705216129696e+17
19508.0	5.110652979554985e+17
19509.0	5.1099388867160736e+17
19510.0	5.1085843593079443e+17
19511.0	5.016985523978159e+17
19512.0	5.100937720190279e+17
19513.0	5.095063529630361e+17
19514.0	5.0977624272404365e+17
19515.0	5.104984795032235e+17
19516.0	5.10504579768866e+17
19517.0	5.104414409534121e+17
19518.0	5.103590026772479e+17
19519.0	5.102810722293077e+17
19520.0	5.1015557103397523e+17
19521.0	5.101553957819732e+17
19522.0	5.100715997396991e+17
19523.0	5.0998939872133114e+17
19524.0	5.098773351672492e+17
19525.0	5.098480499774804e+17
19526.0	5.097715330798934e+17
19527.0	5.096900990599166e+17
19528.0	5.096095502477994e+17
19529.0	5.0952685206459725e+17
19530.0	5.094558093628756e+17
19531.0	5.0937385748616525e+17
19532.0	5.0929152532589216e+17
19533.0	5.092097705115647e+17
19534.0	5.0912660263621965e+17
19535.0	5.09040851558946e+17
19536.0	5.08954265395746e+17
19537.0	5.088752354809171e+17
19538.0	5.087139168867669e+17
19539.0	5.0863632205305184e+17
19540.0	5.086252230858068e+17
19541.0	5.0852852487509325e+17
19542.0	5.084515800186879e+17
19543.0	5.083044803947178e+17
19544.0	5.08284116140032e+17
19545.0	5.081324301844478e+17
19546.0	5.0799313965547514e+17
19547.0	5.0803147887957325e+17
19548.0	5.0794642447619405e+17
19549.0	5.078469144040789e+17
19550.0	5.0777359664196256e+17
19551.0	5.0768722809323514e+17
19552.0	5.0760021152453965e+17
19553.0	5.0751025509826554e+17
19554.0	5.0742424551205536e+17
19555.0	5.0733254320674125e+17
19556.0	5.072496769018538e+17
19557.0	5.071664692505258e+17
19558.0	5.070796859550377e+17
19559.0	5.0699266155697485e+17
19560.0	5.0687669219710285e+17
19561.0	5.0681363545019725e+17
19562.0	5.067036152911187e+17
19563.0	5.066417440642388e+17
19564.0	5.065537276433749e+17
19565.0	5.0646562258288634e+17
19566.0	5.0637345596811936e+17
19567.0	5.06289042104866e+17
19568.0	5.061979217592319e+17
19569.0	5.061096199159807e+17
19570.0	5.060234345185279e+17
19571.0	5.059347654639615e+17
19572.0	5.058425032190634e+17
19573.0	5.057479173297492e+17
19574.0	5.056546698428414e+17
19575.0	5.055816278562132e+17
19576.0	5.054877752011434e+17
19577.0	5.0538846708476576e+17
19578.0	5.053094496130389e+17
19579.0	5.052228247224318e+17
19580.0	5.051342687043583e+17
19581.0	5.0504675056680954e+17
19582.0	5.049602277376e+17
19583.0	5.048713275768832e+17
19584.0	5.0478106978986656e+17
19585.0	5.0467769976968525e+17
19586.0	5.045835311437142e+17
19587.0	5.0450506249666554e+17
19588.0	5.043623360637611e+17
19589.0	5.0433300564541446e+17
19590.0	5.042296156323839e+17
19591.0	5.041578414440447e+17
19592.0	5.040696872402943e+17
19593.0	5.039717291305641e+17
19594.0	5.038514267051348e+17
19595.0	5.037992756379647e+17
19596.0	5.03693812240657e+17
19597.0	5.036244955649364e+17
19598.0	5.034655959657129e+17
19599.0	5.034469168425642e+17
19600.0	5.0335934984137376e+17
19601.0	5.0326098229766816e+17
19602.0	5.0317135743112525e+17
19603.0	5.0301371269775334e+17
19604.0	5.029909424504832e+17
19605.0	5.0287275647085216e+17
19606.0	5.0282309367453005e+17
19607.0	5.027353390481407e+17
19608.0	5.02643921466163e+17
19609.0	5.025500011429888e+17
19610.0	5.024339394385237e+17
19611.0	5.023287439174314e+17
19612.0	5.022895002615808e+17
19613.0	5.0219887155828045e+17
19614.0	5.021057400438783e+17
19615.0	5.02020622586129e+17
19616.0	5.018760189225642e+17
19617.0	5.0179130334904314e+17
19618.0	5.016667867665748e+17
19619.0	5.0155089374303546e+17
19620.0	5.014634769678335e+17
19621.0	5.014156925905577e+17
19622.0	5.0139676034116256e+17
19623.0	5.0130390411291296e+17
19624.0	5.012063825603243e+17
19625.0	5.011285592069459e+17
19626.0	5.010374866064724e+17
19627.0	5.009453534762324e+17
19628.0	5.0081507846389766e+17
19629.0	5.005717326353748e+17
19630.0	5.004237227076265e+17
19631.0	4.9891049465009485e+17
19632.0	5.0046366604328954e+17
19633.0	5.0039593439505056e+17
19634.0	5.003231288273577e+17
19635.0	5.002230502173353e+17
19636.0	5.0006987654212243e+17
19637.0	4.99941552370483e+17
19638.0	4.999633195499519e+17
19639.0	4.998807272030208e+17
19640.0	4.997781373233834e+17
19641.0	4.9952394991807194e+17
19642.0	4.9960862893124256e+17
19643.0	4.995191739340117e+17
19644.0	4.994281576770217e+17
19645.0	4.993115639250943e+17
19646.0	4.991766185552553e+17
19647.0	4.9916994583702176e+17
19648.0	4.990822968371881e+17
19649.0	4.9899303393908045e+17
19650.0	4.9890492957764256e+17
19651.0	4.988154780057598e+17
19652.0	4.987264565597525e+17
19653.0	4.9863737157003936e+17
19654.0	4.9854878276648954e+17
19655.0	4.9845944513986554e+17
