# Flux units: erg / (cm m2 s)
# Wavelength units: Angstrom
wave	flux
19000.0	6.57630509994257e+17
19001.0	6.574879061049343e+17
19002.0	6.573836455641087e+17
19003.0	6.572585930194943e+17
19004.0	6.571342567221929e+17
19005.0	6.570107702607871e+17
19006.0	6.568872391300436e+17
19007.0	6.567071688512854e+17
19008.0	6.566248164884479e+17
19009.0	6.565109735008938e+17
19010.0	6.562991149416445e+17
19011.0	6.562636048454995e+17
19012.0	6.560778738641576e+17
19013.0	6.560198746789204e+17
19014.0	6.558849890080084e+17
19015.0	6.557662247736659e+17
19016.0	6.556412991067476e+17
19017.0	6.554610084173139e+17
19018.0	6.553958685693268e+17
19019.0	6.552769249585833e+17
19020.0	6.551392722354176e+17
19021.0	6.55022692114978e+17
19022.0	6.549080757676713e+17
19023.0	6.547768513746259e+17
19024.0	6.546573941014527e+17
19025.0	6.545306923565055e+17
19026.0	6.544045361506985e+17
19027.0	6.54255460590114e+17
19028.0	6.54167679050274e+17
19029.0	6.540407680095572e+17
19030.0	6.539230540289366e+17
19031.0	6.538009219781972e+17
19032.0	6.536769207358803e+17
19033.0	6.535361366152531e+17
19034.0	6.534268731785213e+17
19035.0	6.533005225667241e+17
19036.0	6.498309436167482e+17
19037.0	6.530584496395604e+17
19038.0	6.529335727663785e+17
19039.0	6.528139565989887e+17
19040.0	6.52691864953378e+17
19041.0	6.525675037698729e+17
19042.0	6.524284084158463e+17
19043.0	6.52322408636962e+17
19044.0	6.521974237604521e+17
19045.0	6.520751622455295e+17
19046.0	6.519402713317376e+17
19047.0	6.51830899122722e+17
19048.0	6.516673413294761e+17
19049.0	6.515712482869247e+17
19050.0	6.514529101239636e+17
19051.0	6.509055269579425e+17
19052.0	6.511891178323968e+17
19053.0	6.510789947031551e+17
19054.0	6.509696057868287e+17
19055.0	6.507994659422209e+17
19056.0	6.507196541392212e+17
19057.0	6.506005152836265e+17
19058.0	6.504622120239101e+17
19059.0	6.503562679593642e+17
19060.0	6.502295763506516e+17
19061.0	6.501123403109716e+17
19062.0	6.499881580145321e+17
19063.0	6.498668827901951e+17
19064.0	6.497189311632724e+17
19065.0	6.495863657813331e+17
19066.0	6.494854051091795e+17
19067.0	6.493696635699199e+17
19068.0	6.492494131538601e+17
19069.0	6.491271876400467e+17
19070.0	6.489987499425791e+17
19071.0	6.488795367079935e+17
19072.0	6.487600781066239e+17
19073.0	6.486364256905898e+17
19074.0	6.485159919834452e+17
19075.0	6.483938774089727e+17
19076.0	6.482671697919999e+17
19077.0	6.481471820092756e+17
19078.0	6.480090448439977e+17
19079.0	6.479041796243455e+17
19080.0	6.477798289266003e+17
19081.0	6.476502584175274e+17
19082.0	6.475228709038761e+17
19083.0	6.473936836842835e+17
19084.0	6.472462143324159e+17
19085.0	6.471688637470035e+17
19086.0	6.469710127650131e+17
19087.0	6.468405585859924e+17
19088.0	6.46790538924305e+17
19089.0	6.46602011250961e+17
19090.0	6.465549285108393e+17
19091.0	6.464339763877204e+17
19092.0	6.462850653137578e+17
19093.0	6.461952377225215e+17
19094.0	6.460724410144084e+17
19095.0	6.459508426888531e+17
19096.0	6.458156877436244e+17
19097.0	6.457075789987837e+17
19098.0	6.455862736453632e+17
19099.0	6.454627549577215e+17
19100.0	6.453374792761343e+17
19101.0	6.452203274021545e+17
19102.0	6.450834704782676e+17
19103.0	6.449775721316351e+17
19104.0	6.448575554082132e+17
19105.0	6.44734782607633e+17
19106.0	6.445970235588608e+17
19107.0	6.444888147099647e+17
19108.0	6.443711781142527e+17
19109.0	6.4388209905937e+17
19110.0	6.44126587556113e+17
19111.0	6.440051301591722e+17
19112.0	6.438850150793215e+17
19113.0	6.437634142371839e+17
19114.0	6.436417297186815e+17
19115.0	6.435068766934356e+17
19116.0	6.433954536794794e+17
19117.0	6.432729096781823e+17
19118.0	6.431224884450644e+17
19119.0	6.425657403069773e+17
19120.0	6.428857854154068e+17
19121.0	6.427765985946281e+17
19122.0	6.426695586283519e+17
19123.0	6.425424401093971e+17
19124.0	6.424108030667434e+17
19125.0	6.423004088456532e+17
19126.0	6.42163334656819e+17
19127.0	6.417510009492817e+17
19128.0	6.415991391125498e+17
19129.0	6.41803863789841e+17
19130.0	6.416981162284372e+17
19131.0	6.415673664907946e+17
19132.0	6.414579489832959e+17
19133.0	6.411657532145667e+17
19134.0	6.410480284685656e+17
19135.0	6.410943756675753e+17
19136.0	6.409757938155519e+17
19137.0	6.408241456087039e+17
19138.0	6.406661864423423e+17
19139.0	6.406126684514985e+17
19140.0	6.40492385739298e+17
19141.0	6.403717314117631e+17
19142.0	6.402448177146537e+17
19143.0	6.401180854910976e+17
19144.0	6.399994673583444e+17
19145.0	6.398869071986687e+17
19146.0	6.396464281070252e+17
19147.0	6.396312156460372e+17
19148.0	6.395243904980308e+17
19149.0	6.394041154054825e+17
19150.0	6.392807346405376e+17
19151.0	6.391646049184426e+17
19152.0	6.390340928580265e+17
19153.0	6.389205461281449e+17
19154.0	6.387804685380265e+17
19155.0	6.386831330028202e+17
19156.0	6.385629794052778e+17
19157.0	6.384391653687295e+17
19158.0	6.380647270580219e+17
19159.0	6.381984131579901e+17
19160.0	6.38066726412834e+17
19161.0	6.379260170207232e+17
19162.0	6.372766132120238e+17
19163.0	6.377186730005844e+17
19164.0	6.37601380966946e+17
19165.0	6.374722391856468e+17
19166.0	6.373323557918036e+17
19167.0	6.371871066947583e+17
19168.0	6.370826992134825e+17
19169.0	6.36974634438929e+17
19170.0	6.368803199210836e+17
19171.0	6.36734185406464e+17
19172.0	6.366374650358442e+17
19173.0	6.365195626610687e+17
19174.0	6.36389730427426e+17
19175.0	6.362800246314324e+17
19176.0	6.361595836541609e+17
19177.0	6.360124799057919e+17
19178.0	6.359159083630591e+17
19179.0	6.357624193460906e+17
19180.0	6.355627659318614e+17
19181.0	6.355404329407828e+17
19182.0	6.354044979948202e+17
19183.0	6.353083279867901e+17
19184.0	6.351624503033855e+17
19185.0	6.350780932729513e+17
19186.0	6.34962137195042e+17
19187.0	6.348253215151444e+17
19188.0	6.347179330022057e+17
19189.0	6.345878635806719e+17
19190.0	6.344653889951059e+17
19191.0	6.343505928519679e+17
19192.0	6.342346957040297e+17
19193.0	6.340151087202301e+17
19194.0	6.339542543324499e+17
19195.0	6.338726370912937e+17
19196.0	6.337618476968618e+17
19197.0	6.336436603191295e+17
19198.0	6.335233017599315e+17
19199.0	6.301567157622093e+17
19200.0	6.312163095696739e+17
19201.0	6.331656501024084e+17
19202.0	6.330486899780266e+17
19203.0	6.329228292609364e+17
19204.0	6.328041510797311e+17
19205.0	6.326886339357353e+17
19206.0	6.325682806893225e+17
19207.0	6.32436067209489e+17
19208.0	6.322906813781331e+17
19209.0	6.322071325201748e+17
19210.0	6.320914666181972e+17
19211.0	6.319728334558548e+17
19212.0	6.318556803235837e+17
19213.0	6.316902981479082e+17
19214.0	6.315538754742956e+17
19215.0	6.314867575925418e+17
19216.0	6.313644955183785e+17
19217.0	6.312581062284628e+17
19218.0	6.309883485181266e+17
19219.0	6.30990661886498e+17
19220.0	6.3089562105501e+17
19221.0	6.30717388161024e+17
19222.0	6.306641023249065e+17
19223.0	6.305407045730303e+17
19224.0	6.303945327990099e+17
19225.0	6.302731250346665e+17
19226.0	6.30182910239266e+17
19227.0	6.300637343339859e+17
19228.0	6.2995017250461e+17
19229.0	6.298312021901311e+17
19230.0	6.296957832134655e+17
19231.0	6.295780256120831e+17
19232.0	6.294528975000915e+17
19233.0	6.293407964069887e+17
19234.0	6.292312376912553e+17
19235.0	6.29110182388258e+17
19236.0	6.289986502524927e+17
19237.0	6.288763270113961e+17
19238.0	6.28739243525188e+17
19239.0	6.286415913899348e+17
19240.0	6.284498928926717e+17
19241.0	6.283803657327956e+17
19242.0	6.282771128036009e+17
19243.0	6.281303397761023e+17
19244.0	6.280464997635412e+17
19245.0	6.279276359144788e+17
19246.0	6.278068168906068e+17
19247.0	6.276865882150228e+17
19248.0	6.275722264619689e+17
19249.0	6.274528470630399e+17
19250.0	6.273313008167593e+17
19251.0	6.271989925456553e+17
19252.0	6.27027483889937e+17
19253.0	6.269745609310208e+17
19254.0	6.26848587457058e+17
19255.0	6.267006796606121e+17
19256.0	6.266097935668564e+17
19257.0	6.265027600318463e+17
19258.0	6.263838425655978e+17
19259.0	6.262502214773418e+17
19260.0	6.261062347958953e+17
19261.0	6.260261690976938e+17
19262.0	6.25897607668258e+17
19263.0	6.257816788533247e+17
19264.0	6.25573852628036e+17
19265.0	6.255177814245373e+17
19266.0	6.254086141072724e+17
19267.0	6.253147572578985e+17
19268.0	6.25192944673314e+17
19269.0	6.250751500921514e+17
19270.0	6.249550085881855e+17
19271.0	6.247754333771096e+17
19272.0	6.247126945584467e+17
19273.0	6.227513178412347e+17
19274.0	6.235996909032777e+17
19275.0	6.243633040719871e+17
19276.0	6.242406649997993e+17
19277.0	6.241210972067156e+17
19278.0	6.240032210463401e+17
19279.0	6.238633025601535e+17
19280.0	6.237487991794346e+17
19281.0	6.236460670429866e+17
19282.0	6.235295369046697e+17
19283.0	6.233555274650964e+17
19284.0	6.231657714199208e+17
19285.0	6.23127634850611e+17
19286.0	6.23047296033314e+17
19287.0	6.229349762072576e+17
19288.0	6.220672796371624e+17
19289.0	6.20352375741913e+17
19290.0	6.225773518826153e+17
19291.0	6.224071912762028e+17
19292.0	6.223386622907731e+17
19293.0	6.222181014962176e+17
19294.0	6.220977961347754e+17
19295.0	6.219807478601044e+17
19296.0	6.218598624264191e+17
19297.0	6.217346264509097e+17
19298.0	6.216160962587306e+17
19299.0	6.215022102096554e+17
19300.0	6.213825999841962e+17
19301.0	6.212609072168959e+17
19302.0	6.211400723245737e+17
19303.0	6.210016022713684e+17
19304.0	6.20888473993216e+17
19305.0	6.207792686475945e+17
19306.0	6.206583358182739e+17
19307.0	6.205274113878697e+17
19308.0	6.204136768929791e+17
19309.0	6.201982787605843e+17
19310.0	6.200173245322578e+17
19311.0	6.200467456873811e+17
19312.0	6.199329860965715e+17
19313.0	6.197722057015297e+17
19314.0	6.185092223336424e+17
19315.0	6.184823395713051e+17
19316.0	6.194530181185535e+17
19317.0	6.193352775041023e+17
19318.0	6.192133870452733e+17
19319.0	6.190954270687231e+17
19320.0	6.189626335166463e+17
19321.0	6.188526810955776e+17
19322.0	6.186977597936982e+17
19323.0	6.185505415408298e+17
19324.0	6.184852806172671e+17
19325.0	6.182889207103487e+17
19326.0	6.182424392936105e+17
19327.0	6.181170376430931e+17
19328.0	6.179991844115796e+17
19329.0	6.178764076963156e+17
19330.0	6.177453189190996e+17
19331.0	6.1762235807389e+17
19332.0	6.175056240224938e+17
19333.0	6.173791096930303e+17
19334.0	6.172446856751785e+17
19335.0	6.17135745339665e+17
19336.0	6.170101336943273e+17
19337.0	6.168852226375679e+17
19338.0	6.167230772062889e+17
19339.0	6.166367297688916e+17
19340.0	6.165015572075859e+17
19341.0	6.163861080812202e+17
19342.0	6.161729216053245e+17
19343.0	6.161299192239444e+17
19344.0	6.160004812548777e+17
19345.0	6.15481782514482e+17
19346.0	6.156524813899094e+17
19347.0	6.156080356087124e+17
19348.0	6.15494520545826e+17
19349.0	6.153586311779668e+17
19350.0	6.152309539078143e+17
19351.0	6.151008758180521e+17
19352.0	6.149655931562665e+17
19353.0	6.148503912841215e+17
19354.0	6.1471870957213e+17
19355.0	6.145693489386838e+17
19356.0	6.144565207629823e+17
19357.0	6.143227974036137e+17
19358.0	6.141744892608512e+17
19359.0	6.139563636424704e+17
19360.0	6.139157420179455e+17
19361.0	6.137772061840723e+17
19362.0	6.136548001054719e+17
19363.0	6.135177512921769e+17
19364.0	6.133781408776191e+17
19365.0	6.132410539660627e+17
19366.0	6.131018854214314e+17
19367.0	6.129611290531156e+17
19368.0	6.128215194774186e+17
19369.0	6.126429901160447e+17
19370.0	6.123042848287401e+17
19371.0	6.123823907383977e+17
19372.0	6.122478741662378e+17
19373.0	6.120949401255935e+17
19374.0	6.119474823080617e+17
19375.0	6.117979581666644e+17
19376.0	6.116459233847977e+17
19377.0	6.114936879054847e+17
19378.0	6.113395605853524e+17
19379.0	6.111794732990463e+17
19380.0	6.110189161807872e+17
19381.0	6.108569692798975e+17
19382.0	6.106782188087978e+17
19383.0	6.105109945647101e+17
19384.0	6.103648076911956e+17
19385.0	6.101949237690368e+17
19386.0	6.10023187152896e+17
19387.0	6.098420724924415e+17
19388.0	6.096634907022676e+17
19389.0	6.094823749233321e+17
19390.0	6.092919771496447e+17
19391.0	6.061028413887781e+17
19392.0	6.089094970998783e+17
19393.0	6.087171472272041e+17
19394.0	6.085102700331008e+17
19395.0	6.082969845017258e+17
19396.0	6.080817238725972e+17
19397.0	6.078746682108588e+17
19398.0	6.076431448670207e+17
19399.0	6.072772536390994e+17
19400.0	6.071581913994579e+17
19401.0	6.069210737628499e+17
19402.0	6.06670145331746e+17
19403.0	6.063989849063423e+17
19404.0	6.061282743899476e+17
19405.0	6.058387224308393e+17
19406.0	6.055386059986259e+17
19407.0	6.052253741875199e+17
19408.0	6.047692376156845e+17
19409.0	6.0454342768285e+17
19410.0	6.04213982929442e+17
19411.0	6.038439754814804e+17
19412.0	6.034370906641748e+17
19413.0	6.030314049983828e+17
19414.0	6.025953437635926e+17
19415.0	6.021306754880851e+17
19416.0	6.016213352884905e+17
19417.0	6.010944058556415e+17
19418.0	6.006261452286634e+17
19419.0	6.000193312216406e+17
19420.0	5.99427281584128e+17
19421.0	5.987700670027092e+17
19422.0	5.980441534966441e+17
19423.0	5.972792988139519e+17
19424.0	5.96426489856e+17
19425.0	5.955129468168873e+17
19426.0	5.944924223919444e+17
19427.0	5.933275690303487e+17
19428.0	5.922603715089747e+17
19429.0	5.911026181253801e+17
19430.0	5.897731760805206e+17
19431.0	5.878142930168506e+17
19432.0	5.869725722607613e+17
19433.0	5.852790951772159e+17
19434.0	5.833868751929344e+17
19435.0	5.811449748258812e+17
19436.0	5.783600528796326e+17
19437.0	5.757708017860607e+17
19438.0	5.693311336928595e+17
19439.0	5.70226161536205e+17
19440.0	5.669584756888916e+17
19441.0	5.6317266285472403e+17
19442.0	5.5857049152170714e+17
19443.0	5.5298459889390925e+17
19444.0	5.476046365261821e+17
19445.0	5.414447999527599e+17
19446.0	5.3368426185359334e+17
19447.0	5.247519274915152e+17
19448.0	5.1410517933861555e+17
19449.0	4.9887431828875936e+17
19450.0	4.6266143994456595e+17
19451.0	4.4932835849884954e+17
19452.0	4.8345700868205306e+17
19453.0	5.0751474258411584e+17
19454.0	5.194290907753124e+17
19455.0	5.2863446097592294e+17
19456.0	5.3699248026637664e+17
19457.0	5.43612060652885e+17
19458.0	5.472919775871007e+17
19459.0	5.543590628076204e+17
19460.0	5.5926440528445434e+17
19461.0	5.631992939588266e+17
19462.0	5.664902047159637e+17
19463.0	5.6932403811887763e+17
19464.0	5.7182547523665926e+17
19465.0	5.743533622646101e+17
19466.0	5.76746405145258e+17
19467.0	5.790108045279232e+17
19468.0	5.808170626012502e+17
19469.0	5.820855373616468e+17
19470.0	5.837334211024212e+17
19471.0	5.84950634127906e+17
19472.0	5.860373631948115e+17
19473.0	5.869887821272404e+17
19474.0	5.878762328905044e+17
19475.0	5.886577690891602e+17
19476.0	5.896197459935232e+17
19477.0	5.903513964685993e+17
19478.0	5.910067055777108e+17
19479.0	5.915764875853823e+17
19480.0	5.920843453082282e+17
19481.0	5.925436964645545e+17
19482.0	5.929519553358506e+17
19483.0	5.933253977090729e+17
19484.0	5.936487392608255e+17
19485.0	5.939372744507392e+17
19486.0	5.941972244103168e+17
19487.0	5.944324921491455e+17
19488.0	5.946571364149929e+17
19489.0	5.948472353445204e+17
19490.0	5.947650213937147e+17
19491.0	5.951747659573929e+17
19492.0	5.953162206074195e+17
19493.0	5.954276610976425e+17
19494.0	5.955303227697833e+17
19495.0	5.955938903829161e+17
19496.0	5.956209663628627e+17
19497.0	5.957581995857235e+17
19498.0	5.956853046793562e+17
19499.0	5.909943351771081e+17
19500.0	5.958915098760531e+17
19501.0	5.959079695133354e+17
19502.0	5.959223149417811e+17
19503.0	5.959321648452948e+17
19504.0	5.959291382355284e+17
19505.0	5.959407363249492e+17
19506.0	5.959291938100564e+17
19507.0	5.959083804153171e+17
19508.0	5.958901708445012e+17
19509.0	5.958662942796457e+17
19510.0	5.958014494310399e+17
19511.0	5.922375454075539e+17
19512.0	5.951774357716963e+17
19513.0	5.943217404335419e+17
19514.0	5.947564162198173e+17
19515.0	5.954824182956036e+17
19516.0	5.955685012821334e+17
19517.0	5.955023829729279e+17
19518.0	5.954613191988564e+17
19519.0	5.953992088267434e+17
19520.0	5.953323445605716e+17
19521.0	5.95273272332561e+17
19522.0	5.951969845837824e+17
19523.0	5.951379770179583e+17
19524.0	5.950667975120212e+17
19525.0	5.94980708094225e+17
19526.0	5.949182279942144e+17
19527.0	5.94842164011554e+17
19528.0	5.947719519218345e+17
19529.0	5.946934952984575e+17
19530.0	5.946153747087359e+17
19531.0	5.94536084537344e+17
19532.0	5.944533704157866e+17
19533.0	5.943708525177514e+17
19534.0	5.942905414527658e+17
19535.0	5.942005660123136e+17
19536.0	5.941116896193193e+17
19537.0	5.940315380077908e+17
19538.0	5.939377316997802e+17
19539.0	5.937483819428529e+17
19540.0	5.937600735652521e+17
19541.0	5.936754960542378e+17
19542.0	5.935832871469055e+17
19543.0	5.934914513229139e+17
19544.0	5.933998075281408e+17
19545.0	5.932459080985253e+17
19546.0	5.93037497396975e+17
19547.0	5.931158783131647e+17
19548.0	5.930286202923689e+17
19549.0	5.92913050509858e+17
19550.0	5.928382027355475e+17
19551.0	5.927431263922858e+17
19552.0	5.926462435622912e+17
19553.0	5.925464872845311e+17
19554.0	5.924447203972435e+17
19555.0	5.92352441864465e+17
19556.0	5.922567103010131e+17
19557.0	5.921579385662122e+17
19558.0	5.920596290437119e+17
19559.0	5.919536754720768e+17
19560.0	5.918569527246848e+17
19561.0	5.917571685548031e+17
19562.0	5.916612379017215e+17
19563.0	5.915604458405887e+17
19564.0	5.914622332764159e+17
19565.0	5.913607013400576e+17
19566.0	5.912557958550867e+17
19567.0	5.911586687068842e+17
19568.0	5.910532401922048e+17
19569.0	5.909529574593876e+17
19570.0	5.908563246099114e+17
19571.0	5.907543994575529e+17
19572.0	5.906452772290561e+17
19573.0	5.90548163502626e+17
19574.0	5.904275042118313e+17
19575.0	5.903439458467839e+17
19576.0	5.902415772865876e+17
19577.0	5.901115028318889e+17
19578.0	5.900291906644649e+17
19579.0	5.899287859473065e+17
19580.0	5.898264161987242e+17
19581.0	5.897249653522432e+17
19582.0	5.896249760109908e+17
19583.0	5.895212368920575e+17
19584.0	5.89416298971136e+17
19585.0	5.892911717679101e+17
19586.0	5.891650582740991e+17
19587.0	5.89061201854464e+17
19588.0	5.889057221509121e+17
19589.0	5.888542135113044e+17
19590.0	5.887754695081983e+17
19591.0	5.886874393160362e+17
19592.0	5.88583585063458e+17
19593.0	5.884739388265812e+17
19594.0	5.883206439359827e+17
19595.0	5.882660956143615e+17
19596.0	5.873680465439407e+17
19597.0	5.880559651083606e+17
19598.0	5.879063354802175e+17
19599.0	5.878502960835241e+17
19600.0	5.8774673962653e+17
19601.0	5.87629419630865e+17
19602.0	5.875292243492863e+17
19603.0	5.873059568637266e+17
19604.0	5.873155074337449e+17
19605.0	5.871629942915073e+17
19606.0	5.87110816031266e+17
19607.0	5.870097003795796e+17
19608.0	5.869019977831763e+17
19609.0	5.867878013556052e+17
19610.0	5.866948789971625e+17
19611.0	5.86587576537361e+17
19612.0	5.864845363292842e+17
19613.0	5.863755917295615e+17
19614.0	5.862653276018004e+17
19615.0	5.861674723224233e+17
19616.0	5.860372203787604e+17
19617.0	5.859581878075391e+17
19618.0	5.857630539655848e+17
19619.0	5.85621893965414e+17
19620.0	5.855246261682173e+17
19621.0	5.855344194486272e+17
19622.0	5.854307596020394e+17
19623.0	5.85325352128785e+17
19624.0	5.852177267075753e+17
19625.0	5.851128148612435e+17
19626.0	5.850058063522474e+17
19627.0	5.849020899524607e+17
19628.0	5.847173203755009e+17
19629.0	5.846733407212884e+17
19630.0	5.845441328097964e+17
19631.0	5.810793387917292e+17
19632.0	5.843701525206356e+17
19633.0	5.842564595493546e+17
19634.0	5.841609881026559e+17
19635.0	5.840474532566356e+17
19636.0	5.839472086919849e+17
19637.0	5.837657363972097e+17
19638.0	5.837353906077696e+17
19639.0	5.83627030134784e+17
19640.0	5.835139479939753e+17
19641.0	5.833113710799535e+17
19642.0	5.83311772684561e+17
19643.0	5.832003105237674e+17
19644.0	5.830909077662378e+17
19645.0	5.829484878670505e+17
19646.0	5.828908686857556e+17
19647.0	5.827852029132799e+17
19648.0	5.826782549420714e+17
19649.0	5.825717645694292e+17
19650.0	5.824673507966976e+17
19651.0	5.82360078815505e+17
19652.0	5.822536633111892e+17
19653.0	5.821481525881514e+17
19654.0	5.820416375390207e+17
19655.0	5.819343366870356e+17
19656.0	5.818296922974889e+17
19657.0	5.817241970933759e+17
19658.0	5.816186344308736e+17
19659.0	5.815135196501332e+17
19660.0	5.81408809619729e+17
19661.0	5.813020880011264e+17
19662.0	5.811971337923242e+17
19663.0	5.81082208674338e+17
19664.0	5.80968165548578e+17
19665.0	5.808797446569983e+17
