# Flux units: erg / (cm m2 s)
# Wavelength units: Angstrom
wave	flux
19000.0	5.025283037986814e+17
19001.0	5.024351651539626e+17
19002.0	5.023452012478464e+17
19003.0	5.0225363427874125e+17
19004.0	5.0216209953587194e+17
19005.0	5.020706474207913e+17
19006.0	5.0197916426786125e+17
19007.0	5.018876922997419e+17
19008.0	5.017952819959125e+17
19009.0	5.0170328210472954e+17
19010.0	5.016049171475113e+17
19011.0	5.0152142456313165e+17
19012.0	5.01428260962304e+17
19013.0	5.013393083727872e+17
19014.0	5.012479804091049e+17
19015.0	5.011563181593939e+17
19016.0	5.010641543408298e+17
19017.0	5.00974048457523e+17
19018.0	5.0088278054229325e+17
19019.0	5.007915891731114e+17
19020.0	5.007003602649086e+17
19021.0	5.006091571516758e+17
19022.0	5.0051798276942496e+17
19023.0	5.0042679888008525e+17
19024.0	5.003354264567806e+17
19025.0	5.0024448842356045e+17
19026.0	5.0015290258008736e+17
19027.0	5.0006102145761274e+17
19028.0	4.9997124853213856e+17
19029.0	4.998801873960959e+17
19030.0	4.9978916904195405e+17
19031.0	4.996981492198058e+17
19032.0	4.99606975746321e+17
19033.0	4.995147010583209e+17
19034.0	4.9942512708266656e+17
19035.0	4.9933369391185914e+17
19036.0	4.991458372572499e+17
19037.0	4.9915201392913043e+17
19038.0	4.990614894542847e+17
19039.0	4.989706755724628e+17
19040.0	4.9887984512314016e+17
19041.0	4.987890206856532e+17
19042.0	4.986907354202111e+17
19043.0	4.98607437451537e+17
19044.0	4.9851662818344954e+17
19045.0	4.984259076248915e+17
19046.0	4.983342974544553e+17
19047.0	4.9824415794681165e+17
19048.0	4.9814919687700474e+17
19049.0	4.9804954217130656e+17
19050.0	4.979715380434262e+17
19051.0	4.978680707153919e+17
19052.0	4.977888127702357e+17
19053.0	4.9770055706432845e+17
19054.0	4.9761000329925965e+17
19055.0	4.9751367299891194e+17
19056.0	4.9742826802162336e+17
19057.0	4.973383984174421e+17
19058.0	4.972413320167423e+17
19059.0	4.971548531578196e+17
19060.0	4.970665852185258e+17
19061.0	4.9697650142522016e+17
19062.0	4.968859889740457e+17
19063.0	4.9679560780458656e+17
19064.0	4.967034883757396e+17
19065.0	4.9661228386440525e+17
19066.0	4.9652130479691085e+17
19067.0	4.9643420902577485e+17
19068.0	4.9634390440236365e+17
19069.0	4.962536289293653e+17
19070.0	4.9616320532753056e+17
19071.0	4.960731048968191e+17
19072.0	4.959803790415189e+17
19073.0	4.958925786273109e+17
19074.0	4.9580245792413005e+17
19075.0	4.957122801784148e+17
19076.0	4.956217977864191e+17
19077.0	4.9553168085811194e+17
19078.0	4.954413537951743e+17
19079.0	4.953517682152789e+17
19080.0	4.9526161102165325e+17
19081.0	4.9517089158157645e+17
19082.0	4.950809140439722e+17
19083.0	4.949904533924522e+17
19084.0	4.9489840897174176e+17
19085.0	4.948115357084329e+17
19086.0	4.947131186719402e+17
19087.0	4.9462421851122336e+17
19088.0	4.945373620251306e+17
19089.0	4.9444832771659085e+17
19090.0	4.9436183159111674e+17
19091.0	4.942710832103423e+17
19092.0	4.941763250050389e+17
19093.0	4.9409237384342163e+17
19094.0	4.940025763812691e+17
19095.0	4.9391278563000314e+17
19096.0	4.938227425913514e+17
19097.0	4.9373321650066765e+17
19098.0	4.9364083017427616e+17
19099.0	4.935506437603327e+17
19100.0	4.934637405776553e+17
19101.0	4.93374372122897e+17
19102.0	4.932826095594155e+17
19103.0	4.9319513930683725e+17
19104.0	4.9310552052203514e+17
19105.0	4.930101205183145e+17
19106.0	4.9292594510124365e+17
19107.0	4.92835068514577e+17
19108.0	4.9274502974013434e+17
19109.0	4.9265252401588896e+17
19110.0	4.9256788212230816e+17
19111.0	4.9247705111374496e+17
19112.0	4.9238729538491725e+17
19113.0	4.9229979150800205e+17
19114.0	4.922092855579989e+17
19115.0	4.921201960943615e+17
19116.0	4.9203154311796045e+17
19117.0	4.91941848486161e+17
19118.0	4.9185092366499834e+17
19119.0	4.9157808488884864e+17
19120.0	4.916732042237269e+17
19121.0	4.9158430175614285e+17
19122.0	4.914956273188862e+17
19123.0	4.9140570339846816e+17
19124.0	4.913163225006079e+17
19125.0	4.912270758204756e+17
19126.0	4.911376406063787e+17
19127.0	4.9101847651505485e+17
19128.0	4.909592251203583e+17
19129.0	4.9086921983044256e+17
19130.0	4.9078122088584525e+17
19131.0	4.906921758818303e+17
19132.0	4.906030616717994e+17
19133.0	4.9051324680328525e+17
19134.0	4.9042504282712736e+17
19135.0	4.90335997473587e+17
19136.0	4.902469930145109e+17
19137.0	4.9015534369723725e+17
19138.0	4.900687881524564e+17
19139.0	4.8998009463111674e+17
19140.0	4.89891185173026e+17
19141.0	4.8980227718294176e+17
19142.0	4.897133419298815e+17
19143.0	4.896235791406421e+17
19144.0	4.895354749889193e+17
19145.0	4.8944681984546125e+17
19146.0	4.893482287453525e+17
19147.0	4.8926771446633805e+17
19148.0	4.8917824429970765e+17
19149.0	4.890891783940778e+17
19150.0	4.8900281068421126e+17
19151.0	4.8891420300629325e+17
19152.0	4.888254992788138e+17
19153.0	4.887324982771711e+17
19154.0	4.8864557195591674e+17
19155.0	4.885594779243861e+17
19156.0	4.8847081907595936e+17
19157.0	4.8838049697628154e+17
19158.0	4.882872223662079e+17
19159.0	4.882046923046911e+17
19160.0	4.8811645337599994e+17
19161.0	4.8802790357947725e+17
19162.0	4.879312990415529e+17
19163.0	4.8785053764812794e+17
19164.0	4.877624486658047e+17
19165.0	4.876690754895871e+17
19166.0	4.8758314154065914e+17
19167.0	4.874964382864724e+17
19168.0	4.874087411919529e+17
19169.0	4.873201997840383e+17
19170.0	4.872320489357311e+17
19171.0	4.8714320476897274e+17
19172.0	4.870553785597951e+17
19173.0	4.869670844760062e+17
19174.0	4.8687784038236154e+17
19175.0	4.867905508343807e+17
19176.0	4.8670231414265165e+17
19177.0	4.8661162525108896e+17
19178.0	4.865255707858261e+17
19179.0	4.864369440238249e+17
19180.0	4.863494054739966e+17
19181.0	4.862586628953429e+17
19182.0	4.86172863303953e+17
19183.0	4.860850584158207e+17
19184.0	4.859969086859945e+17
19185.0	4.8590877384594765e+17
19186.0	4.8582076881960954e+17
19187.0	4.8573266208139936e+17
19188.0	4.8564465768420685e+17
19189.0	4.855567352856575e+17
19190.0	4.8546870460415994e+17
19191.0	4.853806597319338e+17
19192.0	4.852928015062356e+17
19193.0	4.8520427456866976e+17
19194.0	4.8511603738760525e+17
19195.0	4.85028956156723e+17
19196.0	4.8494085438177274e+17
19197.0	4.848528976598356e+17
19198.0	4.847645139577515e+17
19199.0	4.84626861793826e+17
19200.0	4.8455349908275194e+17
19201.0	4.845012096035497e+17
19202.0	4.8441401330892794e+17
19203.0	4.843263999606783e+17
19204.0	4.842382637924351e+17
19205.0	4.8415100136762016e+17
19206.0	4.8406312217040205e+17
19207.0	4.839744139689982e+17
19208.0	4.838837213724671e+17
19209.0	4.838003669204991e+17
19210.0	4.837127411990527e+17
19211.0	4.8362513693846176e+17
19212.0	4.835375377110357e+17
19213.0	4.834484589428736e+17
19214.0	4.833602464382976e+17
19215.0	4.8327464719482874e+17
19216.0	4.831873228341247e+17
19217.0	4.8309972668252154e+17
19218.0	4.8299925303896736e+17
19219.0	4.8292262946624845e+17
19220.0	4.82837394428177e+17
19221.0	4.8274488178333e+17
19222.0	4.826623576637439e+17
19223.0	4.825751146026325e+17
19224.0	4.824872956635819e+17
19225.0	4.8239818173317114e+17
19226.0	4.823130786758655e+17
19227.0	4.8222579227361274e+17
19228.0	4.8213848259297274e+17
19229.0	4.8205116801897805e+17
19230.0	4.819638386251092e+17
19231.0	4.818766528861524e+17
19232.0	4.8178928085019296e+17
19233.0	4.8170111965593594e+17
19234.0	4.816145866904917e+17
19235.0	4.815277665550336e+17
19236.0	4.814405729168042e+17
19237.0	4.813531689342292e+17
19238.0	4.8126471910195194e+17
19239.0	4.811791828429482e+17
19240.0	4.810920099665237e+17
19241.0	4.810049682320042e+17
19242.0	4.809179025899519e+17
19243.0	4.8082861983880525e+17
19244.0	4.807438207986345e+17
19245.0	4.8065679458303994e+17
19246.0	4.805695462790485e+17
19247.0	4.80482780320017e+17
19248.0	4.8039581841708365e+17
19249.0	4.803088133128191e+17
19250.0	4.802209028680363e+17
19251.0	4.8013242598249805e+17
19252.0	4.8004396314787834e+17
19253.0	4.7996093613124256e+17
19254.0	4.79874287612723e+17
19255.0	4.7978467204355405e+17
19256.0	4.797000915266219e+17
19257.0	4.79613748772864e+17
19258.0	4.7952692283528525e+17
19259.0	4.7943906439987194e+17
19260.0	4.7935106147068576e+17
19261.0	4.792665469441364e+17
19262.0	4.7917950681743354e+17
19263.0	4.790921262530559e+17
19264.0	4.789970392842238e+17
19265.0	4.789159693298345e+17
19266.0	4.7882684407480314e+17
19267.0	4.787462192059732e+17
19268.0	4.7865957572061856e+17
19269.0	4.785728965836798e+17
19270.0	4.7848615893620045e+17
19271.0	4.7839379400075936e+17
19272.0	4.7831243554816e+17
19273.0	4.782209434473812e+17
19274.0	4.781331556160853e+17
19275.0	4.7805153662730234e+17
19276.0	4.779642383411882e+17
19277.0	4.778776945404585e+17
19278.0	4.777911622041598e+17
19279.0	4.777046091060564e+17
19280.0	4.776168591633067e+17
19281.0	4.775315687604223e+17
19282.0	4.7744512827938125e+17
19283.0	4.7735801069786445e+17
19284.0	4.7727199258323616e+17
19285.0	4.7718345075589114e+17
19286.0	4.7709875091101005e+17
19287.0	4.7701276998587725e+17
19288.0	4.768999090246996e+17
19289.0	4.767749888103763e+17
19290.0	4.767535592723796e+17
19291.0	4.7666351217923405e+17
19292.0	4.765809736592042e+17
19293.0	4.7649451954667514e+17
19294.0	4.764082900391253e+17
19295.0	4.763219590294187e+17
19296.0	4.762329500964181e+17
19297.0	4.761487071510527e+17
19298.0	4.760629970381482e+17
19299.0	4.7597357825174163e+17
19300.0	4.7589008895290016e+17
19301.0	4.758039870920019e+17
19302.0	4.75717558145297e+17
19303.0	4.756303004041215e+17
19304.0	4.755447282838187e+17
19305.0	4.7545895134167034e+17
19306.0	4.7537273714333e+17
19307.0	4.752861121828181e+17
19308.0	4.752001807504724e+17
19309.0	4.7511205192226125e+17
19310.0	4.7502498949584205e+17
19311.0	4.749406750375936e+17
19312.0	4.748552268589739e+17
19313.0	4.7476879434711034e+17
19314.0	4.744306872374612e+17
19315.0	4.7436660659104454e+17
19316.0	4.7450633025181e+17
19317.0	4.744241121067007e+17
19318.0	4.7433792908602016e+17
19319.0	4.7425174914116256e+17
19320.0	4.741643343932074e+17
19321.0	4.740768961571498e+17
19322.0	4.7399187300133536e+17
19323.0	4.7390610885181434e+17
19324.0	4.7382051771733325e+17
19325.0	4.737326070628351e+17
19326.0	4.736480265459029e+17
19327.0	4.735615160199849e+17
19328.0	4.734704042027689e+17
19329.0	4.7338932285385376e+17
19330.0	4.73302409744657e+17
19331.0	4.732159803086166e+17
19332.0	4.73130389873186e+17
19333.0	4.7304411324962125e+17
19334.0	4.729575426752511e+17
19335.0	4.7286102013597005e+17
19336.0	4.7278483934194336e+17
19337.0	4.726985476887893e+17
19338.0	4.7260886235436365e+17
19339.0	4.725258052785493e+17
19340.0	4.7243518615224314e+17
19341.0	4.723478773104639e+17
19342.0	4.7225932527697914e+17
19343.0	4.721797369604778e+17
19344.0	4.720893840326656e+17
19345.0	4.7196940023453e+17
19346.0	4.71904832000273e+17
19347.0	4.718273530691583e+17
19348.0	4.7174659691861325e+17
19349.0	4.7165987122490016e+17
19350.0	4.715712878739455e+17
19351.0	4.714857231635796e+17
19352.0	4.7139298591375354e+17
19353.0	4.7131233685777056e+17
19354.0	4.712253999109459e+17
19355.0	4.7113693483936416e+17
19356.0	4.710511457337342e+17
19357.0	4.709639838324051e+17
19358.0	4.7087667932474016e+17
19359.0	4.7078758587651405e+17
19360.0	4.7069748852162554e+17
19361.0	4.7061378531327994e+17
19362.0	4.7052542013603834e+17
19363.0	4.704353065631742e+17
19364.0	4.703474828006741e+17
19365.0	4.702595724257962e+17
19366.0	4.7017153789951994e+17
19367.0	4.70083386422067e+17
19368.0	4.699951277102421e+17
19369.0	4.699061557570219e+17
19370.0	4.698177642954751e+17
19371.0	4.697289013242538e+17
19372.0	4.6964053265175885e+17
19373.0	4.6955147646293325e+17
19374.0	4.6946224397352954e+17
19375.0	4.693727415806634e+17
19376.0	4.6928316159317325e+17
19377.0	4.6919322907443194e+17
19378.0	4.6910317764717216e+17
19379.0	4.6901282646698656e+17
19380.0	4.689221994414079e+17
19381.0	4.6883129055860045e+17
19382.0	4.687333687995049e+17
19383.0	4.6864112354153805e+17
19384.0	4.685507162275839e+17
19385.0	4.684586864869375e+17
19386.0	4.6836611561117e+17
19387.0	4.682730416286377e+17
19388.0	4.6817951459136845e+17
19389.0	4.68085467180783e+17
19390.0	4.679907367277908e+17
19391.0	4.678016361125203e+17
19392.0	4.67790264865041e+17
19393.0	4.6769578138664954e+17
19394.0	4.675972060151807e+17
19395.0	4.674957037185707e+17
19396.0	4.673981830747477e+17
19397.0	4.6729443703521274e+17
19398.0	4.6718665796266656e+17
19399.0	4.670716460225876e+17
19400.0	4.669822648451072e+17
19401.0	4.6687752846049274e+17
19402.0	4.6676124222095354e+17
19403.0	4.666549783407274e+17
19404.0	4.6654671943980365e+17
19405.0	4.664190560108543e+17
19406.0	4.663080006975487e+17
19407.0	4.661873610500778e+17
19408.0	4.660537991714132e+17
19409.0	4.6594862399269536e+17
19410.0	4.658230714870443e+17
19411.0	4.6570055251176096e+17
19412.0	4.655749746305706e+17
19413.0	4.654442553016319e+17
19414.0	4.653129206682964e+17
19415.0	4.651770050860373e+17
19416.0	4.65020224868625e+17
19417.0	4.6487589082890234e+17
19418.0	4.647255544605353e+17
19419.0	4.645609914324308e+17
19420.0	4.643825289003007e+17
19421.0	4.642104311545855e+17
19422.0	4.640038000962217e+17
19423.0	4.6380681740506445e+17
19424.0	4.6355790524579834e+17
19425.0	4.633131251750229e+17
19426.0	4.630349773187753e+17
19427.0	4.6271182758652576e+17
19428.0	4.6233473029679763e+17
19429.0	4.618868847454891e+17
19430.0	4.614582599417856e+17
19431.0	4.6110246538226336e+17
19432.0	4.6074819251623245e+17
19433.0	4.6031867411606176e+17
19434.0	4.598598389290323e+17
19435.0	4.593221109809151e+17
19436.0	4.5866312989846176e+17
19437.0	4.578211048456194e+17
19438.0	4.5639788829955424e+17
19439.0	4.546816231429466e+17
19440.0	4.5297081211944954e+17
19441.0	4.5176240531483296e+17
19442.0	4.504221381208747e+17
19443.0	4.486936813109249e+17
19444.0	4.459286718928209e+17
19445.0	4.39662116776618e+17
19446.0	4.341230640387412e+17
19447.0	4.296122556219385e+17
19448.0	4.206697019080711e+17
19449.0	4.0475367997876896e+17
19450.0	3.7217438996452915e+17
19451.0	3.504440055169087e+17
19452.0	3.934478188325554e+17
19453.0	4.125799182849385e+17
19454.0	4.2610811735463174e+17
19455.0	4.3143146507687245e+17
19456.0	4.356378549638496e+17
19457.0	4.4253099233116096e+17
19458.0	4.455940428398603e+17
19459.0	4.4835069692477446e+17
19460.0	4.4969078558119226e+17
19461.0	4.507845480764757e+17
19462.0	4.5194731672917344e+17
19463.0	4.537936966757033e+17
19464.0	4.551469032975017e+17
19465.0	4.559866602105515e+17
19466.0	4.565608338642259e+17
19467.0	4.569722641885866e+17
19468.0	4.57314623553536e+17
19469.0	4.575649011684692e+17
19470.0	4.5780952793743354e+17
19471.0	4.579937504373417e+17
19472.0	4.58195075141905e+17
19473.0	4.584747282639531e+17
19474.0	4.58727779012881e+17
19475.0	4.5888733551001574e+17
19476.0	4.590294521610239e+17
19477.0	4.591374779285502e+17
19478.0	4.5920220498711885e+17
19479.0	4.592540245644628e+17
19480.0	4.592949607617877e+17
19481.0	4.593142461016747e+17
19482.0	4.5931798287701325e+17
19483.0	4.593308022079487e+17
19484.0	4.5931803943021216e+17
19485.0	4.5929875052516685e+17
19486.0	4.59276386566144e+17
19487.0	4.592608676413439e+17
19488.0	4.59228598833425e+17
19489.0	4.5919039634363725e+17
19490.0	4.591261346430974e+17
19491.0	4.591095879740075e+17
19492.0	4.590647553381717e+17
19493.0	4.590233546216789e+17
19494.0	4.5897365952921594e+17
19495.0	4.58930463510801e+17
19496.0	4.588695806017536e+17
19497.0	4.588251045516628e+17
19498.0	4.587712651373226e+17
19499.0	4.585735805992957e+17
19500.0	4.586604124089002e+17
19501.0	4.586116945892692e+17
19502.0	4.585488732826282e+17
19503.0	4.5848428386713594e+17
19504.0	4.584187828196692e+17
19505.0	4.583577310199808e+17
19506.0	4.582950727319551e+17
19507.0	4.5822649732956154e+17
19508.0	4.581577661786794e+17
19509.0	4.5808915225859405e+17
19510.0	4.5801698513387514e+17
19511.0	4.575547279540221e+17
19512.0	4.5786360516881056e+17
19513.0	4.577679126123859e+17
19514.0	4.577109335517865e+17
19515.0	4.576599036919808e+17
19516.0	4.5759424430953805e+17
19517.0	4.575198504288256e+17
19518.0	4.5744599034320205e+17
19519.0	4.573713559890602e+17
19520.0	4.572936628688213e+17
19521.0	4.572223958417407e+17
19522.0	4.571488443869866e+17
19523.0	4.570753271158102e+17
19524.0	4.5699764266379936e+17
19525.0	4.569239266525183e+17
19526.0	4.568476095436117e+17
19527.0	4.5677073151645005e+17
19528.0	4.566937517774164e+17
19529.0	4.566165365282132e+17
19530.0	4.565400876482559e+17
19531.0	4.56463238631697e+17
19532.0	4.563856714803881e+17
19533.0	4.5630795473223674e+17
19534.0	4.5623010083034445e+17
19535.0	4.5615211732445856e+17
19536.0	4.560733524896426e+17
19537.0	4.559957670931115e+17
19538.0	4.5591210659676154e+17
19539.0	4.558291429141162e+17
19540.0	4.5576043042788685e+17
19541.0	4.556811283027284e+17
19542.0	4.556028445545812e+17
19543.0	4.555207364400468e+17
19544.0	4.554452412050091e+17
19545.0	4.553581261400745e+17
19546.0	4.552717022964394e+17
19547.0	4.5521180532845216e+17
19548.0	4.551327725475157e+17
19549.0	4.5505217654947834e+17
19550.0	4.549743619342336e+17
19551.0	4.548951174807551e+17
19552.0	4.548157673308159e+17
19553.0	4.547359918085461e+17
19554.0	4.546562555030185e+17
19555.0	4.54577119821824e+17
19556.0	4.5449777575362554e+17
19557.0	4.54418431475712e+17
19558.0	4.5433889530839034e+17
19559.0	4.5425934173470714e+17
19560.0	4.5417842836766714e+17
19561.0	4.541000561197055e+17
19562.0	4.5401910206791674e+17
19563.0	4.539407036055551e+17
19564.0	4.538609757585407e+17
19565.0	4.537812315537407e+17
19566.0	4.5370112153572685e+17
19567.0	4.53621677363473e+17
19568.0	4.5354189911490554e+17
19569.0	4.5346190912389114e+17
19570.0	4.5338226767953914e+17
19571.0	4.533024339263487e+17
19572.0	4.5322256647891616e+17
19573.0	4.531419897746772e+17
19574.0	4.5306133163103565e+17
19575.0	4.5298298196241056e+17
19576.0	4.5290287739699194e+17
19577.0	4.528224829352618e+17
19578.0	4.527425978717525e+17
19579.0	4.526630477234174e+17
19580.0	4.525831559490219e+17
19581.0	4.5250329793877325e+17
19582.0	4.524236892798975e+17
19583.0	4.5234377709322234e+17
19584.0	4.5226380304056314e+17
19585.0	4.521821604937727e+17
19586.0	4.521018018933418e+17
19587.0	4.5202373694805325e+17
19588.0	4.5193614883553274e+17
19589.0	4.518639582227114e+17
19590.0	4.517820993197397e+17
19591.0	4.517044458356734e+17
19592.0	4.516244904476672e+17
19593.0	4.5154432226863776e+17
19594.0	4.5146055516706125e+17
19595.0	4.5138462176706554e+17
19596.0	4.513042472282793e+17
19597.0	4.5122505086948685e+17
19598.0	4.5113524970236576e+17
19599.0	4.510653043004757e+17
19600.0	4.509854588731392e+17
19601.0	4.509045092952746e+17
19602.0	4.508248394694656e+17
19603.0	4.5073818738578765e+17
19604.0	4.506652862578687e+17
19605.0	4.5058149238265165e+17
19606.0	4.5050635953547936e+17
19607.0	4.5042660120985594e+17
19608.0	4.503467196416e+17
19609.0	4.502665927065598e+17
19610.0	4.501853746932394e+17
19611.0	4.5010473318700365e+17
19612.0	4.500276616626176e+17
19613.0	4.4994790256803834e+17
19614.0	4.4986754997944314e+17
19615.0	4.497883801845759e+17
19616.0	4.4970607661547514e+17
19617.0	4.496259725393919e+17
19618.0	4.495387087863807e+17
19619.0	4.4945615467752096e+17
19620.0	4.493770156408832e+17
19621.0	4.49306550005487e+17
19622.0	4.492304985358336e+17
19623.0	4.491508593983487e+17
19624.0	4.490712227774463e+17
19625.0	4.489915846885376e+17
19626.0	4.489119593922559e+17
19627.0	4.488322963472383e+17
19628.0	4.487513723546283e+17
19629.0	4.486626340241408e+17
19630.0	4.485889580684629e+17
19631.0	4.4845805621739514e+17
19632.0	4.4843404934949536e+17
19633.0	4.483546076239187e+17
19634.0	4.482754293006336e+17
19635.0	4.4819538583224314e+17
19636.0	4.481124073996286e+17
19637.0	4.480282740654079e+17
19638.0	4.479569136451583e+17
19639.0	4.4787807960432634e+17
19640.0	4.4779724341247994e+17
19641.0	4.476932293569194e+17
19642.0	4.476395014411604e+17
19643.0	4.4756013374504954e+17
19644.0	4.474799227142143e+17
19645.0	4.473968320839679e+17
19646.0	4.473178499842047e+17
19647.0	4.472428398903295e+17
19648.0	4.4716365667368954e+17
19649.0	4.4708430715289594e+17
19650.0	4.4700504969707514e+17
19651.0	4.469257677045759e+17
19652.0	4.4684649829498874e+17
19653.0	4.467672153238185e+17
19654.0	4.466880013489492e+17
19655.0	4.466086979654996e+17
19656.0	4.46529453232401e+17
