# Flux units: erg / (cm m2 s)
# Wavelength units: Angstrom
wave	flux
19000.0	7.365384825645736e+17
19001.0	7.36399115629363e+17
19002.0	7.362710576562175e+17
19003.0	7.361363886211072e+17
19004.0	7.360015518138368e+17
19005.0	7.358691187621884e+17
19006.0	7.357349442355199e+17
19007.0	7.355784274903037e+17
19008.0	7.354629411045375e+17
19009.0	7.35327460471603e+17
19010.0	7.351718337576957e+17
19011.0	7.350583544862036e+17
19012.0	7.348599451724458e+17
19013.0	7.34793756259123e+17
19014.0	7.346548614627327e+17
19015.0	7.345214050009087e+17
19016.0	7.343859082898089e+17
19017.0	7.342529600378196e+17
19018.0	7.341143842881535e+17
19019.0	7.339830307105449e+17
19020.0	7.338467395982675e+17
19021.0	7.337133811433471e+17
19022.0	7.335785286773416e+17
19023.0	7.334406147888467e+17
19024.0	7.333056763396096e+17
19025.0	7.331642905460735e+17
19026.0	7.33027508560418e+17
19027.0	7.32833642516753e+17
19028.0	7.327653181434536e+17
19029.0	7.326282109594281e+17
19030.0	7.324940020394666e+17
19031.0	7.32358251712785e+17
19032.0	7.322222804860927e+17
19033.0	7.320808998655316e+17
19034.0	7.31948303655458e+17
19035.0	7.318019210477565e+17
19036.0	7.274507948173987e+17
19037.0	7.315347951932755e+17
19038.0	7.314036868426408e+17
19039.0	7.312699138506751e+17
19040.0	7.311340237138602e+17
19041.0	7.30997898416401e+17
19042.0	7.30855430492433e+17
19043.0	7.307256666958505e+17
19044.0	7.305888988310186e+17
19045.0	7.304503987186345e+17
19046.0	7.30313626240068e+17
19047.0	7.301791455292074e+17
19048.0	7.300318533167786e+17
19049.0	7.298997542715392e+17
19050.0	7.297663681342122e+17
19051.0	7.289583382648138e+17
19052.0	7.293782145193299e+17
19053.0	7.293540837097472e+17
19054.0	7.292235039812264e+17
19055.0	7.290718847849811e+17
19056.0	7.289488838841684e+17
19057.0	7.288125333525844e+17
19058.0	7.286690924898986e+17
19059.0	7.285391933571072e+17
19060.0	7.284016740128084e+17
19061.0	7.282661108918952e+17
19062.0	7.281288918597632e+17
19063.0	7.279919936918867e+17
19064.0	7.278485984073044e+17
19065.0	7.277077729727828e+17
19066.0	7.275768939107668e+17
19067.0	7.274438771518121e+17
19068.0	7.273083362607101e+17
19069.0	7.271930060428628e+17
19070.0	7.27054365561105e+17
19071.0	7.269163234667178e+17
19072.0	7.267798974376616e+17
19073.0	7.266436022708905e+17
19074.0	7.265065753378816e+17
19075.0	7.263692048913748e+17
19076.0	7.262306206132906e+17
19077.0	7.260936716943357e+17
19078.0	7.259554430932308e+17
19079.0	7.258194609613481e+17
19080.0	7.256815599353855e+17
19081.0	7.255420784956756e+17
19082.0	7.254042423416147e+17
19083.0	7.252623893026131e+17
19084.0	7.251173624337747e+17
19085.0	7.249929684647935e+17
19086.0	7.248256441166505e+17
19087.0	7.245929746093396e+17
19088.0	7.245598944133119e+17
19089.0	7.243648921326931e+17
19090.0	7.242979406949034e+17
19091.0	7.241635560336041e+17
19092.0	7.239952449055402e+17
19093.0	7.238911573797548e+17
19094.0	7.23753692701218e+17
19095.0	7.236159071584255e+17
19096.0	7.234780536679084e+17
19097.0	7.233412954499753e+17
19098.0	7.232029998798164e+17
19099.0	7.230650222379007e+17
19100.0	7.2292090525341e+17
19101.0	7.22787534774818e+17
19102.0	7.226468041315667e+17
19103.0	7.225142080613033e+17
19104.0	7.223760679600127e+17
19105.0	7.222355547215187e+17
19106.0	7.220758444332374e+17
19107.0	7.219589181429076e+17
19108.0	7.218197662356819e+17
19109.0	7.212988219348302e+17
19110.0	7.215272115743402e+17
19111.0	7.214065529126911e+17
19112.0	7.212706850056874e+17
19113.0	7.211336287125504e+17
19114.0	7.209955267794259e+17
19115.0	7.208456335392765e+17
19116.0	7.207177304757587e+17
19117.0	7.20578531312708e+17
19118.0	7.204164060839936e+17
19119.0	7.201176104381094e+17
19120.0	7.201282516669778e+17
19121.0	7.20000345248017e+17
19122.0	7.198896870653951e+17
19123.0	7.197513489929555e+17
19124.0	7.195887212866217e+17
19125.0	7.194717080343892e+17
19126.0	7.193351946239999e+17
19127.0	7.191013186950483e+17
19128.0	7.189254716609875e+17
19129.0	7.189160709674323e+17
19130.0	7.187820595991891e+17
19131.0	7.186396843693394e+17
19132.0	7.185052258882899e+17
19133.0	7.183399582870185e+17
19134.0	7.181674383147009e+17
19135.0	7.180879513605459e+17
19136.0	7.179510077543766e+17
19137.0	7.178030852778664e+17
19138.0	7.176690333646845e+17
19139.0	7.17534612492561e+17
19140.0	7.173963585858217e+17
19141.0	7.172576772795049e+17
19142.0	7.171160658324138e+17
19143.0	7.169770590481066e+17
19144.0	7.168397853502121e+17
19145.0	7.167014237896704e+17
19146.0	7.165262502210217e+17
19147.0	7.164194463241556e+17
19148.0	7.162825424240639e+17
19149.0	7.161440768447828e+17
19150.0	7.16006954701073e+17
19151.0	7.15868323726404e+17
19152.0	7.157244902768639e+17
19153.0	7.15587837895202e+17
19154.0	7.154433484565161e+17
19155.0	7.153095451257513e+17
19156.0	7.151698873854633e+17
19157.0	7.150152962452138e+17
19158.0	7.146419493623122e+17
19159.0	7.147444236189693e+17
19160.0	7.146067014101672e+17
19161.0	7.144575256756223e+17
19162.0	7.13739647617161e+17
19163.0	7.141664623689725e+17
19164.0	7.140544262176765e+17
19165.0	7.139046551715839e+17
19166.0	7.137572586607955e+17
19167.0	7.135806225383423e+17
19168.0	7.134938435070633e+17
19169.0	7.133480239147689e+17
19170.0	7.132176100010666e+17
19171.0	7.130467135040169e+17
19172.0	7.129341476121258e+17
19173.0	7.127978151160488e+17
19174.0	7.126574439246505e+17
19175.0	7.125207052801363e+17
19176.0	7.123805021405183e+17
19177.0	7.122309826128553e+17
19178.0	7.120823360596649e+17
19179.0	7.119142301728768e+17
19180.0	7.118112685380948e+17
19181.0	7.116728091104595e+17
19182.0	7.115369104452266e+17
19183.0	7.113980904472575e+17
19184.0	7.112554136469501e+17
19185.0	7.11118033134114e+17
19186.0	7.109777254165161e+17
19187.0	7.108314178868564e+17
19188.0	7.106941823571284e+17
19189.0	7.105492985140563e+17
19190.0	7.104055233653417e+17
19191.0	7.102644293555539e+17
19192.0	7.101310180524032e+17
19193.0	7.099852001378301e+17
19194.0	7.098447264656041e+17
19195.0	7.097042456630612e+17
19196.0	7.095590429130751e+17
19197.0	7.094073753425236e+17
19198.0	7.092218995845802e+17
19199.0	7.056563848085494e+17
19200.0	7.064955048165386e+17
19201.0	7.088047279570943e+17
19202.0	7.08701990158336e+17
19203.0	7.085610573496319e+17
19204.0	7.084291905290239e+17
19205.0	7.082922818753876e+17
19206.0	7.081506911201961e+17
19207.0	7.080045508034559e+17
19208.0	7.07857175543808e+17
19209.0	7.077251195600893e+17
19210.0	7.075844455399423e+17
19211.0	7.074419985874943e+17
19212.0	7.072989475154602e+17
19213.0	7.07122316845602e+17
19214.0	7.069624573799081e+17
19215.0	7.068559480629929e+17
19216.0	7.067282394753705e+17
19217.0	7.065857623239338e+17
19218.0	7.063959338571091e+17
19219.0	7.062900921335807e+17
19220.0	7.061533666312191e+17
19221.0	7.059939121954815e+17
19222.0	7.058689450049535e+17
19223.0	7.057255637013844e+17
19224.0	7.055790393262079e+17
19225.0	7.054298247244458e+17
19226.0	7.052928014265002e+17
19227.0	7.051483497365504e+17
19228.0	7.050052934915412e+17
19229.0	7.048607345672191e+17
19230.0	7.047109141681492e+17
19231.0	7.045669771193002e+17
19232.0	7.0442511499264e+17
19233.0	7.042763061198845e+17
19234.0	7.041345751351293e+17
19235.0	7.039891693808297e+17
19236.0	7.038448597379753e+17
19237.0	7.036981666818729e+17
19238.0	7.035424586683731e+17
19239.0	7.034070566087337e+17
19240.0	7.032579892969471e+17
19241.0	7.031121852235775e+17
19242.0	7.029668476966227e+17
19243.0	7.028112899091113e+17
19244.0	7.026743218361684e+17
19245.0	7.025272096991913e+17
19246.0	7.023790259175423e+17
19247.0	7.022323390829907e+17
19248.0	7.020837666291711e+17
19249.0	7.019350337432232e+17
19250.0	7.017874354165076e+17
19251.0	7.016332727943168e+17
19252.0	7.014752226814633e+17
19253.0	7.013415659416234e+17
19254.0	7.011934214466217e+17
19255.0	7.010338476829353e+17
19256.0	7.008894382855507e+17
19257.0	7.007449361241427e+17
19258.0	7.005952336549204e+17
19259.0	7.004406624376148e+17
19260.0	7.002208270112082e+17
19261.0	7.001435008226644e+17
19262.0	6.999896664047615e+17
19263.0	6.998377142506836e+17
19264.0	6.996603051879081e+17
19265.0	6.995269117105492e+17
19266.0	6.993760168706047e+17
19267.0	6.992326755527337e+17
19268.0	6.990797867406676e+17
19269.0	6.989265581899775e+17
19270.0	6.987728168856233e+17
19271.0	6.986009085127338e+17
19272.0	6.984626861331796e+17
19273.0	6.98218260411187e+17
19274.0	6.980934036706643e+17
19275.0	6.979998848821929e+17
19276.0	6.978432103612415e+17
19277.0	6.976873765885267e+17
19278.0	6.975318041908563e+17
19279.0	6.973691572606291e+17
19280.0	6.972132377143978e+17
19281.0	6.970583190689108e+17
19282.0	6.968991620792319e+17
19283.0	6.966931121416873e+17
19284.0	6.965346018437801e+17
19285.0	6.964130926471849e+17
19286.0	6.962620829532159e+17
19287.0	6.961025608493737e+17
19288.0	6.947785906935112e+17
19289.0	6.930736756730493e+17
19290.0	6.956189093636778e+17
19291.0	6.954440991615657e+17
19292.0	6.952969167699965e+17
19293.0	6.951318465806336e+17
19294.0	6.949447638450175e+17
19295.0	6.947805142013268e+17
19296.0	6.946148626814292e+17
19297.0	6.944478593373524e+17
19298.0	6.942830557659135e+17
19299.0	6.941164618558121e+17
19300.0	6.93949876544034e+17
19301.0	6.937815973625855e+17
19302.0	6.936123662838441e+17
19303.0	6.934387655791956e+17
19304.0	6.932715396573866e+17
19305.0	6.931014797142697e+17
19306.0	6.929278447561385e+17
19307.0	6.927515773130068e+17
19308.0	6.925787225653248e+17
19309.0	6.922890669370025e+17
19310.0	6.920694856854184e+17
19311.0	6.920427288920063e+17
19312.0	6.918842541757779e+17
19313.0	6.917069050216447e+17
19314.0	6.888270673739785e+17
19315.0	6.888105550282783e+17
19316.0	6.911557004951551e+17
19317.0	6.909905446720852e+17
19318.0	6.908096037956266e+17
19319.0	6.90628666134801e+17
19320.0	6.904454101423444e+17
19321.0	6.902611162693631e+17
19322.0	6.900626357223423e+17
19323.0	6.898374900274516e+17
19324.0	6.896959913372329e+17
19325.0	6.894091917503146e+17
19326.0	6.893209918286505e+17
19327.0	6.891355931060905e+17
19328.0	6.889445366868649e+17
19329.0	6.887536679627433e+17
19330.0	6.885578432490153e+17
19331.0	6.883624567701504e+17
19332.0	6.881671431323647e+17
19333.0	6.879691342348287e+17
19334.0	6.877718898191017e+17
19335.0	6.875691184990889e+17
19336.0	6.873680337087146e+17
19337.0	6.871665215187625e+17
19338.0	6.869504939611476e+17
19339.0	6.867553139818495e+17
19340.0	6.865449498531155e+17
19341.0	6.863367357246122e+17
19342.0	6.861019135606781e+17
19343.0	6.85915396846387e+17
19344.0	6.857002765866323e+17
19345.0	6.853815960251048e+17
19346.0	6.852218619691007e+17
19347.0	6.85040833921024e+17
19348.0	6.848230883065856e+17
19349.0	6.84550056452642e+17
19350.0	6.84316806034227e+17
19351.0	6.840898747542185e+17
19352.0	6.838559972873556e+17
19353.0	6.836300247553363e+17
19354.0	6.833968663319892e+17
19355.0	6.831572115608915e+17
19356.0	6.829248742424575e+17
19357.0	6.826863543102121e+17
19358.0	6.824439017985364e+17
19359.0	6.82198594363938e+17
19360.0	6.81956493894178e+17
19361.0	6.81711184781858e+17
19362.0	6.814660388279635e+17
19363.0	6.812159813440852e+17
19364.0	6.809637925945343e+17
19365.0	6.807095148718762e+17
19366.0	6.804327154144595e+17
19367.0	6.80102960632081e+17
19368.0	6.798371304680106e+17
19369.0	6.795620201966248e+17
19370.0	6.792836562638163e+17
19371.0	6.790160850441555e+17
19372.0	6.787400098731348e+17
19373.0	6.784559871950847e+17
19374.0	6.781720139399165e+17
19375.0	6.778825652305919e+17
19376.0	6.775031147266047e+17
19377.0	6.771533246627839e+17
19378.0	6.768516629790719e+17
19379.0	6.765456375414783e+17
19380.0	6.76235216822818e+17
19381.0	6.759202073258665e+17
19382.0	6.755383007772672e+17
19383.0	6.750718989260116e+17
19384.0	6.747451751574185e+17
19385.0	6.74407148158976e+17
19386.0	6.740630211745108e+17
19387.0	6.735268552551081e+17
19388.0	6.730884908580861e+17
19389.0	6.727198933254143e+17
19390.0	6.722755265298431e+17
19391.0	6.682073186172878e+17
19392.0	6.711631190250833e+17
19393.0	6.706866202258088e+17
19394.0	6.699741809213437e+17
19395.0	6.695308938095274e+17
19396.0	6.686187275507023e+17
19397.0	6.681188685053952e+17
19398.0	6.671066099351551e+17
19399.0	6.663994970472445e+17
19400.0	6.652921373174442e+17
19401.0	6.642497352630275e+17
19402.0	6.63209804492527e+17
19403.0	6.622619747658409e+17
19404.0	6.616189291724797e+17
19405.0	6.609486642238804e+17
19406.0	6.602634974025044e+17
19407.0	6.595621293129727e+17
19408.0	6.588103578528426e+17
19409.0	6.581106516164607e+17
19410.0	6.573639100355923e+17
19411.0	6.565653509745321e+17
19412.0	6.55788035154466e+17
19413.0	6.549926723627689e+17
19414.0	6.541553138925567e+17
19415.0	6.532896232483497e+17
19416.0	6.523500421797203e+17
19417.0	6.513533449666559e+17
19418.0	6.504622620060329e+17
19419.0	6.494891379698346e+17
19420.0	6.483657328601769e+17
19421.0	6.47329777381103e+17
19422.0	6.461104975424168e+17
19423.0	6.449239871717372e+17
19424.0	6.435117843087359e+17
19425.0	6.420101388916052e+17
19426.0	6.403118812801708e+17
19427.0	6.383522681279828e+17
19428.0	6.360168073789436e+17
19429.0	6.334293914331817e+17
19430.0	6.301001387955547e+17
19431.0	6.265120938961582e+17
19432.0	6.247599113764861e+17
19433.0	6.224744166020438e+17
19434.0	6.200692408582143e+17
19435.0	6.173881835104936e+17
19436.0	6.144658450502995e+17
19437.0	6.116980070634838e+17
19438.0	6.047079907808608e+17
19439.0	6.045775116457302e+17
19440.0	6.002246630244352e+17
19441.0	5.947869767576228e+17
19442.0	5.881109684420609e+17
19443.0	5.813351779139585e+17
19444.0	5.74711926253158e+17
19445.0	5.6682097934336045e+17
19446.0	5.5712646102166176e+17
19447.0	5.4504477219443974e+17
19448.0	5.299283931343535e+17
19449.0	5.102940733833217e+17
19450.0	4.829644177364301e+17
19451.0	4.7309302484609536e+17
19452.0	4.972091161269586e+17
19453.0	5.2085081233162304e+17
19454.0	5.3758570074384986e+17
19455.0	5.508261727262036e+17
19456.0	5.614436557520898e+17
19457.0	5.698474485306706e+17
19458.0	5.734384381810056e+17
19459.0	5.829361281619301e+17
19460.0	5.898453947951781e+17
19461.0	5.956509159303846e+17
19462.0	6.003117724969642e+17
19463.0	6.04128146707797e+17
19464.0	6.073553519990099e+17
19465.0	6.102378926658903e+17
19466.0	6.128573485503827e+17
19467.0	6.15321911304738e+17
19468.0	6.175879857526102e+17
19469.0	6.196791461194409e+17
19470.0	6.216822783912618e+17
19471.0	6.240629758274227e+17
19472.0	6.272205723096413e+17
19473.0	6.298853346465105e+17
19474.0	6.320751514047822e+17
19475.0	6.338777383436283e+17
19476.0	6.354734604615684e+17
19477.0	6.368476925001729e+17
19478.0	6.380077680601769e+17
19479.0	6.39046575456256e+17
19480.0	6.400399535068499e+17
19481.0	6.408923266766163e+17
19482.0	6.417286706845011e+17
19483.0	6.425271554364756e+17
19484.0	6.432333044034217e+17
19485.0	6.439300734386176e+17
19486.0	6.446424893248852e+17
19487.0	6.452734240052564e+17
19488.0	6.458767572292948e+17
19489.0	6.464345732371795e+17
19490.0	6.469116554641405e+17
19491.0	6.47506316754944e+17
19492.0	6.480303828762623e+17
19493.0	6.4851825669789e+17
19494.0	6.489908321452032e+17
19495.0	6.494463967537834e+17
19496.0	6.498685624691369e+17
19497.0	6.503061200917844e+17
19498.0	6.503340670189569e+17
19499.0	6.462359788148033e+17
19500.0	6.518797117336233e+17
19501.0	6.529192676032517e+17
19502.0	6.535346780460372e+17
19503.0	6.542169078759423e+17
19504.0	6.548325017496236e+17
19505.0	6.552594188424531e+17
19506.0	6.55758912284262e+17
19507.0	6.561360079661736e+17
19508.0	6.5638480520151e+17
19509.0	6.568776256454655e+17
19510.0	6.570108623257599e+17
19511.0	6.517772687245288e+17
19512.0	6.567421236215795e+17
19513.0	6.562184192589798e+17
19514.0	6.567069753540591e+17
19515.0	6.580452922665644e+17
19516.0	6.582829023843667e+17
19517.0	6.583679300840106e+17
19518.0	6.584518944576851e+17
19519.0	6.585333110013952e+17
19520.0	6.587789768392704e+17
19521.0	6.588440222455124e+17
19522.0	6.589001277024938e+17
19523.0	6.58954902446626e+17
19524.0	6.590031688193363e+17
19525.0	6.590476938728788e+17
19526.0	6.591587196163412e+17
19527.0	6.592552101391017e+17
19528.0	6.592867839508479e+17
19529.0	6.593155895918591e+17
19530.0	6.593409758265343e+17
19531.0	6.593627142750205e+17
19532.0	6.593812259755347e+17
19533.0	6.593966078164991e+17
19534.0	6.594086218410665e+17
19535.0	6.594152516375891e+17
19536.0	6.594619507387049e+17
19537.0	6.595019920113663e+17
19538.0	6.594929849532415e+17
19539.0	6.594661881042262e+17
19540.0	6.594858714835626e+17
19541.0	6.594781968859136e+17
19542.0	6.59466828784162e+17
19543.0	6.594527568243369e+17
19544.0	6.594385701502976e+17
19545.0	6.593972584229545e+17
19546.0	6.593565410284884e+17
19547.0	6.593825436161364e+17
19548.0	6.593600652225193e+17
19549.0	6.593304231673855e+17
19550.0	6.593098591939241e+17
19551.0	6.59282186084898e+17
19552.0	6.592526075035647e+17
19553.0	6.592201508607315e+17
19554.0	6.5918654742528e+17
19555.0	6.591753120033449e+17
19556.0	6.591645299157673e+17
19557.0	6.591242994100906e+17
19558.0	6.590826405341865e+17
19559.0	6.59039100023603e+17
19560.0	6.589925771531604e+17
19561.0	6.589458015759017e+17
19562.0	6.588991218384895e+17
19563.0	6.588491995545599e+17
19564.0	6.587978012950527e+17
19565.0	6.587448937152511e+17
19566.0	6.586894486514346e+17
19567.0	6.586346771928403e+17
19568.0	6.585759976914943e+17
19569.0	6.585185874564436e+17
19570.0	6.584592251923113e+17
19571.0	6.583979081028948e+17
19572.0	6.583340882722815e+17
19573.0	6.582710391450281e+17
19574.0	6.582022246673065e+17
19575.0	6.581415400789331e+17
19576.0	6.580745013297151e+17
19577.0	6.580056955202217e+17
19578.0	6.57934801576482e+17
19579.0	6.578652340813823e+17
19580.0	6.577939446846803e+17
19581.0	6.577219586839892e+17
19582.0	6.576494456690004e+17
19583.0	6.575752159952895e+17
19584.0	6.574985637614931e+17
19585.0	6.574183948135081e+17
19586.0	6.573378664835753e+17
19587.0	6.5725062461085e+17
19588.0	6.57166802354176e+17
19589.0	6.571111189839871e+17
19590.0	6.570272345817087e+17
19591.0	6.56952133681152e+17
19592.0	6.568708032604842e+17
19593.0	6.567873022175913e+17
19594.0	6.566896502221481e+17
19595.0	6.56619128103458e+17
19596.0	6.562438159794177e+17
19597.0	6.564439902562986e+17
19598.0	6.563483354486099e+17
19599.0	6.562788537969321e+17
19600.0	6.561915369160704e+17
19601.0	6.560996279713791e+17
19602.0	6.560117166178303e+17
19603.0	6.558479825240063e+17
19604.0	6.558252544294911e+17
19605.0	6.557283542630399e+17
19606.0	6.55653937872896e+17
19607.0	6.555625791509844e+17
19608.0	6.554698770634068e+17
19609.0	6.553741697570131e+17
19610.0	6.552839544722774e+17
19611.0	6.551897253085184e+17
19612.0	6.550965600299689e+17
19613.0	6.550018305556479e+17
19614.0	6.549042108563455e+17
19615.0	6.548098948005885e+17
19616.0	6.546817126760447e+17
19617.0	6.546174065857876e+17
19618.0	6.544909769812649e+17
19619.0	6.543864199031464e+17
19620.0	6.542901709722963e+17
19621.0	6.542272871006205e+17
19622.0	6.541298480360106e+17
19623.0	6.540309366308863e+17
19624.0	6.539315615454548e+17
19625.0	6.538315658428415e+17
19626.0	6.537311980355583e+17
19627.0	6.536288591151104e+17
19628.0	6.534431249880406e+17
19629.0	6.534125939501736e+17
19630.0	6.530569605218304e+17
19631.0	6.49514869186014e+17
19632.0	6.531084093926057e+17
19633.0	6.530343142861482e+17
19634.0	6.52939497710114e+17
19635.0	6.528351197986815e+17
19636.0	6.527338353961642e+17
19637.0	6.526084676496041e+17
19638.0	6.525274730528768e+17
19639.0	6.52422411120367e+17
19640.0	6.523146427432959e+17
19641.0	6.521774363639808e+17
19642.0	6.521104376004608e+17
19643.0	6.520038132198058e+17
19644.0	6.518965087327572e+17
19645.0	6.51779614389043e+17
19646.0	6.516875150928554e+17
19647.0	6.515826883209897e+17
19648.0	6.514764967226025e+17
19649.0	6.51369870664226e+17
19650.0	6.512633378592084e+17
19651.0	6.511564441343316e+17
19652.0	6.510493410437802e+17
19653.0	6.509402934039891e+17
19654.0	6.508345401802751e+17
19655.0	6.50726589141265e+17
19656.0	6.506185886793727e+17
19657.0	6.505109166314836e+17
19658.0	6.504026822672383e+17
19659.0	6.5029418254336e+17
19660.0	6.501856985481215e+17
19661.0	6.500770031599615e+17
19662.0	6.4996811224733e+17
19663.0	6.498546407353002e+17
19664.0	6.497347777331199e+17
19665.0	6.496406044934143e+17
