# Flux units: erg / (cm m2 s)
# Wavelength units: Angstrom
wave	flux
19000.0	4.751172918662485e+17
19001.0	4.750211194814463e+17
19002.0	4.749513098351957e+17
19003.0	4.748668601805482e+17
19004.0	4.7478209832987296e+17
19005.0	4.746974207847082e+17
19006.0	4.7460170970344096e+17
19007.0	4.745335276568575e+17
19008.0	4.7444272509965645e+17
19009.0	4.743616355019434e+17
19010.0	4.742091615764478e+17
19011.0	4.7419531205454496e+17
19012.0	4.7409950730048845e+17
19013.0	4.74034015830016e+17
19014.0	4.7394467813348685e+17
19015.0	4.7385952194833056e+17
19016.0	4.7377531884885325e+17
19017.0	4.7370100445020154e+17
19018.0	4.7361654759533216e+17
19019.0	4.735316900446207e+17
19020.0	4.734500467987796e+17
19021.0	4.733681772702378e+17
19022.0	4.7328519855800294e+17
19023.0	4.7319637396466336e+17
19024.0	4.731107137639764e+17
19025.0	4.730357017127593e+17
19026.0	4.729489380605951e+17
19027.0	4.728638951216468e+17
19028.0	4.72786420175121e+17
19029.0	4.7270129404914336e+17
19030.0	4.7262128644205216e+17
19031.0	4.7253819951677434e+17
19032.0	4.724555164330666e+17
19033.0	4.723618356745555e+17
19034.0	4.7228912203202554e+17
19035.0	4.722047178156713e+17
19036.0	4.717083501090128e+17
19037.0	4.720402615326037e+17
19038.0	4.719563023319039e+17
19039.0	4.71874635108625e+17
19040.0	4.717925893494102e+17
19041.0	4.7170933542092794e+17
19042.0	4.7144694172002963e+17
19043.0	4.71545791189265e+17
19044.0	4.7146209189560314e+17
19045.0	4.713791664510293e+17
19046.0	4.71288645751057e+17
19047.0	4.712146145378304e+17
19048.0	4.710782589031763e+17
19049.0	4.706867691388923e+17
19050.0	4.709599666678442e+17
19051.0	4.707927696168275e+17
19052.0	4.707979134413482e+17
19053.0	4.7071964045858125e+17
19054.0	4.706364081307647e+17
19055.0	4.7047255554785286e+17
19056.0	4.704534045655038e+17
19057.0	4.70389095399424e+17
19058.0	4.701248024477692e+17
19059.0	4.7015277544953165e+17
19060.0	4.701396371417769e+17
19061.0	4.700590969978879e+17
19062.0	4.69975504589073e+17
19063.0	4.698948746171734e+17
19064.0	4.6979700542668794e+17
19065.0	4.6971122373099514e+17
19066.0	4.6957542181437446e+17
19067.0	4.695628656760148e+17
19068.0	4.694839671827113e+17
19069.0	4.6940158049648634e+17
19070.0	4.693143492493311e+17
19071.0	4.692353558249472e+17
19072.0	4.690857244491775e+17
19073.0	4.69072012710161e+17
19074.0	4.689897123566931e+17
19075.0	4.689085918609407e+17
19076.0	4.688189932087977e+17
19077.0	4.6874221682360314e+17
19078.0	4.6865530049877325e+17
19079.0	4.6857906538850976e+17
19080.0	4.6849654336607565e+17
19081.0	4.6840924004679674e+17
19082.0	4.6832758044317005e+17
19083.0	4.6824283697752736e+17
19084.0	4.6814688318586874e+17
19085.0	4.6808573505699834e+17
19086.0	4.678766703236436e+17
19087.0	4.677616743918248e+17
19088.0	4.677460559222099e+17
19089.0	4.677339222900736e+17
19090.0	4.676754546010794e+17
19091.0	4.675838759578283e+17
19092.0	4.673665148911619e+17
19093.0	4.6743253043991885e+17
19094.0	4.6735085119296845e+17
19095.0	4.6726860578488314e+17
19096.0	4.671847315188393e+17
19097.0	4.6710532146025805e+17
19098.0	4.669506256022185e+17
19099.0	4.668531289358336e+17
19100.0	4.668563347821909e+17
19101.0	4.667769753348778e+17
19102.0	4.666782329602046e+17
19103.0	4.666139280583338e+17
19104.0	4.6653406096042656e+17
19105.0	4.662922805160623e+17
19106.0	4.663666128803157e+17
19107.0	4.662483881033727e+17
19108.0	4.661464103824043e+17
19109.0	4.6610241471993165e+17
19110.0	4.66043436933666e+17
19111.0	4.659169142854996e+17
19112.0	4.658189934351699e+17
19113.0	4.6579818115891194e+17
19114.0	4.656856035928746e+17
19115.0	4.65616714526447e+17
19116.0	4.6554561429285536e+17
19117.0	4.654641449009151e+17
19118.0	4.65329242173167e+17
19119.0	4.637918117931671e+17
19120.0	4.6519518830264314e+17
19121.0	4.651380976036523e+17
19122.0	4.650646519851691e+17
19123.0	4.649845825120937e+17
19124.0	4.649014712598527e+17
19125.0	4.6482235354426016e+17
19126.0	4.647417049077076e+17
19127.0	4.644170606750375e+17
19128.0	4.645778744847019e+17
19129.0	4.64488954401041e+17
19130.0	4.6441604621271034e+17
19131.0	4.643357445150036e+17
19132.0	4.64254067085585e+17
19133.0	4.641686358239914e+17
19134.0	4.640920172844372e+17
19135.0	4.6401086029823994e+17
19136.0	4.6392977741141325e+17
19137.0	4.6382636992211616e+17
19138.0	4.6376669665034234e+17
19139.0	4.6368768637883725e+17
19140.0	4.6360643788690765e+17
19141.0	4.635252424529236e+17
19142.0	4.6344071583279776e+17
19143.0	4.6335430429245446e+17
19144.0	4.632786259760468e+17
19145.0	4.6320102554992634e+17
19146.0	4.630459641582934e+17
19147.0	4.630173348178602e+17
19148.0	4.628999928020992e+17
19149.0	4.628072864503124e+17
19150.0	4.627961150614185e+17
19151.0	4.627157941398187e+17
19152.0	4.626351426371583e+17
19153.0	4.6242697779172666e+17
19154.0	4.6244795022049274e+17
19155.0	4.623934827091285e+17
19156.0	4.62312308805905e+17
19157.0	4.621931529633792e+17
19158.0	4.620474322867541e+17
19159.0	4.620621332523691e+17
19160.0	4.6198858053932365e+17
19161.0	4.6190858544523936e+17
19162.0	4.617925174493183e+17
19163.0	4.6174773248873805e+17
19164.0	4.616666707831465e+17
19165.0	4.6144924659220454e+17
19166.0	4.614856031688019e+17
19167.0	4.614159921927508e+17
19168.0	4.613447569724757e+17
19169.0	4.6126226717627725e+17
19170.0	4.611835859479211e+17
19171.0	4.6109861934530554e+17
19172.0	4.610225827654314e+17
19173.0	4.609424456242518e+17
19174.0	4.608535975428096e+17
19175.0	4.607809974960127e+17
19176.0	4.6070090082986656e+17
19177.0	4.60602079322658e+17
19178.0	4.6053281032219296e+17
19179.0	4.60445992563507e+17
19180.0	4.6037797493364045e+17
19181.0	4.602739010393428e+17
19182.0	4.6021497798874445e+17
19183.0	4.601385831454036e+17
19184.0	4.600555371145898e+17
19185.0	4.599763301302272e+17
19186.0	4.598977346753876e+17
19187.0	4.598108388327423e+17
19188.0	4.5973549354407245e+17
19189.0	4.596575161199274e+17
19190.0	4.595776811783509e+17
19191.0	4.594916685163178e+17
19192.0	4.594171048361983e+17
19193.0	4.593211258787158e+17
19194.0	4.592293829585578e+17
19195.0	4.5917653486796794e+17
19196.0	4.590942522703872e+17
19197.0	4.590150684246015e+17
19198.0	4.589361972641791e+17
19199.0	4.585538683491668e+17
19200.0	4.5858986442533555e+17
19201.0	4.586952084946943e+17
19202.0	4.586166324035583e+17
19203.0	4.5853598083099296e+17
19204.0	4.584538688017748e+17
19205.0	4.583757979844607e+17
19206.0	4.582950892994559e+17
19207.0	4.5820527876505594e+17
19208.0	4.580991456073044e+17
19209.0	4.5805616286924794e+17
19210.0	4.5797567235795616e+17
19211.0	4.5789760342807885e+17
19212.0	4.5781826117741216e+17
19213.0	4.577264968663038e+17
19214.0	4.5764407774412806e+17
19215.0	4.575784668758015e+17
19216.0	4.574997968322559e+17
19217.0	4.574195595171157e+17
19218.0	4.5723491150506643e+17
19219.0	4.5724443586068454e+17
19220.0	4.5717824135495674e+17
19221.0	4.5705851145202336e+17
19222.0	4.570211314652499e+17
19223.0	4.5693895736033274e+17
19224.0	4.56856994648337e+17
19225.0	4.567627162015061e+17
19226.0	4.5670080170338976e+17
19227.0	4.5662155906744314e+17
19228.0	4.5654469208528205e+17
19229.0	4.5646353852443315e+17
19230.0	4.563840701650261e+17
19231.0	4.5630487821025274e+17
19232.0	4.5622647639244806e+17
19233.0	4.5613925779810976e+17
19234.0	4.5606384616953165e+17
19235.0	4.559841796991658e+17
19236.0	4.559093867304276e+17
19237.0	4.5582648743034874e+17
19238.0	4.557372071957845e+17
19239.0	4.556713839558655e+17
19240.0	4.555903876115114e+17
19241.0	4.555104754947413e+17
19242.0	4.554301896654847e+17
19243.0	4.553365068098218e+17
19244.0	4.55274398814481e+17
19245.0	4.5519330935657805e+17
19246.0	4.551140339351551e+17
19247.0	4.550362038708906e+17
19248.0	4.5495789551615994e+17
19249.0	4.548749308548435e+17
19250.0	4.547720271713622e+17
19251.0	4.546864700107432e+17
19252.0	4.546076105244672e+17
19253.0	4.5455819554160634e+17
19254.0	4.544834550016682e+17
19255.0	4.543811494958419e+17
19256.0	4.5432271053783034e+17
19257.0	4.542456782301865e+17
19258.0	4.5416677400466765e+17
19259.0	4.540798144086014e+17
19260.0	4.5399196464141645e+17
19261.0	4.539290607069866e+17
19262.0	4.5384340861528736e+17
19263.0	4.537633710888277e+17
19264.0	4.5361815177134054e+17
19265.0	4.535798999285759e+17
19266.0	4.534785482074794e+17
19267.0	4.5345275477579085e+17
19268.0	4.5337277869588474e+17
19269.0	4.5329494982000634e+17
19270.0	4.532159318589439e+17
19271.0	4.5308851862022835e+17
19272.0	4.5305382305791994e+17
19273.0	4.529548445439317e+17
19274.0	4.528529472836948e+17
19275.0	4.5282271432103245e+17
19276.0	4.5274118732731725e+17
19277.0	4.526636190575274e+17
19278.0	4.5258266892042234e+17
19279.0	4.5250463676061005e+17
19280.0	4.5241653128069114e+17
19281.0	4.5234825765847034e+17
19282.0	4.522714333183998e+17
19283.0	4.5219009555770016e+17
19284.0	4.521116226464425e+17
19285.0	4.520117629790889e+17
19286.0	4.519524446153385e+17
19287.0	4.518777694366378e+17
19288.0	4.517128217209515e+17
19289.0	4.5141656810291117e+17
19290.0	4.516429970451114e+17
19291.0	4.515355558237526e+17
19292.0	4.514854579382955e+17
19293.0	4.514062868152319e+17
19294.0	4.51327034532386e+17
19295.0	4.512501295917738e+17
19296.0	4.510938949834071e+17
19297.0	4.51079176192e+17
19298.0	4.5101147348445856e+17
19299.0	4.508500379391317e+17
19300.0	4.508558339080191e+17
19301.0	4.5077841160000845e+17
19302.0	4.5070032854930765e+17
19303.0	4.506120925566294e+17
19304.0	4.505404477625685e+17
19305.0	4.504635345731583e+17
19306.0	4.5038672708020896e+17
19307.0	4.5030124066351776e+17
19308.0	4.502265907205461e+17
19309.0	4.501395965214718e+17
19310.0	4.500591840242345e+17
19311.0	4.4998799123633485e+17
19312.0	4.4990910609489914e+17
19313.0	4.498179398216362e+17
19314.0	4.4818222844040403e+17
19315.0	4.4817806042071245e+17
19316.0	4.494849011089409e+17
19317.0	4.4951664360161274e+17
19318.0	4.4944477525114874e+17
19319.0	4.493692626796544e+17
19320.0	4.492628814288212e+17
19321.0	4.491458778933929e+17
19322.0	4.4912906628410016e+17
19323.0	4.4905512552802976e+17
19324.0	4.489808064457385e+17
19325.0	4.488925486426793e+17
19326.0	4.4882556980210336e+17
19327.0	4.4874513395657376e+17
19328.0	4.4852513236582406e+17
19329.0	4.485915886660265e+17
19330.0	4.485086566503765e+17
19331.0	4.4843071152237216e+17
19332.0	4.483581851555158e+17
19333.0	4.482786163425279e+17
19334.0	4.481987876924074e+17
19335.0	4.47830281665468e+17
19336.0	4.4804397019955194e+17
19337.0	4.479680114939221e+17
19338.0	4.478650489503743e+17
19339.0	4.4781174423988896e+17
19340.0	4.476897251557375e+17
19341.0	4.475455957281452e+17
19342.0	4.475006162916694e+17
19343.0	4.475015981083306e+17
19344.0	4.473153438875649e+17
19345.0	4.4697253559227654e+17
19346.0	4.4719017942493875e+17
19347.0	4.470482366977365e+17
19348.0	4.471127596335102e+17
19349.0	4.4703127996552525e+17
19350.0	4.46903270646306e+17
19351.0	4.468732585137492e+17
19352.0	4.466495590847826e+17
19353.0	4.467239145876138e+17
19354.0	4.4664682509762554e+17
19355.0	4.465574109948587e+17
19356.0	4.464908775194623e+17
19357.0	4.464137957889365e+17
19358.0	4.4633586233507834e+17
19359.0	4.462243437608959e+17
19360.0	4.460615624032255e+17
19361.0	4.46097192456465e+17
19362.0	4.4602559603671034e+17
19363.0	4.4594802210461005e+17
19364.0	4.4587052297093126e+17
19365.0	4.457917816941226e+17
19366.0	4.457139373692245e+17
19367.0	4.4563724710707194e+17
19368.0	4.455599401424212e+17
19369.0	4.4547699813034656e+17
19370.0	4.454027009982464e+17
19371.0	4.453205433210196e+17
19372.0	4.4524828986354336e+17
19373.0	4.451694491118249e+17
19374.0	4.450928839797417e+17
19375.0	4.4501619155053216e+17
19376.0	4.4493909318260045e+17
19377.0	4.448602248183808e+17
19378.0	4.447831677643434e+17
19379.0	4.44705845350673e+17
19380.0	4.4462688296413856e+17
19381.0	4.445480386472618e+17
19382.0	4.444634169562453e+17
19383.0	4.443817145707178e+17
19384.0	4.443137072168959e+17
19385.0	4.4423806406273696e+17
19386.0	4.4416178582104736e+17
19387.0	4.4408356268059296e+17
19388.0	4.440052220996266e+17
19389.0	4.439280076892842e+17
19390.0	4.438504331979434e+17
19391.0	4.433816117226148e+17
19392.0	4.436921619753642e+17
19393.0	4.4361580131560096e+17
19394.0	4.435371694402217e+17
19395.0	4.43416344194799e+17
19396.0	4.433717363736575e+17
19397.0	4.4330316796177056e+17
19398.0	4.431865054232576e+17
19399.0	4.4298444329014586e+17
19400.0	4.430320141773483e+17
19401.0	4.429885065920511e+17
19402.0	4.4291108176745805e+17
19403.0	4.4283008136861005e+17
19404.0	4.427524205445119e+17
19405.0	4.4267085587196576e+17
19406.0	4.425936550931113e+17
19407.0	4.424643848962047e+17
19408.0	4.4231971698988397e+17
19409.0	4.4235467609429325e+17
19410.0	4.4227629538781856e+17
19411.0	4.4219583577456634e+17
19412.0	4.421141096912213e+17
19413.0	4.419812975443968e+17
19414.0	4.4194738205272736e+17
19415.0	4.418695751969449e+17
19416.0	4.4176824822224205e+17
19417.0	4.4170107965931514e+17
19418.0	4.416235439652863e+17
19419.0	4.4153955141986976e+17
19420.0	4.414561349621076e+17
19421.0	4.413705002068651e+17
19422.0	4.412792283769514e+17
19423.0	4.41196357947665e+17
19424.0	4.411089134900563e+17
19425.0	4.410191953002495e+17
19426.0	4.409278337821353e+17
19427.0	4.4083477168346445e+17
19428.0	4.407394578027861e+17
19429.0	4.406418433463636e+17
19430.0	4.405373639327744e+17
19431.0	4.403313472001367e+17
19432.0	4.4032625021201056e+17
19433.0	4.4021074236538874e+17
19434.0	4.4008853747357005e+17
19435.0	4.3995047958063776e+17
19436.0	4.397612144787455e+17
19437.0	4.3966225441969485e+17
19438.0	4.385877502110375e+17
19439.0	4.39288286220561e+17
19440.0	4.390568675246079e+17
19441.0	4.387809436980564e+17
19442.0	4.384415925578411e+17
19443.0	4.380000266485759e+17
19444.0	4.3740453775168845e+17
19445.0	4.365793782049451e+17
19446.0	4.353631314771966e+17
19447.0	4.334424266462548e+17
19448.0	4.301929225475414e+17
19449.0	4.245503809508693e+17
19450.0	4.1611346547397946e+17
19451.0	4.1171528893945165e+17
19452.0	4.182093561768618e+17
19453.0	4.259925909831681e+17
19454.0	4.3074091186039443e+17
19455.0	4.3340851010600954e+17
19456.0	4.3493931774989664e+17
19457.0	4.358354098279765e+17
19458.0	4.3077481532840083e+17
19459.0	4.3645515137897914e+17
19460.0	4.3712604344593056e+17
19461.0	4.3731910690952525e+17
19462.0	4.374333908582399e+17
19463.0	4.3750725213224954e+17
19464.0	4.375445868904447e+17
19465.0	4.3756475792752634e+17
19466.0	4.3756026596775245e+17
19467.0	4.3755159193736525e+17
19468.0	4.375278104434004e+17
19469.0	4.373545346575016e+17
19470.0	4.374572506458794e+17
19471.0	4.374150043577002e+17
19472.0	4.373612437263702e+17
19473.0	4.373072271026857e+17
19474.0	4.371538461589501e+17
19475.0	4.370645724954622e+17
19476.0	4.3713622833452365e+17
19477.0	4.370786169825961e+17
19478.0	4.370211968210261e+17
19479.0	4.36855347819315e+17
19480.0	4.3688891280698016e+17
19481.0	4.368150178387285e+17
19482.0	4.367555115002538e+17
19483.0	4.366925282934783e+17
19484.0	4.366216302952447e+17
19485.0	4.3654575505626445e+17
19486.0	4.3637181006916294e+17
19487.0	4.364136167942826e+17
19488.0	4.3634629269258234e+17
19489.0	4.3627337108247885e+17
19490.0	4.359758088415909e+17
19491.0	4.3612840412228256e+17
19492.0	4.3606162744715936e+17
19493.0	4.3598988380733446e+17
19494.0	4.3591674989554336e+17
19495.0	4.358445104190804e+17
19496.0	4.357036710035454e+17
19497.0	4.3569632279265274e+17
19498.0	4.356197176049664e+17
19499.0	4.348936793183565e+17
19500.0	4.3548109152365216e+17
19501.0	4.354382084702206e+17
19502.0	4.353808689790975e+17
19503.0	4.3530677617950714e+17
19504.0	4.3523132065054714e+17
19505.0	4.351536117317632e+17
19506.0	4.3508188983241376e+17
19507.0	4.3500234996012365e+17
19508.0	4.3493001212723194e+17
19509.0	4.348503515987968e+17
19510.0	4.347060910292991e+17
19511.0	4.323189336659266e+17
19512.0	4.345113840276817e+17
19513.0	4.343143635178832e+17
19514.0	4.34353323848499e+17
19515.0	4.3433530358060416e+17
19516.0	4.343182851222187e+17
19517.0	4.342443072465578e+17
19518.0	4.3415458919656096e+17
19519.0	4.340786379008681e+17
19520.0	4.339303425507325e+17
19521.0	4.33960855483187e+17
19522.0	4.33867916836864e+17
19523.0	4.3378736606740486e+17
19524.0	4.336589856221869e+17
19525.0	4.3365860778530125e+17
19526.0	4.335872655403689e+17
19527.0	4.335103183770964e+17
19528.0	4.334297582403583e+17
19529.0	4.33351021297664e+17
19530.0	4.332891335032831e+17
19531.0	4.3321454011351034e+17
19532.0	4.3313961425524045e+17
19533.0	4.3306451314496845e+17
19534.0	4.329911203747155e+17
19535.0	4.329146598206123e+17
19536.0	4.3283649512079354e+17
19537.0	4.3276641242535245e+17
19538.0	4.325941308293122e+17
19539.0	4.325287585469786e+17
19540.0	4.3254109350570656e+17
19541.0	4.32448621126178e+17
19542.0	4.323856916064938e+17
19543.0	4.3221900821790726e+17
19544.0	4.322400913762985e+17
19545.0	4.3212494347086464e+17
19546.0	4.319505940130475e+17
19547.0	4.320242564770474e+17
19548.0	4.3194988293870925e+17
19549.0	4.318636565069823e+17
19550.0	4.317999544664063e+17
19551.0	4.3172707913345696e+17
19552.0	4.3165162031895866e+17
19553.0	4.315761842236074e+17
19554.0	4.31496119783697e+17
19555.0	4.314164496083626e+17
19556.0	4.313473397817344e+17
19557.0	4.312799289977514e+17
19558.0	4.312067707589972e+17
19559.0	4.311331277286059e+17
19560.0	4.3102105795297274e+17
19561.0	4.3098205085586765e+17
19562.0	4.3087534916020896e+17
19563.0	4.30837356036096e+17
19564.0	4.307612404634965e+17
19565.0	4.306884539798868e+17
19566.0	4.306104079788714e+17
19567.0	4.3054128053616634e+17
19568.0	4.304651149814442e+17
19569.0	4.3039050684170234e+17
19570.0	4.3031829260096845e+17
19571.0	4.30244429369617e+17
19572.0	4.3016725403620685e+17
19573.0	4.3008408630067194e+17
19574.0	4.3000874604516685e+17
19575.0	4.2994963236345165e+17
19576.0	4.298697300333909e+17
19577.0	4.297829058434389e+17
19578.0	4.2972199434321914e+17
19579.0	4.2965038485121696e+17
19580.0	4.295776115796649e+17
19581.0	4.29503070408977e+17
19582.0	4.29432921723153e+17
19583.0	4.2935954062704634e+17
19584.0	4.2928507159838714e+17
19585.0	4.2919811465871354e+17
19586.0	4.291217480570196e+17
19587.0	4.2906247645975885e+17
19588.0	4.28924760682223e+17
19589.0	4.2891471923882656e+17
19590.0	4.2882363552344736e+17
19591.0	4.2876881114671776e+17
19592.0	4.2869496692954445e+17
19593.0	4.2861159360320845e+17
19594.0	4.285089006835027e+17
19595.0	4.284723912944298e+17
19596.0	4.283988069842944e+17
19597.0	4.283268483863893e+17
19598.0	4.281664037453822e+17
19599.0	4.281804258628949e+17
19600.0	4.281070045014698e+17
19601.0	4.2802569281536006e+17
19602.0	4.279556928875178e+17
19603.0	4.278262812726611e+17
19604.0	4.2781019401966925e+17
19605.0	4.2770232120442874e+17
19606.0	4.27665612935441e+17
19607.0	4.2759365727354874e+17
19608.0	4.2751738532331514e+17
19609.0	4.2744001299742714e+17
19610.0	4.2732567515190624e+17
19611.0	4.2722635710900896e+17
19612.0	4.2722745930219514e+17
19613.0	4.271518222996822e+17
19614.0	4.2707634013689165e+17
19615.0	4.270074025563476e+17
19616.0	4.2688350805906784e+17
19617.0	4.2678559308076365e+17
19618.0	4.267111108400467e+17
19619.0	4.26590810302054e+17
19620.0	4.265204293216935e+17
19621.0	4.2646275750188365e+17
19622.0	4.264948378457428e+17
19623.0	4.2641738841456634e+17
19624.0	4.263343842568874e+17
19625.0	4.2627537347543034e+17
19626.0	4.262010872485204e+17
19627.0	4.261298066598571e+17
19628.0	4.260501118779392e+17
19629.0	4.257257388769278e+17
19630.0	4.2590905743441914e+17
19631.0	4.2559353350608186e+17
19632.0	4.257633577992191e+17
19633.0	4.256856120404649e+17
19634.0	4.256177184221866e+17
19635.0	4.2553144473463456e+17
19636.0	4.253522265287336e+17
19637.0	4.252501083684863e+17
19638.0	4.2531727518378656e+17
19639.0	4.2525205823051085e+17
19640.0	4.2517435504394234e+17
19641.0	4.2487286064305594e+17
19642.0	4.2502705409338016e+17
19643.0	4.249534341316607e+17
19644.0	4.2488153886774605e+17
19645.0	4.2477709874080416e+17
19646.0	4.246186419901779e+17
19647.0	4.246680934634836e+17
19648.0	4.245981918221653e+17
19649.0	4.245241946527061e+17
19650.0	4.2445271133934925e+17
19651.0	4.2437972772345165e+17
19652.0	4.24306907615505e+17
19653.0	4.2423440928058016e+17
19654.0	4.2416165907770016e+17
19655.0	4.240874926680746e+17
19656.0	4.240165535656617e+17
