# Flux units: erg / (cm m2 s)
# Wavelength units: Angstrom
wave	flux
19000.0	5.709225343494825e+17
19001.0	5.708061711444649e+17
19002.0	5.7071429610373114e+17
19003.0	5.706100010997076e+17
19004.0	5.7050579837037216e+17
19005.0	5.7040055049038496e+17
19006.0	5.702968979139241e+17
19007.0	5.7019337668908365e+17
19008.0	5.700822368605524e+17
19009.0	5.6996824469558605e+17
19010.0	5.6982739528362656e+17
19011.0	5.6977254406335136e+17
19012.0	5.696558016932521e+17
19013.0	5.6956813277047456e+17
19014.0	5.694583111417855e+17
19015.0	5.6935523017905485e+17
19016.0	5.6925096069038074e+17
19017.0	5.691525855969279e+17
19018.0	5.690476051038207e+17
19019.0	5.6894415126746445e+17
19020.0	5.688393716815189e+17
19021.0	5.687375354484052e+17
19022.0	5.6863312607969274e+17
19023.0	5.685251800738473e+17
19024.0	5.684224054351189e+17
19025.0	5.683213096364713e+17
19026.0	5.682149053169662e+17
19027.0	5.681072137655636e+17
19028.0	5.680106647322623e+17
19029.0	5.679053240882516e+17
19030.0	5.6780443171334816e+17
19031.0	5.677012454735871e+17
19032.0	5.675965485853353e+17
19033.0	5.674823356601684e+17
19034.0	5.6738589393114445e+17
19035.0	5.672661883551743e+17
19036.0	5.665875378743977e+17
19037.0	5.670658679067989e+17
19038.0	5.669713382211583e+17
19039.0	5.6687165017074323e+17
19040.0	5.667692770667179e+17
19041.0	5.666651261370366e+17
19042.0	5.665273800906068e+17
19043.0	5.6645943774849696e+17
19044.0	5.6635471247878816e+17
19045.0	5.662520770210473e+17
19046.0	5.661419900327254e+17
19047.0	5.6604109709858125e+17
19048.0	5.659154374284628e+17
19049.0	5.657803693053268e+17
19050.0	5.6572757881651194e+17
19051.0	5.6554236198693536e+17
19052.0	5.6550221732468045e+17
19053.0	5.654252529647616e+17
19054.0	5.6532316745018016e+17
19055.0	5.651828547693227e+17
19056.0	5.651113603410602e+17
19057.0	5.650133805607594e+17
19058.0	5.6488418746914125e+17
19059.0	5.647974410835284e+17
19060.0	5.6470281926301e+17
19061.0	5.6460204181203616e+17
19062.0	5.644984720031742e+17
19063.0	5.643954073982292e+17
19064.0	5.642796742475775e+17
19065.0	5.641694961729534e+17
19066.0	5.640710283853824e+17
19067.0	5.639828020396031e+17
19068.0	5.6388143074508794e+17
19069.0	5.637786759593982e+17
19070.0	5.6367243507793914e+17
19071.0	5.635720126048938e+17
19072.0	5.634606314640724e+17
19073.0	5.6336705353591456e+17
19074.0	5.632647875963562e+17
19075.0	5.6316201246829216e+17
19076.0	5.630573525598207e+17
19077.0	5.629542223839232e+17
19078.0	5.628489191391232e+17
19079.0	5.6275094627942394e+17
19080.0	5.6264708154108576e+17
19081.0	5.625403206358356e+17
19082.0	5.6243932717820576e+17
19083.0	5.6232919062719136e+17
19084.0	5.6221287062350496e+17
19085.0	5.621335773762901e+17
19086.0	5.619765145326932e+17
19087.0	5.618982083450196e+17
19088.0	5.6180281274531834e+17
19089.0	5.616989982687232e+17
19090.0	5.616182665150462e+17
19091.0	5.6151588222621005e+17
19092.0	5.613909833329322e+17
19093.0	5.6131583203082234e+17
19094.0	5.612139137291605e+17
19095.0	5.611116617007102e+17
19096.0	5.6100777074797216e+17
19097.0	5.609066446804308e+17
19098.0	5.607941561734484e+17
19099.0	5.606892276897108e+17
19100.0	5.605976335275349e+17
19101.0	5.6049715317309434e+17
19102.0	5.603822710467242e+17
19103.0	5.6029334704837965e+17
19104.0	5.601916805447679e+17
19105.0	5.60065620807953e+17
19106.0	5.5998527583901e+17
19107.0	5.598767788414292e+17
19108.0	5.597722928567636e+17
19109.0	5.596519284954452e+17
19110.0	5.595724508386643e+17
19111.0	5.594698906686804e+17
19112.0	5.593670865999188e+17
19113.0	5.5927279801685325e+17
19114.0	5.591664136901972e+17
19115.0	5.590621748898473e+17
19116.0	5.5896430639841274e+17
19117.0	5.588611826537813e+17
19118.0	5.5874244302602234e+17
19119.0	5.5772722740155584e+17
19120.0	5.5854748450597536e+17
19121.0	5.584530060607487e+17
19122.0	5.583561467188565e+17
19123.0	5.5825468224088723e+17
19124.0	5.581495524305577e+17
19125.0	5.5805006270081696e+17
19126.0	5.5794191383046816e+17
19127.0	5.576498070508884e+17
19128.0	5.577358023065598e+17
19129.0	5.576339774679721e+17
19130.0	5.5754144930420045e+17
19131.0	5.5744158299586554e+17
19132.0	5.5733988146981536e+17
19133.0	5.5723313426595834e+17
19134.0	5.5713662221243725e+17
19135.0	5.570354087635626e+17
19136.0	5.5693391674299725e+17
19137.0	5.5681622911658656e+17
19138.0	5.5672916179681274e+17
19139.0	5.566301969842174e+17
19140.0	5.5652919513797965e+17
19141.0	5.564278726372009e+17
19142.0	5.5632342531003725e+17
19143.0	5.5621902635717965e+17
19144.0	5.5611874285540685e+17
19145.0	5.560225120998741e+17
19146.0	5.558463348342784e+17
19147.0	5.558104784284329e+17
19148.0	5.557102826575189e+17
19149.0	5.556070200115199e+17
19150.0	5.555159118293673e+17
19151.0	5.55414550950707e+17
19152.0	5.5531321558739616e+17
19153.0	5.551924966675795e+17
19154.0	5.550971221792085e+17
19155.0	5.5500964920033274e+17
19156.0	5.549086344915626e+17
19157.0	5.547986738916009e+17
19158.0	5.5467766088116896e+17
19159.0	5.546017762749097e+17
19160.0	5.545030041206783e+17
19161.0	5.5440114929281696e+17
19162.0	5.54256818119202e+17
19163.0	5.541925138464766e+17
19164.0	5.5410040860835834e+17
19165.0	5.5397942495805434e+17
19166.0	5.5388420901437434e+17
19167.0	5.537942929233236e+17
19168.0	5.5369733627357856e+17
19169.0	5.53596521353489e+17
19170.0	5.534966093971455e+17
19171.0	5.533939197629779e+17
19172.0	5.5329465729460896e+17
19173.0	5.531946950765226e+17
19174.0	5.5308766419790496e+17
19175.0	5.529930016227326e+17
19176.0	5.528925130893994e+17
19177.0	5.527740679017813e+17
19178.0	5.526894702581077e+17
19179.0	5.5258749833925965e+17
19180.0	5.52488975606306e+17
19181.0	5.5237388439388154e+17
19182.0	5.522869216520873e+17
19183.0	5.5218914180027725e+17
19184.0	5.5208836008509434e+17
19185.0	5.5198694104541856e+17
19186.0	5.5188749794235725e+17
19187.0	5.5177990376871245e+17
19188.0	5.516863217161556e+17
19189.0	5.515864729539924e+17
19190.0	5.5148567998409363e+17
19191.0	5.513815264679252e+17
19192.0	5.512848461529087e+17
19193.0	5.511811074534057e+17
19194.0	5.5107775330167456e+17
19195.0	5.509816095779498e+17
19196.0	5.508773091213311e+17
19197.0	5.5077300754623136e+17
19198.0	5.506507423962452e+17
19199.0	5.502494505435134e+17
19200.0	5.502083189615275e+17
19201.0	5.50353892418082e+17
19202.0	5.5027350844211194e+17
19203.0	5.5017714738353485e+17
19204.0	5.5007761626999456e+17
19205.0	5.4997962621364896e+17
19206.0	5.4987997304586234e+17
19207.0	5.497664749000021e+17
19208.0	5.4965577421509965e+17
19209.0	5.495808762489513e+17
19210.0	5.4948107208622074e+17
19211.0	5.493828171595775e+17
19212.0	5.492821961561428e+17
19213.0	5.4917026332453536e+17
19214.0	5.490692288326313e+17
19215.0	5.48981016887296e+17
19216.0	5.488824297018709e+17
19217.0	5.487786696114175e+17
19218.0	5.4859811866542054e+17
19219.0	5.48561058214707e+17
19220.0	5.484792456587945e+17
19221.0	5.483515987274409e+17
19222.0	5.482792711006889e+17
19223.0	5.481817077448702e+17
19224.0	5.480785767301119e+17
19225.0	5.479701747335167e+17
19226.0	5.4788267505090554e+17
19227.0	5.477834356512084e+17
19228.0	5.4768677092502176e+17
19229.0	5.475869681603924e+17
19230.0	5.4748653946579616e+17
19231.0	5.473862496026623e+17
19232.0	5.4728721907930445e+17
19233.0	5.47180601479441e+17
19234.0	5.470868132069374e+17
19235.0	5.4698543590058643e+17
19236.0	5.468897441830228e+17
19237.0	5.467886608973823e+17
19238.0	5.4667985659712845e+17
19239.0	5.4659155622188365e+17
19240.0	5.464919006074196e+17
19241.0	5.46390186987793e+17
19242.0	5.4629139861558605e+17
19243.0	5.461750478536702e+17
19244.0	5.4609456908642976e+17
19245.0	5.4599441274197325e+17
19246.0	5.4589407855902714e+17
19247.0	5.457951226243753e+17
19248.0	5.456970550433109e+17
19249.0	5.455969511276543e+17
19250.0	5.4549216720759456e+17
19251.0	5.453841400419667e+17
19252.0	5.452651640651775e+17
19253.0	5.451973516765866e+17
19254.0	5.451011967680511e+17
19255.0	5.449790531130708e+17
19256.0	5.4490041613462176e+17
19257.0	5.448035152691199e+17
19258.0	5.44704195338786e+17
19259.0	5.4459599774460576e+17
19260.0	5.4448954253421216e+17
19261.0	5.444046152182441e+17
19262.0	5.4429954447769594e+17
19263.0	5.441961897667242e+17
19264.0	5.440457521059155e+17
19265.0	5.439840037022377e+17
19266.0	5.438758208580266e+17
19267.0	5.4381126968060576e+17
19268.0	5.437115606586708e+17
19269.0	5.4361269755794765e+17
19270.0	5.435114690794836e+17
19271.0	5.4337668050670925e+17
19272.0	5.4331127585832954e+17
19273.0	5.4318365311412896e+17
19274.0	5.4306711395805843e+17
19275.0	5.4301882780221434e+17
19276.0	5.429175877195092e+17
19277.0	5.428192874244777e+17
19278.0	5.4272008115978214e+17
19279.0	5.426190491145555e+17
19280.0	5.425138534536533e+17
19281.0	5.4242199714747725e+17
19282.0	5.4232499778573645e+17
19283.0	5.4222296833501856e+17
19284.0	5.4212170700117325e+17
19285.0	5.4201213549281274e+17
19286.0	5.4192279248349856e+17
19287.0	5.4182611433553914e+17
19288.0	5.4154803274929466e+17
19289.0	5.41238851447466e+17
19290.0	5.415285717379753e+17
19291.0	5.414039767919276e+17
19292.0	5.413354260660224e+17
19293.0	5.412362927822164e+17
19294.0	5.4113675013434016e+17
19295.0	5.4103920963747834e+17
19296.0	5.409281775326549e+17
19297.0	5.4083556072925856e+17
19298.0	5.4073700115633485e+17
19299.0	5.406288560608596e+17
19300.0	5.405414981457236e+17
19301.0	5.4044307831302816e+17
19302.0	5.4034271658748576e+17
19303.0	5.402364085971626e+17
19304.0	5.4014306086638925e+17
19305.0	5.400448329231017e+17
19306.0	5.399465921871871e+17
19307.0	5.398424512539305e+17
19308.0	5.3974516549113165e+17
19309.0	5.396372027080704e+17
19310.0	5.3953230106787834e+17
19311.0	5.3944417923017376e+17
19312.0	5.393493592986964e+17
19313.0	5.392476981777749e+17
19314.0	5.379460057879883e+17
19315.0	5.3796041196394003e+17
19316.0	5.389331393587883e+17
19317.0	5.3885337586018976e+17
19318.0	5.387552404712105e+17
19319.0	5.38658667041041e+17
19320.0	5.385548239732735e+17
19321.0	5.38449587348002e+17
19322.0	5.3835243167853216e+17
19323.0	5.382562297937918e+17
19324.0	5.3815887279773005e+17
19325.0	5.3805374068053325e+17
19326.0	5.379610273382399e+17
19327.0	5.3786140975213216e+17
19328.0	5.377427752615935e+17
19329.0	5.376641878458366e+17
19330.0	5.375607277879296e+17
19331.0	5.3745855629011616e+17
19332.0	5.373648193978367e+17
19333.0	5.372635925271892e+17
19334.0	5.371645475334826e+17
19335.0	5.3702310225073485e+17
19336.0	5.3696417906032634e+17
19337.0	5.368639008014336e+17
19338.0	5.367391003344894e+17
19339.0	5.366630032867328e+17
19340.0	5.3654062607892474e+17
19341.0	5.3643772078762656e+17
19342.0	5.363173275555156e+17
19343.0	5.362581871001598e+17
19344.0	5.361380191720788e+17
19345.0	5.358228905568935e+17
19346.0	5.358329783473491e+17
19347.0	5.3582452256058016e+17
19348.0	5.3575213278822394e+17
19349.0	5.35647823663377e+17
19350.0	5.3554011183950496e+17
19351.0	5.354442459884202e+17
19352.0	5.353183424195242e+17
19353.0	5.35245659115793e+17
19354.0	5.351439889771178e+17
19355.0	5.350299633276245e+17
19356.0	5.3493894546281805e+17
19357.0	5.348365012653398e+17
19358.0	5.347333246025726e+17
19359.0	5.3462163231429965e+17
19360.0	5.3450568784063136e+17
19361.0	5.344197239723347e+17
19362.0	5.343194892642985e+17
19363.0	5.342113579401215e+17
19364.0	5.3410682050532685e+17
19365.0	5.3400217940131834e+17
19366.0	5.338972539234985e+17
19367.0	5.3379204665835514e+17
19368.0	5.3368652419126605e+17
19369.0	5.3357562462644896e+17
19370.0	5.334707348701183e+17
19371.0	5.333605356142591e+17
19372.0	5.3325881661194234e+17
19373.0	5.3314528987490976e+17
19374.0	5.3303663859684685e+17
19375.0	5.329284637917183e+17
19376.0	5.328198442505556e+17
19377.0	5.3270901892491936e+17
19378.0	5.3259918051901434e+17
19379.0	5.3248875581931514e+17
19380.0	5.3237155941580794e+17
19381.0	5.322561648852991e+17
19382.0	5.321345072802474e+17
19383.0	5.32019073253376e+17
19384.0	5.3191369800635725e+17
19385.0	5.317913012251306e+17
19386.0	5.3167239005033805e+17
19387.0	5.3155490598748154e+17
19388.0	5.3143611015604896e+17
19389.0	5.313084081395028e+17
19390.0	5.311809303085055e+17
19391.0	5.3052547971153837e+17
19392.0	5.3090444738123085e+17
19393.0	5.3081184672590496e+17
19394.0	5.3068645751848954e+17
19395.0	5.305528931931477e+17
19396.0	5.3042840701938336e+17
19397.0	5.3029891571275085e+17
19398.0	5.3015519117530445e+17
19399.0	5.299390930834771e+17
19400.0	5.298664218733225e+17
19401.0	5.297403044648277e+17
19402.0	5.295983258763264e+17
19403.0	5.294490403209215e+17
19404.0	5.2930097796437325e+17
19405.0	5.291413684791978e+17
19406.0	5.289758987124735e+17
19407.0	5.2880700401691296e+17
19408.0	5.285600491296086e+17
19409.0	5.284640341710164e+17
19410.0	5.282836557507242e+17
19411.0	5.2810039374643194e+17
19412.0	5.2790201281413114e+17
19413.0	5.276832750370815e+17
19414.0	5.2748170286858234e+17
19415.0	5.2723719878301e+17
19416.0	5.2699118265084576e+17
19417.0	5.267337347334142e+17
19418.0	5.264667630895103e+17
19419.0	5.261740516311038e+17
19420.0	5.258401267318783e+17
19421.0	5.2552998752092154e+17
19422.0	5.2522486455773856e+17
19423.0	5.2490457897588045e+17
19424.0	5.245727396244138e+17
19425.0	5.242190371837268e+17
19426.0	5.238112051527679e+17
19427.0	5.2340098341710496e+17
19428.0	5.2290934849317536e+17
19429.0	5.2240742116666003e+17
19430.0	5.2182001972674566e+17
19431.0	5.2110323421457075e+17
19432.0	5.204921820730709e+17
19433.0	5.1968920773809485e+17
19434.0	5.1873072664630605e+17
19435.0	5.1761805035656525e+17
19436.0	5.164102729771687e+17
19437.0	5.15362528637747e+17
19438.0	5.131640971285846e+17
19439.0	5.1275502435259725e+17
19440.0	5.1120317150877024e+17
19441.0	5.092233148978513e+17
19442.0	5.06804567854285e+17
19443.0	5.03915124271787e+17
19444.0	5.0047523092780346e+17
19445.0	4.96260483121152e+17
19446.0	4.913398719097515e+17
19447.0	4.8488035273495866e+17
19448.0	4.756708545003523e+17
19449.0	4.6125288039383014e+17
19450.0	4.30842746136168e+17
19451.0	4.089931763460825e+17
19452.0	4.4952962245591174e+17
19453.0	4.692960527865178e+17
19454.0	4.803477888827391e+17
19455.0	4.877647278505985e+17
19456.0	4.9312427514265626e+17
19457.0	4.974342418989056e+17
19458.0	4.973409010188342e+17
19459.0	5.0386717785456723e+17
19460.0	5.065074841135785e+17
19461.0	5.0848382925318835e+17
19462.0	5.1007510561860256e+17
19463.0	5.1138841986553165e+17
19464.0	5.1243491458198176e+17
19465.0	5.1333647470428154e+17
19466.0	5.1431944018548045e+17
19467.0	5.152692236189694e+17
19468.0	5.160868084624041e+17
19469.0	5.167326670356478e+17
19470.0	5.173363632067925e+17
19471.0	5.17809312436497e+17
19472.0	5.1820702570905574e+17
19473.0	5.1856449106957645e+17
19474.0	5.188468486089385e+17
19475.0	5.190156487229438e+17
19476.0	5.1932552278398285e+17
19477.0	5.195252770712234e+17
19478.0	5.196773149988181e+17
19479.0	5.198026905747455e+17
19480.0	5.1992813346925216e+17
19481.0	5.200505786247849e+17
19482.0	5.2017859046058656e+17
19483.0	5.2028757294885536e+17
19484.0	5.204065403273215e+17
19485.0	5.204629804897621e+17
19486.0	5.2051336911039136e+17
19487.0	5.205722255414613e+17
19488.0	5.206097347827028e+17
19489.0	5.205930766849364e+17
19490.0	5.204811245595304e+17
19491.0	5.206328270127102e+17
19492.0	5.206309996942677e+17
19493.0	5.206319160797866e+17
19494.0	5.2060901650814285e+17
19495.0	5.205806460960768e+17
19496.0	5.2049818139579725e+17
19497.0	5.205167058889385e+17
19498.0	5.2037868490588154e+17
19499.0	5.1957334617183514e+17
19500.0	5.203913442940244e+17
19501.0	5.2035287917090125e+17
19502.0	5.203093186674687e+17
19503.0	5.202595155017726e+17
19504.0	5.202043752939518e+17
19505.0	5.20146464678434e+17
19506.0	5.2008823424723616e+17
19507.0	5.200238159593471e+17
19508.0	5.1996310236037114e+17
19509.0	5.1989541118716576e+17
19510.0	5.1979330176505165e+17
19511.0	5.178184019825988e+17
19512.0	5.1953041830925626e+17
19513.0	5.193425095054673e+17
19514.0	5.193648745829714e+17
19515.0	5.1943967677917875e+17
19516.0	5.194160055255038e+17
19517.0	5.193437884885674e+17
19518.0	5.192811040560468e+17
19519.0	5.192047780691966e+17
19520.0	5.19115324400162e+17
19521.0	5.190569712156672e+17
19522.0	5.189735075719849e+17
19523.0	5.1890445555684685e+17
19524.0	5.188178113025366e+17
19525.0	5.187482561107285e+17
19526.0	5.1866936313992525e+17
19527.0	5.185875017203711e+17
19528.0	5.185045808196266e+17
19529.0	5.184217359755947e+17
19530.0	5.183468564643839e+17
19531.0	5.1826581635945805e+17
19532.0	5.181827153133567e+17
19533.0	5.180994128707583e+17
19534.0	5.180165860622335e+17
19535.0	5.179301448122366e+17
19536.0	5.1784309538815994e+17
19537.0	5.177621480472575e+17
19538.0	5.176448581806762e+17
19539.0	5.175311928218966e+17
19540.0	5.1750262527754234e+17
19541.0	5.1741782448974496e+17
19542.0	5.1733590358097914e+17
19543.0	5.1723665537324365e+17
19544.0	5.171643951349759e+17
19545.0	5.170159919912276e+17
19546.0	5.1689165953870483e+17
19547.0	5.1690500902966605e+17
19548.0	5.1681967053209594e+17
19549.0	5.167206877538985e+17
19550.0	5.1664508395629216e+17
19551.0	5.1655765340979194e+17
19552.0	5.164696169960788e+17
19553.0	5.163787974519466e+17
19554.0	5.162890916353364e+17
19555.0	5.1620237195345914e+17
19556.0	5.161165879508991e+17
19557.0	5.160286433924436e+17
19558.0	5.1594010387196576e+17
19559.0	5.158518031471956e+17
19560.0	5.157546149019646e+17
19561.0	5.1567099481074336e+17
19562.0	5.155790803435519e+17
19563.0	5.1549819402977274e+17
19564.0	5.1540954468843514e+17
19565.0	5.1532030325118285e+17
19566.0	5.1522771112427514e+17
19567.0	5.1514142177798816e+17
19568.0	5.150495136721578e+17
19569.0	5.149602377018025e+17
19570.0	5.148731603856042e+17
19571.0	5.147832103206911e+17
19572.0	5.146897237584554e+17
19573.0	5.14600915313186e+17
19574.0	5.1450282382458874e+17
19575.0	5.1442499236222285e+17
19576.0	5.143335929555625e+17
19577.0	5.1423978888451405e+17
19578.0	5.1415081958768634e+17
19579.0	5.140619037682347e+17
19580.0	5.1397214943750816e+17
19581.0	5.138836503920639e+17
19582.0	5.137954709525844e+17
19583.0	5.1370542022437536e+17
19584.0	5.136151517418836e+17
19585.0	5.135112435924991e+17
19586.0	5.1341772067962874e+17
19587.0	5.133411837192874e+17
19588.0	5.1320199811781984e+17
19589.0	5.131595222614015e+17
19590.0	5.130593358577662e+17
19591.0	5.1298269208248314e+17
19592.0	5.1289324903901856e+17
19593.0	5.127995347959807e+17
19594.0	5.126810674484564e+17
19595.0	5.126197458851158e+17
19596.0	5.1252725106606074e+17
19597.0	5.12439900770577e+17
19598.0	5.122923409615529e+17
19599.0	5.1225957310136314e+17
19600.0	5.1217086224356685e+17
19601.0	5.120725685895167e+17
19602.0	5.119801958946132e+17
19603.0	5.1185177273739923e+17
19604.0	5.118016397595989e+17
19605.0	5.116841790450347e+17
19606.0	5.1162754580479994e+17
19607.0	5.1153856532316154e+17
19608.0	5.114462826659839e+17
19609.0	5.113519515107327e+17
19610.0	5.112598724171093e+17
19611.0	5.111650691929428e+17
19612.0	5.110867567138132e+17
19613.0	5.109950788752724e+17
19614.0	5.1090116568241485e+17
19615.0	5.108149370836309e+17
19616.0	5.10712625496064e+17
19617.0	5.106201713617578e+17
19618.0	5.104699067159893e+17
19619.0	5.103603527538003e+17
19620.0	5.1028195540991994e+17
19621.0	5.102548164455081e+17
19622.0	5.10182025138449e+17
19623.0	5.1009117896048634e+17
19624.0	5.0999821193270605e+17
19625.0	5.099112257727146e+17
19626.0	5.0981998721761274e+17
19627.0	5.097287643911508e+17
19628.0	5.096295710588927e+17
19629.0	5.094948934254591e+17
19630.0	5.093807655747583e+17
19631.0	5.090381600740692e+17
19632.0	5.092632353046527e+17
19633.0	5.091800273037994e+17
19634.0	5.090970563510272e+17
19635.0	5.090017995827881e+17
19636.0	5.089001423066451e+17
19637.0	5.087721578736298e+17
19638.0	5.087351497818111e+17
19639.0	5.086459679036758e+17
19640.0	5.085406468330837e+17
19641.0	5.08321220700843e+17
19642.0	5.083737733726207e+17
19643.0	5.082836721729535e+17
19644.0	5.0818686707739296e+17
19645.0	5.080755782112595e+17
19646.0	5.0799758156322125e+17
19647.0	5.0792597955106125e+17
19648.0	5.0783581292025165e+17
19649.0	5.0774544810857805e+17
19650.0	5.0765618646876154e+17
19651.0	5.075653557398185e+17
19652.0	5.0747513332476576e+17
19653.0	5.0738579171355296e+17
19654.0	5.0729499027483296e+17
19655.0	5.0720450935084365e+17
