# Flux units: erg / (cm m2 s)
# Wavelength units: Angstrom
wave	flux
19000.0	7.647490952833705e+17
19001.0	7.645965065038505e+17
19002.0	7.644599684868777e+17
19003.0	7.643149021915816e+17
19004.0	7.641701430591487e+17
19005.0	7.640257057696425e+17
19006.0	7.638812336674131e+17
19007.0	7.637126078267391e+17
19008.0	7.63585958580497e+17
19009.0	7.634450935797078e+17
19010.0	7.632647724815699e+17
19011.0	7.631558957596672e+17
19012.0	7.629863379446441e+17
19013.0	7.628683976114175e+17
19014.0	7.627186597003261e+17
19015.0	7.625764312711168e+17
19016.0	7.624313175801853e+17
19017.0	7.622668906572457e+17
19018.0	7.621434177574228e+17
19019.0	7.620003318726656e+17
19020.0	7.61850189770479e+17
19021.0	7.617085218400938e+17
19022.0	7.615672962689706e+17
19023.0	7.614193089205587e+17
19024.0	7.612766034591743e+17
19025.0	7.611310107787264e+17
19026.0	7.609853852428969e+17
19027.0	7.608286104081747e+17
19028.0	7.607004523309736e+17
19029.0	7.605541769576445e+17
19030.0	7.604120828859732e+17
19031.0	7.602681178750975e+17
19032.0	7.601235417541289e+17
19033.0	7.599719322047828e+17
19034.0	7.598329154939561e+17
19035.0	7.596870559159634e+17
19036.0	7.581293441187827e+17
19037.0	7.594004106095274e+17
19038.0	7.592550059737088e+17
19039.0	7.591106016793942e+17
19040.0	7.589659587291817e+17
19041.0	7.588208732798975e+17
19042.0	7.58669715317282e+17
19043.0	7.585330436418217e+17
19044.0	7.583875502265683e+17
19045.0	7.582434895855616e+17
19046.0	7.580946716251475e+17
19047.0	7.579555283861503e+17
19048.0	7.577943977667241e+17
19049.0	7.576614320384681e+17
19050.0	7.575190909222911e+17
19051.0	7.571839795942738e+17
19052.0	7.572202043998209e+17
19053.0	7.570844180021247e+17
19054.0	7.569464220450815e+17
19055.0	7.567814866326867e+17
19056.0	7.566556844960425e+17
19057.0	7.565128379662333e+17
19058.0	7.56362629034803e+17
19059.0	7.562254445357738e+17
19060.0	7.560796852016467e+17
19061.0	7.559376838240938e+17
19062.0	7.557933323780093e+17
19063.0	7.55649519480559e+17
19064.0	7.55494902894865e+17
19065.0	7.553463782561108e+17
19066.0	7.552121788432383e+17
19067.0	7.550725120152915e+17
19068.0	7.549297335730175e+17
19069.0	7.547859220736681e+17
19070.0	7.546393592507049e+17
19071.0	7.544967793388202e+17
19072.0	7.543541482564266e+17
19073.0	7.542096567205888e+17
19074.0	7.540666456342527e+17
19075.0	7.539228393078783e+17
19076.0	7.537771879071743e+17
19077.0	7.536346331611133e+17
19078.0	7.534816761217021e+17
19079.0	7.533434229140138e+17
19080.0	7.531987113170262e+17
19081.0	7.530521382879232e+17
19082.0	7.529066208253268e+17
19083.0	7.527587628012884e+17
19084.0	7.526042228315476e+17
19085.0	7.524804960365225e+17
19086.0	7.523036823552e+17
19087.0	7.521546857174355e+17
19088.0	7.520436022323881e+17
19089.0	7.518707064504319e+17
19090.0	7.517606774134099e+17
19091.0	7.516178178812585e+17
19092.0	7.514625618040147e+17
19093.0	7.513333016035327e+17
19094.0	7.511878476147369e+17
19095.0	7.510436568104957e+17
19096.0	7.508985134798164e+17
19097.0	7.507588920901632e+17
19098.0	7.506158738735103e+17
19099.0	7.504719886942207e+17
19100.0	7.503271014957055e+17
19101.0	7.501855974227965e+17
19102.0	7.500362655203325e+17
19103.0	7.498992963289087e+17
19104.0	7.497566978222762e+17
19105.0	7.496131358840148e+17
19106.0	7.494627163985235e+17
19107.0	7.493253672031572e+17
19108.0	7.491836840334675e+17
19109.0	7.488803082076157e+17
19110.0	7.488961656127488e+17
19111.0	7.487539287949311e+17
19112.0	7.4861143682362e+17
19113.0	7.484684167894356e+17
19114.0	7.483249546756093e+17
19115.0	7.481761365753855e+17
19116.0	7.480373558640639e+17
19117.0	7.478945788198911e+17
19118.0	7.477395144223402e+17
19119.0	7.474410304132435e+17
19120.0	7.474560442040317e+17
19121.0	7.473179660386301e+17
19122.0	7.471816649998335e+17
19123.0	7.470368189054975e+17
19124.0	7.46888265465856e+17
19125.0	7.467506001597782e+17
19126.0	7.466042107013802e+17
19127.0	7.463361707682472e+17
19128.0	7.46180374185028e+17
19129.0	7.461741045394089e+17
19130.0	7.460379792419497e+17
19131.0	7.458912447321428e+17
19132.0	7.457534323458047e+17
19133.0	7.455412918594217e+17
19134.0	7.453977852859732e+17
19135.0	7.45324966576128e+17
19136.0	7.451832028758016e+17
19137.0	7.450274692071423e+17
19138.0	7.448750310031357e+17
19139.0	7.447548788735999e+17
19140.0	7.446129104912381e+17
19141.0	7.444704652165119e+17
19142.0	7.443253755729236e+17
19143.0	7.441805641515008e+17
19144.0	7.440392834951849e+17
19145.0	7.438994286226089e+17
19146.0	7.437062343666345e+17
19147.0	7.436086392040106e+17
19148.0	7.434722207247016e+17
19149.0	7.433296041825622e+17
19150.0	7.431864977457151e+17
19151.0	7.430455729061888e+17
19152.0	7.428997632404136e+17
19153.0	7.427596616029523e+17
19154.0	7.426089569047892e+17
19155.0	7.424763391639552e+17
19156.0	7.423341621848745e+17
19157.0	7.421897413929641e+17
19158.0	7.419385132089341e+17
19159.0	7.419054311953748e+17
19160.0	7.417597677709993e+17
19161.0	7.416078401536e+17
19162.0	7.412340317574486e+17
19163.0	7.413369149587456e+17
19164.0	7.411967443948884e+17
19165.0	7.410506607012521e+17
19166.0	7.409003927699455e+17
19167.0	7.407456446229161e+17
19168.0	7.406121771160916e+17
19169.0	7.404742925877247e+17
19170.0	7.403425394327551e+17
19171.0	7.401888479707136e+17
19172.0	7.40057550876399e+17
19173.0	7.399161624264701e+17
19174.0	7.397700679674538e+17
19175.0	7.396327256227839e+17
19176.0	7.394901366232404e+17
19177.0	7.393366101371561e+17
19178.0	7.39203379189077e+17
19179.0	7.390475649897812e+17
19180.0	7.388823786181974e+17
19181.0	7.387720111008425e+17
19182.0	7.3862688566586e+17
19183.0	7.384923831446186e+17
19184.0	7.383393308945064e+17
19185.0	7.3821148165789e+17
19186.0	7.380710830637055e+17
19187.0	7.379219234073258e+17
19188.0	7.377855883946666e+17
19189.0	7.376390679341736e+17
19190.0	7.374959340945408e+17
19191.0	7.373560781034836e+17
19192.0	7.372159851342505e+17
19193.0	7.370388519867731e+17
19194.0	7.369178657499817e+17
19195.0	7.367904248987647e+17
19196.0	7.366504152563711e+17
19197.0	7.365085767576234e+17
19198.0	7.363641138828628e+17
19199.0	7.347590296589649e+17
19200.0	7.3513677315113e+17
19201.0	7.359392993946284e+17
19202.0	7.358005611855872e+17
19203.0	7.356565134071123e+17
19204.0	7.355153982859945e+17
19205.0	7.353752616959999e+17
19206.0	7.35232940712482e+17
19207.0	7.350857723718314e+17
19208.0	7.349342724336298e+17
19209.0	7.348065075025236e+17
19210.0	7.346659528802303e+17
19211.0	7.345245817667583e+17
19212.0	7.343835575222272e+17
19213.0	7.342222206828541e+17
19214.0	7.340726288733526e+17
19215.0	7.339528531126953e+17
19216.0	7.33811720794931e+17
19217.0	7.336740129865727e+17
19218.0	7.334682999914493e+17
19219.0	7.333772047417343e+17
19220.0	7.332459578392575e+17
19221.0	7.330792559258281e+17
19222.0	7.329654454441299e+17
19223.0	7.328214825304063e+17
19224.0	7.326703990865919e+17
19225.0	7.32525710278656e+17
19226.0	7.323951924860242e+17
19227.0	7.322531142128982e+17
19228.0	7.321139421730131e+17
19229.0	7.319719022078633e+17
19230.0	7.318225391277395e+17
19231.0	7.316815155822591e+17
19232.0	7.315387641233407e+17
19233.0	7.313973867184127e+17
19234.0	7.312595488866303e+17
19235.0	7.31116353949969e+17
19236.0	7.309773527580671e+17
19237.0	7.308336153580883e+17
19238.0	7.306836568266067e+17
19239.0	7.305505284991658e+17
19240.0	7.303801639796735e+17
19241.0	7.302565922340863e+17
19242.0	7.301209840943101e+17
19243.0	7.299660913836032e+17
19244.0	7.298391096688637e+17
19245.0	7.296964274159615e+17
19246.0	7.295532141641727e+17
19247.0	7.294106011172864e+17
19248.0	7.292694862757887e+17
19249.0	7.291266236678143e+17
19250.0	7.289828781588479e+17
19251.0	7.288340723619156e+17
19252.0	7.286698470451881e+17
19253.0	7.285547638718463e+17
19254.0	7.284094888400212e+17
19255.0	7.28253575794961e+17
19256.0	7.281224182311594e+17
19257.0	7.279846668020394e+17
19258.0	7.278417190496938e+17
19259.0	7.276924622252713e+17
19260.0	7.275384055791615e+17
19261.0	7.274117217998164e+17
19262.0	7.272646012742313e+17
19263.0	7.271224459657216e+17
19264.0	7.269427684136275e+17
19265.0	7.268249952933204e+17
19266.0	7.266861866199721e+17
19267.0	7.265524882866175e+17
19268.0	7.264078688245075e+17
19269.0	7.262647433734825e+17
19270.0	7.261205387280383e+17
19271.0	7.259514485779114e+17
19272.0	7.258303486754815e+17
19273.0	7.249645807162698e+17
19274.0	7.251913319208273e+17
19275.0	7.25400512766498e+17
19276.0	7.25254571958818e+17
19277.0	7.251100409965225e+17
19278.0	7.249657400218964e+17
19279.0	7.24812896088883e+17
19280.0	7.246696771048787e+17
19281.0	7.245309279906474e+17
19282.0	7.243870957993983e+17
19283.0	7.242181794332671e+17
19284.0	7.240419783999487e+17
19285.0	7.239321283198973e+17
19286.0	7.238027057998505e+17
19287.0	7.236597513366186e+17
19288.0	7.231908986137257e+17
19289.0	7.223915741620886e+17
19290.0	7.232215346490025e+17
19291.0	7.230531106941612e+17
19292.0	7.229285318961833e+17
19293.0	7.227810920442538e+17
19294.0	7.226337834740393e+17
19295.0	7.224875454300157e+17
19296.0	7.223346197080745e+17
19297.0	7.221850364269908e+17
19298.0	7.220372341871955e+17
19299.0	7.218915239264255e+17
19300.0	7.217431649626793e+17
19301.0	7.21593825370658e+17
19302.0	7.214449816851795e+17
19303.0	7.21288386506479e+17
19304.0	7.211421203606186e+17
19305.0	7.209968141511338e+17
19306.0	7.208466513570472e+17
19307.0	7.206922992921258e+17
19308.0	7.2054464329373e+17
19309.0	7.203521766096893e+17
19310.0	7.201715227634344e+17
19311.0	7.200834265808893e+17
19312.0	7.199358371321172e+17
19313.0	7.19771627753745e+17
19314.0	7.191924841294499e+17
19315.0	7.190684233280178e+17
19316.0	7.193262533465428e+17
19317.0	7.191749438297427e+17
19318.0	7.190208304207187e+17
19319.0	7.188680945609386e+17
19320.0	7.18710120714513e+17
19321.0	7.185587696741033e+17
19322.0	7.183892231837012e+17
19323.0	7.182224554196991e+17
19324.0	7.180893821774505e+17
19325.0	7.178991307849727e+17
19326.0	7.177759228253523e+17
19327.0	7.176170771229353e+17
19328.0	7.174598424526845e+17
19329.0	7.173006818978474e+17
19330.0	7.171375380125011e+17
19331.0	7.169768682072745e+17
19332.0	7.168186069112147e+17
19333.0	7.166555787886591e+17
19334.0	7.164903069930835e+17
19335.0	7.163259123662847e+17
19336.0	7.161600203729577e+17
19337.0	7.159952214152532e+17
19338.0	7.158143430339241e+17
19339.0	7.156658056724479e+17
19340.0	7.154948654148266e+17
19341.0	7.153303350323881e+17
19342.0	7.151267892341416e+17
19343.0	7.149908364623871e+17
19344.0	7.148188445529427e+17
19345.0	7.144875399752358e+17
19346.0	7.144305978245119e+17
19347.0	7.142938548458835e+17
19348.0	7.141232558647978e+17
19349.0	7.139428497620991e+17
19350.0	7.137650557321215e+17
19351.0	7.135845614092287e+17
19352.0	7.134009002470057e+17
19353.0	7.132162949469523e+17
19354.0	7.130309204115455e+17
19355.0	7.12837623255313e+17
19356.0	7.12657586950417e+17
19357.0	7.124678018247338e+17
19358.0	7.122703903358975e+17
19359.0	7.120450843486892e+17
19360.0	7.118854200579411e+17
19361.0	7.116817467528532e+17
19362.0	7.114832984320681e+17
19363.0	7.112806792953855e+17
19364.0	7.110655855995562e+17
19365.0	7.108591601319935e+17
19366.0	7.106506698085718e+17
19367.0	7.104390055155028e+17
19368.0	7.102244523256489e+17
19369.0	7.099919764553727e+17
19370.0	7.096975423264084e+17
19371.0	7.095483577838249e+17
19372.0	7.093201215160319e+17
19373.0	7.090867791025492e+17
19374.0	7.088537855153492e+17
19375.0	7.086152562857299e+17
19376.0	7.083710335680511e+17
19377.0	7.081041079216808e+17
19378.0	7.078408216728918e+17
19379.0	7.07584287973922e+17
19380.0	7.073227506100905e+17
19381.0	7.070409010708479e+17
19382.0	7.067548263295658e+17
19383.0	7.064749200113663e+17
19384.0	7.061968885470547e+17
19385.0	7.058949259220308e+17
19386.0	7.055901626204159e+17
19387.0	7.052708949961385e+17
19388.0	7.049576777951913e+17
19389.0	7.046362386399232e+17
19390.0	7.042969720149332e+17
19391.0	7.027545688681111e+17
19392.0	7.035927660593151e+17
19393.0	7.032218580243796e+17
19394.0	7.0285088274077e+17
19395.0	7.024671330751827e+17
19396.0	7.02062962811426e+17
19397.0	7.016334764277759e+17
19398.0	7.012103126078804e+17
19399.0	7.007257129298601e+17
19400.0	7.00277444452898e+17
19401.0	6.998139514912768e+17
19402.0	6.993061874412202e+17
19403.0	6.987706056485546e+17
19404.0	6.982139254581929e+17
19405.0	6.976205205711528e+17
19406.0	6.970207188811775e+17
19407.0	6.963897696605524e+17
19408.0	6.956449314548394e+17
19409.0	6.949836522433193e+17
19410.0	6.942331938100563e+17
19411.0	6.934890257842175e+17
19412.0	6.927610485407743e+17
19413.0	6.919977559567018e+17
19414.0	6.911590437049683e+17
19415.0	6.903127246635007e+17
19416.0	6.893975528363348e+17
19417.0	6.884153375763113e+17
19418.0	6.874417719498068e+17
19419.0	6.863413664459433e+17
19420.0	6.851949632684032e+17
19421.0	6.83971796917726e+17
19422.0	6.826454965463724e+17
19423.0	6.812127684373161e+17
19424.0	6.796599301417644e+17
19425.0	6.77990701657839e+17
19426.0	6.760552497938428e+17
19427.0	6.741336582870358e+17
19428.0	6.723570324122281e+17
19429.0	6.704451677061119e+17
19430.0	6.683956612519254e+17
19431.0	6.66024996940459e+17
19432.0	6.63869770117939e+17
19433.0	6.612982687596544e+17
19434.0	6.584868286059859e+17
19435.0	6.553098003327657e+17
19436.0	6.516682924578134e+17
19437.0	6.477294716933462e+17
19438.0	6.428291958658387e+17
19439.0	6.39877537123533e+17
19440.0	6.354465308628307e+17
19441.0	6.305100069513894e+17
19442.0	6.249072907605332e+17
19443.0	6.184693512798207e+17
19444.0	6.118921057512102e+17
19445.0	6.046226646564865e+17
19446.0	5.961920527291734e+17
19447.0	5.869556401351334e+17
19448.0	5.763360933718703e+17
19449.0	5.6279422842088096e+17
19450.0	5.340463897422464e+17
19451.0	5.2202299831528115e+17
19452.0	5.507522428054192e+17
19453.0	5.700923175905966e+17
19454.0	5.813866526496081e+17
19455.0	5.909703424300374e+17
19456.0	5.996266724349271e+17
19457.0	6.071967055260326e+17
19458.0	6.134252674482182e+17
19459.0	6.201091011466583e+17
19460.0	6.258949431667365e+17
19461.0	6.308821634908159e+17
19462.0	6.35304904945391e+17
19463.0	6.39260905858662e+17
19464.0	6.428281281358504e+17
19465.0	6.466093930861911e+17
19466.0	6.501107317953878e+17
19467.0	6.532369193020073e+17
19468.0	6.559675382235136e+17
19469.0	6.582990900909395e+17
19470.0	6.605747292296532e+17
19471.0	6.62581072241186e+17
19472.0	6.644332185867604e+17
19473.0	6.661189356486655e+17
19474.0	6.676976048450218e+17
19475.0	6.692217253003258e+17
19476.0	6.709487603810304e+17
19477.0	6.724813963919363e+17
19478.0	6.738231222250154e+17
19479.0	6.750339458575017e+17
19480.0	6.761318074460844e+17
19481.0	6.771343065699667e+17
19482.0	6.780702585170601e+17
19483.0	6.789026900082688e+17
19484.0	6.796911439424169e+17
19485.0	6.803896278887081e+17
19486.0	6.810699444169385e+17
19487.0	6.816656184923475e+17
19488.0	6.822419067742889e+17
19489.0	6.827688144666623e+17
19490.0	6.831537293798054e+17
19491.0	6.83694530634274e+17
19492.0	6.841729290338303e+17
19493.0	6.846669326210388e+17
19494.0	6.850752846757887e+17
19495.0	6.854374807218857e+17
19496.0	6.857969733293395e+17
19497.0	6.861152450161321e+17
19498.0	6.863843022077953e+17
19499.0	6.847530914545644e+17
19500.0	6.869696568273578e+17
19501.0	6.871758853723476e+17
19502.0	6.873783937094996e+17
19503.0	6.875814689767423e+17
19504.0	6.877364863281833e+17
19505.0	6.878843525311145e+17
19506.0	6.88050467311889e+17
19507.0	6.881673128618665e+17
19508.0	6.882753288426835e+17
19509.0	6.883704636265812e+17
19510.0	6.884575512188244e+17
19511.0	6.872025111636641e+17
19512.0	6.88381070811681e+17
19513.0	6.881301489516532e+17
19514.0	6.883678900016463e+17
19515.0	6.887207951051434e+17
19516.0	6.888201404809215e+17
19517.0	6.888511367370068e+17
19518.0	6.888856478198442e+17
19519.0	6.888999681523712e+17
19520.0	6.88905605366852e+17
19521.0	6.889118418075647e+17
19522.0	6.889216719279444e+17
19523.0	6.889167195734015e+17
19524.0	6.889029832977065e+17
19525.0	6.888797926413652e+17
19526.0	6.888823566194003e+17
19527.0	6.888635115416233e+17
19528.0	6.888328433500159e+17
19529.0	6.887980887179263e+17
19530.0	6.887607055155199e+17
19531.0	6.887192737611775e+17
19532.0	6.886808254851753e+17
19533.0	6.886393184430761e+17
19534.0	6.885880128776874e+17
19535.0	6.885321815184723e+17
19536.0	6.884743235414697e+17
19537.0	6.884182848438271e+17
19538.0	6.883536527163391e+17
19539.0	6.88249125068254e+17
19540.0	6.882260086510932e+17
19541.0	6.881674124765865e+17
19542.0	6.880962605132458e+17
19543.0	6.880238211082922e+17
19544.0	6.879526987846995e+17
19545.0	6.878552433623037e+17
19546.0	6.877324371471017e+17
19547.0	6.877223673222484e+17
19548.0	6.876427201456809e+17
19549.0	6.875509692563455e+17
19550.0	6.874756021572948e+17
19551.0	6.873900754752852e+17
19552.0	6.873028408726868e+17
19553.0	6.872182451164499e+17
19554.0	6.871295244719444e+17
19555.0	6.870408304612692e+17
19556.0	6.869500190261247e+17
19557.0	6.868565459555667e+17
19558.0	6.867622898084521e+17
19559.0	6.866644287269546e+17
19560.0	6.8656883054237e+17
19561.0	6.86471774208e+17
19562.0	6.863754185321129e+17
19563.0	6.862763778026153e+17
19564.0	6.861775023286953e+17
19565.0	6.860762351228244e+17
19566.0	6.859732618838015e+17
19567.0	6.858729763547817e+17
19568.0	6.857681651717459e+17
19569.0	6.856654870719146e+17
19570.0	6.855633907220479e+17
19571.0	6.854585584975872e+17
19572.0	6.85350024520226e+17
19573.0	6.85245969010961e+17
19574.0	6.851320024312489e+17
19575.0	6.850328379697833e+17
19576.0	6.849262361684649e+17
19577.0	6.848161451955539e+17
19578.0	6.84711447957777e+17
19579.0	6.846031983542272e+17
19580.0	6.844940072692393e+17
19581.0	6.843847433431722e+17
19582.0	6.842755817581225e+17
19583.0	6.841646233332394e+17
19584.0	6.840526166119763e+17
19585.0	6.839318454730751e+17
19586.0	6.838119954732372e+17
19587.0	6.837003347820543e+17
19588.0	6.835640864516778e+17
19589.0	6.834763316155732e+17
19590.0	6.833699763694249e+17
19591.0	6.832628464353279e+17
19592.0	6.831492686675965e+17
19593.0	6.830328506570068e+17
19594.0	6.828973980560041e+17
19595.0	6.828035788155561e+17
19596.0	6.823434560471041e+17
19597.0	6.825719457207636e+17
19598.0	6.824396787635539e+17
19599.0	6.823425027517097e+17
19600.0	6.822269661741055e+17
19601.0	6.821051402376534e+17
19602.0	6.81990567371298e+17
19603.0	6.8182416570013e+17
19604.0	6.817548106465279e+17
19605.0	6.816176720052223e+17
19606.0	6.815232668205055e+17
19607.0	6.814074618074452e+17
19608.0	6.812881510552916e+17
19609.0	6.811665221113171e+17
19610.0	6.810533662206634e+17
19611.0	6.809341796898132e+17
19612.0	6.80816503947264e+17
19613.0	6.806965717390676e+17
19614.0	6.805754717667327e+17
19615.0	6.804599642696361e+17
19616.0	6.803302340973907e+17
19617.0	6.802212377679187e+17
19618.0	6.800644819473747e+17
19619.0	6.799309332108627e+17
19620.0	6.798144245334015e+17
19621.0	6.797428941040297e+17
19622.0	6.796235913210538e+17
19623.0	6.795036465299455e+17
19624.0	6.793827240465748e+17
19625.0	6.792630787986772e+17
19626.0	6.79142299410978e+17
19627.0	6.790226206086484e+17
19628.0	6.788685771745962e+17
19629.0	6.787742913178281e+17
19630.0	6.786346476284586e+17
19631.0	6.770194447160654e+17
19632.0	6.784179900164778e+17
19633.0	6.782943645138941e+17
19634.0	6.781774246619817e+17
19635.0	6.780529749786623e+17
19636.0	6.779344864499027e+17
19637.0	6.777800725189972e+17
19638.0	6.776924620368553e+17
19639.0	6.775696783310847e+17
19640.0	6.774448903771476e+17
19641.0	6.772880271125162e+17
19642.0	6.772063993855999e+17
19643.0	6.770826655301631e+17
19644.0	6.769592935732564e+17
19645.0	6.768224631433897e+17
19646.0	6.767208780791807e+17
19647.0	6.765991140786175e+17
19648.0	6.764769027555327e+17
19649.0	6.763548122284031e+17
19650.0	6.762365278224383e+17
19651.0	6.761156897144832e+17
19652.0	6.759935513023828e+17
19653.0	6.758715609492136e+17
19654.0	6.757493426356223e+17
19655.0	6.756268096793257e+17
19656.0	6.755051392816468e+17
19657.0	6.753830859440127e+17
19658.0	6.752610943325524e+17
19659.0	6.751392305774591e+17
19660.0	6.750170950314666e+17
19661.0	6.748948010106879e+17
19662.0	6.747724806356991e+17
19663.0	6.746462192926719e+17
19664.0	6.745205702481236e+17
19665.0	6.744053635525289e+17
