# Flux units: erg / (cm m2 s)
# Wavelength units: Angstrom
wave	flux
19000.0	5.281080325526869e+17
19001.0	5.280031588046164e+17
19002.0	5.279117961680213e+17
19003.0	5.2781338353554765e+17
19004.0	5.277153450349909e+17
19005.0	5.276173786065578e+17
19006.0	5.275193616367615e+17
19007.0	5.274167599431679e+17
19008.0	5.2731919253285536e+17
19009.0	5.27214341923362e+17
19010.0	5.270977711702015e+17
19011.0	5.2702460985562445e+17
19012.0	5.2691412405889696e+17
19013.0	5.2683229088098976e+17
19014.0	5.267307174210217e+17
19015.0	5.2663390512523936e+17
19016.0	5.265347668082687e+17
19017.0	5.2644008563834874e+17
19018.0	5.2634155472650234e+17
19019.0	5.262440513492308e+17
19020.0	5.2614500460789754e+17
19021.0	5.2604847507810976e+17
19022.0	5.259510023891626e+17
19023.0	5.258506129113087e+17
19024.0	5.257539913864532e+17
19025.0	5.256561430276778e+17
19026.0	5.2555671740088314e+17
19027.0	5.2544934377772365e+17
19028.0	5.2536403324218003e+17
19029.0	5.252284850110464e+17
19030.0	5.2506637236524365e+17
19031.0	5.2496876175359994e+17
19032.0	5.2487067620693325e+17
19033.0	5.2476721733741216e+17
19034.0	5.246749035025749e+17
19035.0	5.2456820033890976e+17
19036.0	5.235740216655871e+17
19037.0	5.2438029139531085e+17
19038.0	5.2428371202321056e+17
19039.0	5.241877565538303e+17
19040.0	5.240902085072213e+17
19041.0	5.2399220502910285e+17
19042.0	5.2388855077492045e+17
19043.0	5.2379765845961376e+17
19044.0	5.2369926267426125e+17
19045.0	5.236022965174272e+17
19046.0	5.2350165691924474e+17
19047.0	5.2340497814213965e+17
19048.0	5.2329712028658336e+17
19049.0	5.232069041629866e+17
19050.0	5.231126963901781e+17
19051.0	5.228978048598014e+17
19052.0	5.228828605546494e+17
19053.0	5.22824132469282e+17
19054.0	5.2272723936324256e+17
19055.0	5.2261338393258656e+17
19056.0	5.225314103154005e+17
19057.0	5.2243545414696954e+17
19058.0	5.223365779040938e+17
19059.0	5.222409574197929e+17
19060.0	5.2214286795844256e+17
19061.0	5.220471486283774e+17
19062.0	5.219496052654079e+17
19063.0	5.218525394239486e+17
19064.0	5.2174749007435085e+17
19065.0	5.2164692415610874e+17
19066.0	5.21557594149137e+17
19067.0	5.214637079396352e+17
19068.0	5.213671284976298e+17
19069.0	5.212699983435091e+17
19070.0	5.21171491688721e+17
19071.0	5.2107568889200634e+17
19072.0	5.2097855796893005e+17
19073.0	5.2088171952865274e+17
19074.0	5.207851001009492e+17
19075.0	5.2068814240262816e+17
19076.0	5.205899364095317e+17
19077.0	5.204928623192746e+17
19078.0	5.203951129460736e+17
19079.0	5.2030019165224954e+17
19080.0	5.202022385057791e+17
19081.0	5.201042778095615e+17
19082.0	5.200070735560703e+17
19083.0	5.1990609051429536e+17
19084.0	5.1980138083341645e+17
19085.0	5.1971939680037536e+17
19086.0	5.1959924606894074e+17
19087.0	5.1949897822590285e+17
19088.0	5.1942174242461005e+17
19089.0	5.1930899505916576e+17
19090.0	5.1923383012556794e+17
19091.0	5.191369447789909e+17
19092.0	5.190335248465919e+17
19093.0	5.189459801451177e+17
19094.0	5.1884914764677114e+17
19095.0	5.187525045911552e+17
19096.0	5.1865502225530874e+17
19097.0	5.185592751030271e+17
19098.0	5.18462783881216e+17
19099.0	5.183661253066751e+17
19100.0	5.1826815524317856e+17
19101.0	5.1817223165050874e+17
19102.0	5.180701795505492e+17
19103.0	5.1798071700357114e+17
19104.0	5.1788428408258554e+17
19105.0	5.1778714400194554e+17
19106.0	5.1768682366020256e+17
19107.0	5.1759384523789645e+17
19108.0	5.174984297152511e+17
19109.0	5.1733536677997216e+17
19110.0	5.173001576251392e+17
19111.0	5.1720955157108045e+17
19112.0	5.171132606971904e+17
19113.0	5.170170480470697e+17
19114.0	5.1692070809982285e+17
19115.0	5.1682003375882234e+17
19116.0	5.1672702010436256e+17
19117.0	5.166305081906517e+17
19118.0	5.165211921853099e+17
19119.0	5.160424913764348e+17
19120.0	5.1633594222073165e+17
19121.0	5.162417869466281e+17
19122.0	5.161516906403156e+17
19123.0	5.1605555222937594e+17
19124.0	5.159558768317781e+17
19125.0	5.158623136535892e+17
19126.0	5.157667002996053e+17
19127.0	5.1554749080316576e+17
19128.0	5.155471818926761e+17
19129.0	5.1547470473898656e+17
19130.0	5.153815756712619e+17
19131.0	5.152872378750292e+17
19132.0	5.1519115818434554e+17
19133.0	5.150795010583209e+17
19134.0	5.149879038902271e+17
19135.0	5.1490334434481485e+17
19136.0	5.1480812357768525e+17
19137.0	5.1470157916842656e+17
19138.0	5.146138296451071e+17
19139.0	5.145205820882942e+17
19140.0	5.144249936904191e+17
19141.0	5.143291083358207e+17
19142.0	5.142319113524564e+17
19143.0	5.1413432017442125e+17
19144.0	5.140392489342292e+17
19145.0	5.1394595992371194e+17
19146.0	5.138128640322219e+17
19147.0	5.1374473413481805e+17
19148.0	5.1365872986139296e+17
19149.0	5.135631686565887e+17
19150.0	5.13467586060834e+17
19151.0	5.133724661667156e+17
19152.0	5.1324908092784634e+17
19153.0	5.1314603470793376e+17
19154.0	5.130432746793641e+17
19155.0	5.129565842178047e+17
19156.0	5.1286098190882125e+17
19157.0	5.127639460566357e+17
19158.0	5.1262196760794445e+17
19159.0	5.1257352444532045e+17
19160.0	5.1247830934050125e+17
19161.0	5.123816225243135e+17
19162.0	5.121842755578538e+17
19163.0	5.1218440642013856e+17
19164.0	5.1209785311231994e+17
19165.0	5.119996272661845e+17
19166.0	5.118962438941353e+17
19167.0	5.1180188974011725e+17
19168.0	5.117137725161472e+17
19169.0	5.1161783857752736e+17
19170.0	5.115260047807828e+17
19171.0	5.1142427032944634e+17
19172.0	5.1133495234614605e+17
19173.0	5.1124009075124896e+17
19174.0	5.111414169534462e+17
19175.0	5.110499800077653e+17
19176.0	5.1095509415581e+17
19177.0	5.108497118483796e+17
19178.0	5.1076129766768634e+17
19179.0	5.1066110560174074e+17
19180.0	5.1057216580485114e+17
19181.0	5.1047189097130656e+17
19182.0	5.10381530353937e+17
19183.0	5.102891524860585e+17
19184.0	5.101924362398379e+17
19185.0	5.1009887404031994e+17
19186.0	5.100042724922709e+17
19187.0	5.09905065947955e+17
19188.0	5.098140559824212e+17
19189.0	5.0971850253707936e+17
19190.0	5.09622885617937e+17
19191.0	5.0952679851731616e+17
19192.0	5.094345835981481e+17
19193.0	5.0933898674176e+17
19194.0	5.092440063781545e+17
19195.0	5.091501299553621e+17
19196.0	5.090545649756841e+17
19197.0	5.0895973169233914e+17
19198.0	5.0886495503209805e+17
19199.0	5.0815590870985363e+17
19200.0	5.082163401719809e+17
19201.0	5.085808049870164e+17
19202.0	5.084865010248362e+17
19203.0	5.083901686972415e+17
19204.0	5.0829552310900045e+17
19205.0	5.0820148380740256e+17
19206.0	5.0810625863625376e+17
19207.0	5.080042888145578e+17
19208.0	5.079049176438101e+17
19209.0	5.078229436770985e+17
19210.0	5.077285539414014e+17
19211.0	5.0763448814578336e+17
19212.0	5.075398759721642e+17
19213.0	5.0743564835662496e+17
19214.0	5.073363010235049e+17
19215.0	5.0725334454108154e+17
19216.0	5.071611981288788e+17
19217.0	5.070668664842922e+17
19218.0	5.069149768253438e+17
19219.0	5.068678820615509e+17
19220.0	5.0678151120595616e+17
19221.0	5.066682812159317e+17
19222.0	5.065918275125247e+17
19223.0	5.064981917029717e+17
19224.0	5.06401509150993e+17
19225.0	5.0630022922239994e+17
19226.0	5.0621485241685325e+17
19227.0	5.06120259047697e+17
19228.0	5.0602723581624314e+17
19229.0	5.059328339170644e+17
19230.0	5.0583717456554656e+17
19231.0	5.057424744513534e+17
19232.0	5.056483772683605e+17
19233.0	5.0555054827328845e+17
19234.0	5.054592103830868e+17
19235.0	5.053650065249621e+17
19236.0	5.052718998967636e+17
19237.0	5.05176400208418e+17
19238.0	5.0507641541099514e+17
19239.0	5.04988603322641e+17
19240.0	5.0489044535432525e+17
19241.0	5.047970988119381e+17
19242.0	5.047038113393322e+17
19243.0	5.046014230659072e+17
19244.0	5.045171084678485e+17
19245.0	5.0442285343921485e+17
19246.0	5.0432751019840845e+17
19247.0	5.042340388754772e+17
19248.0	5.0413987003979085e+17
19249.0	5.040448854119766e+17
19250.0	5.0394978851662496e+17
19251.0	5.0384650594768205e+17
19252.0	5.037461963014143e+17
19253.0	5.0366660672662176e+17
19254.0	5.035732803867988e+17
19255.0	5.0346922417848314e+17
19256.0	5.0338099790260896e+17
19257.0	5.0329101302497274e+17
19258.0	5.031966499231061e+17
19259.0	5.0309823274680314e+17
19260.0	5.029888886396244e+17
19261.0	5.0291267743689376e+17
19262.0	5.0281558048767994e+17
19263.0	5.027185144365055e+17
19264.0	5.0259393396080634e+17
19265.0	5.0252125701843616e+17
19266.0	5.0242709314600954e+17
19267.0	5.0234772866553165e+17
19268.0	5.022533767484756e+17
19269.0	5.0215900952221e+17
19270.0	5.020637648475476e+17
19271.0	5.019471838882474e+17
19272.0	5.0187342579411616e+17
19273.0	5.0165044988258976e+17
19274.0	5.01597548454434e+17
19275.0	5.015925793925803e+17
19276.0	5.0149682441093114e+17
19277.0	5.0140272911537485e+17
19278.0	5.013082367590398e+17
19279.0	5.0121244962106016e+17
19280.0	5.011146476093439e+17
19281.0	5.0102437255577594e+17
19282.0	5.0093123614801914e+17
19283.0	5.008261631705087e+17
19284.0	5.0073179531509754e+17
19285.0	5.006350713094143e+17
19286.0	5.005505396561236e+17
19287.0	5.004581359932755e+17
19288.0	5.000302104499538e+17
19289.0	4.996960064197969e+17
19290.0	5.001742873788415e+17
19291.0	5.0006298781723296e+17
19292.0	4.9998430414219936e+17
19293.0	4.998894990305961e+17
19294.0	4.9979456033041056e+17
19295.0	4.9970042211314336e+17
19296.0	4.9960508390550176e+17
19297.0	4.995091584953002e+17
19298.0	4.9941391214291616e+17
19299.0	4.9932027577412256e+17
19300.0	4.9922506318588576e+17
19301.0	4.9913005842541216e+17
19302.0	4.9903356482682874e+17
19303.0	4.989352523683156e+17
19304.0	4.9884201145248416e+17
19305.0	4.9874811986029216e+17
19306.0	4.986533592083114e+17
19307.0	4.985548436755796e+17
19308.0	4.9846051391842976e+17
19309.0	4.983429986779135e+17
19310.0	4.9824152301513376e+17
19311.0	4.981705141474645e+17
19312.0	4.980799843598335e+17
19313.0	4.979842869100543e+17
19314.0	4.967872200354483e+17
19315.0	4.9673376160372064e+17
19316.0	4.976943830488404e+17
19317.0	4.9760084664429216e+17
19318.0	4.975044568547327e+17
19319.0	4.974091706564606e+17
19320.0	4.9731263050110285e+17
19321.0	4.972163057232553e+17
19322.0	4.97112055808e+17
19323.0	4.9701424834368845e+17
19324.0	4.969262563895977e+17
19325.0	4.968077793252693e+17
19326.0	4.96732811034624e+17
19327.0	4.966349990963881e+17
19328.0	4.965381038931966e+17
19329.0	4.964416267223039e+17
19330.0	4.963417773309951e+17
19331.0	4.962435746933417e+17
19332.0	4.961483409238698e+17
19333.0	4.960506734095017e+17
19334.0	4.9595276458284365e+17
19335.0	4.958538175960404e+17
19336.0	4.957563681854805e+17
19337.0	4.956576426579285e+17
19338.0	4.955450880906581e+17
19339.0	4.954602318681427e+17
19340.0	4.953543242241364e+17
19341.0	4.952569914152276e+17
19342.0	4.951364357936468e+17
19343.0	4.95062605837107e+17
19344.0	4.9496257853740365e+17
19345.0	4.9473849400142483e+17
19346.0	4.946860022169598e+17
19347.0	4.946568155933355e+17
19348.0	4.945615565182291e+17
19349.0	4.944582369695061e+17
19350.0	4.943567276124842e+17
19351.0	4.9425530486783994e+17
19352.0	4.9414979561280845e+17
19353.0	4.940526733579605e+17
19354.0	4.939501991712083e+17
19355.0	4.938408350711807e+17
19356.0	4.9374377265506976e+17
19357.0	4.9364011972908365e+17
19358.0	4.9353425339897165e+17
19359.0	4.9342405966561274e+17
19360.0	4.932701635914411e+17
19361.0	4.930974110449664e+17
19362.0	4.929940278826324e+17
19363.0	4.928874237045419e+17
19364.0	4.927803374611114e+17
19365.0	4.9267321836229965e+17
19366.0	4.925652494974975e+17
19367.0	4.924567413850111e+17
19368.0	4.9234768542651725e+17
19369.0	4.922318695082666e+17
19370.0	4.9211307703227725e+17
19371.0	4.9201304379064314e+17
19372.0	4.919043585387178e+17
19373.0	4.917904365584383e+17
19374.0	4.9167856706082125e+17
19375.0	4.9156425983371936e+17
19376.0	4.914495405861546e+17
19377.0	4.9133340114725536e+17
19378.0	4.912166971550378e+17
19379.0	4.910989087954262e+17
19380.0	4.9098002446417914e+17
19381.0	4.9086005296933536e+17
19382.0	4.9073418330439674e+17
19383.0	4.9060877158754976e+17
19384.0	4.904922582963541e+17
19385.0	4.9036811892162554e+17
19386.0	4.901481070548309e+17
19387.0	4.8995868131109536e+17
19388.0	4.898291166041428e+17
19389.0	4.896978973840725e+17
19390.0	4.895648418977109e+17
19391.0	4.8860428336715014e+17
19392.0	4.8922160116968083e+17
19393.0	4.8915480408227834e+17
19394.0	4.8901317928331936e+17
19395.0	4.8886915478323194e+17
19396.0	4.886797518984531e+17
19397.0	4.883828543848447e+17
19398.0	4.8822951936873805e+17
19399.0	4.880296919607977e+17
19400.0	4.879089856238932e+17
19401.0	4.8775708037611514e+17
19402.0	4.875476705913514e+17
19403.0	4.871881861627903e+17
19404.0	4.870149934940159e+17
19405.0	4.868353376124927e+17
19406.0	4.866121279384233e+17
19407.0	4.861844619526143e+17
19408.0	4.859344094319957e+17
19409.0	4.85733808943923e+17
19410.0	4.852490358314324e+17
19411.0	4.8502847136508576e+17
19412.0	4.844870952812548e+17
19413.0	4.8418310023632205e+17
19414.0	4.8351300872219283e+17
19415.0	4.83036110555272e+17
19416.0	4.824311948902396e+17
19417.0	4.818880739060393e+17
19418.0	4.8150437673915725e+17
19419.0	4.811603632106155e+17
19420.0	4.8080449825669114e+17
19421.0	4.8043001793303885e+17
19422.0	4.800369704741545e+17
19423.0	4.7962293073346554e+17
19424.0	4.791842760906068e+17
19425.0	4.786095041194666e+17
19426.0	4.780980510392319e+17
19427.0	4.7757285245583354e+17
19428.0	4.7688812463827603e+17
19429.0	4.7625242655675725e+17
19430.0	4.7539580036273517e+17
19431.0	4.744336294718121e+17
19432.0	4.73525476183245e+17
19433.0	4.722521019864408e+17
19434.0	4.704945929803089e+17
19435.0	4.6809773195482477e+17
19436.0	4.6483132292355354e+17
19437.0	4.628363686357674e+17
19438.0	4.596641449377796e+17
19439.0	4.587536231257428e+17
19440.0	4.5667876986333856e+17
19441.0	4.542785354989565e+17
19442.0	4.5164435655884794e+17
19443.0	4.488957751809365e+17
19444.0	4.456201121868457e+17
19445.0	4.406060120364378e+17
19446.0	4.314311343560022e+17
19447.0	4.239977891583313e+17
19448.0	4.1474621492428845e+17
19449.0	3.946497360702115e+17
19450.0	3.454299945653559e+17
19451.0	3.3028154288592115e+17
19452.0	3.7342867759650285e+17
19453.0	4.0667623512692e+17
19454.0	4.1955501403013094e+17
19455.0	4.271926528704512e+17
19456.0	4.355306628841484e+17
19457.0	4.426505222356983e+17
19458.0	4.4371359130364736e+17
19459.0	4.4868533667321274e+17
19460.0	4.515751657821523e+17
19461.0	4.539298119767381e+17
19462.0	4.560762344658262e+17
19463.0	4.580441194845523e+17
19464.0	4.5982232346624e+17
19465.0	4.614310494644904e+17
19466.0	4.640640361037822e+17
19467.0	4.6679728268683936e+17
19468.0	4.685990789993808e+17
19469.0	4.698282984297808e+17
19470.0	4.7084892107134304e+17
19471.0	4.716587021325654e+17
19472.0	4.722827976507389e+17
19473.0	4.7278990214649165e+17
19474.0	4.733160838048426e+17
19475.0	4.736634110432596e+17
19476.0	4.74046004199424e+17
19477.0	4.744219573529258e+17
19478.0	4.747503758999551e+17
19479.0	4.749986705877674e+17
19480.0	4.752214148339029e+17
19481.0	4.754239997870079e+17
19482.0	4.756120250526378e+17
19483.0	4.757827907573076e+17
19484.0	4.759590716921172e+17
19485.0	4.7623574636898976e+17
19486.0	4.765254321963005e+17
19487.0	4.770860230858068e+17
19488.0	4.773462595163473e+17
19489.0	4.7763320842048845e+17
19490.0	4.77804738816683e+17
19491.0	4.7811642027322016e+17
19492.0	4.7819934921304736e+17
19493.0	4.784997082857471e+17
19494.0	4.785204918310228e+17
19495.0	4.785472254159531e+17
19496.0	4.7878379478712314e+17
19497.0	4.7881145118883834e+17
19498.0	4.7855824126607334e+17
19499.0	4.775267074222765e+17
19500.0	4.7897030835568634e+17
19501.0	4.7900283196757325e+17
19502.0	4.7898240724500474e+17
19503.0	4.789600135763283e+17
19504.0	4.789339912055466e+17
19505.0	4.789053404042582e+17
19506.0	4.7893598405918694e+17
19507.0	4.790233451899561e+17
19508.0	4.789878228604245e+17
19509.0	4.789484969263103e+17
19510.0	4.788910843144874e+17
19511.0	4.7689084058992614e+17
19512.0	4.785291533484032e+17
19513.0	4.783840270745597e+17
19514.0	4.784125445668861e+17
19515.0	4.786355732567381e+17
19516.0	4.7861898576308896e+17
19517.0	4.785636473044992e+17
19518.0	4.7860215674743443e+17
19519.0	4.7860323181745485e+17
19520.0	4.785445069477205e+17
19521.0	4.7848833864608416e+17
19522.0	4.7842664309063674e+17
19523.0	4.7836799910106445e+17
19524.0	4.7830615639545165e+17
19525.0	4.782425944446293e+17
19526.0	4.781801091716436e+17
19527.0	4.7811554604045645e+17
19528.0	4.7804998843979085e+17
19529.0	4.779843199696896e+17
19530.0	4.779180113788928e+17
19531.0	4.7785053446471674e+17
19532.0	4.7778237653538125e+17
19533.0	4.7771355562639354e+17
19534.0	4.776437935155883e+17
19535.0	4.775733788409855e+17
19536.0	4.775006659674111e+17
19537.0	4.774322130386943e+17
19538.0	4.7734726838626976e+17
19539.0	4.772546571053738e+17
19540.0	4.7721373747554976e+17
19541.0	4.7714216803915085e+17
19542.0	4.7706844370916685e+17
19543.0	4.76994125046306e+17
19544.0	4.769200992157696e+17
19545.0	4.768062044984661e+17
19546.0	4.76712947224849e+17
19547.0	4.766949156323327e+17
19548.0	4.7661826899094176e+17
19549.0	4.7653715772265805e+17
19550.0	4.764663100560724e+17
19551.0	4.763896518803456e+17
19552.0	4.763124494936746e+17
19553.0	4.762330306270548e+17
19554.0	4.7615501985819296e+17
19555.0	4.760969037217792e+17
19556.0	4.761128016718506e+17
19557.0	4.760339844082346e+17
19558.0	4.759553305127594e+17
19559.0	4.758760580273492e+17
19560.0	4.757954354653866e+17
19561.0	4.7571606343516154e+17
19562.0	4.756382138673834e+17
19563.0	4.755586620413268e+17
19564.0	4.754787455205376e+17
19565.0	4.753986447299925e+17
19566.0	4.7531640106953376e+17
19567.0	4.752376521031678e+17
19568.0	4.751557394431998e+17
19569.0	4.7507593225393485e+17
19570.0	4.749957182171817e+17
19571.0	4.749141111122602e+17
19572.0	4.748317665787902e+17
19573.0	4.747502858622292e+17
19574.0	4.7466551681133216e+17
19575.0	4.7458909659245216e+17
19576.0	4.745077147216555e+17
19577.0	4.7442353364227405e+17
19578.0	4.7434073283843405e+17
19579.0	4.7426028021568845e+17
19580.0	4.7417800139298125e+17
19581.0	4.740969634551124e+17
19582.0	4.740157797651796e+17
19583.0	4.739334675278506e+17
19584.0	4.73849761173777e+17
19585.0	4.737616405244585e+17
19586.0	4.7367636585021434e+17
19587.0	4.73599313060386e+17
19588.0	4.734876153195177e+17
19589.0	4.7343584055132154e+17
19590.0	4.733477620547582e+17
19591.0	4.732719393144832e+17
19592.0	4.731890206507008e+17
19593.0	4.731048352372053e+17
19594.0	4.730086987836074e+17
19595.0	4.729349915104596e+17
19596.0	4.728009285522773e+17
19597.0	4.72765728485103e+17
19598.0	4.726616236927658e+17
19599.0	4.726062826476883e+17
19600.0	4.725236519927807e+17
19601.0	4.724356624853674e+17
19602.0	4.723508517710506e+17
19603.0	4.7223837165267616e+17
19604.0	4.721829212061695e+17
19605.0	4.720874671658324e+17
19606.0	4.72022321795345e+17
19607.0	4.7193903319394976e+17
19608.0	4.7185393188427085e+17
19609.0	4.717683067060223e+17
19610.0	4.71687578517504e+17
19611.0	4.7160340435872416e+17
19612.0	4.715203536442708e+17
19613.0	4.7143586379421005e+17
19614.0	4.713501917096617e+17
19615.0	4.712681407774719e+17
19616.0	4.7117792500340045e+17
19617.0	4.711003451992746e+17
19618.0	4.70974850085683e+17
19619.0	4.7088314987752096e+17
19620.0	4.7080397428053325e+17
19621.0	4.707651025895423e+17
19622.0	4.7068154114867194e+17
19623.0	4.705975568520532e+17
19624.0	4.70512916566289e+17
19625.0	4.7042945865482234e+17
19626.0	4.703454855430143e+17
19627.0	4.7026093487554554e+17
19628.0	4.7016182312250016e+17
19629.0	4.700863550805332e+17
19630.0	4.699065390465023e+17
19631.0	4.6926409848149357e+17
19632.0	4.6984062318237005e+17
19633.0	4.6975377697232205e+17
19634.0	4.6967271072290125e+17
19635.0	4.6958623759619405e+17
19636.0	4.695039937959253e+17
19637.0	4.6939722317387085e+17
19638.0	4.6933523401714336e+17
19639.0	4.692509275979774e+17
19640.0	4.691522713463466e+17
19641.0	4.690237166277972e+17
19642.0	4.6899971542220794e+17
19643.0	4.689149057564672e+17
19644.0	4.6882629297547936e+17
19645.0	4.6872877631624525e+17
19646.0	4.686628456322389e+17
19647.0	4.6857914361227936e+17
19648.0	4.684950777364479e+17
19649.0	4.6841075125452794e+17
19650.0	4.683267991142398e+17
19651.0	4.6824229961727994e+17
19652.0	4.68158300221167e+17
19653.0	4.680742588820138e+17
19654.0	4.6799026074419194e+17
19655.0	4.6790578089055565e+17
