# Flux units: erg / (cm m2 s)
# Wavelength units: Angstrom
wave	flux
19000.0	5.870491729046186e+17
19001.0	5.869262565889363e+17
19002.0	5.868306949647017e+17
19003.0	5.867205426151423e+17
19004.0	5.866109603414015e+17
19005.0	5.86501479010577e+17
19006.0	5.863933130134868e+17
19007.0	5.862813595598847e+17
19008.0	5.861664942806356e+17
19009.0	5.860539312548521e+17
19010.0	5.858884406564179e+17
19011.0	5.858417310695423e+17
19012.0	5.856830184663721e+17
19013.0	5.856280184881151e+17
19014.0	5.855122051563519e+17
19015.0	5.854045524721664e+17
19016.0	5.852935308531028e+17
19017.0	5.851920458230442e+17
19018.0	5.850799343140863e+17
19019.0	5.849727051846995e+17
19020.0	5.848624832096937e+17
19021.0	5.847558414925823e+17
19022.0	5.846462341928276e+17
19023.0	5.845324723650559e+17
19024.0	5.844244250667689e+17
19025.0	5.843166839526742e+17
19026.0	5.842025790308351e+17
19027.0	5.840610999839401e+17
19028.0	5.839927082221568e+17
19029.0	5.83881361334818e+17
19030.0	5.837764992608937e+17
19031.0	5.836677687803904e+17
19032.0	5.835578843769514e+17
19033.0	5.834373055468883e+17
19034.0	5.833372665031338e+17
19035.0	5.832121932666196e+17
19036.0	5.802332988112883e+17
19037.0	5.830016917744298e+17
19038.0	5.829011148810921e+17
19039.0	5.827963784964778e+17
19040.0	5.826887829946368e+17
19041.0	5.825792470679551e+17
19042.0	5.824257999241213e+17
19043.0	5.823633161191423e+17
19044.0	5.82253047517457e+17
19045.0	5.821444453127508e+17
19046.0	5.82029412401152e+17
19047.0	5.819265168965631e+17
19048.0	5.817844721778687e+17
19049.0	5.816335255382697e+17
19050.0	5.815940493082623e+17
19051.0	5.810579790189901e+17
19052.0	5.813157912816298e+17
19053.0	5.812759937679359e+17
19054.0	5.811692765533524e+17
19055.0	5.810178544893953e+17
19056.0	5.809454195583658e+17
19057.0	5.808434881844563e+17
19058.0	5.806990952147625e+17
19059.0	5.806137314115583e+17
19060.0	5.80516347781666e+17
19061.0	5.804113126927018e+17
19062.0	5.803023483797504e+17
19063.0	5.801943422555475e+17
19064.0	5.800695763916116e+17
19065.0	5.799554726581588e+17
19066.0	5.798497814402388e+17
19067.0	5.797601332254035e+17
19068.0	5.796536041253546e+17
19069.0	5.795456592379903e+17
19070.0	5.794334969779539e+17
19071.0	5.793272605704191e+17
19072.0	5.792078032972457e+17
19073.0	5.791126474719232e+17
19074.0	5.790052974067712e+17
19075.0	5.788972622020607e+17
19076.0	5.787864911227561e+17
19077.0	5.786791349758634e+17
19078.0	5.785674167528105e+17
19079.0	5.784649244606463e+17
19080.0	5.783554975858687e+17
19081.0	5.782435113467903e+17
19082.0	5.781357463251625e+17
19083.0	5.780209561239551e+17
19084.0	5.778972427507028e+17
19085.0	5.778154905228628e+17
19086.0	5.776409507834538e+17
19087.0	5.775034222116863e+17
19088.0	5.774587618918399e+17
19089.0	5.773264342570324e+17
19090.0	5.772724455254697e+17
19091.0	5.77163885683234e+17
19092.0	5.77013805027601e+17
19093.0	5.769554082922495e+17
19094.0	5.768483630131882e+17
19095.0	5.767408344104959e+17
19096.0	5.766309880354132e+17
19097.0	5.765253779073706e+17
19098.0	5.764031201673215e+17
19099.0	5.762922323465556e+17
19100.0	5.761970517748393e+17
19101.0	5.7609349650623136e+17
19102.0	5.759718373632681e+17
19103.0	5.7588011779140256e+17
19104.0	5.7577307006566394e+17
19105.0	5.7563291103614285e+17
19106.0	5.7554434124677114e+17
19107.0	5.754389092368384e+17
19108.0	5.7532887880171514e+17
19109.0	5.750461572666705e+17
19110.0	5.751173165001385e+17
19111.0	5.750103342055422e+17
19112.0	5.749027795282602e+17
19113.0	5.748063698157567e+17
19114.0	5.746930216162643e+17
19115.0	5.745789522761045e+17
19116.0	5.7448231404393805e+17
19117.0	5.7437485157143885e+17
19118.0	5.7424730250717856e+17
19119.0	5.732012707020784e+17
19120.0	5.7402986063025485e+17
19121.0	5.739319955641684e+17
19122.0	5.7384243396171085e+17
19123.0	5.737354886468947e+17
19124.0	5.736146551526741e+17
19125.0	5.7352020690643616e+17
19126.0	5.7341232870850554e+17
19127.0	5.730664545867092e+17
19128.0	5.731796645838847e+17
19129.0	5.730826550160041e+17
19130.0	5.729845074635434e+17
19131.0	5.7287939401099936e+17
19132.0	5.727723117521577e+17
19133.0	5.726550951460863e+17
19134.0	5.7254913192755194e+17
19135.0	5.724509902471166e+17
19136.0	5.7234549588186445e+17
19137.0	5.7221701756955296e+17
19138.0	5.721297008984063e+17
19139.0	5.7202522658788685e+17
19140.0	5.719187259391999e+17
19141.0	5.718120321428138e+17
19142.0	5.7170120765603834e+17
19143.0	5.715906359459839e+17
19144.0	5.714869835792383e+17
19145.0	5.713853644712618e+17
19146.0	5.711974991484245e+17
19147.0	5.711592700248063e+17
19148.0	5.710527709140309e+17
19149.0	5.7094388307722234e+17
19150.0	5.708513970662058e+17
19151.0	5.7074511494075725e+17
19152.0	5.706361007155881e+17
19153.0	5.705065151070207e+17
19154.0	5.704066771801428e+17
19155.0	5.7031856121446394e+17
19156.0	5.702121081711274e+17
19157.0	5.7009050516193274e+17
19158.0	5.698624259009193e+17
19159.0	5.6988747309602125e+17
19160.0	5.697825982294698e+17
19161.0	5.696759143596031e+17
19162.0	5.692804740502872e+17
19163.0	5.694518436648277e+17
19164.0	5.6936066348045645e+17
19165.0	5.6922249954153805e+17
19166.0	5.6912492821654176e+17
19167.0	5.6901539173061965e+17
19168.0	5.689351377780736e+17
19169.0	5.688250127613951e+17
19170.0	5.6872446599714125e+17
19171.0	5.6860096506538656e+17
19172.0	5.6850993028355405e+17
19173.0	5.684057937543167e+17
19174.0	5.6829284792838816e+17
19175.0	5.6819467933450234e+17
19176.0	5.680884082540544e+17
19177.0	5.679624228962302e+17
19178.0	5.678674356819285e+17
19179.0	5.6774528965017594e+17
19180.0	5.676622726998698e+17
19181.0	5.675399988816553e+17
19182.0	5.6745028327833594e+17
19183.0	5.6734718448981325e+17
19184.0	5.672404978936489e+17
19185.0	5.6713386757106336e+17
19186.0	5.670291911649962e+17
19187.0	5.669144422077781e+17
19188.0	5.6681696036126714e+17
19189.0	5.667111687596713e+17
19190.0	5.6660372795774285e+17
19191.0	5.6649259085550925e+17
19192.0	5.663938298860885e+17
19193.0	5.66283281244706e+17
19194.0	5.6617424409067514e+17
19195.0	5.660743767337641e+17
19196.0	5.6596412714625696e+17
19197.0	5.658540745512277e+17
19198.0	5.657245960372223e+17
19199.0	5.638522352435194e+17
19200.0	5.6426518872937875e+17
19201.0	5.6541175702268576e+17
19202.0	5.653277242119508e+17
19203.0	5.652217934293673e+17
19204.0	5.6511929190973434e+17
19205.0	5.6501780149698554e+17
19206.0	5.6491264092842656e+17
19207.0	5.647945744864596e+17
19208.0	5.646713935101951e+17
19209.0	5.645969620205567e+17
19210.0	5.644914098438143e+17
19211.0	5.643877624403284e+17
19212.0	5.6428156469029536e+17
19213.0	5.641507872702462e+17
19214.0	5.6403745892379296e+17
19215.0	5.6395820384474445e+17
19216.0	5.638603048747006e+17
19217.0	5.637536391102463e+17
19218.0	5.635404260005202e+17
19219.0	5.635241935547049e+17
19220.0	5.634347572920319e+17
19221.0	5.6329073041517216e+17
19222.0	5.632267256157524e+17
19223.0	5.631201790394367e+17
19224.0	5.630117727786324e+17
19225.0	5.6289282350557856e+17
19226.0	5.628042037340841e+17
19227.0	5.626988940580181e+17
19228.0	5.625969045929983e+17
19229.0	5.6249149152733856e+17
19230.0	5.6238510957745485e+17
19231.0	5.6227926512762874e+17
19232.0	5.621744439481685e+17
19233.0	5.62060889039394e+17
19234.0	5.619620393604436e+17
19235.0	5.6185546705906336e+17
19236.0	5.6175461313194656e+17
19237.0	5.616473064778409e+17
19238.0	5.61529369010722e+17
19239.0	5.614391923834879e+17
19240.0	5.613327793957545e+17
19241.0	5.612257188074837e+17
19242.0	5.611215524986879e+17
19243.0	5.609972466100906e+17
19244.0	5.609134045003774e+17
19245.0	5.608074484121599e+17
19246.0	5.6070069330903034e+17
19247.0	5.6059665087201274e+17
19248.0	5.604921181208575e+17
19249.0	5.603851323310079e+17
19250.0	5.602743600633173e+17
19251.0	5.6015747459754656e+17
19252.0	5.600350832689151e+17
19253.0	5.599633473885524e+17
19254.0	5.59861549043985e+17
19255.0	5.597320095727615e+17
19256.0	5.5964772167843834e+17
19257.0	5.595462650298367e+17
19258.0	5.594409850634238e+17
19259.0	5.5932618542503245e+17
19260.0	5.5916727401185254e+17
19261.0	5.591234522032809e+17
19262.0	5.5901204526749e+17
19263.0	5.589057579690666e+17
19264.0	5.587344205807613e+17
19265.0	5.586763965093204e+17
19266.0	5.5856206642326176e+17
19267.0	5.5849036200017914e+17
19268.0	5.583744136118271e+17
19269.0	5.5826958488261965e+17
19270.0	5.5816413413812896e+17
19271.0	5.58012486909952e+17
19272.0	5.579493659901951e+17
19273.0	5.577843587153919e+17
19274.0	5.576773985807017e+17
19275.0	5.576383469540692e+17
19276.0	5.57530446246707e+17
19277.0	5.574258575015934e+17
19278.0	5.573200683466751e+17
19279.0	5.572125138092031e+17
19280.0	5.570986713109843e+17
19281.0	5.5700345571682976e+17
19282.0	5.568995243589631e+17
19283.0	5.567699911791956e+17
19284.0	5.5667852990655136e+17
19285.0	5.5656021586083834e+17
19286.0	5.564718113270442e+17
19287.0	5.5636849492404896e+17
19288.0	5.554983467133602e+17
19289.0	5.542198343543432e+17
19290.0	5.560509069088084e+17
19291.0	5.55915785797632e+17
19292.0	5.558439433819477e+17
19293.0	5.5573756108253856e+17
19294.0	5.556314302316543e+17
19295.0	5.555270991566165e+17
19296.0	5.5540497311771296e+17
19297.0	5.5530825805987834e+17
19298.0	5.5520518422746445e+17
19299.0	5.5508542153905485e+17
19300.0	5.5499577688937805e+17
19301.0	5.5489014858601805e+17
19302.0	5.5478290911068154e+17
19303.0	5.5466725984610976e+17
19304.0	5.545675371926868e+17
19305.0	5.5446282394664954e+17
19306.0	5.543561987271337e+17
19307.0	5.5424341368285856e+17
19308.0	5.541391588043434e+17
19309.0	5.539715619662505e+17
19310.0	5.538417687396351e+17
19311.0	5.5381126999790925e+17
19312.0	5.5371497856477856e+17
19313.0	5.536066930999296e+17
19314.0	5.4915455719396614e+17
19315.0	5.4942107767057715e+17
19316.0	5.5325675959091194e+17
19317.0	5.531793309914453e+17
19318.0	5.530726945172138e+17
19319.0	5.5296801622370976e+17
19320.0	5.5284714127578445e+17
19321.0	5.5271919745761274e+17
19322.0	5.52611193430562e+17
19323.0	5.524896737482069e+17
19324.0	5.524036223587669e+17
19325.0	5.522394466746367e+17
19326.0	5.5218914403723936e+17
19327.0	5.5208110449841485e+17
19328.0	5.5194602896534176e+17
19329.0	5.5184423998805325e+17
19330.0	5.517300130119679e+17
19331.0	5.516197771957588e+17
19332.0	5.515157000159231e+17
19333.0	5.5140409133410976e+17
19334.0	5.512961000297813e+17
19335.0	5.5112981999342925e+17
19336.0	5.510747359892821e+17
19337.0	5.509657898516479e+17
19338.0	5.5082779738985805e+17
19339.0	5.507437034121898e+17
19340.0	5.5061132544573434e+17
19341.0	5.504953588121599e+17
19342.0	5.5032820740915174e+17
19343.0	5.502705991330474e+17
19344.0	5.5013705452093434e+17
19345.0	5.497541600040271e+17
19346.0	5.4981845483956896e+17
19347.0	5.4978425252741114e+17
19348.0	5.497075633837396e+17
19349.0	5.495880975821481e+17
19350.0	5.4946478175901e+17
19351.0	5.49359302423347e+17
19352.0	5.492108938270036e+17
19353.0	5.4913437273511245e+17
19354.0	5.4900862246802765e+17
19355.0	5.488536058855424e+17
19356.0	5.487493601645908e+17
19357.0	5.486323587263145e+17
19358.0	5.485131417168553e+17
19359.0	5.4838312842909e+17
19360.0	5.4824933670256634e+17
19361.0	5.481518552754859e+17
19362.0	5.480374078887252e+17
19363.0	5.478766738407423e+17
19364.0	5.4774825026409805e+17
19365.0	5.4762600238066336e+17
19366.0	5.4750294017310714e+17
19367.0	5.473792121896958e+17
19368.0	5.472547292315647e+17
19369.0	5.4708239723397114e+17
19370.0	5.4693598659433805e+17
19371.0	5.46803051204881e+17
19372.0	5.4664639870402554e+17
19373.0	5.4651420780352845e+17
19374.0	5.46356139864883e+17
19375.0	5.4621815739951763e+17
19376.0	5.460858146652158e+17
19377.0	5.459502627990185e+17
19378.0	5.4581533672297805e+17
19379.0	5.4567886497600845e+17
19380.0	5.4554067482269e+17
19381.0	5.454000909800787e+17
19382.0	5.4524928303213216e+17
19383.0	5.451014365424298e+17
19384.0	5.4496963745983136e+17
19385.0	5.448090730714453e+17
19386.0	5.44605291483409e+17
19387.0	5.4445378098954234e+17
19388.0	5.4429977341678925e+17
19389.0	5.4414266212898125e+17
19390.0	5.4397853859403085e+17
19391.0	5.4119175283889094e+17
19392.0	5.436050886710611e+17
19393.0	5.43415545556719e+17
19394.0	5.432006754871977e+17
19395.0	5.430151669437781e+17
19396.0	5.428434664685568e+17
19397.0	5.4266852994798925e+17
19398.0	5.423891990183935e+17
19399.0	5.420303063362217e+17
19400.0	5.419293104319147e+17
19401.0	5.417423251439615e+17
19402.0	5.413552784758098e+17
19403.0	5.4112150069357216e+17
19404.0	5.408794060958374e+17
19405.0	5.404181308025513e+17
19406.0	5.401829854674943e+17
19407.0	5.3966905005834214e+17
19408.0	5.3925700163338246e+17
19409.0	5.38718494383582e+17
19410.0	5.382359889914542e+17
19411.0	5.376323458083498e+17
19412.0	5.3679896920064e+17
19413.0	5.361999282175995e+17
19414.0	5.357847147708416e+17
19415.0	5.354108096959828e+17
19416.0	5.3496185286382925e+17
19417.0	5.345813340706133e+17
19418.0	5.342238736034475e+17
19419.0	5.3372559755837434e+17
19420.0	5.3328384080827725e+17
19421.0	5.3277578805029555e+17
19422.0	5.3221783223227725e+17
19423.0	5.315755138613247e+17
19424.0	5.30892485296128e+17
19425.0	5.3005032637508294e+17
19426.0	5.289858687128911e+17
19427.0	5.2763487759237037e+17
19428.0	5.25641038849639e+17
19429.0	5.231446851583986e+17
19430.0	5.214694402250071e+17
19431.0	5.199277439582214e+17
19432.0	5.191160742718121e+17
19433.0	5.17763126858001e+17
19434.0	5.163422468188842e+17
19435.0	5.1480317024447123e+17
19436.0	5.1310837307364666e+17
19437.0	5.1169631505394336e+17
19438.0	5.058038455074819e+17
19439.0	5.082403388609879e+17
19440.0	5.06561484099857e+17
19441.0	5.046186950000639e+17
19442.0	5.0230584888961715e+17
19443.0	4.9885138774917075e+17
19444.0	4.923636577555787e+17
19445.0	4.853846836073814e+17
19446.0	4.800410962711891e+17
19447.0	4.7358479657424115e+17
19448.0	4.633027273555976e+17
19449.0	4.4491052738587245e+17
19450.0	4.0617106266740717e+17
19451.0	3.848293507399707e+17
19452.0	4.2976899445555194e+17
19453.0	4.5522906544865286e+17
19454.0	4.68863119733554e+17
19455.0	4.764715905449984e+17
19456.0	4.820103925334017e+17
19457.0	4.8746446007391443e+17
19458.0	4.840005555978422e+17
19459.0	4.992031041170115e+17
19460.0	5.0194962511298515e+17
19461.0	5.038659515099817e+17
19462.0	5.0552578447332685e+17
19463.0	5.070994583934292e+17
19464.0	5.0856092209861965e+17
19465.0	5.099906965787988e+17
19466.0	5.113692491000489e+17
19467.0	5.12697574621184e+17
19468.0	5.139531463742805e+17
19469.0	5.150937407903059e+17
19470.0	5.162508799180798e+17
19471.0	5.172381673499306e+17
19472.0	5.18270975842713e+17
19473.0	5.203273518678003e+17
19474.0	5.223591962476536e+17
19475.0	5.237269382299642e+17
19476.0	5.2479384781236883e+17
19477.0	5.255027318150487e+17
19478.0	5.260858498919081e+17
19479.0	5.2655013788385274e+17
19480.0	5.268876020766037e+17
19481.0	5.2729100380405754e+17
19482.0	5.2751782889826976e+17
19483.0	5.2781638141433165e+17
19484.0	5.2804696803027616e+17
19485.0	5.28226369806882e+17
19486.0	5.2839418293125114e+17
19487.0	5.2863971713788576e+17
19488.0	5.2879078674049696e+17
19489.0	5.291488022538919e+17
19490.0	5.2943971176939475e+17
19491.0	5.300521484506447e+17
19492.0	5.3052649857788576e+17
19493.0	5.3084526526245555e+17
19494.0	5.3107268944308896e+17
19495.0	5.313212174740139e+17
19496.0	5.314111701254142e+17
19497.0	5.3157742744261946e+17
19498.0	5.315128137001646e+17
19499.0	5.2757518062277664e+17
19500.0	5.318843986957653e+17
19501.0	5.319946212300117e+17
19502.0	5.3199412294669645e+17
19503.0	5.31992211043123e+17
19504.0	5.320937269013161e+17
19505.0	5.3210620418676045e+17
19506.0	5.320883205133652e+17
19507.0	5.320612829812052e+17
19508.0	5.320371616787113e+17
19509.0	5.320646605144062e+17
19510.0	5.320302174491987e+17
19511.0	5.244803690266566e+17
19512.0	5.3137615209103206e+17
19513.0	5.3076171151114035e+17
19514.0	5.310662873273674e+17
19515.0	5.3178020197826566e+17
19516.0	5.318182305442474e+17
19517.0	5.318056432282281e+17
19518.0	5.31779192828723e+17
19519.0	5.317214153823572e+17
19520.0	5.3164805113337165e+17
19521.0	5.316147035504638e+17
19522.0	5.3154657554049696e+17
19523.0	5.314864408253781e+17
19524.0	5.3141336367650125e+17
19525.0	5.3136263147246925e+17
19526.0	5.3129872293232634e+17
19527.0	5.312306112102398e+17
19528.0	5.311625718398975e+17
19529.0	5.3112305625333754e+17
19530.0	5.310571876450303e+17
19531.0	5.309856472891391e+17
19532.0	5.3093386699844256e+17
19533.0	5.3087842256377165e+17
19534.0	5.3085682322636794e+17
19535.0	5.30780769100322e+17
19536.0	5.3070197127031456e+17
19537.0	5.306302089658367e+17
19538.0	5.3051999440076794e+17
19539.0	5.303965769356631e+17
19540.0	5.3040841906367123e+17
19541.0	5.303542031406421e+17
19542.0	5.302762839474175e+17
19543.0	5.301768140008106e+17
19544.0	5.301152300138496e+17
19545.0	5.2997058559563066e+17
19546.0	5.298270461668011e+17
19547.0	5.2987093704157856e+17
19548.0	5.297881713300821e+17
19549.0	5.296959787106303e+17
19550.0	5.296532152647678e+17
19551.0	5.2956917350618445e+17
19552.0	5.294842511534762e+17
19553.0	5.293960682187434e+17
19554.0	5.293080703926271e+17
19555.0	5.292233403487572e+17
19556.0	5.291401443715754e+17
19557.0	5.2905440573740365e+17
19558.0	5.28967832436736e+17
19559.0	5.2888113617305594e+17
19560.0	5.287829417142953e+17
19561.0	5.2870278150444365e+17
19562.0	5.2861007270597965e+17
19563.0	5.285307067574954e+17
19564.0	5.284614868303871e+17
19565.0	5.283778473055573e+17
19566.0	5.2828495116151456e+17
19567.0	5.2819998267146234e+17
19568.0	5.281077197275135e+17
19569.0	5.280209957115221e+17
19570.0	5.27935383605521e+17
19571.0	5.278451227426815e+17
19572.0	5.2775135949619194e+17
19573.0	5.2766072687820794e+17
19574.0	5.2756261588609696e+17
19575.0	5.2748532975315616e+17
19576.0	5.2739278851713696e+17
19577.0	5.2729700906871443e+17
19578.0	5.272076963282943e+17
19579.0	5.2711861700089165e+17
19580.0	5.2702780864157e+17
19581.0	5.2693779468342605e+17
19582.0	5.268489303840085e+17
19583.0	5.26757531816209e+17
19584.0	5.266646396567551e+17
19585.0	5.265593526998356e+17
19586.0	5.264631457120256e+17
19587.0	5.2637959895121914e+17
19588.0	5.2623528238776326e+17
19589.0	5.262036418865834e+17
19590.0	5.26098243990323e+17
19591.0	5.260331913139541e+17
19592.0	5.259663515844607e+17
19593.0	5.258696981828949e+17
19594.0	5.2574704366168723e+17
19595.0	5.256855812396372e+17
19596.0	5.255534639491754e+17
19597.0	5.2550211616112634e+17
19598.0	5.2534805951501645e+17
19599.0	5.2531811190483616e+17
19600.0	5.2522664811560954e+17
19601.0	5.2512474267647994e+17
19602.0	5.2503370202262176e+17
19603.0	5.248640538203476e+17
19604.0	5.2484552904758605e+17
19605.0	5.2472197729484794e+17
19606.0	5.246680436484777e+17
19607.0	5.245760971647657e+17
19608.0	5.2448062865407994e+17
19609.0	5.243826599187796e+17
19610.0	5.242861672988671e+17
19611.0	5.241872440098816e+17
19612.0	5.2411015207321594e+17
19613.0	5.240154616059221e+17
19614.0	5.239182624555007e+17
19615.0	5.238294730943145e+17
19616.0	5.237030291592533e+17
19617.0	5.2362668506699085e+17
19618.0	5.234689907709268e+17
19619.0	5.233524130272595e+17
19620.0	5.232636577797459e+17
19621.0	5.23247703695906e+17
19622.0	5.2317561095017805e+17
19623.0	5.230808684036094e+17
19624.0	5.22983766561041e+17
19625.0	5.228945732883796e+17
19626.0	5.2280001626985805e+17
19627.0	5.2270537200981325e+17
19628.0	5.225664047917738e+17
19629.0	5.224498395611135e+17
19630.0	5.222756804547926e+17
19631.0	5.203655300306259e+17
19632.0	5.222227607814143e+17
19633.0	5.2213285133134496e+17
19634.0	5.2205030211584e+17
19635.0	5.2194985342839443e+17
19636.0	5.218404001994068e+17
19637.0	5.2170423149090125e+17
19638.0	5.216735533727743e+17
19639.0	5.2158194753645216e+17
19640.0	5.2147721443737594e+17
19641.0	5.212380184532313e+17
19642.0	5.212993076505257e+17
19643.0	5.2120474524931405e+17
19644.0	5.211060965474303e+17
19645.0	5.2098310620228256e+17
19646.0	5.2090246972921165e+17
19647.0	5.208331425677311e+17
19648.0	5.2073956247251616e+17
19649.0	5.2064540335363405e+17
19650.0	5.205526241607679e+17
19651.0	5.204580607109802e+17
19652.0	5.203640565716309e+17
19653.0	5.202700780175359e+17
19654.0	5.201765606271658e+17
19655.0	5.200823141269503e+17
19656.0	5.1998915479033165e+17
19657.0	5.1989546403539616e+17
