# Flux units: erg / (cm m2 s)
# Wavelength units: Angstrom
wave	flux
19000.0	4.849434305931945e+17
19001.0	4.84838736990481e+17
19002.0	4.847653479951019e+17
19003.0	4.8467533298838176e+17
19004.0	4.8458555335202125e+17
19005.0	4.844953059808596e+17
19006.0	4.8440716456973645e+17
19007.0	4.843176486851924e+17
19008.0	4.8421881068038803e+17
19009.0	4.841245639704575e+17
19010.0	4.8396583801541946e+17
19011.0	4.8395493324445e+17
19012.0	4.838372708537685e+17
19013.0	4.8378202425043616e+17
19014.0	4.836853940573523e+17
19015.0	4.8359608795791354e+17
19016.0	4.8350403829432314e+17
19017.0	4.834257507013972e+17
19018.0	4.8333385867373216e+17
19019.0	4.8324625035864736e+17
19020.0	4.8315590526020256e+17
19021.0	4.830694499592874e+17
19022.0	4.829796921333077e+17
19023.0	4.828856694691156e+17
19024.0	4.8279741250491725e+17
19025.0	4.827115839029247e+17
19026.0	4.8261835235437216e+17
19027.0	4.82516684382754e+17
19028.0	4.8244665264810656e+17
19029.0	4.823546999428437e+17
19030.0	4.822698020569087e+17
19031.0	4.821817374015487e+17
19032.0	4.820913921632939e+17
19033.0	4.819890835117396e+17
19034.0	4.8191259786171725e+17
19035.0	4.8181947795155616e+17
19036.0	4.8015259667005395e+17
19037.0	4.816460486541311e+17
19038.0	4.8155637974739616e+17
19039.0	4.8147077616981325e+17
19040.0	4.813827693958485e+17
19041.0	4.812927649447934e+17
19042.0	4.81152878055697e+17
19043.0	4.8111719410565114e+17
19044.0	4.8102673939606176e+17
19045.0	4.809389501666645e+17
19046.0	4.8084045238981965e+17
19047.0	4.8075996048042656e+17
19048.0	4.80630129505075e+17
19049.0	4.8046390196742803e+17
19050.0	4.8045325535586976e+17
19051.0	4.801586191313575e+17
19052.0	4.8025164767559674e+17
19053.0	4.8019743923240954e+17
19054.0	4.801085956947968e+17
19055.0	4.7997016954197344e+17
19056.0	4.799234658970281e+17
19057.0	4.7984290960506874e+17
19058.0	4.797134042475178e+17
19059.0	4.7965080866433696e+17
19060.0	4.7957511406004896e+17
19061.0	4.794908774760447e+17
19062.0	4.7940173299711994e+17
19063.0	4.793138587631615e+17
19064.0	4.7920560622359885e+17
19065.0	4.791120681413289e+17
19066.0	4.7902647029596154e+17
19067.0	4.7895944161307296e+17
19068.0	4.7887315946700794e+17
19069.0	4.787852679664981e+17
19070.0	4.78692404957457e+17
19071.0	4.786076392620032e+17
19072.0	4.7850532355003725e+17
19073.0	4.784316841547092e+17
19074.0	4.7834499369314976e+17
19075.0	4.782569799286783e+17
19076.0	4.781656214863872e+17
19077.0	4.780780460266837e+17
19078.0	4.7798554708322976e+17
19079.0	4.779045151571966e+17
19080.0	4.7781464331605325e+17
19081.0	4.777221299022506e+17
19082.0	4.776343114525353e+17
19083.0	4.775401215055189e+17
19084.0	4.774343554891776e+17
19085.0	4.773753247148713e+17
19086.0	4.7721678344901965e+17
19087.0	4.771331352559615e+17
19088.0	4.770828614194517e+17
19089.0	4.769828928400043e+17
19090.0	4.7693481220505594e+17
19091.0	4.7684304139277645e+17
19092.0	4.7671865070933325e+17
19093.0	4.766758069425493e+17
19094.0	4.765878398746623e+17
19095.0	4.765005658456063e+17
19096.0	4.764101366513663e+17
19097.0	4.7632491531468794e+17
19098.0	4.76220126081843e+17
19099.0	4.7612958070538234e+17
19100.0	4.760570803432106e+17
19101.0	4.7597361180617363e+17
19102.0	4.7586562714282656e+17
19103.0	4.757990682918911e+17
19104.0	4.75712626622464e+17
19105.0	4.7558853184716794e+17
19106.0	4.7553067163320314e+17
19107.0	4.754378595150506e+17
19108.0	4.753494027621716e+17
19109.0	4.751840820330495e+17
19110.0	4.751859124972202e+17
19111.0	4.7508995465106765e+17
19112.0	4.7500126581336723e+17
19113.0	4.7492526404621645e+17
19114.0	4.7483132114370554e+17
19115.0	4.747395561335466e+17
19116.0	4.746611418027349e+17
19117.0	4.745734534463487e+17
19118.0	4.744719831662592e+17
19119.0	4.726741611664699e+17
19120.0	4.743018062719657e+17
19121.0	4.742196350331561e+17
19122.0	4.741412153196543e+17
19123.0	4.7405410395968845e+17
19124.0	4.739611421747882e+17
19125.0	4.738792090326357e+17
19126.0	4.737918333616127e+17
19127.0	4.7340268234123936e+17
19128.0	4.736083101919913e+17
19129.0	4.73520021770513e+17
19130.0	4.734419903097513e+17
19131.0	4.733570674677076e+17
19132.0	4.732700604760064e+17
19133.0	4.731723224973311e+17
19134.0	4.7309182219933005e+17
19135.0	4.7300895715273376e+17
19136.0	4.729231715423573e+17
19137.0	4.7280925047084365e+17
19138.0	4.727469270979924e+17
19139.0	4.726625910390783e+17
19140.0	4.7257597243992736e+17
19141.0	4.7248916740396365e+17
19142.0	4.723983617010346e+17
19143.0	4.723057401440938e+17
19144.0	4.722231066929834e+17
19145.0	4.721416281434793e+17
19146.0	4.719593718633814e+17
19147.0	4.7195141806489594e+17
19148.0	4.7186772925699405e+17
19149.0	4.7177874688791885e+17
19150.0	4.71707246797346e+17
19151.0	4.716214137214292e+17
19152.0	4.715336704895658e+17
19153.0	4.714194142232576e+17
19154.0	4.713381074305023e+17
19155.0	4.712755656043177e+17
19156.0	4.711890166306132e+17
19157.0	4.7109165320328525e+17
19158.0	4.7093723500817056e+17
19159.0	4.7092644299407354e+17
19160.0	4.7084091952769696e+17
19161.0	4.7075540878404256e+17
19162.0	4.705277593692843e+17
19163.0	4.7058111720762016e+17
19164.0	4.704973969424382e+17
19165.0	4.7037716547065165e+17
19166.0	4.702990006310228e+17
19167.0	4.7022551880171514e+17
19168.0	4.701511517645483e+17
19169.0	4.700621702343338e+17
19170.0	4.699799370596351e+17
19171.0	4.698839677490517e+17
19172.0	4.6980685267380896e+17
19173.0	4.697209134120959e+17
19174.0	4.6962486755546445e+17
19175.0	4.695484439811413e+17
19176.0	4.694623658180608e+17
19177.0	4.693525286005417e+17
19178.0	4.692873009517908e+17
19179.0	4.691913113687381e+17
19180.0	4.6911664373978445e+17
19181.0	4.690066708365311e+17
19182.0	4.6894257481099936e+17
19183.0	4.6886033401664845e+17
19184.0	4.687732757845332e+17
19185.0	4.686862183912789e+17
19186.0	4.686019885880661e+17
19187.0	4.6850704953835514e+17
19188.0	4.6842972831307085e+17
19189.0	4.683444341353129e+17
19190.0	4.6825791487126176e+17
19191.0	4.6816702332491085e+17
19192.0	4.680869029609471e+17
19193.0	4.6799631557154125e+17
19194.0	4.679076958000468e+17
19195.0	4.678289469035861e+17
19196.0	4.6774034516759885e+17
19197.0	4.676555780740436e+17
19198.0	4.6756870732731725e+17
19199.0	4.666508748434088e+17
19200.0	4.668388263591938e+17
19201.0	4.6731175881168205e+17
19202.0	4.672283661915476e+17
19203.0	4.671406363115519e+17
19204.0	4.670528183511723e+17
19205.0	4.669705338661546e+17
19206.0	4.6688333218884256e+17
19207.0	4.667826590362281e+17
19208.0	4.6667342209351674e+17
19209.0	4.6662757723231565e+17
19210.0	4.665424386632362e+17
19211.0	4.6645893643195725e+17
19212.0	4.66372894269986e+17
19213.0	4.662692211414357e+17
19214.0	4.6617698643913376e+17
19215.0	4.661137478691497e+17
19216.0	4.6603134405618336e+17
19217.0	4.659449725015381e+17
19218.0	4.6572681235005414e+17
19219.0	4.6575405861874336e+17
19220.0	4.6568562393524896e+17
19221.0	4.65551221657873e+17
19222.0	4.6551782849686176e+17
19223.0	4.654299523055615e+17
19224.0	4.653415374258175e+17
19225.0	4.6523865660129274e+17
19226.0	4.6517402650105165e+17
19227.0	4.650892519276543e+17
19228.0	4.65007358841105e+17
19229.0	4.6492198133650765e+17
19230.0	4.648354397028351e+17
19231.0	4.647496951966377e+17
19232.0	4.646650181408085e+17
19233.0	4.6457057024409594e+17
19234.0	4.6449208377125536e+17
19235.0	4.644058467838634e+17
19236.0	4.6432548322017274e+17
19237.0	4.642374384178517e+17
19238.0	4.641392791912447e+17
19239.0	4.6407050931295565e+17
19240.0	4.6398374670936736e+17
19241.0	4.6389680430994765e+17
19242.0	4.6381278016744096e+17
19243.0	4.637068074418175e+17
19244.0	4.636453203432787e+17
19245.0	4.6355949768321696e+17
19246.0	4.634724542709759e+17
19247.0	4.633889831474517e+17
19248.0	4.6330515103416314e+17
19249.0	4.6321864945609376e+17
19250.0	4.6312685746257914e+17
19251.0	4.630266384132778e+17
19252.0	4.6292602027595085e+17
19253.0	4.628761277715797e+17
19254.0	4.627957109402282e+17
19255.0	4.62684532454195e+17
19256.0	4.626206273394005e+17
19257.0	4.625410267895124e+17
19258.0	4.6245637818504525e+17
19259.0	4.623615302216362e+17
19260.0	4.6225029210658125e+17
19261.0	4.621999951314943e+17
19262.0	4.6210828066269856e+17
19263.0	4.6202158943218336e+17
19264.0	4.618522395847337e+17
19265.0	4.618273556878675e+17
19266.0	4.617200210717355e+17
19267.0	4.616936956624896e+17
19268.0	4.61607969820945e+17
19269.0	4.615237222618453e+17
19270.0	4.614392937185279e+17
19271.0	4.612956173456726e+17
19272.0	4.6126458403990176e+17
19273.0	4.611013129273342e+17
19274.0	4.610224714066601e+17
19275.0	4.610163668069033e+17
19276.0	4.609285737327274e+17
19277.0	4.6084496650403834e+17
19278.0	4.60760092315921e+17
19279.0	4.606736997897557e+17
19280.0	4.605777764767061e+17
19281.0	4.6050593154443936e+17
19282.0	4.604241559683071e+17
19283.0	4.6032709935431674e+17
19284.0	4.6024935653157536e+17
19285.0	4.601439090726228e+17
19286.0	4.6008016334138016e+17
19287.0	4.600009095905279e+17
19288.0	4.5947928154821926e+17
19289.0	4.587882049525059e+17
19290.0	4.597474201873066e+17
19291.0	4.5962565674598406e+17
19292.0	4.5957897162588154e+17
19293.0	4.594933567236778e+17
19294.0	4.594082291995989e+17
19295.0	4.593255487722836e+17
19296.0	4.5922379195132576e+17
19297.0	4.5914872705187834e+17
19298.0	4.5906734014791674e+17
19299.0	4.589684331468117e+17
19300.0	4.589005149219497e+17
19301.0	4.58817518244113e+17
19302.0	4.587312669960874e+17
19303.0	4.5863731290876576e+17
19304.0	4.585595365315925e+17
19305.0	4.5847741758177274e+17
19306.0	4.5839419385227936e+17
19307.0	4.5830265540444166e+17
19308.0	4.5822180802778445e+17
19309.0	4.581084673780393e+17
19310.0	4.5801305716817914e+17
19311.0	4.5796457765492045e+17
19312.0	4.5788665811217056e+17
19313.0	4.578035790162602e+17
19314.0	4.542590881890319e+17
19315.0	4.5444548487632614e+17
19316.0	4.575247863556779e+17
19317.0	4.5746376957842765e+17
19318.0	4.5737931104583674e+17
19319.0	4.572970089447423e+17
19320.0	4.5720503016488954e+17
19321.0	4.571135138070528e+17
19322.0	4.570311154466815e+17
19323.0	4.5694490523293e+17
19324.0	4.568726924602026e+17
19325.0	4.5675928260444154e+17
19326.0	4.5670460383996576e+17
19327.0	4.566170570413397e+17
19328.0	4.5650359468687354e+17
19329.0	4.5645107214417914e+17
19330.0	4.563598282063872e+17
19331.0	4.562742146323797e+17
19332.0	4.5619603818850976e+17
19333.0	4.5610920008744954e+17
19334.0	4.5602495805085e+17
19335.0	4.5587767017253536e+17
19336.0	4.558545093656575e+17
19337.0	4.5577076875810125e+17
19338.0	4.556533469806591e+17
19339.0	4.5560043905133216e+17
19340.0	4.5547648967857485e+17
19341.0	4.553965816862036e+17
19342.0	4.552739744208212e+17
19343.0	4.5525950365259085e+17
19344.0	4.551504474144768e+17
19345.0	4.547272266918564e+17
19346.0	4.5481676935004134e+17
19347.0	4.5483513536839674e+17
19348.0	4.547903068569598e+17
19349.0	4.546993096141481e+17
19350.0	4.5460311213342714e+17
19351.0	4.5452653959140685e+17
19352.0	4.544033428165973e+17
19353.0	4.5436082599581005e+17
19354.0	4.5427546645681485e+17
19355.0	4.541739210986838e+17
19356.0	4.541023257275049e+17
19357.0	4.5401623085711354e+17
19358.0	4.539286530905428e+17
19359.0	4.538268683774634e+17
19360.0	4.537247028215808e+17
19361.0	4.536626110442153e+17
19362.0	4.535818821566463e+17
19363.0	4.534943817749844e+17
19364.0	4.53406554726946e+17
19365.0	4.5331839583955616e+17
19366.0	4.532311641030655e+17
19367.0	4.5314322066309114e+17
19368.0	4.530551737636181e+17
19369.0	4.5295857069370016e+17
19370.0	4.5286847291938125e+17
19371.0	4.52780759257361e+17
19372.0	4.526996520435711e+17
19373.0	4.526072288772096e+17
19374.0	4.525195333905066e+17
19375.0	4.5242973760607565e+17
19376.0	4.522842140617385e+17
19377.0	4.5219085123147085e+17
19378.0	4.5210027383848954e+17
19379.0	4.520092433208661e+17
19380.0	4.519173970810197e+17
19381.0	4.518242568983892e+17
19382.0	4.5172147128456525e+17
19383.0	4.5162103210420896e+17
19384.0	4.5154276380508154e+17
19385.0	4.5145000768088736e+17
19386.0	4.513556837957631e+17
19387.0	4.512599650948436e+17
19388.0	4.5110638988492794e+17
19389.0	4.5099227384818336e+17
19390.0	4.5089366352418125e+17
19391.0	4.493291719142036e+17
19392.0	4.506739034554365e+17
19393.0	4.5059464446170445e+17
19394.0	4.50491389645073e+17
19395.0	4.503164285878272e+17
19396.0	4.5018795761554765e+17
19397.0	4.500876828519082e+17
19398.0	4.499675135956309e+17
19399.0	4.4972854990602234e+17
19400.0	4.496369151989076e+17
19401.0	4.495018906965334e+17
19402.0	4.493892746827091e+17
19403.0	4.4922503091104416e+17
19404.0	4.490146428048725e+17
19405.0	4.488910342193151e+17
19406.0	4.486742249133396e+17
19407.0	4.4846482554443085e+17
19408.0	4.481711881934166e+17
19409.0	4.4811117259653126e+17
19410.0	4.4797597410044576e+17
19411.0	4.478345147667796e+17
19412.0	4.476879028704596e+17
19413.0	4.475276362077525e+17
19414.0	4.473701335913813e+17
19415.0	4.471648584815957e+17
19416.0	4.4697270909665274e+17
19417.0	4.468137087642282e+17
19418.0	4.4665230544513696e+17
19419.0	4.464670914816682e+17
19420.0	4.4621312553560736e+17
19421.0	4.4598558859810125e+17
19422.0	4.4576961871216634e+17
19423.0	4.4548510467140256e+17
19424.0	4.4519725161512954e+17
19425.0	4.448762421663061e+17
19426.0	4.445222594063019e+17
19427.0	4.440404831939243e+17
19428.0	4.435276174721022e+17
19429.0	4.4287891229463866e+17
19430.0	4.419264463940268e+17
19431.0	4.4051285214057805e+17
19432.0	4.3925771659509766e+17
19433.0	4.384740979944106e+17
19434.0	4.3775754519620256e+17
19435.0	4.3692124501879456e+17
19436.0	4.35988840334404e+17
19437.0	4.352008623139498e+17
19438.0	4.314083961252528e+17
19439.0	4.330510114007724e+17
19440.0	4.319936981062995e+17
19441.0	4.307442577965055e+17
19442.0	4.291395593786714e+17
19443.0	4.261791583786319e+17
19444.0	4.199675287917902e+17
19445.0	4.156978281228971e+17
19446.0	4.114663277767338e+17
19447.0	4.0702199481412256e+17
19448.0	3.986886350951762e+17
19449.0	3.825779544686587e+17
19450.0	3.41700276562605e+17
19451.0	3.205693548352849e+17
19452.0	3.682133461696538e+17
19453.0	3.905540458195648e+17
19454.0	4.040259029434371e+17
19455.0	4.087696697851904e+17
19456.0	4.129318827458561e+17
19457.0	4.168176685634899e+17
19458.0	4.118786565210265e+17
19459.0	4.264451398871755e+17
19460.0	4.286574561503911e+17
19461.0	4.298755498399062e+17
19462.0	4.30902339436544e+17
19463.0	4.3185835197071354e+17
19464.0	4.3271823441264634e+17
19465.0	4.3349778251120634e+17
19466.0	4.341992393801727e+17
19467.0	4.34874116804881e+17
19468.0	4.3547082897053005e+17
19469.0	4.359234914003625e+17
19470.0	4.369854756115788e+17
19471.0	4.382677660598272e+17
19472.0	4.3911255243270854e+17
19473.0	4.397071884877822e+17
19474.0	4.4012831688185165e+17
19475.0	4.4030132353324365e+17
19476.0	4.4064674194391034e+17
19477.0	4.4090702814685856e+17
19478.0	4.409868401595732e+17
19479.0	4.411396418699261e+17
19480.0	4.41220992143633e+17
19481.0	4.4125826056191994e+17
19482.0	4.4136011357224934e+17
19483.0	4.414163214401534e+17
19484.0	4.4143303972618234e+17
19485.0	4.414361491734527e+17
19486.0	4.4142094796718086e+17
19487.0	4.414572764419412e+17
19488.0	4.4150313318700365e+17
19489.0	4.4147532537091405e+17
19490.0	4.412141585039357e+17
19491.0	4.4145312547908256e+17
19492.0	4.414365037319508e+17
19493.0	4.4141033875483296e+17
19494.0	4.4147306058656416e+17
19495.0	4.41439660085521e+17
19496.0	4.414367655264254e+17
19497.0	4.4151860129082016e+17
19498.0	4.413266867869015e+17
19499.0	4.39205783491924e+17
19500.0	4.415214513203882e+17
19501.0	4.4147316097023994e+17
19502.0	4.4144044400093843e+17
19503.0	4.4150699397393056e+17
19504.0	4.414551498599082e+17
19505.0	4.413983484979882e+17
19506.0	4.4134250141013325e+17
19507.0	4.4128601406177274e+17
19508.0	4.413126299964755e+17
19509.0	4.412509974254932e+17
19510.0	4.411495363728725e+17
19511.0	4.3547988531172365e+17
19512.0	4.407036753565006e+17
19513.0	4.403019042346315e+17
19514.0	4.404509301626191e+17
19515.0	4.4079614109504864e+17
19516.0	4.408630912046421e+17
19517.0	4.407885718443348e+17
19518.0	4.407276591557291e+17
19519.0	4.406571926814719e+17
19520.0	4.4056937632890874e+17
19521.0	4.4052719295528954e+17
19522.0	4.4044894003527674e+17
19523.0	4.4038025439259296e+17
19524.0	4.402996381220864e+17
19525.0	4.4024246004176205e+17
19526.0	4.4017365828676256e+17
19527.0	4.400997999487659e+17
19528.0	4.4002634027936416e+17
19529.0	4.3995259952168954e+17
19530.0	4.399369015700138e+17
19531.0	4.398642185459028e+17
19532.0	4.3979093902185805e+17
19533.0	4.39717429649954e+17
19534.0	4.396431397180757e+17
19535.0	4.395669676621823e+17
19536.0	4.394891240363349e+17
19537.0	4.3942061839919776e+17
19538.0	4.3930675863442784e+17
19539.0	4.391735334185645e+17
19540.0	4.3919277513768954e+17
19541.0	4.391168179699712e+17
19542.0	4.3904369845862394e+17
19543.0	4.3894806371368954e+17
19544.0	4.388939548153172e+17
19545.0	4.387368049399123e+17
19546.0	4.385890182190421e+17
19547.0	4.3867070333801805e+17
19548.0	4.385946670377642e+17
19549.0	4.3850435206840314e+17
19550.0	4.3844273669406726e+17
19551.0	4.3836708004823034e+17
19552.0	4.382905690226687e+17
19553.0	4.3821040678557005e+17
19554.0	4.381304526558549e+17
19555.0	4.380568562521428e+17
19556.0	4.37983577636864e+17
19557.0	4.379078249414656e+17
19558.0	4.378313430663168e+17
19559.0	4.377550307109546e+17
19560.0	4.3766672893760845e+17
19561.0	4.375975703871487e+17
19562.0	4.375159669871955e+17
19563.0	4.3744833935769594e+17
19564.0	4.3737143183059616e+17
19565.0	4.3729406279024634e+17
19566.0	4.372124159093417e+17
19567.0	4.371403079243091e+17
19568.0	4.37060024471825e+17
19569.0	4.369826349492906e+17
19570.0	4.3690888545348256e+17
19571.0	4.3683075318961485e+17
19572.0	4.3674970805152416e+17
19573.0	4.3667143786495994e+17
19574.0	4.365860123355818e+17
19575.0	4.3652246814064634e+17
19576.0	4.364436533237077e+17
19577.0	4.3636027125923834e+17
19578.0	4.362831828178261e+17
19579.0	4.3622686708640416e+17
19580.0	4.361695889020244e+17
19581.0	4.3609333939131725e+17
19582.0	4.360189410366803e+17
19583.0	4.3594149845620045e+17
19584.0	4.35862716354833e+17
19585.0	4.3576930452111354e+17
19586.0	4.3568732461247155e+17
19587.0	4.356260314305877e+17
19588.0	4.3547357651927046e+17
19589.0	4.354731322725717e+17
19590.0	4.3537601540041376e+17
19591.0	4.353200117252095e+17
19592.0	4.3524313803216205e+17
19593.0	4.351612271198208e+17
19594.0	4.3504875545995923e+17
19595.0	4.3500506325538125e+17
19596.0	4.349113630632618e+17
19597.0	4.3485356674252794e+17
19598.0	4.3468074764642963e+17
19599.0	4.3469984452225696e+17
19600.0	4.3462342996568736e+17
19601.0	4.345353945306453e+17
19602.0	4.3446061575263565e+17
19603.0	4.343075500807507e+17
19604.0	4.3430559924005536e+17
19605.0	4.3418825456790195e+17
19606.0	4.3415710263323296e+17
19607.0	4.340805814015317e+17
19608.0	4.340005512850089e+17
19609.0	4.3391697257758714e+17
19610.0	4.33836724776687e+17
19611.0	4.3375294362419194e+17
19612.0	4.3369329901349536e+17
19613.0	4.3361421156679674e+17
19614.0	4.3353241851439776e+17
19615.0	4.33460156178978e+17
19616.0	4.333590721942868e+17
19617.0	4.3328656379303245e+17
19618.0	4.331249515976018e+17
19619.0	4.3302204364991123e+17
19620.0	4.329486006878206e+17
19621.0	4.3297322139211085e+17
19622.0	4.3291845314914976e+17
19623.0	4.328398974003882e+17
19624.0	4.32759023669521e+17
19625.0	4.326860709516628e+17
19626.0	4.326071405117438e+17
19627.0	4.3253106639284896e+17
19628.0	4.3243100267260595e+17
19629.0	4.323066216360617e+17
19630.0	4.32251021103377e+17
19631.0	4.312574255082153e+17
19632.0	4.3214227964777805e+17
19633.0	4.3205804844646394e+17
19634.0	4.3198937440802125e+17
19635.0	4.319032636691797e+17
19636.0	4.3180890252465485e+17
19637.0	4.3168533679090336e+17
19638.0	4.3167520265338874e+17
19639.0	4.316011032827221e+17
19640.0	4.315048605035178e+17
19641.0	4.3120210851048154e+17
19642.0	4.313681635224233e+17
19643.0	4.312900894195711e+17
19644.0	4.3120649680104096e+17
19645.0	4.310911956637012e+17
19646.0	4.3103500205643085e+17
19647.0	4.3098418142248954e+17
19648.0	4.309074934672042e+17
19649.0	4.308297227523413e+17
19650.0	4.307535083339775e+17
19651.0	4.306757751581353e+17
19652.0	4.305983108371796e+17
19653.0	4.3052154990100474e+17
19654.0	4.304440698514091e+17
19655.0	4.303659548540927e+17
