# Flux units: erg / (cm m2 s)
# Wavelength units: Angstrom
wave	flux
19000.0	4.8673791099098445e+17
19001.0	4.86631831380514e+17
19002.0	4.8655893395756365e+17
19003.0	4.864674020808022e+17
19004.0	4.863772983645526e+17
19005.0	4.862867494928383e+17
19006.0	4.861986039573162e+17
19007.0	4.861043630495061e+17
19008.0	4.86010373869841e+17
19009.0	4.859146203561983e+17
19010.0	4.857569694012755e+17
19011.0	4.8574291379923616e+17
19012.0	4.855494539739134e+17
19013.0	4.8557203114338976e+17
19014.0	4.8547550007569056e+17
19015.0	4.853858698963625e+17
19016.0	4.8529347567069856e+17
19017.0	4.8521458689419936e+17
19018.0	4.8511936088418976e+17
19019.0	4.850347705805482e+17
19020.0	4.8494411769009485e+17
19021.0	4.8485735124172794e+17
19022.0	4.847672638832639e+17
19023.0	4.846714614360745e+17
19024.0	4.84581015953954e+17
19025.0	4.8449187587904845e+17
19026.0	4.843967323570176e+17
19027.0	4.842410423790249e+17
19028.0	4.842321736630271e+17
19029.0	4.8413923851195725e+17
19030.0	4.8405425345440416e+17
19031.0	4.839663476932607e+17
19032.0	4.838752797065215e+17
19033.0	4.837727505743871e+17
19034.0	4.836952882107732e+17
19035.0	4.8359656876496205e+17
19036.0	4.7748343464809696e+17
19037.0	4.834236367022761e+17
19038.0	4.833375394551125e+17
19039.0	4.8325217348485114e+17
19040.0	4.831637109298517e+17
19041.0	4.8307337484916045e+17
19042.0	4.8282543548880186e+17
19043.0	4.82898193031714e+17
19044.0	4.828065773387776e+17
19045.0	4.827164382505642e+17
19046.0	4.826205022147924e+17
19047.0	4.825397214576639e+17
19048.0	4.823905292954282e+17
19049.0	4.82057850943351e+17
19050.0	4.822622286817961e+17
19051.0	4.8135865564310054e+17
19052.0	4.81965460492561e+17
19053.0	4.820076777701375e+17
19054.0	4.819204149957973e+17
19055.0	4.81751409290991e+17
19056.0	4.817226318217215e+17
19057.0	4.8165380546013856e+17
19058.0	4.8140805189140454e+17
19059.0	4.8141664161628154e+17
19060.0	4.813842211143679e+17
19061.0	4.813000418525183e+17
19062.0	4.812110630486015e+17
19063.0	4.81122857464627e+17
19064.0	4.810137856376832e+17
19065.0	4.8092034192725325e+17
19066.0	4.807924067773098e+17
19067.0	4.8076685864250016e+17
19068.0	4.8068049673475405e+17
19069.0	4.805920821346303e+17
19070.0	4.804990760299178e+17
19071.0	4.804113945941332e+17
19072.0	4.802671299002366e+17
19073.0	4.802373597091157e+17
19074.0	4.801503554437119e+17
19075.0	4.8006200921074336e+17
19076.0	4.799703067656191e+17
19077.0	4.798823889808042e+17
19078.0	4.797892761310549e+17
19079.0	4.797081887703039e+17
19080.0	4.7961792720841376e+17
19081.0	4.795249242494292e+17
19082.0	4.7943698199784096e+17
19083.0	4.7934216227607885e+17
19084.0	4.7923624841052154e+17
19085.0	4.791760896480596e+17
19086.0	4.789569681620991e+17
19087.0	4.787370451446442e+17
19088.0	4.788233425999187e+17
19089.0	4.787281923670015e+17
19090.0	4.787337337416362e+17
19091.0	4.786302492169558e+17
19092.0	4.784094764335104e+17
19093.0	4.784746245302953e+17
19094.0	4.783865138774015e+17
19095.0	4.782989449887743e+17
19096.0	4.7820808503951354e+17
19097.0	4.781226365812736e+17
19098.0	4.779699114868736e+17
19099.0	4.778713457623039e+17
19100.0	4.7784762536536736e+17
19101.0	4.7776718700325536e+17
19102.0	4.7766137687681696e+17
19103.0	4.775946945036287e+17
19104.0	4.775079972612778e+17
19105.0	4.772820969411928e+17
19106.0	4.773047148653226e+17
19107.0	4.772057234888019e+17
19108.0	4.7710547340165114e+17
19109.0	4.767042278959781e+17
19110.0	4.7697236604573e+17
19111.0	4.768523196825598e+17
19112.0	4.7675960382368403e+17
19113.0	4.767171946566996e+17
19114.0	4.7660445980426234e+17
19115.0	4.7651741632211616e+17
19116.0	4.764525697258837e+17
19117.0	4.7636436882554874e+17
19118.0	4.762448687704746e+17
19119.0	4.744659191114384e+17
19120.0	4.7605744315050656e+17
19121.0	4.759846352060414e+17
19122.0	4.759306244543829e+17
19123.0	4.758432830368426e+17
19124.0	4.75732425974306e+17
19125.0	4.756654263719253e+17
19126.0	4.75579866554914e+17
19127.0	4.751898659083604e+17
19128.0	4.7536394245679763e+17
19129.0	4.753071424929791e+17
19130.0	4.752289034141696e+17
19131.0	4.7514287942751565e+17
19132.0	4.7505615666981536e+17
19133.0	4.7495382508939936e+17
19134.0	4.7486344412965536e+17
19135.0	4.747928370064042e+17
19136.0	4.747081047954772e+17
19137.0	4.7459358065295354e+17
19138.0	4.745303979371178e+17
19139.0	4.744465439435434e+17
19140.0	4.7435958280956576e+17
19141.0	4.742723245091498e+17
19142.0	4.741800173152938e+17
19143.0	4.7408823273171616e+17
19144.0	4.7400542144211616e+17
19145.0	4.739233126285311e+17
19146.0	4.737395778562731e+17
19147.0	4.737327303054677e+17
19148.0	4.736091874306731e+17
19149.0	4.7351513911132166e+17
19150.0	4.7348758581957965e+17
19151.0	4.734013059803817e+17
19152.0	4.733092730940074e+17
19153.0	4.731246228449961e+17
19154.0	4.731060252311551e+17
19155.0	4.730528612395689e+17
19156.0	4.729670412358996e+17
19157.0	4.7283787400915635e+17
19158.0	4.724844745370279e+17
19159.0	4.727022314760874e+17
19160.0	4.726136040849407e+17
19161.0	4.725284909613055e+17
19162.0	4.7188314758840365e+17
19163.0	4.72346678927906e+17
19164.0	4.722711496491007e+17
19165.0	4.720600659176104e+17
19166.0	4.7206207988258125e+17
19167.0	4.7195963505595725e+17
19168.0	4.7192450901824845e+17
19169.0	4.7182757823337805e+17
19170.0	4.717529177347412e+17
19171.0	4.71629374090991e+17
19172.0	4.7157694969501e+17
19173.0	4.714914865567061e+17
19174.0	4.713973269484886e+17
19175.0	4.7132062466266445e+17
19176.0	4.712341757231104e+17
19177.0	4.7112367014324896e+17
19178.0	4.7104774373375994e+17
19179.0	4.709226533005994e+17
19180.0	4.70885499596527e+17
19181.0	4.707766211269971e+17
19182.0	4.7071069631501645e+17
19183.0	4.7062958162138445e+17
19184.0	4.7054249969145165e+17
19185.0	4.704548648124415e+17
19186.0	4.7037057761716896e+17
19187.0	4.7027400264908794e+17
19188.0	4.701965232286378e+17
19189.0	4.701100820485461e+17
19190.0	4.7002157915832314e+17
19191.0	4.6992857962468685e+17
19192.0	4.6985281826106016e+17
19193.0	4.697512571043839e+17
19194.0	4.696575937522346e+17
19195.0	4.695934333441366e+17
19196.0	4.695038261635753e+17
19197.0	4.6941724007028045e+17
19198.0	4.693229150666751e+17
19199.0	4.660355715650893e+17
19200.0	4.6697917427220595e+17
19201.0	4.690654299597482e+17
19202.0	4.689888101619028e+17
19203.0	4.6889420127382176e+17
19204.0	4.6881339940536314e+17
19205.0	4.687324643677524e+17
19206.0	4.686451087594836e+17
19207.0	4.6854419716068685e+17
19208.0	4.684346493501438e+17
19209.0	4.683885492655444e+17
19210.0	4.683027710651051e+17
19211.0	4.682193365019306e+17
19212.0	4.6813291279810554e+17
19213.0	4.680066138461525e+17
19214.0	4.679057467069781e+17
19215.0	4.678631511031807e+17
19216.0	4.6779005326240416e+17
19217.0	4.6770312365561165e+17
19218.0	4.674819043885054e+17
19219.0	4.6751112659380883e+17
19220.0	4.6744125046783994e+17
19221.0	4.673084300023125e+17
19222.0	4.6727438245997216e+17
19223.0	4.671866471972864e+17
19224.0	4.6709787153749325e+17
19225.0	4.6699456156576403e+17
19226.0	4.669297718023509e+17
19227.0	4.6684467741327354e+17
19228.0	4.6676245192813216e+17
19229.0	4.666767743210836e+17
19230.0	4.66588614455023e+17
19231.0	4.6650279144543565e+17
19232.0	4.6641838310468256e+17
19233.0	4.663233625456639e+17
19234.0	4.662451508696405e+17
19235.0	4.6615869144432634e+17
19236.0	4.660780237236906e+17
19237.0	4.659896412099924e+17
19238.0	4.658870500021587e+17
19239.0	4.6582201522148685e+17
19240.0	4.65734903931426e+17
19241.0	4.6564734531884365e+17
19242.0	4.6556337961697274e+17
19243.0	4.654570031196842e+17
19244.0	4.653952686970197e+17
19245.0	4.653091297165311e+17
19246.0	4.65221769564433e+17
19247.0	4.6513797310272845e+17
19248.0	4.6505293715428685e+17
19249.0	4.6496284371408205e+17
19250.0	4.6485933968588806e+17
19251.0	4.6475846108228256e+17
19252.0	4.6467328951801165e+17
19253.0	4.646231784904021e+17
19254.0	4.6454195145932794e+17
19255.0	4.644308091841193e+17
19256.0	4.643657033798997e+17
19257.0	4.642866965337428e+17
19258.0	4.642018105316692e+17
19259.0	4.6410637990952954e+17
19260.0	4.638944006941352e+17
19261.0	4.639443949802836e+17
19262.0	4.6385131121104205e+17
19263.0	4.6376438307225594e+17
19264.0	4.635955244477097e+17
19265.0	4.6357047613412685e+17
19266.0	4.63462709924113e+17
19267.0	4.634361297108991e+17
19268.0	4.6334998045436576e+17
19269.0	4.6326562670946976e+17
19270.0	4.631808732474026e+17
19271.0	4.630367381574998e+17
19272.0	4.6300536651120634e+17
19273.0	4.628411281222313e+17
19274.0	4.627611372923559e+17
19275.0	4.6275632411880083e+17
19276.0	4.6266820116261536e+17
19277.0	4.6258426104599885e+17
19278.0	4.62497149686033e+17
19279.0	4.6240998652641274e+17
19280.0	4.6231597036339194e+17
19281.0	4.622436233729364e+17
19282.0	4.621614115891882e+17
19283.0	4.620275965143723e+17
19284.0	4.619751241635157e+17
19285.0	4.618797877035007e+17
19286.0	4.618159806655146e+17
19287.0	4.617352092756649e+17
19288.0	4.599740099111576e+17
19289.0	4.575980423217085e+17
19290.0	4.614805667184639e+17
19291.0	4.613594759036928e+17
19292.0	4.6131313632433485e+17
19293.0	4.6122723592983885e+17
19294.0	4.6114118915413325e+17
19295.0	4.610589570280106e+17
19296.0	4.609107457037653e+17
19297.0	4.6086808508825594e+17
19298.0	4.607997973452117e+17
19299.0	4.60646324895744e+17
19300.0	4.6063013516192416e+17
19301.0	4.605489996365823e+17
19302.0	4.6046241752787616e+17
19303.0	4.6036650498020685e+17
19304.0	4.6028994739787085e+17
19305.0	4.602073845508778e+17
19306.0	4.601216436797439e+17
19307.0	4.6002799402898765e+17
19308.0	4.599480427653802e+17
19309.0	4.597424955850751e+17
19310.0	4.596215060627453e+17
19311.0	4.5968155164890445e+17
19312.0	4.596134555855529e+17
19313.0	4.5952818517551776e+17
19314.0	4.4790057848013677e+17
19315.0	4.486514095773133e+17
19316.0	4.591775045211478e+17
19317.0	4.591889186204329e+17
19318.0	4.591047193657344e+17
19319.0	4.590222987056467e+17
19320.0	4.589082947966293e+17
19321.0	4.587963546948949e+17
19322.0	4.5875066886772045e+17
19323.0	4.586298608189439e+17
19324.0	4.58593016025361e+17
19325.0	4.583911032793771e+17
19326.0	4.584264662952619e+17
19327.0	4.583377043368619e+17
19328.0	4.581360045217109e+17
19329.0	4.581732925833215e+17
19330.0	4.5808141202008736e+17
19331.0	4.5799578740107936e+17
19332.0	4.579160509557419e+17
19333.0	4.578281888852649e+17
19334.0	4.577405036047019e+17
19335.0	4.573989484276397e+17
19336.0	4.575257158134442e+17
19337.0	4.5744683654403405e+17
19338.0	4.5732901421055994e+17
19339.0	4.5727489035250336e+17
19340.0	4.571515992757587e+17
19341.0	4.5700828018769914e+17
19342.0	4.5691932305435296e+17
19343.0	4.569335558657364e+17
19344.0	4.5676019297812486e+17
19345.0	4.5636673923099245e+17
19346.0	4.5652465386782694e+17
19347.0	4.564659590572713e+17
19348.0	4.5650473567737165e+17
19349.0	4.564121825574911e+17
19350.0	4.5628454051949216e+17
19351.0	4.5623831034156365e+17
19352.0	4.560252490656425e+17
19353.0	4.560726754590719e+17
19354.0	4.559878183277908e+17
19355.0	4.558858750700202e+17
19356.0	4.558139347872425e+17
19357.0	4.557274704685738e+17
19358.0	4.556381448656213e+17
19359.0	4.5551301053207885e+17
19360.0	4.5536770411287885e+17
19361.0	4.553714847186944e+17
19362.0	4.5529107173212154e+17
19363.0	4.5520337386864634e+17
19364.0	4.5511517681309005e+17
19365.0	4.5502645428114765e+17
19366.0	4.549390084953428e+17
19367.0	4.548497635628373e+17
19368.0	4.5476218656522234e+17
19369.0	4.5466261113186976e+17
19370.0	4.5457274900753056e+17
19371.0	4.544865787095721e+17
19372.0	4.543757727476394e+17
19373.0	4.5425266216577696e+17
19374.0	4.541657181585407e+17
19375.0	4.540747910305109e+17
19376.0	4.5398522949795834e+17
19377.0	4.538922684121087e+17
19378.0	4.538012476112896e+17
19379.0	4.537097288067753e+17
19380.0	4.5361698652378445e+17
19381.0	4.535238355058687e+17
19382.0	4.534205448279381e+17
19383.0	4.53319570034961e+17
19384.0	4.532405069152255e+17
19385.0	4.5314756638146554e+17
19386.0	4.529929473490942e+17
19387.0	4.528794970882047e+17
19388.0	4.527827969201491e+17
19389.0	4.526844762827434e+17
19390.0	4.5258305437695994e+17
19391.0	4.4690354411491866e+17
19392.0	4.523025693147129e+17
19393.0	4.522766991272617e+17
19394.0	4.5208237939971405e+17
19395.0	4.51938277584623e+17
19396.0	4.5185751521252685e+17
19397.0	4.5177212624349856e+17
19398.0	4.5162251206437536e+17
19399.0	4.512383238843051e+17
19400.0	4.512568829105493e+17
19401.0	4.5118028716004685e+17
19402.0	4.5103350099039565e+17
19403.0	4.508017747820543e+17
19404.0	4.5068467708450125e+17
19405.0	4.505003881048744e+17
19406.0	4.5026274611036154e+17
19407.0	4.500893328211966e+17
19408.0	4.49761478757581e+17
19409.0	4.497633610913108e+17
19410.0	4.4962672387904845e+17
19411.0	4.494848561599827e+17
19412.0	4.493360422540628e+17
19413.0	4.491425169975978e+17
19414.0	4.4898174170562554e+17
19415.0	4.488109846691839e+17
19416.0	4.485988631969791e+17
19417.0	4.4840595771883514e+17
19418.0	4.482928646029312e+17
19419.0	4.480990254727166e+17
19420.0	4.478265790038014e+17
19421.0	4.4762308130024096e+17
19422.0	4.4740488388935674e+17
19423.0	4.470870757430611e+17
19424.0	4.468314309569194e+17
19425.0	4.4647493294271123e+17
19426.0	4.461391896029865e+17
19427.0	4.4565606499177805e+17
19428.0	4.451221786066944e+17
19429.0	4.444583579265706e+17
19430.0	4.4343076924511584e+17
19431.0	4.4135137578844346e+17
19432.0	4.408713849514667e+17
19433.0	4.4011079391860045e+17
19434.0	4.393860781659476e+17
19435.0	4.384589765498195e+17
19436.0	4.3726350036500416e+17
19437.0	4.3680047562751994e+17
19438.0	4.255895621992478e+17
19439.0	4.34393294726759e+17
19440.0	4.335565089887569e+17
19441.0	4.323367568714407e+17
19442.0	4.308256590310061e+17
19443.0	4.282352720500053e+17
19444.0	4.222356515979271e+17
19445.0	4.175790711242753e+17
19446.0	4.1332370651654803e+17
19447.0	4.0883161874650406e+17
19448.0	4.005433001902082e+17
19449.0	3.8431193349925504e+17
19450.0	3.4326693484516934e+17
19451.0	3.220953566456488e+17
19452.0	3.698754941441391e+17
19453.0	3.9237710396784986e+17
19454.0	4.058072587348654e+17
19455.0	4.10600854397474e+17
19456.0	4.148060135358466e+17
19457.0	4.1869488768942086e+17
19458.0	3.94194976698136e+17
19459.0	4.272576094972698e+17
19460.0	4.302832741471568e+17
19461.0	4.31456666202931e+17
19462.0	4.3247354004548256e+17
19463.0	4.334602922841429e+17
19464.0	4.343122694417066e+17
19465.0	4.3509945005506554e+17
19466.0	4.3579578393122125e+17
19467.0	4.3650217707656525e+17
19468.0	4.3709709212276045e+17
19469.0	4.3749441553476243e+17
19470.0	4.385385689208146e+17
19471.0	4.398137850462207e+17
19472.0	4.406946650128385e+17
19473.0	4.41282573963537e+17
19474.0	4.4164703157835085e+17
19475.0	4.4188432348829e+17
19476.0	4.422614985823572e+17
19477.0	4.424975936476502e+17
19478.0	4.4260719144031565e+17
19479.0	4.42662889071138e+17
19480.0	4.4283980250699085e+17
19481.0	4.428789044652714e+17
19482.0	4.429490754508116e+17
19483.0	4.430382160150527e+17
19484.0	4.430555922475689e+17
19485.0	4.4306074173439994e+17
19486.0	4.429802972206422e+17
19487.0	4.430774273048576e+17
19488.0	4.431016797492564e+17
19489.0	4.431021167258282e+17
19490.0	4.428408737322321e+17
19491.0	4.4308140839840416e+17
19492.0	4.430655345655808e+17
19493.0	4.4303982802589e+17
19494.0	4.430396429172736e+17
19495.0	4.4307368521673376e+17
19496.0	4.429563218100221e+17
19497.0	4.4314308647758483e+17
19498.0	4.425203821401434e+17
19499.0	4.344313999785941e+17
19500.0	4.431571835333289e+17
19501.0	4.431201898419541e+17
19502.0	4.4306693623207245e+17
19503.0	4.4301999833524896e+17
19504.0	4.4307842638807034e+17
19505.0	4.43044762694451e+17
19506.0	4.4299471367263565e+17
19507.0	4.4293189257570976e+17
19508.0	4.428763940345172e+17
19509.0	4.4286680627500384e+17
19510.0	4.4279195178980685e+17
19511.0	4.228763837530015e+17
19512.0	4.4133347324067616e+17
19513.0	4.40163924705276e+17
19514.0	4.4075308327894784e+17
19515.0	4.4238606151188506e+17
19516.0	4.4244048826859514e+17
19517.0	4.423793878848852e+17
19518.0	4.423660722279764e+17
19519.0	4.4229162647770445e+17
19520.0	4.4216349650234016e+17
19521.0	4.4218396799139834e+17
19522.0	4.420973437998421e+17
19523.0	4.420181892442794e+17
19524.0	4.419096198949547e+17
19525.0	4.418981180648106e+17
19526.0	4.418305889315498e+17
19527.0	4.417565870085461e+17
19528.0	4.4167853925990394e+17
19529.0	4.416013105190229e+17
19530.0	4.415410035578195e+17
19531.0	4.4146785342805325e+17
19532.0	4.413944442301097e+17
19533.0	4.4132080539402234e+17
19534.0	4.4127952792016205e+17
19535.0	4.412238890095957e+17
19536.0	4.411458286780415e+17
19537.0	4.410763542964906e+17
19538.0	4.409024245486935e+17
19539.0	4.408293429957975e+17
19540.0	4.408482276398419e+17
19541.0	4.4075912188832416e+17
19542.0	4.4069284503442765e+17
19543.0	4.405393581146112e+17
19544.0	4.4054406531208525e+17
19545.0	4.403902308242771e+17
19546.0	4.402423910454613e+17
19547.0	4.403248147114665e+17
19548.0	4.4024834884457805e+17
19549.0	4.401580388384766e+17
19550.0	4.4009621207121914e+17
19551.0	4.400202978951168e+17
19552.0	4.399435406639104e+17
19553.0	4.398631115991723e+17
19554.0	4.397827494335828e+17
19555.0	4.397016400527359e+17
19556.0	4.396300116863659e+17
19557.0	4.395587275325438e+17
19558.0	4.394823227626836e+17
19559.0	4.394061708394496e+17
19560.0	4.392948823927465e+17
19561.0	4.392481327502677e+17
19562.0	4.391436113936383e+17
19563.0	4.390984579634516e+17
19564.0	4.390212982188713e+17
19565.0	4.3894366486746445e+17
19566.0	4.3886173857600845e+17
19567.0	4.387893773948245e+17
19568.0	4.38708821102865e+17
19569.0	4.386311588806655e+17
19570.0	4.3855651404076365e+17
19571.0	4.384783426300585e+17
19572.0	4.3839740172042234e+17
19573.0	4.38311141384738e+17
19574.0	4.3823042605875194e+17
19575.0	4.3816937950194336e+17
19576.0	4.3808628747359565e+17
19577.0	4.379957338483371e+17
19578.0	4.3792924839772154e+17
19579.0	4.378552339617108e+17
19580.0	4.3777764905451514e+17
19581.0	4.377011460680362e+17
19582.0	4.376264824935764e+17
19583.0	4.3754879957947725e+17
19584.0	4.3746829928147616e+17
19585.0	4.373760362676223e+17
19586.0	4.3729308796409165e+17
19587.0	4.3721609759948794e+17
19588.0	4.370791100230315e+17
19589.0	4.370787626647551e+17
19590.0	4.369794316894207e+17
19591.0	4.369247908134912e+17
19592.0	4.3684815151213216e+17
19593.0	4.367599235585365e+17
19594.0	4.366472610578431e+17
19595.0	4.3660928785667405e+17
19596.0	4.3645510181628595e+17
19597.0	4.364559401877504e+17
19598.0	4.3628425690917523e+17
19599.0	4.363031551148031e+17
19600.0	4.362265188193621e+17
19601.0	4.3613819977946445e+17
19602.0	4.360631230660607e+17
19603.0	4.3586737182255763e+17
19604.0	4.359031927166293e+17
19605.0	4.357899342053376e+17
19606.0	4.357586281999019e+17
19607.0	4.356818326607189e+17
19608.0	4.3560156032314016e+17
19609.0	4.355177098248192e+17
19610.0	4.354048441800021e+17
19611.0	4.353091536508245e+17
19612.0	4.3529324339746125e+17
19613.0	4.352138888435029e+17
19614.0	4.3513182896346445e+17
19615.0	4.3505828226225485e+17
19616.0	4.348876644767062e+17
19617.0	4.348409401398613e+17
19618.0	4.347206550508882e+17
19619.0	4.3461294909904186e+17
19620.0	4.345381891954003e+17
19621.0	4.3454662142416205e+17
19622.0	4.3455335551904416e+17
19623.0	4.344712763452074e+17
19624.0	4.3438428270537376e+17
19625.0	4.343197645231445e+17
19626.0	4.3424062555641165e+17
19627.0	4.3416325973169485e+17
19628.0	4.339972387635201e+17
19629.0	4.3378048272520525e+17
19630.0	4.337382286076588e+17
19631.0	4.301346190655488e+17
19632.0	4.3376891357648205e+17
19633.0	4.336782611753643e+17
19634.0	4.336202753419946e+17
19635.0	4.335228803874814e+17
19636.0	4.3336897054201146e+17
19637.0	4.3324783254132045e+17
19638.0	4.3329687234368845e+17
19639.0	4.3323054278137165e+17
19640.0	4.331347141197824e+17
19641.0	4.3283151906843354e+17
19642.0	4.32992375939618e+17
19643.0	4.329135379841023e+17
19644.0	4.328351949564585e+17
19645.0	4.327195295438164e+17
19646.0	4.3258597430613306e+17
19647.0	4.3260893986815994e+17
19648.0	4.3253508180978336e+17
19649.0	4.324570095943679e+17
19650.0	4.3238052925713056e+17
19651.0	4.323025117074772e+17
19652.0	4.322247641311914e+17
19653.0	4.3214597699665914e+17
19654.0	4.320699398575444e+17
19655.0	4.3199154964398086e+17
19656.0	4.319152574911829e+17
