# Flux units: erg / (cm m2 s)
# Wavelength units: Angstrom
wave	flux
19000.0	6.597366415796905e+17
19001.0	6.595920656684372e+17
19002.0	6.594874831448744e+17
19003.0	6.593618548621311e+17
19004.0	6.592367803673257e+17
19005.0	6.591135283675136e+17
19006.0	6.589893798352212e+17
19007.0	6.587769909062316e+17
19008.0	6.587264350726825e+17
19009.0	6.586122189318826e+17
19010.0	6.584017392500732e+17
19011.0	6.583638848875177e+17
19012.0	6.581486898992466e+17
19013.0	6.581194698610003e+17
19014.0	6.579845569271123e+17
19015.0	6.578652419806548e+17
19016.0	6.577400344565076e+17
19017.0	6.57559073796915e+17
19018.0	6.574909264931497e+17
19019.0	6.573741057594708e+17
19020.0	6.572364472341844e+17
19021.0	6.571194399937876e+17
19022.0	6.570042409178452e+17
19023.0	6.568728370784937e+17
19024.0	6.567528438431743e+17
19025.0	6.566223145162067e+17
19026.0	6.564960849100797e+17
19027.0	6.563286877907625e+17
19028.0	6.562615434848938e+17
19029.0	6.561340571254783e+17
19030.0	6.560161054676308e+17
19031.0	6.558936088619689e+17
19032.0	6.557691021361151e+17
19033.0	6.556284112688468e+17
19034.0	6.555181569277951e+17
19035.0	6.553916673447252e+17
19036.0	6.50220873519373e+17
19037.0	6.551486078473556e+17
19038.0	6.550236377907199e+17
19039.0	6.54903576957201e+17
19040.0	6.547810749688489e+17
19041.0	6.546561999131988e+17
19042.0	6.545170094882815e+17
19043.0	6.544105802126676e+17
19044.0	6.542850507057833e+17
19045.0	6.541613253787647e+17
19046.0	6.540268576003412e+17
19047.0	6.539174403724628e+17
19048.0	6.537544151160147e+17
19049.0	6.536573086597119e+17
19050.0	6.535385550509398e+17
19051.0	6.527643672029853e+17
19052.0	6.53259357290496e+17
19053.0	6.531555308601343e+17
19054.0	6.530535654424575e+17
19055.0	6.528840122411692e+17
19056.0	6.528025492105898e+17
19057.0	6.526828546796201e+17
19058.0	6.52536861513045e+17
19059.0	6.524382477636948e+17
19060.0	6.523110030660948e+17
19061.0	6.521935730398548e+17
19062.0	6.520689333545641e+17
19063.0	6.519472303112191e+17
19064.0	6.517993593547434e+17
19065.0	6.516664701725353e+17
19066.0	6.515664637045417e+17
19067.0	6.514533903717716e+17
19068.0	6.513325303835305e+17
19069.0	6.512100149035007e+17
19070.0	6.510810160780628e+17
19071.0	6.509603716770474e+17
19072.0	6.508416220528639e+17
19073.0	6.507178118610943e+17
19074.0	6.505969602614612e+17
19075.0	6.504744586226346e+17
19076.0	6.503474547479892e+17
19077.0	6.502268167782399e+17
19078.0	6.500884746513065e+17
19079.0	6.499830055916884e+17
19080.0	6.49858304320034e+17
19081.0	6.497285096953171e+17
19082.0	6.496008626940585e+17
19083.0	6.494713134361257e+17
19084.0	6.493242523298474e+17
19085.0	6.492453953601536e+17
19086.0	6.49047003243042e+17
19087.0	6.488691284028076e+17
19088.0	6.488655751282687e+17
19089.0	6.486530739317417e+17
19090.0	6.486297899521364e+17
19091.0	6.485084185384276e+17
19092.0	6.483479334922921e+17
19093.0	6.482688521273343e+17
19094.0	6.481455447627094e+17
19095.0	6.480234912852649e+17
19096.0	6.478813275881471e+17
19097.0	6.477789725196287e+17
19098.0	6.476579078493524e+17
19099.0	6.475338989873833e+17
19100.0	6.474053428008276e+17
19101.0	6.472897614140756e+17
19102.0	6.471539588683094e+17
19103.0	6.470473730752511e+17
19104.0	6.469270046594388e+17
19105.0	6.468037901986473e+17
19106.0	6.466567944536064e+17
19107.0	6.465571447111679e+17
19108.0	6.464389993463807e+17
19109.0	6.457477862959776e+17
19110.0	6.461928136944297e+17
19111.0	6.460710366915241e+17
19112.0	6.459511206313983e+17
19113.0	6.458293398536191e+17
19114.0	6.457073885773823e+17
19115.0	6.455693193598292e+17
19116.0	6.454604204780202e+17
19117.0	6.453395544080381e+17
19118.0	6.451815932144298e+17
19119.0	6.446427421016056e+17
19120.0	6.449396605867346e+17
19121.0	6.448348047343615e+17
19122.0	6.447348809640617e+17
19123.0	6.446074457052499e+17
19124.0	6.444662871730857e+17
19125.0	6.443617401612969e+17
19126.0	6.442151943252649e+17
19127.0	6.438203772196177e+17
19128.0	6.434729962941089e+17
19129.0	6.438669556645885e+17
19130.0	6.437605026911571e+17
19131.0	6.436225033087657e+17
19132.0	6.435194722582527e+17
19133.0	6.43208602888875e+17
19134.0	6.430160400154629e+17
19135.0	6.431542573618516e+17
19136.0	6.430358536978431e+17
19137.0	6.428841817232724e+17
19138.0	6.426871428983466e+17
19139.0	6.42667556966673e+17
19140.0	6.425464839077887e+17
19141.0	6.424254901212499e+17
19142.0	6.422974684987391e+17
19143.0	6.421709339667114e+17
19144.0	6.420509530346836e+17
19145.0	6.419382880174079e+17
19146.0	6.416940522274817e+17
19147.0	6.416830803476479e+17
19148.0	6.41573786362402e+17
19149.0	6.414539927759529e+17
19150.0	6.413278225891328e+17
19151.0	6.412146107744255e+17
19152.0	6.410795569119231e+17
19153.0	6.409665646690304e+17
19154.0	6.408271144069801e+17
19155.0	6.407282907327146e+17
19156.0	6.406083244108457e+17
19157.0	6.404823548515668e+17
19158.0	6.39969168055773e+17
19159.0	6.402424111628287e+17
19160.0	6.401077617011369e+17
19161.0	6.399500318932993e+17
19162.0	6.390138344396127e+17
19163.0	6.397600899705514e+17
19164.0	6.396437247382868e+17
19165.0	6.395101871865855e+17
19166.0	6.393689051321683e+17
19167.0	6.391986372913833e+17
19168.0	6.391239786102781e+17
19169.0	6.390115807701673e+17
19170.0	6.389202979651583e+17
19171.0	6.38760050106914e+17
19172.0	6.386756119166976e+17
19173.0	6.385579468696233e+17
19174.0	6.38428661293602e+17
19175.0	6.383181388666196e+17
19176.0	6.381975524868095e+17
19177.0	6.380505885485737e+17
19178.0	6.379507251762516e+17
19179.0	6.377782951717548e+17
19180.0	6.375330369503235e+17
19181.0	6.37576177324305e+17
19182.0	6.374396093180586e+17
19183.0	6.37336042934545e+17
19184.0	6.371943327814995e+17
19185.0	6.371126608745812e+17
19186.0	6.369963987522902e+17
19187.0	6.368589047136255e+17
19188.0	6.367489532013225e+17
19189.0	6.366122401420627e+17
19190.0	6.364877429932031e+17
19191.0	6.363788977984852e+17
19192.0	6.362607899028138e+17
19193.0	6.359828061836627e+17
19194.0	6.359578173592916e+17
19195.0	6.358965383681363e+17
19196.0	6.357922549683539e+17
19197.0	6.356732115331753e+17
19198.0	6.355509516959741e+17
19199.0	6.305611892042397e+17
19200.0	6.321820355526676e+17
19201.0	6.351923424089428e+17
19202.0	6.350764457503401e+17
19203.0	6.349465801020756e+17
19204.0	6.348309660696575e+17
19205.0	6.347158486428329e+17
19206.0	6.345951825013417e+17
19207.0	6.344628933143209e+17
19208.0	6.343176390443007e+17
19209.0	6.34231184232721e+17
19210.0	6.341163333539156e+17
19211.0	6.339978735561385e+17
19212.0	6.338803482492927e+17
19213.0	6.336977579627862e+17
19214.0	6.335512694489088e+17
19215.0	6.335035040858111e+17
19216.0	6.333869586382847e+17
19217.0	6.33280753897745e+17
19218.0	6.33013473273446e+17
19219.0	6.330133001885011e+17
19220.0	6.329159297007615e+17
19221.0	6.32737598939682e+17
19222.0	6.326849817455273e+17
19223.0	6.325614050366804e+17
19224.0	6.324150781433172e+17
19225.0	6.322936794666324e+17
19226.0	6.322026284668243e+17
19227.0	6.320830824142164e+17
19228.0	6.31969050403362e+17
19229.0	6.318497186097834e+17
19230.0	6.317064189553321e+17
19231.0	6.315902566574761e+17
19232.0	6.314701583548415e+17
19233.0	6.31357775614225e+17
19234.0	6.312480438834516e+17
19235.0	6.3112666953373e+17
19236.0	6.310141867589632e+17
19237.0	6.308920082213546e+17
19238.0	6.307518237463892e+17
19239.0	6.306558502415018e+17
19240.0	6.304654757462013e+17
19241.0	6.303945808237907e+17
19242.0	6.302902488399871e+17
19243.0	6.301444681149097e+17
19244.0	6.300595768699561e+17
19245.0	6.299403637052756e+17
19246.0	6.298192312270845e+17
19247.0	6.296986119918932e+17
19248.0	6.295834307417427e+17
19249.0	6.29463332299298e+17
19250.0	6.293423334795945e+17
19251.0	6.292098723960147e+17
19252.0	6.290389197651968e+17
19253.0	6.289844739244031e+17
19254.0	6.288581130365609e+17
19255.0	6.287105623151955e+17
19256.0	6.286129463208618e+17
19257.0	6.28510921204258e+17
19258.0	6.283918609219583e+17
19259.0	6.282583091795283e+17
19260.0	6.280929083391997e+17
19261.0	6.280329497848489e+17
19262.0	6.279044354015231e+17
19263.0	6.277881016964436e+17
19264.0	6.275816896506537e+17
19265.0	6.275240493580287e+17
19266.0	6.274142906438996e+17
19267.0	6.273209434024618e+17
19268.0	6.27198546481425e+17
19269.0	6.270811428793002e+17
19270.0	6.26959550845201e+17
19271.0	6.267808704189782e+17
19272.0	6.267177392231764e+17
19273.0	6.247796612355388e+17
19274.0	6.256112648410441e+17
19275.0	6.263671237902335e+17
19276.0	6.262441984567978e+17
19277.0	6.261224520723114e+17
19278.0	6.260036707811327e+17
19279.0	6.2585840875165e+17
19280.0	6.257494107444563e+17
19281.0	6.256459737552212e+17
19282.0	6.255288656418131e+17
19283.0	6.253239429234687e+17
19284.0	6.250966231810044e+17
19285.0	6.251263521980415e+17
19286.0	6.250455083865427e+17
19287.0	6.249326460272637e+17
19288.0	6.23675386066807e+17
19289.0	6.21167568503869e+17
19290.0	6.245740081490601e+17
19291.0	6.244045437971116e+17
19292.0	6.243346616593066e+17
19293.0	6.242137778334378e+17
19294.0	6.240930479385257e+17
19295.0	6.239756320331092e+17
19296.0	6.238544976674815e+17
19297.0	6.237281653009065e+17
19298.0	6.23610217557743e+17
19299.0	6.234957867384831e+17
19300.0	6.23375927021841e+17
19301.0	6.232538171310079e+17
19302.0	6.231324139803988e+17
19303.0	6.229936736742057e+17
19304.0	6.228805746163712e+17
19305.0	6.227708082126847e+17
19306.0	6.226479763423231e+17
19307.0	6.225158194156883e+17
19308.0	6.224024647150249e+17
19309.0	6.221325695713277e+17
19310.0	6.219194300017317e+17
19311.0	6.220318924341245e+17
19312.0	6.219218480878931e+17
19313.0	6.217608321826819e+17
19314.0	6.198933035767089e+17
19315.0	6.199112654039762e+17
19316.0	6.214373430613331e+17
19317.0	6.213227059522218e+17
19318.0	6.212005232902144e+17
19319.0	6.210821640159231e+17
19320.0	6.209490236648106e+17
19321.0	6.208387103937875e+17
19322.0	6.206821311534422e+17
19323.0	6.205041040599724e+17
19324.0	6.204693225144319e+17
19325.0	6.20231407051298e+17
19326.0	6.202263445263699e+17
19327.0	6.201006523503956e+17
19328.0	6.199828827952468e+17
19329.0	6.198598455437994e+17
19330.0	6.197284876320765e+17
19331.0	6.196053088927743e+17
19332.0	6.194874235748351e+17
19333.0	6.193604376657919e+17
19334.0	6.192265452060671e+17
19335.0	6.191169430792874e+17
19336.0	6.189904884487508e+17
19337.0	6.188661273351508e+17
19338.0	6.187044406908244e+17
19339.0	6.186166606189908e+17
19340.0	6.184817683070976e+17
19341.0	6.183657247779498e+17
19342.0	6.181549474403667e+17
19343.0	6.181142914225492e+17
19344.0	6.179845481780564e+17
19345.0	6.174720266687818e+17
19346.0	6.176352274568534e+17
19347.0	6.175853162878292e+17
19348.0	6.174721478841683e+17
19349.0	6.173354100785151e+17
19350.0	6.172067737108479e+17
19351.0	6.170777787301887e+17
19352.0	6.169422692264618e+17
19353.0	6.168265338388479e+17
19354.0	6.166944350033236e+17
19355.0	6.1654505619456e+17
19356.0	6.164315697228457e+17
19357.0	6.16297274679842e+17
19358.0	6.161480728707072e+17
19359.0	6.159316058199382e+17
19360.0	6.158889379343018e+17
19361.0	6.157503420519764e+17
19362.0	6.156277566668799e+17
19363.0	6.15490512818449e+17
19364.0	6.153506922692607e+17
19365.0	6.15213225353762e+17
19366.0	6.150759109012138e+17
19367.0	6.149343195168767e+17
19368.0	6.147927143612415e+17
19369.0	6.146136196775933e+17
19370.0	6.142777196107091e+17
19371.0	6.143534146344275e+17
19372.0	6.142184404637012e+17
19373.0	6.140650788137642e+17
19374.0	6.139215171551231e+17
19375.0	6.137701912106324e+17
19376.0	6.136149549864276e+17
19377.0	6.134633667581267e+17
19378.0	6.133097755399508e+17
19379.0	6.131519747085652e+17
19380.0	6.129942416151892e+17
19381.0	6.128320833213782e+17
19382.0	6.126480426445482e+17
19383.0	6.124807180866899e+17
19384.0	6.123337220620287e+17
19385.0	6.12163921256994e+17
19386.0	6.119922149796521e+17
19387.0	6.118156099649535e+17
19388.0	6.116322769371135e+17
19389.0	6.114510271501652e+17
19390.0	6.112570694609578e+17
19391.0	6.065432633016247e+17
19392.0	6.108748814046547e+17
19393.0	6.106853707262633e+17
19394.0	6.104810886878548e+17
19395.0	6.102631791460351e+17
19396.0	6.10044965097745e+17
19397.0	6.098428607419731e+17
19398.0	6.096139624731988e+17
19399.0	6.092573547779411e+17
19400.0	6.091280027921066e+17
19401.0	6.088898803400703e+17
19402.0	6.086386741761364e+17
19403.0	6.083727213985791e+17
19404.0	6.080995365224447e+17
19405.0	6.078127350480895e+17
19406.0	6.075135292691795e+17
19407.0	6.072013649084415e+17
19408.0	6.067474219575981e+17
19409.0	6.065140810820266e+17
19410.0	6.061899732309332e+17
19411.0	6.058193629216768e+17
19412.0	6.054173302150484e+17
19413.0	6.050100219128489e+17
19414.0	6.045722042433535e+17
19415.0	6.041109233576617e+17
19416.0	6.035846587919017e+17
19417.0	6.030388653370025e+17
19418.0	6.026002030045866e+17
19419.0	6.019957233374548e+17
19420.0	6.014100899364863e+17
19421.0	6.007467850159444e+17
19422.0	6.000297464474281e+17
19423.0	5.992681440280576e+17
19424.0	5.984263436500992e+17
19425.0	5.975062918201344e+17
19426.0	5.965021018324991e+17
19427.0	5.953344089270954e+17
19428.0	5.942501858869247e+17
19429.0	5.930887547278676e+17
19430.0	5.917080032029356e+17
19431.0	5.894361511712109e+17
19432.0	5.889541216927741e+17
19433.0	5.872583530512383e+17
19434.0	5.853618338354516e+17
19435.0	5.830926737779368e+17
19436.0	5.801826672705528e+17
19437.0	5.777593062828714e+17
19438.0	5.694619945096533e+17
19439.0	5.721791575446872e+17
19440.0	5.6889818323353574e+17
19441.0	5.650971433282217e+17
19442.0	5.6045336925306854e+17
19443.0	5.548570594421418e+17
19444.0	5.494910670427476e+17
19445.0	5.432968979939329e+17
19446.0	5.354586020424368e+17
19447.0	5.265413765420368e+17
19448.0	5.1582741529668294e+17
19449.0	5.005433206996992e+17
19450.0	4.643408848442694e+17
19451.0	4.510717581459449e+17
19452.0	4.850983668547591e+17
19453.0	5.0921548629934144e+17
19454.0	5.21179793894058e+17
19455.0	5.304152358562474e+17
19456.0	5.3880879082810074e+17
19457.0	5.4548768084022566e+17
19458.0	5.48315113595431e+17
19459.0	5.562185964410199e+17
19460.0	5.611570016376146e+17
19461.0	5.651341417032362e+17
19462.0	5.6844140444385286e+17
19463.0	5.712894577257129e+17
19464.0	5.7380013517482643e+17
19465.0	5.763281906739881e+17
19466.0	5.786344745162062e+17
19467.0	5.809741997539328e+17
19468.0	5.827832299825834e+17
19469.0	5.840566684221439e+17
19470.0	5.857056730906623e+17
19471.0	5.869222508888064e+17
19472.0	5.880090428702719e+17
19473.0	5.889626131311274e+17
19474.0	5.898573832344916e+17
19475.0	5.906545802652329e+17
19476.0	5.916044654105938e+17
19477.0	5.923211076173824e+17
19478.0	5.929768300751529e+17
19479.0	5.935398150733824e+17
19480.0	5.940479800989012e+17
19481.0	5.945035784017235e+17
19482.0	5.949046596304895e+17
19483.0	5.952866607606442e+17
19484.0	5.955993275990013e+17
19485.0	5.958925114758484e+17
19486.0	5.961457863404202e+17
19487.0	5.963897931912531e+17
19488.0	5.966062226330964e+17
19489.0	5.967949812028756e+17
19490.0	5.967262106954405e+17
19491.0	5.971184342532095e+17
19492.0	5.97261424927266e+17
19493.0	5.973694470597289e+17
19494.0	5.974728221130751e+17
19495.0	5.975384364766547e+17
19496.0	5.975629188388179e+17
19497.0	5.976957904049492e+17
19498.0	5.975559275631964e+17
19499.0	5.90621920198648e+17
19500.0	5.978241377850708e+17
19501.0	5.978380210711209e+17
19502.0	5.978522203979776e+17
19503.0	5.978676852162559e+17
19504.0	5.978640189751293e+17
19505.0	5.978704187839827e+17
19506.0	5.978577747749545e+17
19507.0	5.978369038483455e+17
19508.0	5.9782126909085e+17
19509.0	5.977944804906324e+17
19510.0	5.977282585122132e+17
19511.0	5.923345725216049e+17
19512.0	5.967954350265644e+17
19513.0	5.95559885762283e+17
19514.0	5.962037486856856e+17
19515.0	5.973763585736708e+17
19516.0	5.974931344282964e+17
19517.0	5.974269070671871e+17
19518.0	5.973826438780244e+17
19519.0	5.973193851054761e+17
19520.0	5.972530326842025e+17
19521.0	5.971933197063508e+17
19522.0	5.971166973919231e+17
19523.0	5.970570019602431e+17
19524.0	5.969861085058388e+17
19525.0	5.969045443226281e+17
19526.0	5.96841401103155e+17
19527.0	5.967647193694208e+17
19528.0	5.966891549982719e+17
19529.0	5.966093911501482e+17
19530.0	5.965309235516756e+17
19531.0	5.964517445992447e+17
19532.0	5.963716307364522e+17
19533.0	5.962884037913257e+17
19534.0	5.962040976517801e+17
19535.0	5.961137705189376e+17
19536.0	5.960245067819689e+17
19537.0	5.95943775937058e+17
19538.0	5.958496464579242e+17
19539.0	5.956618810993329e+17
19540.0	5.95671239430417e+17
19541.0	5.95586000757282e+17
19542.0	5.954933919929684e+17
19543.0	5.954011426805076e+17
19544.0	5.953098375058772e+17
19545.0	5.951580381642747e+17
19546.0	5.94951461002718e+17
19547.0	5.95024530252322e+17
19548.0	5.949360587494739e+17
19549.0	5.948205574739283e+17
19550.0	5.947449287202132e+17
19551.0	5.946494413351594e+17
19552.0	5.945521663377408e+17
19553.0	5.94452082205218e+17
19554.0	5.943500126289919e+17
19555.0	5.942572286126761e+17
19556.0	5.941609021571071e+17
19557.0	5.940615361593343e+17
19558.0	5.939630880849919e+17
19559.0	5.938569364023977e+17
19560.0	5.937598423192916e+17
19561.0	5.936596662616063e+17
19562.0	5.935632687125843e+17
19563.0	5.934620593881087e+17
19564.0	5.933633785997993e+17
19565.0	5.932615518737748e+17
19566.0	5.931563877400575e+17
19567.0	5.930587658037929e+17
19568.0	5.929530617233407e+17
19569.0	5.928520001082708e+17
19570.0	5.927552974236329e+17
19571.0	5.926529905896106e+17
19572.0	5.925436372549632e+17
19573.0	5.924460539762003e+17
19574.0	5.923251026919423e+17
19575.0	5.922410600245929e+17
19576.0	5.921377948620116e+17
19577.0	5.920081575236947e+17
19578.0	5.91925339103778e+17
19579.0	5.918245178922323e+17
19580.0	5.917215589138431e+17
19581.0	5.916200339679914e+17
19582.0	5.915194695177556e+17
19583.0	5.914153480880127e+17
19584.0	5.913092884004863e+17
19585.0	5.911843430203391e+17
19586.0	5.910486227528364e+17
19587.0	5.909303454771882e+17
19588.0	5.907985187121834e+17
19589.0	5.907231376321193e+17
19590.0	5.906659200554324e+17
19591.0	5.905785320112127e+17
19592.0	5.904741391400959e+17
19593.0	5.903633423357268e+17
19594.0	5.902103520914088e+17
19595.0	5.901586089902077e+17
19596.0	5.888279305344348e+17
19597.0	5.899463273654956e+17
19598.0	5.897989422492329e+17
19599.0	5.897415009763327e+17
19600.0	5.896376054797652e+17
19601.0	5.89520176292386e+17
19602.0	5.894193804563795e+17
19603.0	5.89166629180757e+17
19604.0	5.892039017234432e+17
19605.0	5.890532781850623e+17
19606.0	5.889995934007295e+17
19607.0	5.888980969062399e+17
19608.0	5.887896733788841e+17
19609.0	5.886748417938772e+17
19610.0	5.885821845154473e+17
19611.0	5.884745627293012e+17
19612.0	5.883711469912063e+17
19613.0	5.882619064833363e+17
19614.0	5.881513939828735e+17
19615.0	5.880529573030569e+17
19616.0	5.879064916481363e+17
19617.0	5.878397769788074e+17
19618.0	5.876466378080253e+17
19619.0	5.875058793425576e+17
19620.0	5.87407795962948e+17
19621.0	5.874149092928169e+17
19622.0	5.873110683921066e+17
19623.0	5.872050613430954e+17
19624.0	5.870975221148329e+17
19625.0	5.869913909144233e+17
19626.0	5.86884738781457e+17
19627.0	5.867805520603818e+17
19628.0	5.865534430117892e+17
19629.0	5.865520105171625e+17
19630.0	5.864006209590616e+17
19631.0	5.812659876265956e+17
19632.0	5.86247668113954e+17
19633.0	5.861338790931114e+17
19634.0	5.860389106832724e+17
19635.0	5.859252010745855e+17
19636.0	5.858242480220841e+17
19637.0	5.8564417683456e+17
19638.0	5.856120285429759e+17
19639.0	5.855019649728511e+17
19640.0	5.853900977821012e+17
19641.0	5.85189438364058e+17
19642.0	5.851870403406505e+17
19643.0	5.850749330259968e+17
19644.0	5.849656872752467e+17
19645.0	5.848236940765865e+17
19646.0	5.847646767240531e+17
19647.0	5.846587118977023e+17
19648.0	5.845514384485033e+17
19649.0	5.844447352848383e+17
19650.0	5.843398214112596e+17
19651.0	5.842322445740714e+17
19652.0	5.841254977197396e+17
19653.0	5.840188666981033e+17
19654.0	5.839127916314623e+17
19655.0	5.838051169271807e+17
19656.0	5.836997163046228e+17
19657.0	5.835943240706729e+17
19658.0	5.834877024862207e+17
19659.0	5.833829400270163e+17
19660.0	5.832776945937065e+17
19661.0	5.831707346687316e+17
19662.0	5.830655134225748e+17
19663.0	5.829501121811795e+17
19664.0	5.828271815349588e+17
19665.0	5.827470982905855e+17
