# Flux units: erg / (cm m2 s)
# Wavelength units: Angstrom
wave	flux
19000.0	8.139244776893096e+17
19001.0	8.137481971040253e+17
19002.0	8.136189851380392e+17
19003.0	8.13464459289122e+17
19004.0	8.133105725123241e+17
19005.0	8.131571030687743e+17
19006.0	8.130038085277011e+17
19007.0	8.128054122162858e+17
19008.0	8.126792541230419e+17
19009.0	8.12536751665971e+17
19010.0	8.122780812487334e+17
19011.0	8.122305951563775e+17
19012.0	8.120260504147284e+17
19013.0	8.119280692363263e+17
19014.0	8.117587685321385e+17
19015.0	8.116125918647636e+17
19016.0	8.114577496255148e+17
19017.0	8.112361600712701e+17
19018.0	8.111547001165139e+17
19019.0	8.110042507116544e+17
19020.0	8.108344202668714e+17
19021.0	8.106890300314964e+17
19022.0	8.105460480256684e+17
19023.0	8.103818241070419e+17
19024.0	8.102340645093375e+17
19025.0	8.100793001443325e+17
19026.0	8.099222294713683e+17
19027.0	8.097492963601064e+17
19028.0	8.09624093449694e+17
19029.0	8.094659367316137e+17
19030.0	8.093195605551785e+17
19031.0	8.091674654452394e+17
19032.0	8.0901324158621e+17
19033.0	8.088370890670076e+17
19034.0	8.087008807223292e+17
19035.0	8.085424333389821e+17
19036.0	8.058342777815021e+17
19037.0	8.082413740272297e+17
19038.0	8.080853983472297e+17
19039.0	8.079364846168744e+17
19040.0	8.077840556403369e+17
19041.0	8.076288743615144e+17
19042.0	8.074549021813417e+17
19043.0	8.073230215195305e+17
19044.0	8.071669278397782e+17
19045.0	8.07014998684467e+17
19046.0	8.068467150989992e+17
19047.0	8.067084946068819e+17
19048.0	8.065050036142076e+17
19049.0	8.063836807146152e+17
19050.0	8.062357645295615e+17
19051.0	8.057222468031822e+17
19052.0	8.059128152850431e+17
19053.0	8.057752395972604e+17
19054.0	8.056317662986237e+17
19055.0	8.054174816840362e+17
19056.0	8.053197906116607e+17
19057.0	8.051699307861331e+17
19058.0	8.050028657857875e+17
19059.0	8.048645704952489e+17
19060.0	8.047062914433021e+17
19061.0	8.0455877553466e+17
19062.0	8.04404058844911e+17
19063.0	8.042512706961408e+17
19064.0	8.04066006331119e+17
19065.0	8.038979801361066e+17
19066.0	8.037744097886207e+17
19067.0	8.036340194432338e+17
19068.0	8.034835381616637e+17
19069.0	8.033306887760553e+17
19070.0	8.031695801068202e+17
19071.0	8.030211379560447e+17
19072.0	8.028701376992595e+17
19073.0	8.027150941334188e+17
19074.0	8.025641370779647e+17
19075.0	8.0241071503005e+17
19076.0	8.022517412615506e+17
19077.0	8.021020402603348e+17
19078.0	8.019285659440468e+17
19079.0	8.017961456151209e+17
19080.0	8.016400713689768e+17
19081.0	8.014775437666986e+17
19082.0	8.013193685936812e+17
19083.0	8.011521732902911e+17
19084.0	8.009660872611156e+17
19085.0	8.008731385484628e+17
19086.0	8.006200230674428e+17
19087.0	8.004960057469612e+17
19088.0	8.003946717817514e+17
19089.0	8.001768238262954e+17
19090.0	8.001003390151336e+17
19091.0	7.999488306883242e+17
19092.0	7.997703071290706e+17
19093.0	7.99649159970816e+17
19094.0	7.994940669121876e+17
19095.0	7.993408886931453e+17
19096.0	7.99182309888273e+17
19097.0	7.990364957485736e+17
19098.0	7.98883602182963e+17
19099.0	7.987286638941523e+17
19100.0	7.98573649269009e+17
19101.0	7.984242752836947e+17
19102.0	7.982528342261756e+17
19103.0	7.981178106325676e+17
19104.0	7.979666992267263e+17
19105.0	7.978121690436947e+17
19106.0	7.976454674098857e+17
19107.0	7.975023827834195e+17
19108.0	7.973537549647871e+17
19109.0	7.968946868540751e+17
19110.0	7.97044108235025e+17
19111.0	7.968943109046272e+17
19112.0	7.967425650404009e+17
19113.0	7.965893549446483e+17
19114.0	7.964355291250684e+17
19115.0	7.962680582559063e+17
19116.0	7.961248718476628e+17
19117.0	7.95972680688162e+17
19118.0	7.957913065401004e+17
19119.0	7.95221994224571e+17
19120.0	7.954954371203072e+17
19121.0	7.953538976754345e+17
19122.0	7.952132834940244e+17
19123.0	7.950534170378237e+17
19124.0	7.948922871174484e+17
19125.0	7.947492395406675e+17
19126.0	7.945924635874642e+17
19127.0	7.940637538123771e+17
19128.0	7.940199494800721e+17
19129.0	7.941197258205864e+17
19130.0	7.939874376122365e+17
19131.0	7.938280987994794e+17
19132.0	7.936838926161236e+17
19133.0	7.933416460779523e+17
19134.0	7.932442597916673e+17
19135.0	7.932254990893053e+17
19136.0	7.930748775781718e+17
19137.0	7.928832718449322e+17
19138.0	7.927276347850752e+17
19139.0	7.926150544927402e+17
19140.0	7.924643063136253e+17
19141.0	7.923119588463955e+17
19142.0	7.92151792357649e+17
19143.0	7.919917339421352e+17
19144.0	7.918392244349609e+17
19145.0	7.916950736164179e+17
19146.0	7.913959738834945e+17
19147.0	7.913717277305512e+17
19148.0	7.912371122427222e+17
19149.0	7.910842596414804e+17
19150.0	7.909294059378003e+17
19151.0	7.907804820013053e+17
19152.0	7.906195264241661e+17
19153.0	7.904713777348607e+17
19154.0	7.90294087021363e+17
19155.0	7.901709963624447e+17
19156.0	7.900182125477885e+17
19157.0	7.898586364772353e+17
19158.0	7.895021537722363e+17
19159.0	7.895545200771071e+17
19160.0	7.893938943120723e+17
19161.0	7.89224999616512e+17
19162.0	7.88631458065067e+17
19163.0	7.889448339505151e+17
19164.0	7.88799088177971e+17
19165.0	7.886385360928769e+17
19166.0	7.884646591234045e+17
19167.0	7.882969093330259e+17
19168.0	7.881447594175145e+17
19169.0	7.880089059109545e+17
19170.0	7.878841281631572e+17
19171.0	7.877100539215871e+17
19172.0	7.875760857546751e+17
19173.0	7.874266895395497e+17
19174.0	7.872615676204374e+17
19175.0	7.871226536700585e+17
19176.0	7.869686367300266e+17
19177.0	7.867815246342825e+17
19178.0	7.866575022806356e+17
19179.0	7.864802066737834e+17
19180.0	7.862875313930241e+17
19181.0	7.861821474078717e+17
19182.0	7.860202788705622e+17
19183.0	7.858947002903209e+17
19184.0	7.857060839773523e+17
19185.0	7.855922957254655e+17
19186.0	7.854449903708842e+17
19187.0	7.852695431938047e+17
19188.0	7.851363297219923e+17
19189.0	7.849751113018025e+17
19190.0	7.848204069153449e+17
19191.0	7.846689464036009e+17
19192.0	7.845216021818025e+17
19193.0	7.8429829478045e+17
19194.0	7.84185979568128e+17
19195.0	7.84063913857297e+17
19196.0	7.83912912901461e+17
19197.0	7.837600721840808e+17
19198.0	7.835975455604736e+17
19199.0	7.806957298996558e+17
19200.0	7.81479361642497e+17
19201.0	7.831422017120936e+17
19202.0	7.83000024593203e+17
19203.0	7.828442948392275e+17
19204.0	7.826905477327528e+17
19205.0	7.825421121530538e+17
19206.0	7.823885118472191e+17
19207.0	7.822192948893011e+17
19208.0	7.8203913778845e+17
19209.0	7.819283863524692e+17
19210.0	7.817779517674834e+17
19211.0	7.816262552562348e+17
19212.0	7.814759902609408e+17
19213.0	7.812792238560595e+17
19214.0	7.811107569795071e+17
19215.0	7.810071715119105e+17
19216.0	7.808512159645693e+17
19217.0	7.807093475464531e+17
19218.0	7.803679053359781e+17
19219.0	7.803637925412861e+17
19220.0	7.802444574621696e+17
19221.0	7.800183326070102e+17
19222.0	7.799460485311145e+17
19223.0	7.797864870008148e+17
19224.0	7.796069028418902e+17
19225.0	7.794452010980691e+17
19226.0	7.793254556762111e+17
19227.0	7.791715210843474e+17
19228.0	7.79025564897553e+17
19229.0	7.788720771388756e+17
19230.0	7.787033008624979e+17
19231.0	7.785512405652819e+17
19232.0	7.783917525751126e+17
19233.0	7.782389268174163e+17
19234.0	7.78097212609877e+17
19235.0	7.779402115623594e+17
19236.0	7.77796341622374e+17
19237.0	7.77637773582882e+17
19238.0	7.774630297905833e+17
19239.0	7.773339728740352e+17
19240.0	7.770950608442706e+17
19241.0	7.769964168260266e+17
19242.0	7.768625695948799e+17
19243.0	7.766699551315283e+17
19244.0	7.765623722125993e+17
19245.0	7.764066751741948e+17
19246.0	7.762497877923155e+17
19247.0	7.760935438166696e+17
19248.0	7.759443672432639e+17
19249.0	7.7578878596765e+17
19250.0	7.756297513817428e+17
19251.0	7.754565199156563e+17
19252.0	7.752349734229331e+17
19253.0	7.751641759481856e+17
19254.0	7.75001198576708e+17
19255.0	7.748059514885459e+17
19256.0	7.746907949148842e+17
19257.0	7.745461645475839e+17
19258.0	7.743902120760659e+17
19259.0	7.742150712229887e+17
19260.0	7.740463319962963e+17
19261.0	7.739201037183658e+17
19262.0	7.737517211473238e+17
19263.0	7.735990560314708e+17
19264.0	7.733352443762001e+17
19265.0	7.732544991308458e+17
19266.0	7.731136858598057e+17
19267.0	7.72984021468228e+17
19268.0	7.728243664049492e+17
19269.0	7.726676203711144e+17
19270.0	7.725099750785021e+17
19271.0	7.722783477159255e+17
19272.0	7.721867445359955e+17
19273.0	7.699556570846522e+17
19274.0	7.708545582279324e+17
19275.0	7.717215584736595e+17
19276.0	7.715586796683263e+17
19277.0	7.713996369734313e+17
19278.0	7.712422562015913e+17
19279.0	7.710577307331242e+17
19280.0	7.708976249219754e+17
19281.0	7.707578230374399e+17
19282.0	7.706012154156372e+17
19283.0	7.703975531555497e+17
19284.0	7.70172174886502e+17
19285.0	7.700640353834323e+17
19286.0	7.699516818631336e+17
19287.0	7.697998969918803e+17
19288.0	7.690527059214331e+17
19289.0	7.677192957154607e+17
19290.0	7.693154870362111e+17
19291.0	7.690871410174638e+17
19292.0	7.689904677628585e+17
19293.0	7.68826193372774e+17
19294.0	7.686620498449748e+17
19295.0	7.685017505366016e+17
19296.0	7.683360679788543e+17
19297.0	7.681651836452863e+17
19298.0	7.680013883845289e+17
19299.0	7.678439463758505e+17
19300.0	7.676788745087658e+17
19301.0	7.675104558667091e+17
19302.0	7.673433880701609e+17
19303.0	7.671546504019965e+17
19304.0	7.669955762498216e+17
19305.0	7.668408595600726e+17
19306.0	7.666728083390463e+17
19307.0	7.664916578871977e+17
19308.0	7.663298420583081e+17
19309.0	7.660822313216681e+17
19310.0	7.658577188967763e+17
19311.0	7.658092527353853e+17
19312.0	7.656462757833385e+17
19313.0	7.65439326167586e+17
19314.0	7.645926078982812e+17
19315.0	7.64461052434843e+17
19316.0	7.649520671610195e+17
19317.0	7.647811969482751e+17
19318.0	7.646054206581417e+17
19319.0	7.644342969696253e+17
19320.0	7.642484293238783e+17
19321.0	7.640814259798015e+17
19322.0	7.638640756086102e+17
19323.0	7.636778548024663e+17
19324.0	7.635431304025428e+17
19325.0	7.633030996120918e+17
19326.0	7.631833625788415e+17
19327.0	7.629996175305386e+17
19328.0	7.628219133984765e+17
19329.0	7.626383907880957e+17
19330.0	7.624435687227391e+17
19331.0	7.622575043641341e+17
19332.0	7.62079715646942e+17
19333.0	7.618876331611475e+17
19334.0	7.616861603277484e+17
19335.0	7.615034168792404e+17
19336.0	7.613108709228543e+17
19337.0	7.611170044597587e+17
19338.0	7.608760211428691e+17
19339.0	7.607271707465046e+17
19340.0	7.60518458684211e+17
19341.0	7.603307662366038e+17
19342.0	7.600347772791464e+17
19343.0	7.599326566023165e+17
19344.0	7.597258876212564e+17
19345.0	7.590625271261855e+17
19346.0	7.591896275397293e+17
19347.0	7.590819393437696e+17
19348.0	7.588810130281812e+17
19349.0	7.586563965845501e+17
19350.0	7.584440606436009e+17
19351.0	7.582249278330196e+17
19352.0	7.57999088050722e+17
19353.0	7.577966081649318e+17
19354.0	7.575706540179455e+17
19355.0	7.573084931009196e+17
19356.0	7.571030566502397e+17
19357.0	7.568697754735956e+17
19358.0	7.566171578564608e+17
19359.0	7.562870669705216e+17
19360.0	7.561504836550653e+17
19361.0	7.558896644958889e+17
19362.0	7.556535226641066e+17
19363.0	7.554033852787369e+17
19364.0	7.551407253793449e+17
19365.0	7.548762897514496e+17
19366.0	7.546094809863508e+17
19367.0	7.543403066337961e+17
19368.0	7.540718619503276e+17
19369.0	7.537534723336872e+17
19370.0	7.532642838074706e+17
19371.0	7.532231223061161e+17
19372.0	7.529480058830847e+17
19373.0	7.52645408100625e+17
19374.0	7.523324464726015e+17
19375.0	7.520277732087123e+17
19376.0	7.517162558193661e+17
19377.0	7.513975784734717e+17
19378.0	7.510743133978621e+17
19379.0	7.507416593727487e+17
19380.0	7.503870002113194e+17
19381.0	7.500286873916756e+17
19382.0	7.496533209513984e+17
19383.0	7.492788343362897e+17
19384.0	7.489322650086057e+17
19385.0	7.485192907609428e+17
19386.0	7.481243064423764e+17
19387.0	7.477221821601108e+17
19388.0	7.473055595670186e+17
19389.0	7.468415469311315e+17
19390.0	7.464041291186175e+17
19391.0	7.43881762633588e+17
19392.0	7.454364195793577e+17
19393.0	7.449675874085545e+17
19394.0	7.444402828651177e+17
19395.0	7.438860163568978e+17
19396.0	7.433337085886463e+17
19397.0	7.427562088518995e+17
19398.0	7.421499743578793e+17
19399.0	7.413943068786683e+17
19400.0	7.408867914809343e+17
19401.0	7.402566981080403e+17
19402.0	7.396146731985577e+17
19403.0	7.389532644529491e+17
19404.0	7.382752478014122e+17
19405.0	7.375463840219135e+17
19406.0	7.367876116392617e+17
19407.0	7.360241714156883e+17
19408.0	7.350744420188163e+17
19409.0	7.343187520301738e+17
19410.0	7.334736920488617e+17
19411.0	7.325094282701481e+17
19412.0	7.3155924197376e+17
19413.0	7.304965360626345e+17
19414.0	7.294084458042708e+17
19415.0	7.282490590887936e+17
19416.0	7.269726394078547e+17
19417.0	7.256561326664358e+17
19418.0	7.242929591200426e+17
19419.0	7.227601098986836e+17
19420.0	7.211518370250752e+17
19421.0	7.196454485491711e+17
19422.0	7.181328435554985e+17
19423.0	7.16527242453538e+17
19424.0	7.148630965572948e+17
19425.0	7.130582411291305e+17
19426.0	7.111459733503997e+17
19427.0	7.090878584367786e+17
19428.0	7.069364156454228e+17
19429.0	7.045841919410172e+17
19430.0	7.020149998267052e+17
19431.0	6.989942431416328e+17
19432.0	6.962997292782929e+17
19433.0	6.930091404339886e+17
19434.0	6.898608311194963e+17
19435.0	6.865783994974205e+17
19436.0	6.829896849074857e+17
19437.0	6.793274781422934e+17
19438.0	6.73788487480115e+17
19439.0	6.706470332661761e+17
19440.0	6.655625360572415e+17
19441.0	6.60257430201958e+17
19442.0	6.548273649156097e+17
19443.0	6.488079071532372e+17
19444.0	6.421540116277928e+17
19445.0	6.349069216295596e+17
19446.0	6.271255821593257e+17
19447.0	6.184167761685157e+17
19448.0	6.08563650800299e+17
19449.0	5.956842741388628e+17
19450.0	5.6736104484699514e+17
19451.0	5.551586861034164e+17
19452.0	5.838411072012294e+17
19453.0	6.02624805603465e+17
19454.0	6.131611560400209e+17
19455.0	6.221337450949289e+17
19456.0	6.301166520500225e+17
19457.0	6.373319132927314e+17
19458.0	6.436804862061233e+17
19459.0	6.501432765186049e+17
19460.0	6.555937668770472e+17
19461.0	6.606147188424701e+17
19462.0	6.656763010307416e+17
19463.0	6.70177150771746e+17
19464.0	6.74238586561058e+17
19465.0	6.779268102444372e+17
19466.0	6.812227626947923e+17
19467.0	6.843862349774847e+17
19468.0	6.872762692577964e+17
19469.0	6.900724542384806e+17
19470.0	6.931581527304872e+17
19471.0	6.957351490464428e+17
19472.0	6.98104229029478e+17
19473.0	7.00243149796147e+17
19474.0	7.022280223752191e+17
19475.0	7.03937514779443e+17
19476.0	7.057307468824573e+17
19477.0	7.073125187452927e+17
19478.0	7.087552417409705e+17
19479.0	7.101108651207338e+17
19480.0	7.113789684755114e+17
19481.0	7.125858080085331e+17
19482.0	7.138913993534122e+17
19483.0	7.151747583705088e+17
19484.0	7.163386658466474e+17
19485.0	7.174033721611603e+17
19486.0	7.183822927953917e+17
19487.0	7.192831978373117e+17
19488.0	7.201605573148671e+17
19489.0	7.209157002264575e+17
19490.0	7.21396179699848e+17
19491.0	7.222953712287744e+17
19492.0	7.22933138919697e+17
19493.0	7.235005007440553e+17
19494.0	7.240701400754858e+17
19495.0	7.245486342449833e+17
19496.0	7.249544960715432e+17
19497.0	7.254933900361727e+17
19498.0	7.258097363277144e+17
19499.0	7.230479231789704e+17
19500.0	7.266442793713661e+17
19501.0	7.269961291879764e+17
19502.0	7.273483292289705e+17
19503.0	7.276621629926058e+17
19504.0	7.280151426149033e+17
19505.0	7.282903033577471e+17
19506.0	7.286040395339092e+17
19507.0	7.288260370541225e+17
19508.0	7.291077012051284e+17
19509.0	7.293083203578536e+17
19510.0	7.294642756255743e+17
19511.0	7.274533716579653e+17
19512.0	7.294401024535192e+17
19513.0	7.290148605657068e+17
19514.0	7.295290514778787e+17
19515.0	7.301548821796186e+17
19516.0	7.30398807241523e+17
19517.0	7.304959059383636e+17
19518.0	7.306207594632532e+17
19519.0	7.306990545360212e+17
19520.0	7.30768641954065e+17
19521.0	7.308428672936617e+17
19522.0	7.308966269463212e+17
19523.0	7.309720364777471e+17
19524.0	7.310121659006975e+17
19525.0	7.310308779491327e+17
19526.0	7.310701850088787e+17
19527.0	7.310900896377513e+17
19528.0	7.311070930665472e+17
19529.0	7.311274885687977e+17
19530.0	7.311409237633705e+17
19531.0	7.311420998462121e+17
19532.0	7.311353018580992e+17
19533.0	7.311258971100499e+17
19534.0	7.31110781817105e+17
19535.0	7.310856631091199e+17
19536.0	7.310591872641705e+17
19537.0	7.310496547296596e+17
19538.0	7.310119905787903e+17
19539.0	7.308671579062277e+17
19540.0	7.309532090859519e+17
19541.0	7.309190204751871e+17
19542.0	7.308815766650879e+17
19543.0	7.308417018363901e+17
19544.0	7.307924106554025e+17
19545.0	7.306641636589563e+17
19546.0	7.304779522200918e+17
19547.0	7.306214743124649e+17
19548.0	7.305660923030185e+17
19549.0	7.304849446841e+17
19550.0	7.304501929181181e+17
19551.0	7.303833229896361e+17
19552.0	7.303130900682067e+17
19553.0	7.302370701257386e+17
19554.0	7.301578362279254e+17
19555.0	7.300882655870973e+17
19556.0	7.300134120805716e+17
19557.0	7.299351411949565e+17
19558.0	7.298640387943081e+17
19559.0	7.297805030785024e+17
19560.0	7.296980957702825e+17
19561.0	7.296123015615828e+17
19562.0	7.295302781719892e+17
19563.0	7.29441361863202e+17
19564.0	7.29353466867439e+17
19565.0	7.292606548890964e+17
19566.0	7.291628238667775e+17
19567.0	7.290748955962025e+17
19568.0	7.289729533171028e+17
19569.0	7.28879717154816e+17
19570.0	7.287883709459114e+17
19571.0	7.286903618054826e+17
19572.0	7.285846745721514e+17
19573.0	7.284974141745834e+17
19574.0	7.283752623407101e+17
19575.0	7.282978585575423e+17
19576.0	7.281956274307072e+17
19577.0	7.280745834523305e+17
19578.0	7.279788245559977e+17
19579.0	7.27875728983108e+17
19580.0	7.277708876010836e+17
19581.0	7.276666363576319e+17
19582.0	7.275629777693353e+17
19583.0	7.274545740251135e+17
19584.0	7.273442262209875e+17
19585.0	7.272067102321321e+17
19586.0	7.270797036311892e+17
19587.0	7.269822646364841e+17
19588.0	7.267861709979647e+17
19589.0	7.267621709108564e+17
19590.0	7.266572758417407e+17
19591.0	7.265630359825066e+17
19592.0	7.264511302740649e+17
19593.0	7.263310041492138e+17
19594.0	7.261578565692072e+17
19595.0	7.261016211587071e+17
19596.0	7.253243022628184e+17
19597.0	7.258755799100074e+17
19598.0	7.257107034974889e+17
19599.0	7.256474308837375e+17
19600.0	7.2553168123549e+17
19601.0	7.253986278462803e+17
19602.0	7.252868033675263e+17
19603.0	7.250474712083112e+17
19604.0	7.250446140484266e+17
19605.0	7.248660853161983e+17
19606.0	7.248157701657939e+17
19607.0	7.246988898729983e+17
19608.0	7.24576230108911e+17
19609.0	7.244450965924521e+17
19610.0	7.243393524563968e+17
19611.0	7.24216176513297e+17
19612.0	7.240978944841044e+17
19613.0	7.239760064719529e+17
19614.0	7.238486180495357e+17
19615.0	7.237366109787476e+17
19616.0	7.235953866659156e+17
19617.0	7.234912998391805e+17
19618.0	7.232587112819368e+17
19619.0	7.230948753364305e+17
19620.0	7.229796246705491e+17
19621.0	7.229969131722068e+17
19622.0	7.228754240383658e+17
19623.0	7.227522120242516e+17
19624.0	7.226255279652863e+17
19625.0	7.225032729515347e+17
19626.0	7.223763238125565e+17
19627.0	7.222543373740713e+17
19628.0	7.220633305874433e+17
19629.0	7.219820268006057e+17
19630.0	7.218203765069143e+17
19631.0	7.189163999406748e+17
19632.0	7.216241285180074e+17
19633.0	7.214895211391657e+17
19634.0	7.21376977616896e+17
19635.0	7.212406094692351e+17
19636.0	7.211223204495357e+17
19637.0	7.208943231172609e+17
19638.0	7.208701475684352e+17
19639.0	7.207412721254399e+17
19640.0	7.206036529567059e+17
19641.0	7.203808996229124e+17
19642.0	7.20363494379793e+17
19643.0	7.202307520681302e+17
19644.0	7.200981656447657e+17
19645.0	7.199267387080701e+17
19646.0	7.198586130049706e+17
19647.0	7.19731302596608e+17
19648.0	7.196026659493203e+17
19649.0	7.194744635523071e+17
19650.0	7.193485466315433e+17
19651.0	7.192191786374484e+17
19652.0	7.190909349964457e+17
19653.0	7.189638544359423e+17
19654.0	7.1883419563677e+17
19655.0	7.187048853842602e+17
19656.0	7.185785266634751e+17
19657.0	7.184504780576084e+17
19658.0	7.183235279399593e+17
19659.0	7.181953946091519e+17
19660.0	7.180680439354708e+17
19661.0	7.179383398378153e+17
19662.0	7.178110055219199e+17
19663.0	7.17671085777442e+17
19664.0	7.175389653412522e+17
19665.0	7.174250451085994e+17
19666.0	7.172919061555881e+17
