# Flux units: erg / (cm m2 s)
# Wavelength units: Angstrom
wave	flux
19000.0	4.6599638991503354e+17
19001.0	4.658977619749545e+17
19002.0	4.6583218808640845e+17
19003.0	4.657488951508991e+17
19004.0	4.656640675195562e+17
19005.0	4.6557987029210445e+17
19006.0	4.654816313737215e+17
19007.0	4.6541959503107405e+17
19008.0	4.6532750265548794e+17
19009.0	4.652460296284842e+17
19010.0	4.650809346228221e+17
19011.0	4.650846742642687e+17
19012.0	4.649787859140607e+17
19013.0	4.649259185995775e+17
19014.0	4.64836586775074e+17
19015.0	4.64750877151505e+17
19016.0	4.6466734821649056e+17
19017.0	4.6459676877564576e+17
19018.0	4.6451267444845216e+17
19019.0	4.6442889336586234e+17
19020.0	4.6434885416168096e+17
19021.0	4.642682202051925e+17
19022.0	4.6418618653955405e+17
19023.0	4.6409670896298656e+17
19024.0	4.6400969176514554e+17
19025.0	4.639394048070998e+17
19026.0	4.6385269155648845e+17
19027.0	4.6376381236729165e+17
19028.0	4.63693673468177e+17
19029.0	4.63609100570897e+17
19030.0	4.6353072391891616e+17
19031.0	4.6344872905058976e+17
19032.0	4.633665940925098e+17
19033.0	4.6327211949206176e+17
19034.0	4.6320234920236365e+17
19035.0	4.631187039453183e+17
19036.0	4.621158731917984e+17
19037.0	4.6295673208832e+17
19038.0	4.628733433129642e+17
19039.0	4.627927571715412e+17
19040.0	4.627117945214292e+17
19041.0	4.626293736516266e+17
19042.0	4.622389216280571e+17
19043.0	4.624688853199531e+17
19044.0	4.623856188784638e+17
19045.0	4.623035301975381e+17
19046.0	4.622130592000682e+17
19047.0	4.6214143978154656e+17
19048.0	4.619817762597545e+17
19049.0	4.6135027017536774e+17
19050.0	4.6188716918920525e+17
19051.0	4.616493536204113e+17
19052.0	4.617251149141334e+17
19053.0	4.616528536971946e+17
19054.0	4.615707253800959e+17
19055.0	4.613621936728747e+17
19056.0	4.6137649855638163e+17
19057.0	4.6132632398506656e+17
19058.0	4.609276679028731e+17
19059.0	4.610387992029865e+17
19060.0	4.610792671761748e+17
19061.0	4.610004845155668e+17
19062.0	4.609181266302292e+17
19063.0	4.608383509681492e+17
19064.0	4.607381898701482e+17
19065.0	4.606526771691519e+17
19066.0	4.604695783232853e+17
19067.0	4.605105494731434e+17
19068.0	4.604324079818068e+17
19069.0	4.603511574626304e+17
19070.0	4.602645245329407e+17
19071.0	4.6018706587429536e+17
19072.0	4.5998539667756346e+17
19073.0	4.6002548520605005e+17
19074.0	4.599448063006036e+17
19075.0	4.5986450131735885e+17
19076.0	4.597708799781545e+17
19077.0	4.596995073245183e+17
19078.0	4.596122638439764e+17
19079.0	4.595391861358591e+17
19080.0	4.594571209430357e+17
19081.0	4.593695352072874e+17
19082.0	4.5928927894787405e+17
19083.0	4.592052266336255e+17
19084.0	4.591074029513385e+17
19085.0	4.5905111755871565e+17
19086.0	4.587712975732734e+17
19087.0	4.586092945386151e+17
19088.0	4.586499794272253e+17
19089.0	4.5869468686308685e+17
19090.0	4.586461519850155e+17
19091.0	4.585466130421078e+17
19092.0	4.582353630396422e+17
19093.0	4.584069665565353e+17
19094.0	4.5832616461817165e+17
19095.0	4.5824511311872e+17
19096.0	4.5816178411219603e+17
19097.0	4.580838137484628e+17
19098.0	4.5787604910953805e+17
19099.0	4.5776858936333645e+17
19100.0	4.578355486304938e+17
19101.0	4.5775865172896416e+17
19102.0	4.5765645038168736e+17
19103.0	4.5759833739100154e+17
19104.0	4.5751957143770445e+17
19105.0	4.571616732949171e+17
19106.0	4.573513752335702e+17
19107.0	4.572086065780051e+17
19108.0	4.570929599698262e+17
19109.0	4.570676618854398e+17
19110.0	4.5703531548289696e+17
19111.0	4.5687791422887245e+17
19112.0	4.5677197806359866e+17
19113.0	4.567927784559957e+17
19114.0	4.566609156199764e+17
19115.0	4.5660634101405005e+17
19116.0	4.5654415877952845e+17
19117.0	4.5646762468529485e+17
19118.0	4.563569626578943e+17
19119.0	4.5408907724936205e+17
19120.0	4.5621026400938656e+17
19121.0	4.5614278304071674e+17
19122.0	4.560702986169002e+17
19123.0	4.559905064572245e+17
19124.0	4.5590633733160954e+17
19125.0	4.5582971746385914e+17
19126.0	4.557500921675775e+17
19127.0	4.553676172907856e+17
19128.0	4.555879878404779e+17
19129.0	4.554983661895679e+17
19130.0	4.554278095377748e+17
19131.0	4.553487253067093e+17
19132.0	4.552678199088468e+17
19133.0	4.551823158760789e+17
19134.0	4.551080227285674e+17
19135.0	4.5502773109719046e+17
19136.0	4.5494777438098765e+17
19137.0	4.5484038782539085e+17
19138.0	4.5478660028061e+17
19139.0	4.547089461673982e+17
19140.0	4.546287587644757e+17
19141.0	4.545484652456618e+17
19142.0	4.5446421586903034e+17
19143.0	4.5437747934003194e+17
19144.0	4.5430415242035194e+17
19145.0	4.542284920695466e+17
19146.0	4.5405714007108275e+17
19147.0	4.5404050671970976e+17
19148.0	4.538853429171543e+17
19149.0	4.5378635853114016e+17
19150.0	4.538283944050687e+17
19151.0	4.537490573972821e+17
19152.0	4.536691301810176e+17
19153.0	4.5336870127315584e+17
19154.0	4.534723551778132e+17
19155.0	4.5343070776634016e+17
19156.0	4.5335082570874874e+17
19157.0	4.532024289962668e+17
19158.0	4.5300593270456326e+17
19159.0	4.5310188153296205e+17
19160.0	4.5303065861597856e+17
19161.0	4.529522235932672e+17
19162.0	4.527981281498453e+17
19163.0	4.5279330057584634e+17
19164.0	4.527129953828863e+17
19165.0	4.5239515815608275e+17
19166.0	4.525286019650899e+17
19167.0	4.524600266326015e+17
19168.0	4.523955420048042e+17
19169.0	4.5231314133756576e+17
19170.0	4.522365403441834e+17
19171.0	4.5214982562556576e+17
19172.0	4.5207738265545376e+17
19173.0	4.519979125484202e+17
19174.0	4.519086395140779e+17
19175.0	4.518388487421951e+17
19176.0	4.517597539554645e+17
19177.0	4.516576703982249e+17
19178.0	4.515906963810987e+17
19179.0	4.515007864416938e+17
19180.0	4.5144106458589856e+17
19181.0	4.513309585134932e+17
19182.0	4.5127857864703994e+17
19183.0	4.512045769337513e+17
19184.0	4.5112162394658125e+17
19185.0	4.510437875908607e+17
19186.0	4.5096689495354016e+17
19187.0	4.508794419675134e+17
19188.0	4.508059742590292e+17
19189.0	4.5072946169555616e+17
19190.0	4.5065078515083955e+17
19191.0	4.505639446031017e+17
19192.0	4.504921850948265e+17
19193.0	4.5038654288035834e+17
19194.0	4.502888321646592e+17
19195.0	4.502542851506174e+17
19196.0	4.50172715724527e+17
19197.0	4.5009506433761274e+17
19198.0	4.500177967295146e+17
19199.0	4.493808883815763e+17
19200.0	4.495134461438637e+17
19201.0	4.49778815074304e+17
19202.0	4.4970223931665056e+17
19203.0	4.4962153265889274e+17
19204.0	4.495400037078355e+17
19205.0	4.494641322437291e+17
19206.0	4.493839732222634e+17
19207.0	4.4929306503850656e+17
19208.0	4.491805208171859e+17
19209.0	4.4914801335336954e+17
19210.0	4.4906844516952736e+17
19211.0	4.489917619677866e+17
19212.0	4.489135882502142e+17
19213.0	4.488186880677205e+17
19214.0	4.487354772706646e+17
19215.0	4.4867595751041696e+17
19216.0	4.485991637188607e+17
19217.0	4.4851986564819616e+17
19218.0	4.483120414501544e+17
19219.0	4.4834396429789856e+17
19220.0	4.482807902502912e+17
19221.0	4.4815325978077856e+17
19222.0	4.481269875692885e+17
19223.0	4.480451650169514e+17
19224.0	4.479638599019179e+17
19225.0	4.4786648871512736e+17
19226.0	4.47809738314001e+17
19227.0	4.477317106281129e+17
19228.0	4.476561861028521e+17
19229.0	4.4757643819308365e+17
19230.0	4.4749749062642336e+17
19231.0	4.4741911159767034e+17
19232.0	4.4734178128472736e+17
19233.0	4.472540878252714e+17
19234.0	4.471805801310889e+17
19235.0	4.471020902329002e+17
19236.0	4.4702875793053005e+17
19237.0	4.469468266758144e+17
19238.0	4.4685554051536205e+17
19239.0	4.467939770804906e+17
19240.0	4.467144274214911e+17
19241.0	4.466345786387114e+17
19242.0	4.46555741032721e+17
19243.0	4.4645958598437536e+17
19244.0	4.464019986098859e+17
19245.0	4.4632145049681914e+17
19246.0	4.462431106848085e+17
19247.0	4.46166641742097e+17
19248.0	4.4608966654689274e+17
19249.0	4.4600577263752525e+17
19250.0	4.4588825082593274e+17
19251.0	4.4580096477320506e+17
19252.0	4.457371076831914e+17
19253.0	4.456941558431743e+17
19254.0	4.4562114021075616e+17
19255.0	4.4551536224064845e+17
19256.0	4.4546106229172896e+17
19257.0	4.4538647421474125e+17
19258.0	4.4530862171095034e+17
19259.0	4.45220713992465e+17
19260.0	4.4512126725434016e+17
19261.0	4.450735165713066e+17
19262.0	4.4498683477797536e+17
19263.0	4.4490753426063354e+17
19264.0	4.447467008775508e+17
19265.0	4.44725885874995e+17
19266.0	4.446141810737152e+17
19267.0	4.446075882569727e+17
19268.0	4.445284930508117e+17
19269.0	4.444517263824213e+17
19270.0	4.4437402375509325e+17
19271.0	4.442355818037249e+17
19272.0	4.4421236870785696e+17
19273.0	4.4410549979927885e+17
19274.0	4.440035194918228e+17
19275.0	4.4398553536484685e+17
19276.0	4.4390458781422925e+17
19277.0	4.438282095383893e+17
19278.0	4.4374691246243834e+17
19279.0	4.4367065610103443e+17
19280.0	4.435816440922111e+17
19281.0	4.435167499605332e+17
19282.0	4.43441653813521e+17
19283.0	4.43357867348241e+17
19284.0	4.432829149959508e+17
19285.0	4.43181602911027e+17
19286.0	4.431260120252415e+17
19287.0	4.430533970187606e+17
19288.0	4.427763243723433e+17
19289.0	4.422292962541554e+17
19290.0	4.428217560246953e+17
19291.0	4.427089830040919e+17
19292.0	4.426663651704832e+17
19293.0	4.4258791777457485e+17
19294.0	4.4250922522159776e+17
19295.0	4.4243427133139635e+17
19296.0	4.4222418514520774e+17
19297.0	4.422555327441579e+17
19298.0	4.4219798927005e+17
19299.0	4.419761635764907e+17
19300.0	4.4204346593771514e+17
19301.0	4.4196869079476896e+17
19302.0	4.4189157131550714e+17
19303.0	4.418025603552596e+17
19304.0	4.417334037621418e+17
19305.0	4.416581212482218e+17
19306.0	4.415825352764074e+17
19307.0	4.414965874163711e+17
19308.0	4.414244645415593e+17
19309.0	4.4132957519435085e+17
19310.0	4.4124839933378554e+17
19311.0	4.4118954017641805e+17
19312.0	4.4111434105924256e+17
19313.0	4.41030128242961e+17
19314.0	4.3758720905816275e+17
19315.0	4.3770800564251923e+17
19316.0	4.40629143133662e+17
19317.0	4.4072787760906234e+17
19318.0	4.406549201376596e+17
19319.0	4.4058054289435296e+17
19320.0	4.4045280662432403e+17
19321.0	4.403097957477034e+17
19322.0	4.4034092671085216e+17
19323.0	4.4026579854731936e+17
19324.0	4.4019644887640736e+17
19325.0	4.4010004580488525e+17
19326.0	4.4004387575562234e+17
19327.0	4.3996332128119456e+17
19328.0	4.39639480327646e+17
19329.0	4.39813243281954e+17
19330.0	4.3973008162815994e+17
19331.0	4.3965325812695034e+17
19332.0	4.395832568010068e+17
19333.0	4.395041657891498e+17
19334.0	4.3942360977681056e+17
19335.0	4.388426285580294e+17
19336.0	4.392718702040406e+17
19337.0	4.391987264356351e+17
19338.0	4.390910143321428e+17
19339.0	4.390445862529706e+17
19340.0	4.3890691346705056e+17
19341.0	4.38701176564395e+17
19342.0	4.387033223703211e+17
19343.0	4.387394525244074e+17
19344.0	4.3847576970417517e+17
19345.0	4.3810653722378157e+17
19346.0	4.384034898225836e+17
19347.0	4.3819206076006394e+17
19348.0	4.383567569573206e+17
19349.0	4.382757462824276e+17
19350.0	4.3811523257521485e+17
19351.0	4.38118893363746e+17
19352.0	4.377915923890171e+17
19353.0	4.3797408124327245e+17
19354.0	4.3789839978113696e+17
19355.0	4.378076365804886e+17
19356.0	4.377449468351828e+17
19357.0	4.3766912262690125e+17
19358.0	4.3759234701066234e+17
19359.0	4.374581241795922e+17
19360.0	4.3723834404809376e+17
19361.0	4.3735686592157e+17
19362.0	4.3728776839823354e+17
19363.0	4.3721143821707936e+17
19364.0	4.3713531138976416e+17
19365.0	4.370579341006165e+17
19366.0	4.3698173666918394e+17
19367.0	4.369061871878143e+17
19368.0	4.3683039003279354e+17
19369.0	4.3674712932351994e+17
19370.0	4.3667433459111245e+17
19371.0	4.365940474336597e+17
19372.0	4.3652480891180365e+17
19373.0	4.36446812962816e+17
19374.0	4.3637235267229005e+17
19375.0	4.3629714831223456e+17
19376.0	4.362216678970708e+17
19377.0	4.361440782363306e+17
19378.0	4.3606875077345274e+17
19379.0	4.3599318136913914e+17
19380.0	4.359158913914196e+17
19381.0	4.358387853339306e+17
19382.0	4.3575464158385485e+17
19383.0	4.356730815250432e+17
19384.0	4.356092054907562e+17
19385.0	4.355366924058623e+17
19386.0	4.3546182813395616e+17
19387.0	4.353856493671765e+17
19388.0	4.3530491285995514e+17
19389.0	4.3521537991857485e+17
19390.0	4.351392920283817e+17
19391.0	4.341944496947185e+17
19392.0	4.3498392305445536e+17
19393.0	4.349093830022485e+17
19394.0	4.3483172008099834e+17
19395.0	4.346805108779692e+17
19396.0	4.346620008551765e+17
19397.0	4.346033761594025e+17
19398.0	4.344617915558571e+17
19399.0	4.3422387888892563e+17
19400.0	4.343147179365717e+17
19401.0	4.342955826129579e+17
19402.0	4.3422015553535994e+17
19403.0	4.341405806406313e+17
19404.0	4.3406563360112634e+17
19405.0	4.339857112782164e+17
19406.0	4.3391082987956896e+17
19407.0	4.337458671342931e+17
19408.0	4.336130658926595e+17
19409.0	4.336785382790485e+17
19410.0	4.336034041036799e+17
19411.0	4.3352557592685216e+17
19412.0	4.3344637124935674e+17
19413.0	4.33276709835025e+17
19414.0	4.332845062772053e+17
19415.0	4.33210834096401e+17
19416.0	4.331073571913727e+17
19417.0	4.330444098458965e+17
19418.0	4.329761255282004e+17
19419.0	4.328961447646549e+17
19420.0	4.32817492337186e+17
19421.0	4.327368815891796e+17
19422.0	4.3264970256110925e+17
19423.0	4.3257359859275085e+17
19424.0	4.3249245761481376e+17
19425.0	4.324092944231083e+17
19426.0	4.3232586678053536e+17
19427.0	4.3224085515905696e+17
19428.0	4.3215506752143354e+17
19429.0	4.3206789828007245e+17
19430.0	4.319716624913749e+17
19431.0	4.316933745453743e+17
19432.0	4.3179261527326714e+17
19433.0	4.3169462402853536e+17
19434.0	4.3159213648991565e+17
19435.0	4.314699078303744e+17
19436.0	4.3126774510387174e+17
19437.0	4.312369322786815e+17
19438.0	4.292622250147842e+17
19439.0	4.3086514183208954e+17
19440.0	4.307953811193855e+17
19441.0	4.3060850369495034e+17
19442.0	4.303738061717504e+17
19443.0	4.3007336503050234e+17
19444.0	4.2967493320376314e+17
19445.0	4.2910571470083405e+17
19446.0	4.282302453164714e+17
19447.0	4.2674068431831014e+17
19448.0	4.237944890064898e+17
19449.0	4.1637795807450445e+17
19450.0	3.937806360160927e+17
19451.0	3.758278447551827e+17
19452.0	4.013456257362605e+17
19453.0	4.188189765926917e+17
19454.0	4.2432559254077414e+17
19455.0	4.265974733733887e+17
19456.0	4.2772095649710086e+17
19457.0	4.283208361312255e+17
19458.0	4.165035497270154e+17
19459.0	4.285995305751912e+17
19460.0	4.290597023470933e+17
19461.0	4.2914958558276256e+17
19462.0	4.2918637186580474e+17
19463.0	4.2920077930004474e+17
19464.0	4.2919080734228474e+17
19465.0	4.291733466644479e+17
19466.0	4.2913673584312314e+17
19467.0	4.291040649412607e+17
19468.0	4.2905896023490554e+17
19469.0	4.2878137168909606e+17
19470.0	4.2895529130065914e+17
19471.0	4.289006699981482e+17
19472.0	4.288331287713109e+17
19473.0	4.28770015191586e+17
19474.0	4.285320408683858e+17
19475.0	4.284812412758695e+17
19476.0	4.2857781568471034e+17
19477.0	4.2851556039939405e+17
19478.0	4.2845494012368205e+17
19479.0	4.282097096545617e+17
19480.0	4.2831418179802445e+17
19481.0	4.2823264907209376e+17
19482.0	4.2817519032292685e+17
19483.0	4.2811049597992954e+17
19484.0	4.2803699667435514e+17
19485.0	4.2795762093916154e+17
19486.0	4.277029992136709e+17
19487.0	4.278240682180607e+17
19488.0	4.2775597620920314e+17
19489.0	4.2768060938977274e+17
19490.0	4.2732761816323354e+17
19491.0	4.2753438294999034e+17
19492.0	4.2746805765188256e+17
19493.0	4.2739582327848954e+17
19494.0	4.273220352649898e+17
19495.0	4.2724880823965005e+17
19496.0	4.2708987704333626e+17
19497.0	4.270996245359275e+17
19498.0	4.270092785287168e+17
19499.0	4.255022198030318e+17
19500.0	4.268850826706943e+17
19501.0	4.268293915410432e+17
19502.0	4.267643762638847e+17
19503.0	4.2669155231115936e+17
19504.0	4.2661720561636685e+17
19505.0	4.26539483205905e+17
19506.0	4.2647020357986976e+17
19507.0	4.263905000598186e+17
19508.0	4.2632104916637e+17
19509.0	4.262439833042943e+17
19510.0	4.260976051006121e+17
19511.0	4.2082375191319315e+17
19512.0	4.258349526810614e+17
19513.0	4.2548310684904026e+17
19514.0	4.2559774913112704e+17
19515.0	4.257124433526787e+17
19516.0	4.257073023243604e+17
19517.0	4.2563866309864096e+17
19518.0	4.2553349840568314e+17
19519.0	4.2545745874998605e+17
19520.0	4.252607337289042e+17
19521.0	4.2536305272640845e+17
19522.0	4.2526094302467405e+17
19523.0	4.2517442390043315e+17
19524.0	4.250099079184387e+17
19525.0	4.250633374094676e+17
19526.0	4.2499468832713376e+17
19527.0	4.24917797507345e+17
19528.0	4.2483414505007776e+17
19529.0	4.247536777472682e+17
19530.0	4.2470045783162874e+17
19531.0	4.2462685989000525e+17
19532.0	4.245528515357353e+17
19533.0	4.2447887044444154e+17
19534.0	4.2440619671770445e+17
19535.0	4.243303148377428e+17
19536.0	4.242528534528e+17
19537.0	4.241837508962985e+17
19538.0	4.2394311039385626e+17
19539.0	4.2392805207354074e+17
19540.0	4.2396113450653005e+17
19541.0	4.2385686341003936e+17
19542.0	4.2380277883863034e+17
19543.0	4.235715690190166e+17
19544.0	4.236611640360958e+17
19545.0	4.235346495668218e+17
19546.0	4.2334552756060166e+17
19547.0	4.234520089154902e+17
19548.0	4.2337851876747936e+17
19549.0	4.232910802518015e+17
19550.0	4.232306300551168e+17
19551.0	4.2315873709806925e+17
19552.0	4.230843850205865e+17
19553.0	4.230089254371327e+17
19554.0	4.2292894502311245e+17
19555.0	4.228449565321898e+17
19556.0	4.227785497247743e+17
19557.0	4.2271666549555194e+17
19558.0	4.226450150391806e+17
19559.0	4.225727176813227e+17
19560.0	4.224363898688852e+17
19561.0	4.2242253552353274e+17
19562.0	4.222929269161983e+17
19563.0	4.222806073365845e+17
19564.0	4.222057848679081e+17
19565.0	4.22133798867217e+17
19566.0	4.220558439525034e+17
19567.0	4.219884553284266e+17
19568.0	4.219128210522111e+17
19569.0	4.218388915508565e+17
19570.0	4.2176780914305696e+17
19571.0	4.2169499623533216e+17
19572.0	4.2161848597872634e+17
19573.0	4.215288687318355e+17
19574.0	4.214577182365012e+17
19575.0	4.214044751822847e+17
19576.0	4.213217673521833e+17
19577.0	4.212288129772202e+17
19578.0	4.211783531932329e+17
19579.0	4.211082984598186e+17
19580.0	4.2103681549598714e+17
19581.0	4.209633938549418e+17
19582.0	4.2089456099218765e+17
19583.0	4.208222082695168e+17
19584.0	4.207484376623786e+17
19585.0	4.2065975294907725e+17
19586.0	4.205837221713238e+17
19587.0	4.205274166460415e+17
19588.0	4.2037624980548275e+17
19589.0	4.203826896699391e+17
19590.0	4.202867149766655e+17
19591.0	4.2023904859914234e+17
19592.0	4.201660978386262e+17
19593.0	4.200776424139433e+17
19594.0	4.199698707513342e+17
19595.0	4.199459065255253e+17
19596.0	4.1987262364603725e+17
19597.0	4.198027943564629e+17
19598.0	4.1961458356278586e+17
19599.0	4.1965844298028365e+17
19600.0	4.195864221668693e+17
19601.0	4.1950398871415456e+17
19602.0	4.1943583176349005e+17
19603.0	4.192898729902079e+17
19604.0	4.1929235399092896e+17
19605.0	4.191780124404394e+17
19606.0	4.191503518444201e+17
19607.0	4.190795691196415e+17
19608.0	4.1900408499950925e+17
19609.0	4.189263248403114e+17
19610.0	4.1877938117454515e+17
19611.0	4.186646049543509e+17
19612.0	4.1871821850542074e+17
19613.0	4.186435285068459e+17
19614.0	4.1856814134504096e+17
19615.0	4.185010404502186e+17
19616.0	4.183393830961154e+17
19617.0	4.182280202704215e+17
19618.0	4.1818533455899283e+17
19619.0	4.1805509205251366e+17
19620.0	4.1797642389640486e+17
19621.0	4.178890246673748e+17
19622.0	4.179952853319679e+17
19623.0	4.1791571519078394e+17
19624.0	4.178279013548032e+17
19625.0	4.1777861150201165e+17
19626.0	4.177054176815786e+17
19627.0	4.176349856006143e+17
19628.0	4.175495517525333e+17
19629.0	4.170513960839847e+17
19630.0	4.174146902687743e+17
19631.0	4.168332880816807e+17
19632.0	4.1727283639091194e+17
19633.0	4.171938447840596e+17
19634.0	4.171293559619583e+17
19635.0	4.170352463358633e+17
19636.0	4.167808314594642e+17
19637.0	4.1667640545334586e+17
19638.0	4.1682660837294074e+17
19639.0	4.167684212828843e+17
19640.0	4.1668980415747405e+17
19641.0	4.163111046436193e+17
19642.0	4.165414767908181e+17
19643.0	4.1646871491379194e+17
19644.0	4.1640128784192845e+17
19645.0	4.1628989691439763e+17
19646.0	4.160516553441275e+17
19647.0	4.161916078740821e+17
19648.0	4.161235575286442e+17
19649.0	4.160502696858965e+17
19650.0	4.159801177844393e+17
19651.0	4.159080128053247e+17
19652.0	4.1583603729039354e+17
19653.0	4.1576428910673914e+17
19654.0	4.156929051983872e+17
19655.0	4.156191546540031e+17
