# Flux units: erg / (cm m2 s)
# Wavelength units: Angstrom
wave	flux
19000.0	5.313632899082921e+17
19001.0	5.312481545158655e+17
19002.0	5.311741140052649e+17
19003.0	5.3108026652317e+17
19004.0	5.309736582206804e+17
19005.0	5.3087300065689594e+17
19006.0	5.307822647192234e+17
19007.0	5.3069900400994976e+17
19008.0	5.3060169385028256e+17
19009.0	5.304796863703721e+17
19010.0	5.303976018837504e+17
19011.0	5.302926550848853e+17
19012.0	5.301349382793897e+17
19013.0	5.3013016012827296e+17
19014.0	5.3002751047980365e+17
19015.0	5.2993322867752954e+17
19016.0	5.298496580091902e+17
19017.0	5.2976024495499936e+17
19018.0	5.29660072043042e+17
19019.0	5.2957073910005754e+17
19020.0	5.2947235421989536e+17
19021.0	5.2937978683938125e+17
19022.0	5.292871153003179e+17
19023.0	5.2916550096650234e+17
19024.0	5.290493243381077e+17
19025.0	5.2897396045469005e+17
19026.0	5.2886181448253434e+17
19027.0	5.28762725798161e+17
19028.0	5.2868212259990176e+17
19029.0	5.2858893879650976e+17
19030.0	5.28490894004497e+17
19031.0	5.2839527198228474e+17
19032.0	5.2827956798204576e+17
19033.0	5.2811208005604685e+17
19034.0	5.278794121565526e+17
19035.0	5.2711899784369485e+17
19036.0	5.2503835756025165e+17
19037.0	5.2704971800794445e+17
19038.0	5.2752118119574176e+17
19039.0	5.2756451499704314e+17
19040.0	5.275157768350377e+17
19041.0	5.2744544031429965e+17
19042.0	5.261665555709936e+17
19043.0	5.272854496367957e+17
19044.0	5.2719727725772794e+17
19045.0	5.27087143293201e+17
19046.0	5.269979953889279e+17
19047.0	5.268942612332543e+17
19048.0	5.2661366544138214e+17
19049.0	5.2415592563124595e+17
19050.0	5.264549126427987e+17
19051.0	5.2608418971647974e+17
19052.0	5.260880792343892e+17
19053.0	5.262240422122836e+17
19054.0	5.262041484186964e+17
19055.0	5.2576978713531725e+17
19056.0	5.259611577778171e+17
19057.0	5.259865749105321e+17
19058.0	5.246236351266795e+17
19059.0	5.253116228272124e+17
19060.0	5.2571490956083194e+17
19061.0	5.256168476420779e+17
19062.0	5.2552248957337594e+17
19063.0	5.254391516190036e+17
19064.0	5.2534240587284474e+17
19065.0	5.2524101269804365e+17
19066.0	5.2469662573308634e+17
19067.0	5.250497828443477e+17
19068.0	5.2497669066588154e+17
19069.0	5.248824680032938e+17
19070.0	5.2477790610172576e+17
19071.0	5.246829214739113e+17
19072.0	5.241243771251364e+17
19073.0	5.2451258379796474e+17
19074.0	5.244047573297834e+17
19075.0	5.243214289524053e+17
19076.0	5.2422490445578234e+17
19077.0	5.2413020643874125e+17
19078.0	5.2403396911213216e+17
19079.0	5.239410108923903e+17
19080.0	5.238498341333674e+17
19081.0	5.237512930153812e+17
19082.0	5.2366630180618234e+17
19083.0	5.235557366672042e+17
19084.0	5.234500006401366e+17
19085.0	5.2336824988030285e+17
19086.0	5.2256486373457875e+17
19087.0	5.2210066948532755e+17
19088.0	5.224151286895947e+17
19089.0	5.2296888614911994e+17
19090.0	5.2289739304905376e+17
19091.0	5.2272988128542765e+17
19092.0	5.21718504637511e+17
19093.0	5.226298017666389e+17
19094.0	5.2254255632875514e+17
19095.0	5.224451733979135e+17
19096.0	5.223606439116798e+17
19097.0	5.2226832853893114e+17
19098.0	5.216584013097637e+17
19099.0	5.214525426324828e+17
19100.0	5.2197758218185376e+17
19101.0	5.2188792348125856e+17
19102.0	5.2179749386758816e+17
19103.0	5.2170297711438496e+17
19104.0	5.2161815724250445e+17
19105.0	5.203765923676193e+17
19106.0	5.214090646170283e+17
19107.0	5.210356731346938e+17
19108.0	5.207654514644312e+17
19109.0	5.2109091092998816e+17
19110.0	5.2101288590049274e+17
19111.0	5.2060433105114406e+17
19112.0	5.204590873367887e+17
19113.0	5.207738417501524e+17
19114.0	5.2044577818105126e+17
19115.0	5.2054310672575136e+17
19116.0	5.2048717952669005e+17
19117.0	5.2038947601121274e+17
19118.0	5.2021579135057914e+17
19119.0	5.195652338286586e+17
19120.0	5.2004779269816314e+17
19121.0	5.1999599150585165e+17
19122.0	5.199409065929385e+17
19123.0	5.1986062922219514e+17
19124.0	5.1971952458683725e+17
19125.0	5.1967025962024954e+17
19126.0	5.1956251494099616e+17
19127.0	5.1943615363372365e+17
19128.0	5.1936686457050445e+17
19129.0	5.192983451620693e+17
19130.0	5.1921886995196576e+17
19131.0	5.191287726669823e+17
19132.0	5.1903188690097485e+17
19133.0	5.189420086984703e+17
19134.0	5.188498476761087e+17
19135.0	5.1876253988290554e+17
19136.0	5.1866755728233805e+17
19137.0	5.185663304815956e+17
19138.0	5.1848447276701005e+17
19139.0	5.1839579972785485e+17
19140.0	5.183054366638079e+17
19141.0	5.182096956631722e+17
19142.0	5.1811283051915936e+17
19143.0	5.1802231771845965e+17
19144.0	5.179251336675327e+17
19145.0	5.178374332874751e+17
19146.0	5.176886710413994e+17
19147.0	5.1765147057083725e+17
19148.0	5.1715382066544704e+17
19149.0	5.169808163908267e+17
19150.0	5.1737961528907085e+17
19151.0	5.172809417009834e+17
19152.0	5.171825029240149e+17
19153.0	5.162257637965809e+17
19154.0	5.1692758878563e+17
19155.0	5.169024076524202e+17
19156.0	5.1680461158263443e+17
19157.0	5.164286194221064e+17
19158.0	5.159832838821214e+17
19159.0	5.164972634712746e+17
19160.0	5.164012820671146e+17
19161.0	5.162916369487188e+17
19162.0	5.1616128182517754e+17
19163.0	5.160950342615038e+17
19164.0	5.160310883221502e+17
19165.0	5.1501929867509606e+17
19166.0	5.158636916222634e+17
19167.0	5.157874179943081e+17
19168.0	5.156985945893546e+17
19169.0	5.1561222345413965e+17
19170.0	5.155250869283497e+17
19171.0	5.1543020100648954e+17
19172.0	5.153364521604436e+17
19173.0	5.152555782897662e+17
19174.0	5.151608248380074e+17
19175.0	5.1506767591724365e+17
19176.0	5.1498050255148365e+17
19177.0	5.1486984779421e+17
19178.0	5.1478260403404794e+17
19179.0	5.146962359746559e+17
19180.0	5.1460691533496314e+17
19181.0	5.145114092153513e+17
19182.0	5.144050837487615e+17
19183.0	5.1432728122709325e+17
19184.0	5.1423775017314976e+17
19185.0	5.1413633015480314e+17
19186.0	5.140445561967955e+17
19187.0	5.139395159348564e+17
19188.0	5.1384960613526176e+17
19189.0	5.137440234799103e+17
19190.0	5.1364036607999994e+17
19191.0	5.1352813000021325e+17
19192.0	5.1341032807901856e+17
19193.0	5.131659988959233e+17
19194.0	5.129571246538754e+17
19195.0	5.1297984205291514e+17
19196.0	5.127748511072255e+17
19197.0	5.125121241688746e+17
19198.0	5.121542915970387e+17
19199.0	5.11654747054626e+17
19200.0	5.116029627094357e+17
19201.0	5.119041865078099e+17
19202.0	5.1207997782753274e+17
19203.0	5.121330342352212e+17
19204.0	5.121708567210666e+17
19205.0	5.1215154859212794e+17
19206.0	5.121096786728276e+17
19207.0	5.120303754291881e+17
19208.0	5.119782971331925e+17
19209.0	5.1191210647224314e+17
19210.0	5.1182848973646496e+17
19211.0	5.117557754647892e+17
19212.0	5.116702636725589e+17
19213.0	5.1157268633572685e+17
19214.0	5.1148663788229965e+17
19215.0	5.114116295360511e+17
19216.0	5.113272601324203e+17
19217.0	5.112389695438847e+17
19218.0	5.1113035314845e+17
19219.0	5.1104122915170976e+17
19220.0	5.109726045361493e+17
19221.0	5.1088680389618336e+17
19222.0	5.107928568692736e+17
19223.0	5.107132570184361e+17
19224.0	5.1061911964002976e+17
19225.0	5.1053869994257043e+17
19226.0	5.1045303925254816e+17
19227.0	5.103617817531732e+17
19228.0	5.1027663346728954e+17
19229.0	5.101725578952702e+17
19230.0	5.1009439305564154e+17
19231.0	5.1001056968048634e+17
19232.0	5.0991982248809805e+17
19233.0	5.098219740594175e+17
19234.0	5.0973310353844896e+17
19235.0	5.0964437904916474e+17
19236.0	5.0955788830638074e+17
19237.0	5.094602654613503e+17
19238.0	5.0937015804013216e+17
19239.0	5.092876862794409e+17
19240.0	5.091950844357289e+17
19241.0	5.0910755797947725e+17
19242.0	5.0900855863377914e+17
19243.0	5.089169259539113e+17
19244.0	5.088366856328534e+17
19245.0	5.087504759783423e+17
19246.0	5.0866254875634336e+17
19247.0	5.0857231277970765e+17
19248.0	5.0847838805251405e+17
19249.0	5.0835379834934605e+17
19250.0	5.081095257194496e+17
19251.0	5.080169608555174e+17
19252.0	5.080945985410388e+17
19253.0	5.080270422846122e+17
19254.0	5.0794113406074874e+17
19255.0	5.078313598276947e+17
19256.0	5.0775297129185274e+17
19257.0	5.0766493389946874e+17
19258.0	5.0756855340728294e+17
19259.0	5.074536628223998e+17
19260.0	5.0725740581573965e+17
19261.0	5.072819791243946e+17
19262.0	5.071889435896489e+17
19263.0	5.070965351033513e+17
19264.0	5.070123732478633e+17
19265.0	5.069255520638292e+17
19266.0	5.0683745490261325e+17
19267.0	5.067685343090004e+17
19268.0	5.066749486213803e+17
19269.0	5.0658726774483616e+17
19270.0	5.064948026354346e+17
19271.0	5.063947587682302e+17
19272.0	5.0631733212610554e+17
19273.0	5.0621801687941114e+17
19274.0	5.06106252239394e+17
19275.0	5.060524804931583e+17
19276.0	5.0596089772550816e+17
19277.0	5.058725113670314e+17
19278.0	5.057534424864083e+17
19279.0	5.056817900027903e+17
19280.0	5.0559430353223686e+17
19281.0	5.0549784181036365e+17
19282.0	5.054052640139945e+17
19283.0	5.053018388387157e+17
19284.0	5.0519098757829965e+17
19285.0	5.0507380858115405e+17
19286.0	5.0490870441792845e+17
19287.0	5.045862041736534e+17
19288.0	5.031764889523538e+17
19289.0	5.0268859031442726e+17
19290.0	5.0426004824391674e+17
19291.0	5.044281956543147e+17
19292.0	5.044472858891604e+17
19293.0	5.0439221139210234e+17
19294.0	5.043124416719529e+17
19295.0	5.042385216776875e+17
19296.0	5.035845217506661e+17
19297.0	5.039739386200068e+17
19298.0	5.039765098681685e+17
19299.0	5.0325431111734675e+17
19300.0	5.038002977199445e+17
19301.0	5.037144347246591e+17
19302.0	5.036234955729577e+17
19303.0	5.0351974366139725e+17
19304.0	5.034356689076223e+17
19305.0	5.0333596771505485e+17
19306.0	5.0323976352344736e+17
19307.0	5.031263773655039e+17
19308.0	5.0302274974515194e+17
19309.0	5.0288438762536954e+17
19310.0	5.027572685471743e+17
19311.0	5.0260748470845434e+17
19312.0	5.023460130553855e+17
19313.0	5.0153632447856646e+17
19314.0	4.8680917682968275e+17
19315.0	4.874190702947035e+17
19316.0	5.0057393373621024e+17
19317.0	5.019238111991124e+17
19318.0	5.0201884916449274e+17
19319.0	5.019983148307798e+17
19320.0	5.0173499334983616e+17
19321.0	5.013727500479147e+17
19322.0	5.0180563906068474e+17
19323.0	5.0172475386538656e+17
19324.0	5.0163531208021325e+17
19325.0	5.015537743211177e+17
19326.0	5.014718125178879e+17
19327.0	5.013917098399062e+17
19328.0	5.002836765048841e+17
19329.0	5.0122757498033485e+17
19330.0	5.011430401813162e+17
19331.0	5.010541969233236e+17
19332.0	5.009669237331283e+17
19333.0	5.0088073477051725e+17
19334.0	5.0076442210686317e+17
19335.0	4.9862016276016045e+17
19336.0	5.0059850935173126e+17
19337.0	5.0052912941192525e+17
19338.0	5.004216213613225e+17
19339.0	5.003437345341439e+17
19340.0	5.002415007509161e+17
19341.0	4.993934429607271e+17
19342.0	4.998458526138376e+17
19343.0	4.999834434011135e+17
19344.0	4.991212080944482e+17
19345.0	4.994087170779828e+17
19346.0	4.996475670320469e+17
19347.0	4.986492047501995e+17
19348.0	4.9954634848010234e+17
19349.0	4.994572775413076e+17
19350.0	4.98990991732463e+17
19351.0	4.992743243076949e+17
19352.0	4.9815231303515994e+17
19353.0	4.9910871319292576e+17
19354.0	4.990241439307093e+17
19355.0	4.989265979113472e+17
19356.0	4.988433685195434e+17
19357.0	4.9875736061105485e+17
19358.0	4.986641961713664e+17
19359.0	4.983539129559713e+17
19360.0	4.9766959114704186e+17
19361.0	4.9839643725660154e+17
19362.0	4.98309158543906e+17
19363.0	4.982210294360746e+17
19364.0	4.9813261259898874e+17
19365.0	4.9803913428555085e+17
19366.0	4.979438694083242e+17
19367.0	4.978577026056192e+17
19368.0	4.9777263506008736e+17
19369.0	4.9767763372496205e+17
19370.0	4.9759072467025914e+17
19371.0	4.974939601895423e+17
19372.0	4.9740818184929274e+17
19373.0	4.973109976585556e+17
19374.0	4.972240516939775e+17
19375.0	4.971400224484009e+17
19376.0	4.97050869441058e+17
19377.0	4.969598421390677e+17
19378.0	4.9686892451812685e+17
19379.0	4.967767720241835e+17
19380.0	4.966691942782293e+17
19381.0	4.965821338091519e+17
19382.0	4.964858460809898e+17
19383.0	4.963928353625428e+17
19384.0	4.962879786713088e+17
19385.0	4.962049000647338e+17
19386.0	4.961001559905619e+17
19387.0	4.9598444297256954e+17
19388.0	4.9585001776633165e+17
19389.0	4.956556268055211e+17
19390.0	4.95167376195584e+17
19391.0	4.9309065611837376e+17
19392.0	4.9437355327269536e+17
19393.0	4.951642048124244e+17
19394.0	4.9524917393162234e+17
19395.0	4.949178416715101e+17
19396.0	4.950789997636269e+17
19397.0	4.950622275807914e+17
19398.0	4.946982660123308e+17
19399.0	4.945097226103465e+17
19400.0	4.9454073704174957e+17
19401.0	4.946891989756585e+17
19402.0	4.945983658000383e+17
19403.0	4.9450095043324576e+17
19404.0	4.9439403720485536e+17
19405.0	4.942885236157098e+17
19406.0	4.941899311874047e+17
19407.0	4.937228746751994e+17
19408.0	4.939587084353536e+17
19409.0	4.93857046335761e+17
19410.0	4.9375905089672525e+17
19411.0	4.936501053882368e+17
19412.0	4.93533583568623e+17
19413.0	4.930496328892416e+17
19414.0	4.9330264197474976e+17
19415.0	4.9317377792628045e+17
19416.0	4.930311498498047e+17
19417.0	4.9291768078445216e+17
19418.0	4.927960403061419e+17
19419.0	4.9266362333265914e+17
19420.0	4.9252577620350285e+17
19421.0	4.9238333456383994e+17
19422.0	4.9222356940008083e+17
19423.0	4.9207263848912205e+17
19424.0	4.9190321503163725e+17
19425.0	4.917153051792724e+17
19426.0	4.9152774282499405e+17
19427.0	4.9131843321419085e+17
19428.0	4.910684914231978e+17
19429.0	4.907763941507072e+17
19430.0	4.903455170756607e+17
19431.0	4.8997972553236486e+17
19432.0	4.899094833135615e+17
19433.0	4.89661920252177e+17
19434.0	4.892952685969407e+17
19435.0	4.887472279737683e+17
19436.0	4.881042866787669e+17
19437.0	4.8701421132622496e+17
19438.0	4.8252820347945e+17
19439.0	4.845565732978685e+17
19440.0	4.8592103141976736e+17
19441.0	4.856142118606164e+17
19442.0	4.848756839852714e+17
19443.0	4.8390198372160845e+17
19444.0	4.8273141645967334e+17
19445.0	4.81245042643217e+17
19446.0	4.7941787386729805e+17
19447.0	4.770590093213695e+17
19448.0	4.739453520882347e+17
19449.0	4.6945567534394016e+17
19450.0	4.616238171597477e+17
19451.0	4.5514947908949357e+17
19452.0	4.661344244596736e+17
19453.0	4.715717186988715e+17
19454.0	4.7499491514777574e+17
19455.0	4.7735243283278496e+17
19456.0	4.787782209066324e+17
19457.0	4.782403580417369e+17
19458.0	4.425237719067504e+17
19459.0	4.7102079029740186e+17
19460.0	4.82363013612612e+17
19461.0	4.839904986355028e+17
19462.0	4.847994673299455e+17
19463.0	4.8536596512767994e+17
19464.0	4.857900875557546e+17
19465.0	4.8612746821195085e+17
19466.0	4.863904988878164e+17
19467.0	4.8661349807773005e+17
19468.0	4.8679084226860365e+17
19469.0	4.862136655631689e+17
19470.0	4.870490547377492e+17
19471.0	4.871461996418389e+17
19472.0	4.8721546766363296e+17
19473.0	4.8726495422928205e+17
19474.0	4.8654795292016506e+17
19475.0	4.872821430463146e+17
19476.0	4.873263224193023e+17
19477.0	4.873379938391381e+17
19478.0	4.873420637820245e+17
19479.0	4.866107731782302e+17
19480.0	4.873079027138559e+17
19481.0	4.8727276814772896e+17
19482.0	4.872437603412651e+17
19483.0	4.872110107962026e+17
19484.0	4.8716321110971725e+17
19485.0	4.8711851758496416e+17
19486.0	4.863080133558294e+17
19487.0	4.870080976388095e+17
19488.0	4.869488688933545e+17
19489.0	4.8686519385675085e+17
19490.0	4.8677996126535674e+17
19491.0	4.867441492492288e+17
19492.0	4.8668742569164794e+17
19493.0	4.866071781004628e+17
19494.0	4.86512836808977e+17
19495.0	4.863877011472383e+17
19496.0	4.8617680657885856e+17
19497.0	4.8578408312995834e+17
19498.0	4.839844523365714e+17
19499.0	4.8218705354205856e+17
19500.0	4.8523437457189536e+17
19501.0	4.857589901470379e+17
19502.0	4.858440263750998e+17
19503.0	4.858303335803562e+17
19504.0	4.857734138691583e+17
19505.0	4.8567724637771085e+17
19506.0	4.8560636515669325e+17
19507.0	4.8548376586048845e+17
19508.0	4.8529575045147296e+17
19509.0	4.849141921699156e+17
19510.0	4.8315697326981075e+17
19511.0	4.6408717950429446e+17
19512.0	4.81214775706692e+17
19513.0	4.828706665835175e+17
19514.0	4.833193535122088e+17
19515.0	4.845331470614527e+17
19516.0	4.846037648102739e+17
19517.0	4.847207850530134e+17
19518.0	4.844745157946022e+17
19519.0	4.844094327095292e+17
19520.0	4.8382542145563194e+17
19521.0	4.845237999850837e+17
19522.0	4.843271505313789e+17
19523.0	4.8418326500256474e+17
19524.0	4.837180214083598e+17
19525.0	4.8420292985705805e+17
19526.0	4.8413874749876896e+17
19527.0	4.840636953919487e+17
19528.0	4.839212278175059e+17
19529.0	4.838090243833858e+17
19530.0	4.838218858670762e+17
19531.0	4.8373977069213005e+17
19532.0	4.836579133270698e+17
19533.0	4.8357183425522336e+17
19534.0	4.834966178015915e+17
19535.0	4.834137389836969e+17
19536.0	4.833266766970879e+17
19537.0	4.832346624054612e+17
19538.0	4.824473331040265e+17
19539.0	4.830688029179903e+17
19540.0	4.829946604158975e+17
19541.0	4.827420239243945e+17
19542.0	4.827596547511636e+17
19543.0	4.8199216429793325e+17
19544.0	4.826101730421417e+17
19545.0	4.825409143177214e+17
19546.0	4.8246980150121805e+17
19547.0	4.824156649903445e+17
19548.0	4.823381718685013e+17
19549.0	4.822442091828564e+17
19550.0	4.8216796134987085e+17
19551.0	4.820957165606228e+17
19552.0	4.8200678074832205e+17
19553.0	4.8192752322259616e+17
19554.0	4.818377488990207e+17
19555.0	4.8166621458814304e+17
19556.0	4.816088375579987e+17
19557.0	4.815831924648619e+17
19558.0	4.8150956851855354e+17
19559.0	4.814278599114751e+17
19560.0	4.810711170897232e+17
19561.0	4.812597084465833e+17
19562.0	4.809137277894653e+17
19563.0	4.8109909987819514e+17
19564.0	4.81003078418432e+17
19565.0	4.8092672922309965e+17
19566.0	4.8083806387350176e+17
19567.0	4.8076445691412474e+17
19568.0	4.806785356879187e+17
19569.0	4.8059668377545376e+17
19570.0	4.805071736930303e+17
19571.0	4.804247029809151e+17
19572.0	4.8034467335372794e+17
19573.0	4.801697717157886e+17
19574.0	4.801385303725396e+17
19575.0	4.800989905988266e+17
19576.0	4.7996732985835514e+17
19577.0	4.7979311405902496e+17
19578.0	4.7984699828251296e+17
19579.0	4.797642375342762e+17
19580.0	4.796763752540842e+17
19581.0	4.7958971128654496e+17
19582.0	4.795145277581994e+17
19583.0	4.7943357307726496e+17
19584.0	4.793407879424682e+17
19585.0	4.792530848361129e+17
19586.0	4.791666723870036e+17
19587.0	4.7909072703324154e+17
19588.0	4.789967050681002e+17
19589.0	4.789240141447166e+17
19590.0	4.7883297097427616e+17
19591.0	4.7876170164032845e+17
19592.0	4.7868099225627296e+17
19593.0	4.785251379314687e+17
19594.0	4.784269498340692e+17
19595.0	4.784312629067776e+17
19596.0	4.7833144811847674e+17
19597.0	4.782611327090687e+17
19598.0	4.781393061434708e+17
19599.0	4.7809034092980896e+17
19600.0	4.7800652650250234e+17
19601.0	4.779223394811904e+17
19602.0	4.778318981234687e+17
19603.0	4.777386545512447e+17
19604.0	4.7766458957387085e+17
19605.0	4.775709722891605e+17
19606.0	4.775070464824661e+17
19607.0	4.774318475750058e+17
19608.0	4.7733738178259616e+17
19609.0	4.772622789946026e+17
19610.0	4.7682989190021184e+17
19611.0	4.76571218057626e+17
19612.0	4.7701591012147194e+17
19613.0	4.769227039484585e+17
19614.0	4.7683947364788896e+17
19615.0	4.767527866116778e+17
19616.0	4.7630834781388864e+17
19617.0	4.760522858343087e+17
19618.0	4.7643467997074765e+17
19619.0	4.762908412783275e+17
19620.0	4.7611892514597466e+17
19621.0	4.754745110211239e+17
19622.0	4.761593321619455e+17
19623.0	4.7603290654201165e+17
19624.0	4.7586392761084595e+17
19625.0	4.758794834455211e+17
19626.0	4.757631686847147e+17
19627.0	4.7563704848001696e+17
19628.0	4.754622568726528e+17
19629.0	4.734465813949088e+17
19630.0	4.748610735789396e+17
19631.0	4.7457198530013856e+17
19632.0	4.7489995177110176e+17
19633.0	4.750021560543915e+17
19634.0	4.7504431083683834e+17
19635.0	4.749353853911034e+17
19636.0	4.7411264204308384e+17
19637.0	4.740487894968994e+17
19638.0	4.747726151483387e+17
19639.0	4.747482897929557e+17
19640.0	4.746414442326698e+17
19641.0	4.745289616676181e+17
19642.0	4.744576235470847e+17
19643.0	4.7438208308346874e+17
19644.0	4.74355961097967e+17
19645.0	4.742779455056553e+17
19646.0	4.732961953240391e+17
19647.0	4.7410044836249574e+17
19648.0	4.7404175900453536e+17
19649.0	4.739567832443562e+17
19650.0	4.7387677409935354e+17
19651.0	4.737955985184085e+17
19652.0	4.7371557273599994e+17
19653.0	4.7362691521576954e+17
19654.0	4.735521423097855e+17
19655.0	4.7346468813537274e+17
