# Flux units: erg / (cm m2 s)
# Wavelength units: Angstrom
wave	flux
19000.0	5.1151050368177485e+17
19001.0	5.114076654294356e+17
19002.0	5.113212334069076e+17
19003.0	5.112254260663636e+17
19004.0	5.111301483965098e+17
19005.0	5.110365361449642e+17
19006.0	5.1094256381242016e+17
19007.0	5.108306010614441e+17
19008.0	5.1074839598858234e+17
19009.0	5.1064695667643725e+17
19010.0	5.105268617292457e+17
19011.0	5.10458337567266e+17
19012.0	5.1030055861616634e+17
19013.0	5.1028191675241805e+17
19014.0	5.1018310985536845e+17
19015.0	5.1008974653576525e+17
19016.0	5.099936962052094e+17
19017.0	5.099034932936703e+17
19018.0	5.0980499887226874e+17
19019.0	5.0971419736364365e+17
19020.0	5.096184704139262e+17
19021.0	5.095255809108649e+17
19022.0	5.094314829589162e+17
19023.0	5.093339814690815e+17
19024.0	5.092403611784531e+17
19025.0	5.091412878032896e+17
19026.0	5.090445859575124e+17
19027.0	5.0889494171921056e+17
19028.0	5.0886485905244154e+17
19029.0	5.0876899131391994e+17
19030.0	5.0867664616161274e+17
19031.0	5.085827698087253e+17
19032.0	5.084879315621204e+17
19033.0	5.083865510401363e+17
19034.0	5.0829864569842336e+17
19035.0	5.081864549171198e+17
19036.0	5.034177631442267e+17
19037.0	5.080127265658196e+17
19038.0	5.079207101071359e+17
19039.0	5.07828506792209e+17
19040.0	5.0773433194468685e+17
19041.0	5.0763902309717325e+17
19042.0	5.075316134729045e+17
19043.0	5.074519515463679e+17
19044.0	5.073562808003242e+17
19045.0	5.0726153972176205e+17
19046.0	5.0716508680792736e+17
19047.0	5.0707240646082554e+17
19048.0	5.0696236484089165e+17
19049.0	5.068679456751615e+17
19050.0	5.067884789934762e+17
19051.0	5.0610567027971366e+17
19052.0	5.0643224375241363e+17
19053.0	5.065067374575615e+17
19054.0	5.064165416064342e+17
19055.0	5.063005094718122e+17
19056.0	5.06225971237137e+17
19057.0	5.06134017413393e+17
19058.0	5.060289244430335e+17
19059.0	5.0594375539534496e+17
19060.0	5.0585086211741005e+17
19061.0	5.057595726714196e+17
19062.0	5.0566526025072634e+17
19063.0	5.0557153545202336e+17
19064.0	5.054669883004245e+17
19065.0	5.0537017020252154e+17
19066.0	5.0528336055282336e+17
19067.0	5.05195556573457e+17
19068.0	5.051025750054228e+17
19069.0	5.050088908914687e+17
19070.0	5.0491327432185165e+17
19071.0	5.048191635772758e+17
19072.0	5.0472414518531405e+17
19073.0	5.0463370739275085e+17
19074.0	5.0454046179328e+17
19075.0	5.0444679340796576e+17
19076.0	5.04351567188241e+17
19077.0	5.042578627319124e+17
19078.0	5.0416305370562554e+17
19079.0	5.0407199830179834e+17
19080.0	5.0397715662984525e+17
19081.0	5.038820024822441e+17
19082.0	5.037880958604627e+17
19083.0	5.0368988119913805e+17
19084.0	5.0358678206109005e+17
19085.0	5.035105413584213e+17
19086.0	5.033826506681002e+17
19087.0	5.031992263442432e+17
19088.0	5.0321409724907514e+17
19089.0	5.030608357031935e+17
19090.0	5.0304038742261754e+17
19091.0	5.029464206824788e+17
19092.0	5.028196021261653e+17
19093.0	5.027635676927315e+17
19094.0	5.026700693165396e+17
19095.0	5.0257668153016314e+17
19096.0	5.0248175107877536e+17
19097.0	5.0238989638041594e+17
19098.0	5.0229377041257805e+17
19099.0	5.0219986805500576e+17
19100.0	5.021032786864811e+17
19101.0	5.0201414916724045e+17
19102.0	5.019147930959871e+17
19103.0	5.0183098251345914e+17
19104.0	5.017377934671872e+17
19105.0	5.0163782097305594e+17
19106.0	5.0152837955802445e+17
19107.0	5.014550396360021e+17
19108.0	5.013624757507412e+17
19109.0	5.009484851533137e+17
19110.0	5.0115890891106976e+17
19111.0	5.010825905438719e+17
19112.0	5.0099025608704e+17
19113.0	5.008996041752575e+17
19114.0	5.0080529252351994e+17
19115.0	5.007001783020202e+17
19116.0	5.0061915763070285e+17
19117.0	5.005257952198655e+17
19118.0	5.0040471552e+17
19119.0	4.997868965680464e+17
19120.0	5.0021323240024723e+17
19121.0	5.001281714257919e+17
19122.0	5.00063480508143e+17
19123.0	4.9997057639492256e+17
19124.0	4.998596592839338e+17
19125.0	4.997802286732628e+17
19126.0	4.9969064386232314e+17
19127.0	4.9944619695909536e+17
19128.0	4.9939558995503763e+17
19129.0	4.994078608108203e+17
19130.0	4.9931890633386656e+17
19131.0	4.992245758776661e+17
19132.0	4.991351655497727e+17
19133.0	4.9901221344269645e+17
19134.0	4.98903456607983e+17
19135.0	4.9885575101371725e+17
19136.0	4.9876495453825696e+17
19137.0	4.9865891204737696e+17
19138.0	4.985738224118442e+17
19139.0	4.9848694187840845e+17
19140.0	4.9839459791448736e+17
19141.0	4.983019448303614e+17
19142.0	4.9820644010885114e+17
19143.0	4.981124086366207e+17
19144.0	4.9802115169648634e+17
19145.0	4.9793082057905485e+17
19146.0	4.97790298812143e+17
19147.0	4.9773562291377485e+17
19148.0	4.976499724298921e+17
19149.0	4.9755716786148685e+17
19150.0	4.974689266958335e+17
19151.0	4.973768294268927e+17
19152.0	4.9728027983435085e+17
19153.0	4.9718661822982816e+17
19154.0	4.970883147890687e+17
19155.0	4.97006449664546e+17
19156.0	4.9691516644010656e+17
19157.0	4.968160284027562e+17
19158.0	4.965028505583612e+17
19159.0	4.96636543509026e+17
19160.0	4.965408276043093e+17
19161.0	4.9644533197045754e+17
19162.0	4.958612173269678e+17
19163.0	4.9623934089297914e+17
19164.0	4.9617686659508896e+17
19165.0	4.9606884572091725e+17
19166.0	4.959688705703935e+17
19167.0	4.9585278237190816e+17
19168.0	4.958042094654805e+17
19169.0	4.9570532567285754e+17
19170.0	4.956239382795604e+17
19171.0	4.954999975750314e+17
19172.0	4.95436920136226e+17
19173.0	4.9534587430939296e+17
19174.0	4.9525141327052794e+17
19175.0	4.9516404011608736e+17
19176.0	4.9507233823020365e+17
19177.0	4.9496774410239994e+17
19178.0	4.9487302245744634e+17
19179.0	4.94753275777297e+17
19180.0	4.946958036063572e+17
19181.0	4.946020903419902e+17
19182.0	4.945161654807209e+17
19183.0	4.944272588887381e+17
19184.0	4.9433348326905165e+17
19185.0	4.9424411502400845e+17
19186.0	4.941526154433877e+17
19187.0	4.940545619831466e+17
19188.0	4.9396685747869005e+17
19189.0	4.938721193361408e+17
19190.0	4.9377810596932256e+17
19191.0	4.936856273682432e+17
19192.0	4.936012175594836e+17
19193.0	4.9350637693610656e+17
19194.0	4.934143666989738e+17
19195.0	4.933254352906921e+17
19196.0	4.9323280310818125e+17
19197.0	4.9314112072581114e+17
19198.0	4.9304720990972576e+17
19199.0	4.901192007505226e+17
19200.0	4.907921684387168e+17
19201.0	4.927728110622035e+17
19202.0	4.926834572176043e+17
19203.0	4.925836889860777e+17
19204.0	4.924975019109035e+17
19205.0	4.9240825655896736e+17
19206.0	4.923161258054996e+17
19207.0	4.922152218263551e+17
19208.0	4.9211698521483936e+17
19209.0	4.920415609334442e+17
19210.0	4.919507758525097e+17
19211.0	4.9185988780141216e+17
19212.0	4.917682962956287e+17
19213.0	4.916454073128277e+17
19214.0	4.915380221553322e+17
19215.0	4.9148094557716474e+17
19216.0	4.914017325110612e+17
19217.0	4.9131027193746765e+17
19218.0	4.911475191709695e+17
19219.0	4.9111535438178976e+17
19220.0	4.910321807043242e+17
19221.0	4.909174901877419e+17
19222.0	4.9085060320242336e+17
19223.0	4.907597421346815e+17
19224.0	4.9066592485157536e+17
19225.0	4.9056578947863885e+17
19226.0	4.904854284315306e+17
19227.0	4.903938395821398e+17
19228.0	4.903041685782527e+17
19229.0	4.902127256207359e+17
19230.0	4.9011735315961165e+17
19231.0	4.9002608922897056e+17
19232.0	4.899367472682324e+17
19233.0	4.898407550986922e+17
19234.0	4.897536217186304e+17
19235.0	4.896619438800895e+17
19236.0	4.895727018835966e+17
19237.0	4.894799435923455e+17
19238.0	4.8937778789307725e+17
19239.0	4.892983378487977e+17
19240.0	4.8920353707130874e+17
19241.0	4.891127383588864e+17
19242.0	4.890223590768638e+17
19243.0	4.889207659036672e+17
19244.0	4.888416102296234e+17
19245.0	4.887498731115862e+17
19246.0	4.88657381228544e+17
19247.0	4.8856735063299405e+17
19248.0	4.884752105821525e+17
19249.0	4.883825617622356e+17
19250.0	4.8829047721601696e+17
19251.0	4.8818899134709754e+17
19252.0	4.88090478191138e+17
19253.0	4.8801700398148256e+17
19254.0	4.879267590569983e+17
19255.0	4.878232605513044e+17
19256.0	4.8773774281714336e+17
19257.0	4.876528743612415e+17
19258.0	4.875619170342229e+17
19259.0	4.8746529453069645e+17
19260.0	4.8728743374138016e+17
19261.0	4.872863720931328e+17
19262.0	4.8719140431243936e+17
19263.0	4.87097443164706e+17
19264.0	4.869670616170495e+17
19265.0	4.869033373466623e+17
19266.0	4.868096821734058e+17
19267.0	4.8673868546921805e+17
19268.0	4.8664697743168845e+17
19269.0	4.865553559366313e+17
19270.0	4.864634108510207e+17
19271.0	4.863436498403327e+17
19272.0	4.862779012590249e+17
19273.0	4.860639685465428e+17
19274.0	4.8601036086749856e+17
19275.0	4.8600594566348794e+17
19276.0	4.859126504314196e+17
19277.0	4.858214118763178e+17
19278.0	4.8572954368628045e+17
19279.0	4.8563290741145594e+17
19280.0	4.8554007054690976e+17
19281.0	4.8545397357936634e+17
19282.0	4.8536365252826445e+17
19283.0	4.852239665463295e+17
19284.0	4.8514421723845965e+17
19285.0	4.8507322395962016e+17
19286.0	4.8499328765569696e+17
19287.0	4.8490394541533856e+17
19288.0	4.8326523755342317e+17
19289.0	4.818834757604668e+17
19290.0	4.8462799928907085e+17
19291.0	4.8451596607378765e+17
19292.0	4.8444376015175674e+17
19293.0	4.8435128539545594e+17
19294.0	4.8425891130245114e+17
19295.0	4.8416751091711994e+17
19296.0	4.8407205149409274e+17
19297.0	4.839785373892608e+17
19298.0	4.838883202170878e+17
19299.0	4.837944413476181e+17
19300.0	4.8370446024485536e+17
19301.0	4.8361236164771834e+17
19302.0	4.8351824761760416e+17
19303.0	4.8342037297452365e+17
19304.0	4.8333134132237645e+17
19305.0	4.8323991800818336e+17
19306.0	4.8309501018767354e+17
19307.0	4.829864093111636e+17
19308.0	4.8289545443082234e+17
19309.0	4.826934754847401e+17
19310.0	4.825739768277672e+17
19311.0	4.8260143190289056e+17
19312.0	4.82527147004177e+17
19313.0	4.824339376155306e+17
19314.0	4.764240497169806e+17
19315.0	4.765992924217363e+17
19316.0	4.821389994011306e+17
19317.0	4.820594923842217e+17
19318.0	4.8196541666208416e+17
19319.0	4.818726628447572e+17
19320.0	4.8177685403620685e+17
19321.0	4.8168176077591885e+17
19322.0	4.8157397401381536e+17
19323.0	4.814503387944277e+17
19324.0	4.813981306847232e+17
19325.0	4.8119888041301325e+17
19326.0	4.8121048814933325e+17
19327.0	4.811148167042389e+17
19328.0	4.810154049186474e+17
19329.0	4.8092609399575885e+17
19330.0	4.808275769950207e+17
19331.0	4.8073124452761594e+17
19332.0	4.8063741347321165e+17
19333.0	4.8054051365628576e+17
19334.0	4.80446019342609e+17
19335.0	4.803393337251156e+17
19336.0	4.802514157305855e+17
19337.0	4.801567200204117e+17
19338.0	4.8004281195124045e+17
19339.0	4.799617838699859e+17
19340.0	4.798544925949951e+17
19341.0	4.7975809707322016e+17
19342.0	4.796314400675156e+17
19343.0	4.7957115044276896e+17
19344.0	4.794689239296682e+17
19345.0	4.792150982830761e+17
19346.0	4.791850100938068e+17
19347.0	4.7916482675343354e+17
19348.0	4.7907675105307296e+17
19349.0	4.789728629664425e+17
19350.0	4.7887096458772474e+17
19351.0	4.78772578099746e+17
19352.0	4.7866265329117856e+17
19353.0	4.785730459708074e+17
19354.0	4.784717979888298e+17
19355.0	4.783617899233279e+17
19356.0	4.7826689938773325e+17
19357.0	4.7816400947554976e+17
19358.0	4.780576943549098e+17
19359.0	4.7794741338002765e+17
19360.0	4.7784405950791674e+17
19361.0	4.7774358306815994e+17
19362.0	4.7764186210850125e+17
19363.0	4.775356052187817e+17
19364.0	4.774287855233706e+17
19365.0	4.773218799146325e+17
19366.0	4.772140320555006e+17
19367.0	4.771049684773546e+17
19368.0	4.7699646169306445e+17
19369.0	4.7687851101388794e+17
19370.0	4.7676090231029766e+17
19371.0	4.766606256592212e+17
19372.0	4.7655241380440736e+17
19373.0	4.7643705911978656e+17
19374.0	4.7632574145276576e+17
19375.0	4.7621028946029216e+17
19376.0	4.760954711572479e+17
19377.0	4.7597806713569274e+17
19378.0	4.758608027844606e+17
19379.0	4.757427556362921e+17
19380.0	4.7562290843265696e+17
19381.0	4.755015837854377e+17
19382.0	4.753743034362538e+17
19383.0	4.752471231212201e+17
19384.0	4.751310180756138e+17
19385.0	4.750057210729813e+17
19386.0	4.7487873768052045e+17
19387.0	4.7474932788319565e+17
19388.0	4.74619470553634e+17
19389.0	4.744872648332629e+17
19390.0	4.743526811522389e+17
19391.0	4.701225215153451e+17
19392.0	4.73829002165179e+17
19393.0	4.739422217393493e+17
19394.0	4.737988904179029e+17
19395.0	4.736487215420757e+17
19396.0	4.7350405223765325e+17
19397.0	4.732851085202773e+17
19398.0	4.7311694461228365e+17
19399.0	4.7290850490013005e+17
19400.0	4.728039700518228e+17
19401.0	4.7265708860156576e+17
19402.0	4.724973138608127e+17
19403.0	4.723330195477845e+17
19404.0	4.7216806379301536e+17
19405.0	4.7199770598440954e+17
19406.0	4.7182601131130874e+17
19407.0	4.7164845782466554e+17
19408.0	4.7140291508961274e+17
19409.0	4.711595975726422e+17
19410.0	4.709636005429247e+17
19411.0	4.707698936031913e+17
19412.0	4.7057073267015674e+17
19413.0	4.703645518004223e+17
19414.0	4.700930505179133e+17
19415.0	4.697629003524778e+17
19416.0	4.6950405160741536e+17
19417.0	4.6924986084666016e+17
19418.0	4.6886003950660275e+17
19419.0	4.6858642751051085e+17
19420.0	4.681851262205951e+17
19421.0	4.6777621163977376e+17
19422.0	4.6724247303400083e+17
19423.0	4.667308681898666e+17
19424.0	4.660697354993664e+17
19425.0	4.652366114586629e+17
19426.0	4.642306932080636e+17
19427.0	4.630121816260601e+17
19428.0	4.6189420765074765e+17
19429.0	4.612453607058089e+17
19430.0	4.60462498687659e+17
19431.0	4.592141558874117e+17
19432.0	4.5916850165732685e+17
19433.0	4.583690385140394e+17
19434.0	4.574340100128766e+17
19435.0	4.563584989615443e+17
19436.0	4.5508660081022246e+17
19437.0	4.542358337792681e+17
19438.0	4.4578750049812806e+17
19439.0	4.5033031096511123e+17
19440.0	4.4825251134395725e+17
19441.0	4.4349872479928256e+17
19442.0	4.394523554392747e+17
19443.0	4.3621749778022394e+17
19444.0	4.326259189699923e+17
19445.0	4.287096041417388e+17
19446.0	4.242812572794885e+17
19447.0	4.165048265430362e+17
19448.0	4.0414399357255706e+17
19449.0	3.8826729191506074e+17
19450.0	3.37543651498392e+17
19451.0	3.2004959189510656e+17
19452.0	3.6710105617530944e+17
19453.0	3.9829154880116166e+17
19454.0	4.098419187864917e+17
19455.0	4.208709640475987e+17
19456.0	4.259260965147989e+17
19457.0	4.298569035721383e+17
19458.0	4.197284221463304e+17
19459.0	4.3496668027071654e+17
19460.0	4.397522987166368e+17
19461.0	4.447323841101808e+17
19462.0	4.48111827467196e+17
19463.0	4.5008199719321536e+17
19464.0	4.514943389575845e+17
19465.0	4.525859049657685e+17
19466.0	4.535142291516071e+17
19467.0	4.543508887808681e+17
19468.0	4.5515532776680083e+17
19469.0	4.5579801369859405e+17
19470.0	4.564312274938538e+17
19471.0	4.569791452938239e+17
19472.0	4.574725825101824e+17
19473.0	4.5792204209957536e+17
19474.0	4.585467915097428e+17
19475.0	4.596278720375461e+17
19476.0	4.606019502079994e+17
19477.0	4.6129843549853056e+17
19478.0	4.618285951746044e+17
19479.0	4.6228459885690874e+17
19480.0	4.6265472164823046e+17
19481.0	4.6285466460924576e+17
19482.0	4.632043107385342e+17
19483.0	4.633100157277524e+17
19484.0	4.634873864825514e+17
19485.0	4.636611897720832e+17
19486.0	4.637137780954453e+17
19487.0	4.637701213694634e+17
19488.0	4.6397651768661325e+17
19489.0	4.6399707466956794e+17
19490.0	4.639301888027306e+17
19491.0	4.6406707431778976e+17
19492.0	4.640895060847274e+17
19493.0	4.6412262626645325e+17
19494.0	4.642411945568938e+17
19495.0	4.6424549658460154e+17
19496.0	4.642103420955306e+17
19497.0	4.6424249311341216e+17
19498.0	4.6321943022578266e+17
19499.0	4.579779088307547e+17
19500.0	4.6421962604762445e+17
19501.0	4.64205078733346e+17
19502.0	4.641855008407552e+17
19503.0	4.6416934843624096e+17
19504.0	4.641464111158613e+17
19505.0	4.6412345883579725e+17
19506.0	4.641053063075157e+17
19507.0	4.641556125799766e+17
19508.0	4.6412611180298234e+17
19509.0	4.6409253157601274e+17
19510.0	4.6403596111052794e+17
19511.0	4.535047219926346e+17
19512.0	4.626721711412566e+17
19513.0	4.6213020142359706e+17
19514.0	4.6243297669502125e+17
19515.0	4.637710516660907e+17
19516.0	4.6380693281832954e+17
19517.0	4.6375779158370976e+17
19518.0	4.637139227989334e+17
19519.0	4.636612185030656e+17
19520.0	4.636085962757461e+17
19521.0	4.6356343194036896e+17
19522.0	4.635074964226047e+17
19523.0	4.6345492466674336e+17
19524.0	4.633980501841237e+17
19525.0	4.633439422644223e+17
19526.0	4.6328797815548576e+17
19527.0	4.6322957156351994e+17
19528.0	4.631697940632916e+17
19529.0	4.6310994323264845e+17
19530.0	4.630507387442517e+17
19531.0	4.629893060318549e+17
19532.0	4.6292710792888314e+17
19533.0	4.6286417638195194e+17
19534.0	4.628001985658879e+17
19535.0	4.627354195678549e+17
19536.0	4.6266789169288525e+17
19537.0	4.6260565702956365e+17
19538.0	4.62521039323136e+17
19539.0	4.624296710242304e+17
19540.0	4.6240308396031994e+17
19541.0	4.6233616957221536e+17
19542.0	4.622680925929472e+17
19543.0	4.62195559375394e+17
19544.0	4.621300499393194e+17
19545.0	4.620137577578496e+17
19546.0	4.619188301026644e+17
19547.0	4.6192046329473696e+17
19548.0	4.6184874482073594e+17
19549.0	4.6177099661530445e+17
19550.0	4.617062531989502e+17
19551.0	4.616343355654143e+17
19552.0	4.6156178815713274e+17
19553.0	4.614866149048319e+17
19554.0	4.614128556223146e+17
19555.0	4.613407142925651e+17
19556.0	4.612682379777364e+17
19557.0	4.6119450092503034e+17
19558.0	4.611203605899945e+17
19559.0	4.610456399730004e+17
19560.0	4.6096748946391034e+17
19561.0	4.6089391473076896e+17
19562.0	4.6081933944640845e+17
19563.0	4.6074552319126176e+17
19564.0	4.606698551508991e+17
19565.0	4.6059396607071565e+17
19566.0	4.6051540976271354e+17
19567.0	4.604413222759081e+17
19568.0	4.6036322629277e+17
19569.0	4.602869836327594e+17
19570.0	4.6021158067240954e+17
19571.0	4.601338266648575e+17
19572.0	4.6005524526093645e+17
19573.0	4.5997723281435296e+17
19574.0	4.5989582200285856e+17
19575.0	4.59824799224081e+17
19576.0	4.597466171878057e+17
19577.0	4.596651754083668e+17
19578.0	4.5958733583701325e+17
19579.0	4.5951094162281805e+17
19580.0	4.594324658454527e+17
19581.0	4.593552640879274e+17
19582.0	4.592781093066068e+17
19583.0	4.591995106361344e+17
19584.0	4.591179879765332e+17
19585.0	4.5903348400564896e+17
19586.0	4.5894997107889485e+17
19587.0	4.5886545130946554e+17
19588.0	4.5876419626707635e+17
19589.0	4.5872294556685645e+17
19590.0	4.586358167306238e+17
19591.0	4.585659617159849e+17
19592.0	4.584876237914111e+17
19593.0	4.584062711409321e+17
19594.0	4.58308991459874e+17
19595.0	4.5824358219775994e+17
19596.0	4.579566932022614e+17
19597.0	4.580697138965162e+17
19598.0	4.579721213902847e+17
19599.0	4.5792953033031674e+17
19600.0	4.578503984939008e+17
19601.0	4.57764814070306e+17
19602.0	4.57684121882897e+17
19603.0	4.5753128598896634e+17
19604.0	4.575158385071444e+17
19605.0	4.574264828450132e+17
19606.0	4.573690571609428e+17
19607.0	4.572895256772608e+17
19608.0	4.572075250068138e+17
19609.0	4.571246533891413e+17
19610.0	4.5704599998300154e+17
19611.0	4.569644298578602e+17
19612.0	4.5688750073009485e+17
19613.0	4.568061737347755e+17
19614.0	4.5672336293451085e+17
19615.0	4.5664271597567994e+17
19616.0	4.565286444684628e+17
19617.0	4.5648378624737274e+17
19618.0	4.563548490082985e+17
19619.0	4.5626436920279034e+17
19620.0	4.5618684944711674e+17
19621.0	4.5616061197844474e+17
19622.0	4.5608406851693216e+17
19623.0	4.5600303791909536e+17
19624.0	4.5592101557807776e+17
19625.0	4.558413347072682e+17
19626.0	4.557607363324585e+17
19627.0	4.5567842835933856e+17
19628.0	4.555237450143062e+17
19629.0	4.554998730631851e+17
19630.0	4.5505408076349414e+17
19631.0	4.522157553309023e+17
19632.0	4.5527354820962976e+17
19633.0	4.551854065188864e+17
19634.0	4.551131599820117e+17
19635.0	4.55028274888704e+17
19636.0	4.549460422732457e+17
19637.0	4.548390577416874e+17
19638.0	4.547874376034985e+17
19639.0	4.5470594982652576e+17
19640.0	4.546097806573568e+17
19641.0	4.544632303474005e+17
19642.0	4.544642526390953e+17
19643.0	4.543819854206293e+17
19644.0	4.542973347889151e+17
19645.0	4.541988492454569e+17
19646.0	4.5413629714322765e+17
19647.0	4.540596163182591e+17
19648.0	4.539791178377898e+17
19649.0	4.538978039846228e+17
19650.0	4.5381693997055994e+17
19651.0	4.5373542227421856e+17
19652.0	4.536545299486036e+17
19653.0	4.5357188768945485e+17
19654.0	4.534919327208789e+17
19655.0	4.534105099556181e+17
