# Flux units: erg / (cm m2 s)
# Wavelength units: Angstrom
wave	flux
19000.0	6.140564995047423e+17
19001.0	6.139335687187113e+17
19002.0	6.138311804452863e+17
19003.0	6.137182879569236e+17
19004.0	6.136055459741695e+17
19005.0	6.134921072476159e+17
19006.0	6.133802948624383e+17
19007.0	6.132672813684052e+17
19008.0	6.131488563833514e+17
19009.0	6.130267557199872e+17
19010.0	6.128877579534333e+17
19011.0	6.128127180799999e+17
19012.0	6.126903601659903e+17
19013.0	6.12590625558801e+17
19014.0	6.124728292300116e+17
19015.0	6.123615869206528e+17
19016.0	6.122491823696553e+17
19017.0	6.121405814232404e+17
19018.0	6.120273224925183e+17
19019.0	6.11915529191424e+17
19020.0	6.118017589750441e+17
19021.0	6.116911229523284e+17
19022.0	6.115781475565568e+17
19023.0	6.114622555815935e+17
19024.0	6.113517100859391e+17
19025.0	6.112408011538431e+17
19026.0	6.111262229047977e+17
19027.0	6.110105226794324e+17
19028.0	6.109037022849705e+17
19029.0	6.107899659026431e+17
19030.0	6.106805894993235e+17
19031.0	6.105681830608895e+17
19032.0	6.104551002210303e+17
19033.0	6.103334358351871e+17
19034.0	6.102273034463913e+17
19035.0	6.10097690714658e+17
19036.0	6.095365937823741e+17
19037.0	6.098799504130047e+17
19038.0	6.097777494851583e+17
19039.0	6.096692432601087e+17
19040.0	6.095581687229097e+17
19041.0	6.0944547329693e+17
19042.0	6.093152827998208e+17
19043.0	6.092223184284329e+17
19044.0	6.091090855723008e+17
19045.0	6.089979609830739e+17
19046.0	6.088804916002815e+17
19047.0	6.087693050751657e+17
19048.0	6.086420273124694e+17
19049.0	6.085225759113215e+17
19050.0	6.084303792373759e+17
19051.0	6.082540601343997e+17
19052.0	6.081888686265684e+17
19053.0	6.081010095620095e+17
19054.0	6.079903729101482e+17
19055.0	6.078499327224492e+17
19056.0	6.077631415975935e+17
19057.0	6.07654629220898e+17
19058.0	6.075324736121513e+17
19059.0	6.074272397131773e+17
19060.0	6.073183586571603e+17
19061.0	6.072083654814377e+17
19062.0	6.070962125187754e+17
19063.0	6.069843430910633e+17
19064.0	6.068621924455763e+17
19065.0	6.067436939902976e+17
19066.0	6.066401956244137e+17
19067.0	6.065370583881044e+17
19068.0	6.064268264865792e+17
19069.0	6.063153243400874e+17
19070.0	6.062009309200383e+17
19071.0	6.060916474205524e+17
19072.0	6.059770887449257e+17
19073.0	6.058689453970772e+17
19074.0	6.057578479310164e+17
19075.0	6.056463442466131e+17
19076.0	6.055333868164436e+17
19077.0	6.054215235403775e+17
19078.0	6.053085026364074e+17
19079.0	6.052004258381823e+17
19080.0	6.050879744507903e+17
19081.0	6.049731172106239e+17
19082.0	6.04863419523618e+17
19083.0	6.047446790569983e+17
19084.0	6.046212703300265e+17
19085.0	6.045311066352297e+17
19086.0	6.043775354099027e+17
19087.0	6.042938995900415e+17
19088.0	6.041828368667988e+17
19089.0	6.040649457467391e+17
19090.0	6.039720826677929e+17
19091.0	6.038619705835519e+17
19092.0	6.037401025642496e+17
19093.0	6.036430725840895e+17
19094.0	6.035324223706452e+17
19095.0	6.034214516424703e+17
19096.0	6.033092037487274e+17
19097.0	6.03199030497553e+17
19098.0	6.030843018827092e+17
19099.0	6.029720057544701e+17
19100.0	6.028646078043476e+17
19101.0	6.027545707981481e+17
19102.0	6.026341929451519e+17
19103.0	6.025333299303763e+17
19104.0	6.024228767793151e+17
19105.0	6.023025202473641e+17
19106.0	6.021994960475476e+17
19107.0	6.020855429595133e+17
19108.0	6.019735616137897e+17
19109.0	6.018453441871872e+17
19110.0	6.017511580150442e+17
19111.0	6.016437727876435e+17
19112.0	6.01533198770722e+17
19113.0	6.014255304278015e+17
19114.0	6.013130503793321e+17
19115.0	6.011989828567039e+17
19116.0	6.010910230795603e+17
19117.0	6.00979746656529e+17
19118.0	6.008542776175274e+17
19119.0	6.001411618417312e+17
19120.0	6.006406919137962e+17
19121.0	6.005365405646847e+17
19122.0	6.004301268779008e+17
19123.0	6.00319890502451e+17
19124.0	6.002063467085823e+17
19125.0	6.00097640555042e+17
19126.0	5.99980145447185e+17
19127.0	5.997199250948096e+17
19128.0	5.997568961369427e+17
19129.0	5.996476696799913e+17
19130.0	5.99545581928448e+17
19131.0	5.994368930414591e+17
19132.0	5.993264815538175e+17
19133.0	5.992115276349437e+17
19134.0	5.991054871713108e+17
19135.0	5.989957871774378e+17
19136.0	5.988853885523284e+17
19137.0	5.987625833857023e+17
19138.0	5.986634284313257e+17
19139.0	5.985555116457983e+17
19140.0	5.984457615299924e+17
19141.0	5.983356970511018e+17
19142.0	5.98222944932113e+17
19143.0	5.981106808902996e+17
19144.0	5.980008449310719e+17
19145.0	5.978953209959764e+17
19146.0	5.97721382510046e+17
19147.0	5.976679333756927e+17
19148.0	5.975619349250047e+17
19149.0	5.974508875109716e+17
19150.0	5.973451270171306e+17
19151.0	5.972349333536768e+17
19152.0	5.971248787314004e+17
19153.0	5.970061465135785e+17
19154.0	5.968947604794025e+17
19155.0	5.967947393313449e+17
19156.0	5.966850127735465e+17
19157.0	5.965699691664724e+17
19158.0	5.964481421115392e+17
19159.0	5.963521999940265e+17
19160.0	5.962443563291987e+17
19161.0	5.961332859863039e+17
19162.0	5.959900820318889e+17
19163.0	5.959074510274559e+17
19164.0	5.95806593884706e+17
19165.0	5.956889041611433e+17
19166.0	5.955765051326463e+17
19167.0	5.954752066792106e+17
19168.0	5.953686238221652e+17
19169.0	5.952593295572991e+17
19170.0	5.951504220072617e+17
19171.0	5.95039644426786e+17
19172.0	5.949313972000084e+17
19173.0	5.948222287642623e+17
19174.0	5.947081221647017e+17
19175.0	5.946030250000383e+17
19176.0	5.944936987885567e+17
19177.0	5.943690717560831e+17
19178.0	5.942735347384319e+17
19179.0	5.941632325124095e+17
19180.0	5.940550983221247e+17
19181.0	5.939351705179476e+17
19182.0	5.938356014459561e+17
19183.0	5.937287573536767e+17
19184.0	5.936192253416788e+17
19185.0	5.935091646376618e+17
19186.0	5.934007866884096e+17
19187.0	5.932849799277225e+17
19188.0	5.93182010253858e+17
19189.0	5.930732130140159e+17
19190.0	5.929636415755603e+17
19191.0	5.928511146906964e+17
19192.0	5.927450273207636e+17
19193.0	5.926338626060288e+17
19194.0	5.925225509508436e+17
19195.0	5.924148747086506e+17
19196.0	5.923015731358378e+17
19197.0	5.921871177099946e+17
19198.0	5.920527294835369e+17
19199.0	5.917077739842218e+17
19200.0	5.91638113165858e+17
19201.0	5.917275553005567e+17
19202.0	5.91641272455441e+17
19203.0	5.915373415170047e+17
19204.0	5.914298609390931e+17
19205.0	5.913227894456319e+17
19206.0	5.912149710864383e+17
19207.0	5.910939073249277e+17
19208.0	5.909787813696852e+17
19209.0	5.908889479763284e+17
19210.0	5.907803530417492e+17
19211.0	5.90673055055872e+17
19212.0	5.905639743509844e+17
19213.0	5.904446268287657e+17
19214.0	5.903355896747348e+17
19215.0	5.902359799878996e+17
19216.0	5.901281721144662e+17
19217.0	5.90015267742242e+17
19218.0	5.898433572022954e+17
19219.0	5.897814877929471e+17
19220.0	5.896899306105514e+17
19221.0	5.895597722697727e+17
19222.0	5.894716553254228e+17
19223.0	5.893655724294143e+17
19224.0	5.892537950666751e+17
19225.0	5.891390280040448e+17
19226.0	5.890397411388074e+17
19227.0	5.88931550674944e+17
19228.0	5.88825720136226e+17
19229.0	5.887169992327168e+17
19230.0	5.88607753691682e+17
19231.0	5.88498510876945e+17
19232.0	5.88390459384354e+17
19233.0	5.882758139565395e+17
19234.0	5.881724556105043e+17
19235.0	5.880625426857983e+17
19236.0	5.87956927664401e+17
19237.0	5.8784716699293e+17
19238.0	5.877308286741161e+17
19239.0	5.87631660507682e+17
19240.0	5.875229804986367e+17
19241.0	5.874125031604223e+17
19242.0	5.873046213274282e+17
19243.0	5.871815013782867e+17
19244.0	5.870894557691904e+17
19245.0	5.869802957919572e+17
19246.0	5.86871149236497e+17
19247.0	5.867633035444223e+17
19248.0	5.866555974527657e+17
19249.0	5.86546982036002e+17
19250.0	5.864350466878122e+17
19251.0	5.863190050461011e+17
19252.0	5.861912111742975e+17
19253.0	5.861108064365225e+17
19254.0	5.860049068315987e+17
19255.0	5.858763449827325e+17
19256.0	5.85786113340211e+17
19257.0	5.856796539355135e+17
19258.0	5.855711265292288e+17
19259.0	5.854547206821204e+17
19260.0	5.853420328757929e+17
19261.0	5.852439712366591e+17
19262.0	5.851306120620714e+17
19263.0	5.850180408573951e+17
19264.0	5.848697373283667e+17
19265.0	5.847906696648019e+17
19266.0	5.846783867486208e+17
19267.0	5.845946066447018e+17
19268.0	5.844856351315284e+17
19269.0	5.843773358254761e+17
19270.0	5.842664838660096e+17
19271.0	5.841303166954154e+17
19272.0	5.840480902316031e+17
19273.0	5.839135446488404e+17
19274.0	5.837903814983677e+17
19275.0	5.837266606533289e+17
19276.0	5.836163853407572e+17
19277.0	5.835084253538986e+17
19278.0	5.834001866555391e+17
19279.0	5.832891765708116e+17
19280.0	5.831759768496808e+17
19281.0	5.830695768642899e+17
19282.0	5.829626618183679e+17
19283.0	5.828517212192768e+17
19284.0	5.827402108938921e+17
19285.0	5.826239786210644e+17
19286.0	5.825220174675967e+17
19287.0	5.824148569849855e+17
19288.0	5.82157046330163e+17
19289.0	5.818952436766034e+17
19290.0	5.820878547146068e+17
19291.0	5.819573537690966e+17
19292.0	5.818753045845331e+17
19293.0	5.817664101067433e+17
19294.0	5.816568969691135e+17
19295.0	5.81549211988787e+17
19296.0	5.81435029192704e+17
19297.0	5.813285905498112e+17
19298.0	5.81218789752832e+17
19299.0	5.811077492594004e+17
19300.0	5.81002907947281e+17
19301.0	5.808939086118911e+17
19302.0	5.80783321452817e+17
19303.0	5.806679714518355e+17
19304.0	5.80563457155618e+17
19305.0	5.804544265726633e+17
19306.0	5.803455612452863e+17
19307.0	5.802316858916864e+17
19308.0	5.801232706131284e+17
19309.0	5.800059499883178e+17
19310.0	5.798890714431487e+17
19311.0	5.797841915434324e+17
19312.0	5.796781535963818e+17
19313.0	5.795661645611008e+17
19314.0	5.786941004622501e+17
19315.0	5.786525851014496e+17
19316.0	5.792280405344256e+17
19317.0	5.791275523506176e+17
19318.0	5.790180717887485e+17
19319.0	5.789099358508371e+17
19320.0	5.787975186470228e+17
19321.0	5.786841031988563e+17
19322.0	5.78571023364915e+17
19323.0	5.784625671918932e+17
19324.0	5.783532291664554e+17
19325.0	5.782383305424895e+17
19326.0	5.781315495744852e+17
19327.0	5.780189825641129e+17
19328.0	5.778950610135722e+17
19329.0	5.777918258402644e+17
19330.0	5.776770422800383e+17
19331.0	5.775626415199574e+17
19332.0	5.774556941079892e+17
19333.0	5.773421270357334e+17
19334.0	5.772306434839892e+17
19335.0	5.771016040437076e+17
19336.0	5.7700461852317e+17
19337.0	5.768911702895274e+17
19338.0	5.767566097470803e+17
19339.0	5.766591381766143e+17
19340.0	5.76531019735586e+17
19341.0	5.7641737276183885e+17
19342.0	5.762833486009685e+17
19343.0	5.7619934696789325e+17
19344.0	5.7607528651598496e+17
19345.0	5.7579107621273574e+17
19346.0	5.757515948796585e+17
19347.0	5.757239332350634e+17
19348.0	5.7562434053515936e+17
19349.0	5.7550518532177914e+17
19350.0	5.753864220661075e+17
19351.0	5.752676049136298e+17
19352.0	5.751391947587584e+17
19353.0	5.75036710855202e+17
19354.0	5.7491881623988896e+17
19355.0	5.747892734831274e+17
19356.0	5.746793767064916e+17
19357.0	5.7455993977569274e+17
19358.0	5.744395120803839e+17
19359.0	5.743138643640319e+17
19360.0	5.741871603122175e+17
19361.0	5.740731459174399e+17
19362.0	5.739538950739283e+17
19363.0	5.7383102559464096e+17
19364.0	5.7370731019414176e+17
19365.0	5.7358290846569805e+17
19366.0	5.734578054496255e+17
19367.0	5.7332723103389005e+17
19368.0	5.7319871042901325e+17
19369.0	5.7306708520031565e+17
19370.0	5.729397042577407e+17
19371.0	5.728079486560938e+17
19372.0	5.7268347205932365e+17
19373.0	5.7255040399005e+17
19374.0	5.724193254888787e+17
19375.0	5.722863622772052e+17
19376.0	5.721470958654804e+17
19377.0	5.720047174899028e+17
19378.0	5.718680343500116e+17
19379.0	5.717300052579668e+17
19380.0	5.715903609394516e+17
19381.0	5.714483883627859e+17
19382.0	5.712976306765824e+17
19383.0	5.711457093506389e+17
19384.0	5.70996826378513e+17
19385.0	5.708498623703722e+17
19386.0	5.7069978262350496e+17
19387.0	5.705470432684715e+17
19388.0	5.7038349833775776e+17
19389.0	5.702068169168211e+17
19390.0	5.700390022545407e+17
19391.0	5.6946680999007514e+17
19392.0	5.6967062170719565e+17
19393.0	5.695144182764884e+17
19394.0	5.693437772125524e+17
19395.0	5.691661955541673e+17
19396.0	5.68949455663923e+17
19397.0	5.687683923137876e+17
19398.0	5.6856842600448e+17
19399.0	5.682754782669481e+17
19400.0	5.681225040308907e+17
19401.0	5.6791524277835085e+17
19402.0	5.677058728394751e+17
19403.0	5.674951435965781e+17
19404.0	5.6728162514152096e+17
19405.0	5.67057652593459e+17
19406.0	5.6682300127750816e+17
19407.0	5.665689069158399e+17
19408.0	5.662598195664213e+17
19409.0	5.660671105215145e+17
19410.0	5.6580761228847776e+17
19411.0	5.654984182639273e+17
19412.0	5.6521189158638925e+17
19413.0	5.649135727629652e+17
19414.0	5.645731246724436e+17
19415.0	5.6423927275410765e+17
19416.0	5.638881988837374e+17
19417.0	5.6349454506830496e+17
19418.0	5.6313267268266656e+17
19419.0	5.6267361554705043e+17
19420.0	5.6224080552700576e+17
19421.0	5.617084680284842e+17
19422.0	5.61212295147247e+17
19423.0	5.606189610041343e+17
19424.0	5.6000726727393254e+17
19425.0	5.593412565379754e+17
19426.0	5.586042741937492e+17
19427.0	5.579235838132224e+17
19428.0	5.572078369505279e+17
19429.0	5.565237939929087e+17
19430.0	5.557093657826646e+17
19431.0	5.548065395397974e+17
19432.0	5.539118867371349e+17
19433.0	5.5290162752170675e+17
19434.0	5.5167034645108045e+17
19435.0	5.5032238802206694e+17
19436.0	5.4886701521524045e+17
19437.0	5.473036919286442e+17
19438.0	5.4470652052111334e+17
19439.0	5.433732101395796e+17
19440.0	5.411757323452416e+17
19441.0	5.3854743892241043e+17
19442.0	5.356107047021229e+17
19443.0	5.3220186402761376e+17
19444.0	5.282535609903785e+17
19445.0	5.2347473172452704e+17
19446.0	5.1744301589899923e+17
19447.0	5.0985587389235155e+17
19448.0	4.9952299375657e+17
19449.0	4.8411486911638176e+17
19450.0	4.5465516106929536e+17
19451.0	4.324127887676787e+17
19452.0	4.724168350236678e+17
19453.0	4.926145655646896e+17
19454.0	5.047394234269692e+17
19455.0	5.1331821361343136e+17
19456.0	5.1977879744238944e+17
19457.0	5.248995226025981e+17
19458.0	5.269421115310117e+17
19459.0	5.3235156936294426e+17
19460.0	5.354700293537791e+17
19461.0	5.380393943433213e+17
19462.0	5.402291662225407e+17
19463.0	5.422355469129041e+17
19464.0	5.439271192930986e+17
19465.0	5.453952868941824e+17
19466.0	5.466895497734825e+17
19467.0	5.4793141132547405e+17
19468.0	5.48965434209075e+17
19469.0	5.4982857555531066e+17
19470.0	5.506697527296e+17
19471.0	5.5133174546213536e+17
19472.0	5.5198573049937914e+17
19473.0	5.5248861699331405e+17
19474.0	5.5296882236893856e+17
19475.0	5.5340932201622163e+17
19476.0	5.539554728258218e+17
19477.0	5.5444675123391136e+17
19478.0	5.54932893856563e+17
19479.0	5.552792092890452e+17
19480.0	5.5562759356197536e+17
19481.0	5.559343805453651e+17
19482.0	5.5619803799005856e+17
19483.0	5.564495942385662e+17
19484.0	5.5664718405522765e+17
19485.0	5.568179425596756e+17
19486.0	5.569786550768981e+17
19487.0	5.571055494103038e+17
19488.0	5.5724945723883514e+17
19489.0	5.573266750046207e+17
19490.0	5.57312486093619e+17
19491.0	5.57518443057425e+17
19492.0	5.5760846778094925e+17
19493.0	5.5766202317100365e+17
19494.0	5.577028496872788e+17
19495.0	5.577369961452884e+17
19496.0	5.577398509284009e+17
19497.0	5.577887823080106e+17
19498.0	5.5770642274495136e+17
19499.0	5.571478088406354e+17
19500.0	5.5780344496564896e+17
19501.0	5.578286977515519e+17
19502.0	5.5783141160605e+17
19503.0	5.5783652725882874e+17
19504.0	5.578528788228777e+17
19505.0	5.57829987639842e+17
19506.0	5.578195075421524e+17
19507.0	5.5781070810207565e+17
19508.0	5.5777906312697165e+17
19509.0	5.5773973949972474e+17
19510.0	5.5770116203915936e+17
19511.0	5.564201279946741e+17
19512.0	5.575028489846781e+17
19513.0	5.573713617485821e+17
19514.0	5.5740854942651706e+17
19515.0	5.574768942820011e+17
19516.0	5.5746110265753594e+17
19517.0	5.5740292269779616e+17
19518.0	5.573492065260884e+17
19519.0	5.5729868221972474e+17
19520.0	5.572344282087423e+17
19521.0	5.5717932099611296e+17
19522.0	5.571091021256021e+17
19523.0	5.570448367899988e+17
19524.0	5.569732407896745e+17
19525.0	5.5690727983677434e+17
19526.0	5.568413063708671e+17
19527.0	5.567738518263124e+17
19528.0	5.5669943788284576e+17
19529.0	5.566244811964416e+17
19530.0	5.565513607763284e+17
19531.0	5.5647495579675296e+17
19532.0	5.563976154174805e+17
19533.0	5.563193903895892e+17
19534.0	5.5624011741484365e+17
19535.0	5.561585940561919e+17
19536.0	5.5607966144921594e+17
19537.0	5.560034675130367e+17
19538.0	5.558993955760811e+17
19539.0	5.557919127612074e+17
19540.0	5.5575216229362323e+17
19541.0	5.5567020398564685e+17
19542.0	5.5558607617392634e+17
19543.0	5.554953643535017e+17
19544.0	5.554139515846655e+17
19545.0	5.552763613566292e+17
19546.0	5.5516338854734496e+17
19547.0	5.5515506369276576e+17
19548.0	5.5506982467010554e+17
19549.0	5.5497202727212365e+17
19550.0	5.5489442265169914e+17
19551.0	5.54806125142562e+17
19552.0	5.547173081688745e+17
19553.0	5.5462673748677965e+17
19554.0	5.5453796951654394e+17
19555.0	5.5445065990580896e+17
19556.0	5.543623554061652e+17
19557.0	5.5427203806003194e+17
19558.0	5.541811249130154e+17
19559.0	5.540903672348671e+17
19560.0	5.5399426503475194e+17
19561.0	5.5390483114885114e+17
19562.0	5.538138085305003e+17
19563.0	5.537246305670484e+17
19564.0	5.5363623672872954e+17
19565.0	5.5354680382149965e+17
19566.0	5.534524939173887e+17
19567.0	5.5336209604061856e+17
19568.0	5.5326677139456e+17
19569.0	5.531739866092884e+17
19570.0	5.5308284032887456e+17
19571.0	5.529891404862804e+17
19572.0	5.52891710509329e+17
19573.0	5.5279966580899834e+17
19574.0	5.526976803984724e+17
19575.0	5.526137453150207e+17
19576.0	5.525185780951721e+17
19577.0	5.524233111906985e+17
19578.0	5.523328572500649e+17
19579.0	5.522387018361515e+17
19580.0	5.5214417222041594e+17
19581.0	5.5205086832011936e+17
19582.0	5.51957354704623e+17
19583.0	5.518623236598441e+17
19584.0	5.517670115966975e+17
19585.0	5.516599080867157e+17
19586.0	5.5156164616956576e+17
19587.0	5.5147769654586016e+17
19588.0	5.51343768015121e+17
19589.0	5.512852334968831e+17
19590.0	5.511833356075006e+17
19591.0	5.510976816283647e+17
19592.0	5.510026875633664e+17
19593.0	5.5090433791535776e+17
19594.0	5.507844247213396e+17
19595.0	5.5071255525239456e+17
19596.0	5.506137187855018e+17
19597.0	5.505218838702762e+17
19598.0	5.503874655147347e+17
19599.0	5.503329199893162e+17
19600.0	5.502380944654335e+17
19601.0	5.501350997655552e+17
19602.0	5.5003615921001805e+17
19603.0	5.499113496554153e+17
19604.0	5.498452249149438e+17
19605.0	5.497272434076331e+17
19606.0	5.496587427337556e+17
19607.0	5.495634594015913e+17
19608.0	5.4946528269871776e+17
19609.0	5.493654706367145e+17
19610.0	5.4927154458132474e+17
19611.0	5.4917313642277536e+17
19612.0	5.4908188081083725e+17
19613.0	5.489840091037694e+17
19614.0	5.4888412503954765e+17
19615.0	5.487909245987498e+17
19616.0	5.4868750166043296e+17
19617.0	5.4859008370715296e+17
19618.0	5.4844040430660256e+17
19619.0	5.483280791677609e+17
19620.0	5.482439322719572e+17
19621.0	5.482012783673342e+17
19622.0	5.4811247656304634e+17
19623.0	5.480155650719743e+17
19624.0	5.479169995571199e+17
19625.0	5.478218848359764e+17
19626.0	5.4772398922137594e+17
19627.0	5.4762586145204896e+17
19628.0	5.475213909863081e+17
19629.0	5.474008579440639e+17
19630.0	5.4725787950339405e+17
19631.0	5.4697239392201376e+17
19632.0	5.4712455851758925e+17
19633.0	5.470371937517568e+17
19634.0	5.469470615142399e+17
19635.0	5.4684665225325216e+17
19636.0	5.467471531562323e+17
19637.0	5.4661590611394554e+17
19638.0	5.4655929866868045e+17
19639.0	5.464632899316394e+17
19640.0	5.4635442816942074e+17
19641.0	5.461697567391745e+17
19642.0	5.461728210976767e+17
19643.0	5.460758650071722e+17
19644.0	5.4597229806441805e+17
19645.0	5.458595401433087e+17
19646.0	5.4577898804565325e+17
19647.0	5.456897365420715e+17
19648.0	5.4559292627353594e+17
19649.0	5.4549523100685645e+17
19650.0	5.4539886484520954e+17
19651.0	5.4530113280846496e+17
19652.0	5.452039235917141e+17
19653.0	5.4510751849294496e+17
19654.0	5.4500973472645114e+17
19655.0	5.44912337534976e+17
19656.0	5.4481586029417805e+17
19657.0	5.44719129088273e+17
19658.0	5.4462212497298765e+17
19659.0	5.445251643386538e+17
19660.0	5.44428242501632e+17
19661.0	5.4433116799194445e+17
