# Flux units: erg / (cm m2 s)
# Wavelength units: Angstrom
wave	flux
19000.0	5.879620062674943e+17
19001.0	5.878416981797545e+17
19002.0	5.877463244603391e+17
19003.0	5.876377732863316e+17
19004.0	5.875297973611178e+17
19005.0	5.874214285694292e+17
19006.0	5.873137935712255e+17
19007.0	5.872061257176404e+17
19008.0	5.870924463778473e+17
19009.0	5.869754115948544e+17
19010.0	5.868305933926399e+17
19011.0	5.867697905947988e+17
19012.0	5.866236469226153e+17
19013.0	5.865596471563603e+17
19014.0	5.864463613121876e+17
19015.0	5.863398949868884e+17
19016.0	5.862317087173289e+17
19017.0	5.861294164235604e+17
19018.0	5.860201232072701e+17
19019.0	5.859136085775699e+17
19020.0	5.858051993108477e+17
19021.0	5.856996815973033e+17
19022.0	5.855915750894249e+17
19023.0	5.854793717252095e+17
19024.0	5.853718724826452e+17
19025.0	5.852658195759104e+17
19026.0	5.851537010764457e+17
19027.0	5.850211678508371e+17
19028.0	5.849458366130857e+17
19029.0	5.848369216531113e+17
19030.0	5.847324916624041e+17
19031.0	5.846255037754025e+17
19032.0	5.845166449491967e+17
19033.0	5.843976122094932e+17
19034.0	5.842932305231872e+17
19035.0	5.841374516958548e+17
19036.0	5.817973292575395e+17
19037.0	5.839387279491071e+17
19038.0	5.83864342736623e+17
19039.0	5.837643666074281e+17
19040.0	5.836593272542548e+17
19041.0	5.835518993148586e+17
19042.0	5.833747769327615e+17
19043.0	5.833397939907242e+17
19044.0	5.832313897571667e+17
19045.0	5.83123612991488e+17
19046.0	5.830118681346048e+17
19047.0	5.829071572653395e+17
19048.0	5.827710742604458e+17
19049.0	5.825616246297939e+17
19050.0	5.825764619801942e+17
19051.0	5.821450610365777e+17
19052.0	5.822787769860095e+17
19053.0	5.822652114184873e+17
19054.0	5.821618992797011e+17
19055.0	5.820089270708908e+17
19056.0	5.819402421272575e+17
19057.0	5.818420898911572e+17
19058.0	5.816703473330857e+17
19059.0	5.816044606193663e+17
19060.0	5.815205388178771e+17
19061.0	5.814161358804308e+17
19062.0	5.81308887736866e+17
19063.0	5.812021745767764e+17
19064.0	5.810827057692672e+17
19065.0	5.809691392562515e+17
19066.0	5.808529588529833e+17
19067.0	5.807747074009769e+17
19068.0	5.806695949271039e+17
19069.0	5.805631367107924e+17
19070.0	5.804532262327636e+17
19071.0	5.803480590931284e+17
19072.0	5.802194420192595e+17
19073.0	5.801366435222867e+17
19074.0	5.800306686296063e+17
19075.0	5.799241834998442e+17
19076.0	5.798157642366976e+17
19077.0	5.797091196534783e+17
19078.0	5.796000264355839e+17
19079.0	5.794982047427241e+17
19080.0	5.793905914150911e+17
19081.0	5.792802652116307e+17
19082.0	5.791752051665577e+17
19083.0	5.790613379918505e+17
19084.0	5.789412156418729e+17
19085.0	5.78857216315665e+17
19086.0	5.786722406585684e+17
19087.0	5.785499866234879e+17
19088.0	5.784837958926335e+17
19089.0	5.783898060838228e+17
19090.0	5.783192540457641e+17
19091.0	5.7821275109021e+17
19092.0	5.780507964997632e+17
19093.0	5.780094994524842e+17
19094.0	5.77904974111266e+17
19095.0	5.777992619917311e+17
19096.0	5.776917366745769e+17
19097.0	5.775870150399316e+17
19098.0	5.774545212407805e+17
19099.0	5.773428018293418e+17
19100.0	5.772642327287124e+17
19101.0	5.771612549458602e+17
19102.0	5.770444722405376e+17
19103.0	5.76951318356514e+17
19104.0	5.768457018671101e+17
19105.0	5.76680158630161e+17
19106.0	5.766244013004116e+17
19107.0	5.765084524227241e+17
19108.0	5.7639266691317754e+17
19109.0	5.761927705788413e+17
19110.0	5.761856918519807e+17
19111.0	5.76084837086003e+17
19112.0	5.759785559392255e+17
19113.0	5.75893340894003e+17
19114.0	5.7577610988748794e+17
19115.0	5.7567024558462285e+17
19116.0	5.755740060210516e+17
19117.0	5.7546653578909e+17
19118.0	5.7534196279323296e+17
19119.0	5.7442362496559654e+17
19120.0	5.751291645700779e+17
19121.0	5.750330978817364e+17
19122.0	5.7494362408004256e+17
19123.0	5.748386699411455e+17
19124.0	5.747204922802174e+17
19125.0	5.746264725520383e+17
19126.0	5.74516191297536e+17
19127.0	5.742218639136084e+17
19128.0	5.7429637893980154e+17
19129.0	5.7419616764996256e+17
19130.0	5.740996086202367e+17
19131.0	5.7399597694539085e+17
19132.0	5.738905492695721e+17
19133.0	5.7377893751193594e+17
19134.0	5.7367595560468474e+17
19135.0	5.7357452202475494e+17
19136.0	5.734697724280832e+17
19137.0	5.7334829098379936e+17
19138.0	5.7325763306018125e+17
19139.0	5.731548426229077e+17
19140.0	5.7305009505348256e+17
19141.0	5.7294505660907514e+17
19142.0	5.728363635277822e+17
19143.0	5.727287807486634e+17
19144.0	5.726249694877013e+17
19145.0	5.7252483530315085e+17
19146.0	5.723469803858603e+17
19147.0	5.723053296189439e+17
19148.0	5.721878622633984e+17
19149.0	5.7207724357713914e+17
19150.0	5.7199739577303034e+17
19151.0	5.7189234139026765e+17
19152.0	5.717852861147817e+17
19153.0	5.716370335465471e+17
19154.0	5.7156056411450016e+17
19155.0	5.714709724528639e+17
19156.0	5.71365368406562e+17
19157.0	5.7123326125233485e+17
19158.0	5.7105576459851085e+17
19159.0	5.7104153080845645e+17
19160.0	5.7094207505257805e+17
19161.0	5.7083187041402874e+17
19162.0	5.7054586110388896e+17
19163.0	5.705969888307881e+17
19164.0	5.7052510461187405e+17
19165.0	5.703720048263166e+17
19166.0	5.7030100287924896e+17
19167.0	5.7019705103919776e+17
19168.0	5.701079298386602e+17
19169.0	5.7000386356401485e+17
19170.0	5.6990171401639245e+17
19171.0	5.6978866221438285e+17
19172.0	5.696904240649556e+17
19173.0	5.695892497629183e+17
19174.0	5.694796883208873e+17
19175.0	5.69381389144337e+17
19176.0	5.6927690399853216e+17
19177.0	5.6915443451603616e+17
19178.0	5.69059334824482e+17
19179.0	5.689490864952662e+17
19180.0	5.6885713770468685e+17
19181.0	5.687401649274879e+17
19182.0	5.6864837230482765e+17
19183.0	5.6854754473192096e+17
19184.0	5.684430878976682e+17
19185.0	5.683379350885717e+17
19186.0	5.682346743300094e+17
19187.0	5.6812262552589645e+17
19188.0	5.68025600369186e+17
19189.0	5.679215120045396e+17
19190.0	5.678156039411028e+17
19191.0	5.677069471405396e+17
19192.0	5.6760759812969805e+17
19193.0	5.674955187071658e+17
19194.0	5.673848754143231e+17
19195.0	5.672882331276628e+17
19196.0	5.6717482047569914e+17
19197.0	5.670532342437204e+17
19198.0	5.668715094518442e+17
19199.0	5.655389404135421e+17
19200.0	5.6568209571403117e+17
19201.0	5.6657162992790176e+17
19202.0	5.6653677728890874e+17
19203.0	5.664454273750356e+17
19204.0	5.663500549139113e+17
19205.0	5.6625185479284045e+17
19206.0	5.6615030880556365e+17
19207.0	5.660344581444947e+17
19208.0	5.659202791232851e+17
19209.0	5.6584149646267725e+17
19210.0	5.657381339223381e+17
19211.0	5.656361646598825e+17
19212.0	5.6553129517602125e+17
19213.0	5.654082240905214e+17
19214.0	5.652993431743145e+17
19215.0	5.6521466108532045e+17
19216.0	5.6511735917445114e+17
19217.0	5.650109959591252e+17
19218.0	5.6482531489000083e+17
19219.0	5.647864862605311e+17
19220.0	5.646996248810836e+17
19221.0	5.6456850674373965e+17
19222.0	5.64493113500194e+17
19223.0	5.6439143315537914e+17
19224.0	5.6428475061370874e+17
19225.0	5.641722497335294e+17
19226.0	5.640811418309972e+17
19227.0	5.639780321372841e+17
19228.0	5.638775992483839e+17
19229.0	5.6377404719540896e+17
19230.0	5.636698403416745e+17
19231.0	5.6356581132642976e+17
19232.0	5.634627589548713e+17
19233.0	5.6335225092833274e+17
19234.0	5.632549895624021e+17
19235.0	5.6314992525312e+17
19236.0	5.630503930210985e+17
19237.0	5.6294544489403725e+17
19238.0	5.628317090010452e+17
19239.0	5.6274065024177485e+17
19240.0	5.6263724282238285e+17
19241.0	5.6253184408726176e+17
19242.0	5.624292868532906e+17
19243.0	5.6230929452673696e+17
19244.0	5.622248153721515e+17
19245.0	5.6212086346219514e+17
19246.0	5.6201666429801805e+17
19247.0	5.6191398116502176e+17
19248.0	5.618114897816234e+17
19249.0	5.6170596570671776e+17
19250.0	5.6159366790075725e+17
19251.0	5.614808762155006e+17
19252.0	5.6136412280040096e+17
19253.0	5.612918610242217e+17
19254.0	5.6119174165954554e+17
19255.0	5.6106622746187085e+17
19256.0	5.609831852059306e+17
19257.0	5.6088245703802874e+17
19258.0	5.6077919467165005e+17
19259.0	5.606666216494421e+17
19260.0	5.605175983079423e+17
19261.0	5.6046758612609696e+17
19262.0	5.6035871527621965e+17
19263.0	5.6025248536985594e+17
19264.0	5.600988908661417e+17
19265.0	5.6003298262166176e+17
19266.0	5.599225176566443e+17
19267.0	5.5985145775827616e+17
19268.0	5.5974778001599136e+17
19269.0	5.596450041888767e+17
19270.0	5.595402471822676e+17
19271.0	5.594015790181035e+17
19272.0	5.593318234783743e+17
19273.0	5.5919763650860365e+17
19274.0	5.59079496037171e+17
19275.0	5.5902724081145165e+17
19276.0	5.5892206521330336e+17
19277.0	5.588196998687403e+17
19278.0	5.5871545792266234e+17
19279.0	5.586106862359891e+17
19280.0	5.585019349237758e+17
19281.0	5.5840580196543136e+17
19282.0	5.583031225374036e+17
19283.0	5.5818810549425485e+17
19284.0	5.5808881758044154e+17
19285.0	5.5797769795447456e+17
19286.0	5.5788350772783776e+17
19287.0	5.577756523189589e+17
19288.0	5.5700254737039296e+17
19289.0	5.560629414155583e+17
19290.0	5.574635604497749e+17
19291.0	5.573442243220822e+17
19292.0	5.5727311597950285e+17
19293.0	5.5717060474306554e+17
19294.0	5.570638681647785e+17
19295.0	5.569628031942655e+17
19296.0	5.568303844032512e+17
19297.0	5.567480984502271e+17
19298.0	5.5664987085646496e+17
19299.0	5.565175103662762e+17
19300.0	5.5644555896859296e+17
19301.0	5.5634316279589536e+17
19302.0	5.5623860334100474e+17
19303.0	5.561272528885076e+17
19304.0	5.5603004527957325e+17
19305.0	5.559273551560703e+17
19306.0	5.55823605551377e+17
19307.0	5.5571407528700576e+17
19308.0	5.556105973334015e+17
19309.0	5.554649810949459e+17
19310.0	5.553436709180757e+17
19311.0	5.552895748822355e+17
19312.0	5.551959605335379e+17
19313.0	5.550815948658004e+17
19314.0	5.510655055145618e+17
19315.0	5.513232825450558e+17
19316.0	5.547245717247317e+17
19317.0	5.5467754952239776e+17
19318.0	5.545776442769407e+17
19319.0	5.544774210333353e+17
19320.0	5.543618820789588e+17
19321.0	5.542433945288702e+17
19322.0	5.5415264901420365e+17
19323.0	5.540438822529705e+17
19324.0	5.5394792091156474e+17
19325.0	5.5381596964563616e+17
19326.0	5.5374202224858445e+17
19327.0	5.5364184912691194e+17
19328.0	5.5348359048724474e+17
19329.0	5.534316555665407e+17
19330.0	5.533233177427967e+17
19331.0	5.5321646533181434e+17
19332.0	5.531168994754558e+17
19333.0	5.530099896025087e+17
19334.0	5.5290597365951136e+17
19335.0	5.526968716667563e+17
19336.0	5.5269448720493216e+17
19337.0	5.525906311348224e+17
19338.0	5.524610434291028e+17
19339.0	5.5237849211644576e+17
19340.0	5.52253670957602e+17
19341.0	5.521209668840106e+17
19342.0	5.520069677285375e+17
19343.0	5.519523996237823e+17
19344.0	5.51804922232832e+17
19345.0	5.514935165517821e+17
19346.0	5.515120779547987e+17
19347.0	5.5146180460762445e+17
19348.0	5.5141264568702285e+17
19349.0	5.5130134654484474e+17
19350.0	5.511760317164202e+17
19351.0	5.5108574058468685e+17
19352.0	5.509215885983743e+17
19353.0	5.508744564353705e+17
19354.0	5.5076628750226765e+17
19355.0	5.5064399949332474e+17
19356.0	5.5053819244270925e+17
19357.0	5.504262721940138e+17
19358.0	5.5031525714602643e+17
19359.0	5.5018979321009485e+17
19360.0	5.500496993320958e+17
19361.0	5.4998044249511245e+17
19362.0	5.4987353807476045e+17
19363.0	5.497582976849236e+17
19364.0	5.4964352852514125e+17
19365.0	5.495309480230911e+17
19366.0	5.4941790887389856e+17
19367.0	5.493044274353494e+17
19368.0	5.491904831553535e+17
19369.0	5.490702788766377e+17
19370.0	5.489560033864362e+17
19371.0	5.488386820625749e+17
19372.0	5.48728762217267e+17
19373.0	5.4860922741937485e+17
19374.0	5.4849330601437856e+17
19375.0	5.4837514086645754e+17
19376.0	5.482562426940074e+17
19377.0	5.4813001385683616e+17
19378.0	5.480085210180264e+17
19379.0	5.478869965821268e+17
19380.0	5.4776433975405216e+17
19381.0	5.4763979150458874e+17
19382.0	5.4750618670421325e+17
19383.0	5.473779799730858e+17
19384.0	5.4725999476080634e+17
19385.0	5.471326856806399e+17
19386.0	5.4700278815566496e+17
19387.0	5.4686263031453e+17
19388.0	5.467256272191488e+17
19389.0	5.4658612347972256e+17
19390.0	5.4642800877458765e+17
19391.0	5.4424083806289645e+17
19392.0	5.4605686669748883e+17
19393.0	5.460133735126356e+17
19394.0	5.458656007028735e+17
19395.0	5.45703695814929e+17
19396.0	5.455663601112405e+17
19397.0	5.4541658501065376e+17
19398.0	5.4522392741587616e+17
19399.0	5.449858446699177e+17
19400.0	5.4489673640181754e+17
19401.0	5.447347802734591e+17
19402.0	5.4455684699258874e+17
19403.0	5.443814528734549e+17
19404.0	5.441796626011477e+17
19405.0	5.4397645633181005e+17
19406.0	5.437650951471103e+17
19407.0	5.435147176378367e+17
19408.0	5.4322684556738566e+17
19409.0	5.4305219530806605e+17
19410.0	5.4282220239585274e+17
19411.0	5.4258308121012896e+17
19412.0	5.4234572897211725e+17
19413.0	5.4208327326542496e+17
19414.0	5.418516819738623e+17
19415.0	5.4159731505233914e+17
19416.0	5.4129585937885856e+17
19417.0	5.4100421502129485e+17
19418.0	5.407364407274153e+17
19419.0	5.40416002892322e+17
19420.0	5.400600877465598e+17
19421.0	5.3971171997122554e+17
19422.0	5.392763113002325e+17
19423.0	5.3885542918171296e+17
19424.0	5.3837055337867936e+17
19425.0	5.378352322620072e+17
19426.0	5.372630285331113e+17
19427.0	5.3661289323779405e+17
19428.0	5.3586984481150304e+17
19429.0	5.350239696672087e+17
19430.0	5.3409086068927155e+17
19431.0	5.33044817349837e+17
19432.0	5.3267317216597325e+17
19433.0	5.318398200949417e+17
19434.0	5.309101196181503e+17
19435.0	5.297773800150356e+17
19436.0	5.284549672741545e+17
19437.0	5.271849511070378e+17
19438.0	5.217583786273452e+17
19439.0	5.2326961425066675e+17
19440.0	5.210931160853163e+17
19441.0	5.1832808031300256e+17
19442.0	5.156587428992341e+17
19443.0	5.1291114152045216e+17
19444.0	5.094321229398011e+17
19445.0	5.0486475300536314e+17
19446.0	4.991377138690736e+17
19447.0	4.916260011070802e+17
19448.0	4.814333865361416e+17
19449.0	4.659984429569363e+17
19450.0	4.340767561263779e+17
19451.0	4.111106559705129e+17
19452.0	4.536291561570308e+17
19453.0	4.746408487813124e+17
19454.0	4.865394921701366e+17
19455.0	4.951009164700327e+17
19456.0	5.0135147933422976e+17
19457.0	5.0625070581678074e+17
19458.0	4.990446261152614e+17
19459.0	5.125820309132651e+17
19460.0	5.1530995897903795e+17
19461.0	5.179760793616386e+17
19462.0	5.2036698566382906e+17
19463.0	5.2239676812383546e+17
19464.0	5.240375152563542e+17
19465.0	5.253663617799506e+17
19466.0	5.264409522514603e+17
19467.0	5.2737293366067194e+17
19468.0	5.2817643032630605e+17
19469.0	5.2881445051432934e+17
19470.0	5.2943442205300045e+17
19471.0	5.299706236938921e+17
19472.0	5.305904635314175e+17
19473.0	5.3125601960482106e+17
19474.0	5.3181061788248755e+17
19475.0	5.3222905129642656e+17
19476.0	5.327497369485311e+17
19477.0	5.331050409842005e+17
19478.0	5.33392673280273e+17
19479.0	5.336372692910079e+17
19480.0	5.33881740730914e+17
19481.0	5.3407694412840954e+17
19482.0	5.3422335546709325e+17
19483.0	5.3438113127246496e+17
19484.0	5.3448075480050336e+17
19485.0	5.3456513923372365e+17
19486.0	5.3462620333670394e+17
19487.0	5.3472991204693325e+17
19488.0	5.3478317439494816e+17
19489.0	5.348024960155647e+17
19490.0	5.3471592369356774e+17
19491.0	5.348978406544725e+17
19492.0	5.3496243034958496e+17
19493.0	5.349883944894462e+17
19494.0	5.3504751641995936e+17
19495.0	5.350522000594262e+17
19496.0	5.350381032133972e+17
19497.0	5.350638834330281e+17
19498.0	5.3472220214722566e+17
19499.0	5.3176787254203546e+17
19500.0	5.3502639068938234e+17
19501.0	5.350471053781674e+17
19502.0	5.350273632086698e+17
19503.0	5.3499431691659936e+17
19504.0	5.3495762262862496e+17
19505.0	5.3493232852882765e+17
19506.0	5.348880699533994e+17
19507.0	5.3483564234178554e+17
19508.0	5.3478510531269965e+17
19509.0	5.3473500330284365e+17
19510.0	5.3461999695517005e+17
19511.0	5.280239843628317e+17
19512.0	5.3396105467002784e+17
19513.0	5.335298779818652e+17
19514.0	5.337248720835916e+17
19515.0	5.343141283146411e+17
19516.0	5.343209244852223e+17
19517.0	5.342568879489023e+17
19518.0	5.3418684586830496e+17
19519.0	5.3411516276626765e+17
19520.0	5.3401690553275725e+17
19521.0	5.339875710599168e+17
19522.0	5.3390440563124896e+17
19523.0	5.338296234278911e+17
19524.0	5.3373570799807136e+17
19525.0	5.336870423975252e+17
19526.0	5.3361537362602656e+17
19527.0	5.335391343913641e+17
19528.0	5.334571703511721e+17
19529.0	5.333758261592062e+17
19530.0	5.3330260472627194e+17
19531.0	5.3322210596618234e+17
19532.0	5.331409775711573e+17
19533.0	5.3305926267262285e+17
19534.0	5.329767024121172e+17
19535.0	5.3289174447773e+17
19536.0	5.3280606659106125e+17
19537.0	5.3272583102354765e+17
19538.0	5.3258946021949446e+17
19539.0	5.3249746151669754e+17
19540.0	5.324738553446399e+17
19541.0	5.3238393163393696e+17
19542.0	5.3230277996052474e+17
19543.0	5.3218163790533965e+17
19544.0	5.321305185670485e+17
19545.0	5.319859797054804e+17
19546.0	5.3186046389998925e+17
19547.0	5.3187256754285216e+17
19548.0	5.3179108025521485e+17
19549.0	5.316968403959807e+17
19550.0	5.3162191313960954e+17
19551.0	5.3153389105643514e+17
19552.0	5.314451945291775e+17
19553.0	5.313537219319125e+17
19554.0	5.312653765378047e+17
19555.0	5.3117498642049683e+17
19556.0	5.3108903031166285e+17
19557.0	5.310015132925951e+17
19558.0	5.309122069834409e+17
19559.0	5.308227912728575e+17
19560.0	5.307205959374164e+17
19561.0	5.306453181770411e+17
19562.0	5.305434377639253e+17
19563.0	5.304679379850581e+17
19564.0	5.3037733703406925e+17
19565.0	5.3028658145307296e+17
19566.0	5.301924177903615e+17
19567.0	5.3010452230526285e+17
19568.0	5.3001089215802016e+17
19569.0	5.299199534956543e+17
19570.0	5.298307235927381e+17
19571.0	5.297391298499925e+17
19572.0	5.296440805599915e+17
19573.0	5.2955011885301754e+17
19574.0	5.294524112131412e+17
19575.0	5.29373500416546e+17
19576.0	5.292784799274323e+17
19577.0	5.291797260883285e+17
19578.0	5.290933240550739e+17
19579.0	5.2900233953498445e+17
19580.0	5.2891209579888634e+17
19581.0	5.2882364589670394e+17
19582.0	5.287332739547134e+17
19583.0	5.286409967501312e+17
19584.0	5.285475232601428e+17
19585.0	5.2844250704554656e+17
19586.0	5.283453095728469e+17
19587.0	5.2826284242589e+17
19588.0	5.2812657473181024e+17
19589.0	5.2808173216945485e+17
19590.0	5.279788109398015e+17
19591.0	5.278997399906985e+17
19592.0	5.278079660326911e+17
19593.0	5.277094319751167e+17
19594.0	5.275896057430015e+17
19595.0	5.275271052307115e+17
19596.0	5.274173851740842e+17
19597.0	5.2734229308156576e+17
19598.0	5.271964178448383e+17
19599.0	5.271570859687935e+17
19600.0	5.2706562875064314e+17
19601.0	5.2696481438979405e+17
19602.0	5.268701087531007e+17
19603.0	5.2672437437508256e+17
19604.0	5.2668209628009805e+17
19605.0	5.265661286678528e+17
19606.0	5.26506630648081e+17
19607.0	5.2641496140786336e+17
19608.0	5.2632003983441914e+17
19609.0	5.2622306221315405e+17
19610.0	5.261170395054079e+17
19611.0	5.260147364462592e+17
19612.0	5.259496750317567e+17
19613.0	5.258552723636223e+17
19614.0	5.2575863133525325e+17
19615.0	5.256687834016425e+17
19616.0	5.2554004748916045e+17
19617.0	5.2545363364194976e+17
19618.0	5.25317870662451e+17
19619.0	5.2520418873617056e+17
19620.0	5.251175823005012e+17
19621.0	5.250701812826111e+17
19622.0	5.250168388932949e+17
19623.0	5.2492152095812256e+17
19624.0	5.248228708581375e+17
19625.0	5.2473632489035085e+17
19626.0	5.246412552579754e+17
19627.0	5.245435480375294e+17
19628.0	5.2441645971756384e+17
19629.0	5.242333836607487e+17
19630.0	5.239820182530728e+17
19631.0	5.22826744332288e+17
19632.0	5.2403030231176525e+17
19633.0	5.239705675934377e+17
19634.0	5.2389541720009376e+17
19635.0	5.23796529352977e+17
19636.0	5.2367044144442003e+17
19637.0	5.2354120200574285e+17
19638.0	5.2352405722890214e+17
19639.0	5.2343438958045856e+17
19640.0	5.233282340530858e+17
19641.0	5.231150869337433e+17
19642.0	5.2315193417400314e+17
19643.0	5.2305846753471136e+17
19644.0	5.22961646850321e+17
19645.0	5.228472771979945e+17
19646.0	5.227384718491647e+17
19647.0	5.226908565722453e+17
19648.0	5.2259831799261856e+17
19649.0	5.22505002418176e+17
19650.0	5.22412787429103e+17
19651.0	5.2231900922292896e+17
19652.0	5.2222582339229005e+17
19653.0	5.2213265419905696e+17
19654.0	5.220397452623871e+17
19655.0	5.2194630952113485e+17
19656.0	5.2185391103126176e+17
