# Flux units: erg / (cm m2 s)
# Wavelength units: Angstrom
wave	flux
19000.0	7.67538700030225e+17
19001.0	7.67394186404386e+17
19002.0	7.672624294745428e+17
19003.0	7.67123964174882e+17
19004.0	7.669854822378153e+17
19005.0	7.668470812508157e+17
19006.0	7.667083669493075e+17
19007.0	7.665664245716306e+17
19008.0	7.664271690650964e+17
19009.0	7.662846415820115e+17
19010.0	7.661266636810921e+17
19011.0	7.660102323186345e+17
19012.0	7.658535889054377e+17
19013.0	7.657337672870569e+17
19014.0	7.655905691347625e+17
19015.0	7.654527417887402e+17
19016.0	7.653130362333866e+17
19017.0	7.651756206282068e+17
19018.0	7.650348751650816e+17
19019.0	7.64895636156143e+17
19020.0	7.647546360987648e+17
19021.0	7.646166156749481e+17
19022.0	7.644766771959126e+17
19023.0	7.64333519868177e+17
19024.0	7.641941931982845e+17
19025.0	7.640533764319914e+17
19026.0	7.639110355954345e+17
19027.0	7.637571792972457e+17
19028.0	7.636328369182036e+17
19029.0	7.635123931447293e+17
19030.0	7.633875944254122e+17
19031.0	7.632466728015187e+17
19032.0	7.631127903382185e+17
19033.0	7.629877012332543e+17
19034.0	7.628491591778301e+17
19035.0	7.626868821153108e+17
19036.0	7.614706033011366e+17
19037.0	7.624176613457916e+17
19038.0	7.623139322931881e+17
19039.0	7.62176349335279e+17
19040.0	7.620356365877247e+17
19041.0	7.618944732321108e+17
19042.0	7.617466669378217e+17
19043.0	7.616116580242774e+17
19044.0	7.614698821604691e+17
19045.0	7.613275245466966e+17
19046.0	7.611836385285459e+17
19047.0	7.610427479425024e+17
19048.0	7.608913996982952e+17
19049.0	7.607536393213267e+17
19050.0	7.606127691475624e+17
19051.0	7.603034104266751e+17
19052.0	7.602859333211476e+17
19053.0	7.601900253872127e+17
19054.0	7.600503842843305e+17
19055.0	7.598920913911808e+17
19056.0	7.597652388610047e+17
19057.0	7.596239348563968e+17
19058.0	7.594797931255123e+17
19059.0	7.593397839025491e+17
19060.0	7.591964536296786e+17
19061.0	7.590552614731773e+17
19062.0	7.58912548601856e+17
19063.0	7.587700370571263e+17
19064.0	7.586213120704511e+17
19065.0	7.584733106012157e+17
19066.0	7.583383790026751e+17
19067.0	7.581999917170689e+17
19068.0	7.580573425991679e+17
19069.0	7.579146519576577e+17
19070.0	7.577704563998717e+17
19071.0	7.576284814464339e+17
19072.0	7.574861562686121e+17
19073.0	7.573432241750015e+17
19074.0	7.572006039977981e+17
19075.0	7.570576629563391e+17
19076.0	7.569136174148266e+17
19077.0	7.567707648731817e+17
19078.0	7.566272244656809e+17
19079.0	7.56485489566242e+17
19080.0	7.563414143849811e+17
19081.0	7.561963862578515e+17
19082.0	7.56053675483682e+17
19083.0	7.559046369028777e+17
19084.0	7.557530871922688e+17
19085.0	7.556250967474173e+17
19086.0	7.554522198398291e+17
19087.0	7.553161085233834e+17
19088.0	7.551814568247296e+17
19089.0	7.550269957079037e+17
19090.0	7.549031324581887e+17
19091.0	7.547621399505578e+17
19092.0	7.546127133966333e+17
19093.0	7.544781170627923e+17
19094.0	7.543353766488745e+17
19095.0	7.541920781129044e+17
19096.0	7.540479889506301e+17
19097.0	7.53905122008542e+17
19098.0	7.537612863220394e+17
19099.0	7.536175693343402e+17
19100.0	7.53472518697779e+17
19101.0	7.533296883859455e+17
19102.0	7.53181574509363e+17
19103.0	7.530431196954624e+17
19104.0	7.52899141262814e+17
19105.0	7.527534469403987e+17
19106.0	7.526069787688957e+17
19107.0	7.524644217858728e+17
19108.0	7.523176851789139e+17
19109.0	7.520993155918504e+17
19110.0	7.520183274962941e+17
19111.0	7.518893494326611e+17
19112.0	7.517469034588842e+17
19113.0	7.516037423562751e+17
19114.0	7.514597117744468e+17
19115.0	7.513112086664531e+17
19116.0	7.511698455221586e+17
19117.0	7.510251877520723e+17
19118.0	7.508733578619561e+17
19119.0	7.505470161245522e+17
19120.0	7.505829976604672e+17
19121.0	7.504142849977e+17
19122.0	7.502775237039442e+17
19123.0	7.501333695299581e+17
19124.0	7.499815169906003e+17
19125.0	7.498437809405951e+17
19126.0	7.496972645345961e+17
19127.0	7.494571372751529e+17
19128.0	7.49389904958805e+17
19129.0	7.492606674075647e+17
19130.0	7.491212178445654e+17
19131.0	7.489777210578259e+17
19132.0	7.488328925795668e+17
19133.0	7.486813223168681e+17
19134.0	7.485349111878996e+17
19135.0	7.483987861700607e+17
19136.0	7.482543399327059e+17
19137.0	7.481010404982783e+17
19138.0	7.479637440113321e+17
19139.0	7.478201696299688e+17
19140.0	7.476454092002644e+17
19141.0	7.474973933305853e+17
19142.0	7.473508426711039e+17
19143.0	7.472046040678399e+17
19144.0	7.470597709758463e+17
19145.0	7.46917314096879e+17
19146.0	7.467336852307968e+17
19147.0	7.466226660584106e+17
19148.0	7.464810911017641e+17
19149.0	7.4633593225216e+17
19150.0	7.461911873803603e+17
19151.0	7.460461370234194e+17
19152.0	7.458992562722131e+17
19153.0	7.457528519939412e+17
19154.0	7.456023798000298e+17
19155.0	7.454629986041855e+17
19156.0	7.453159544149331e+17
19157.0	7.451615422316543e+17
19158.0	7.449824309106003e+17
19159.0	7.448726321408681e+17
19160.0	7.44731006013713e+17
19161.0	7.445794042937343e+17
19162.0	7.443187766744404e+17
19163.0	7.442724368853672e+17
19164.0	7.441489358837076e+17
19165.0	7.440026946240511e+17
19166.0	7.438512966074365e+17
19167.0	7.437022179011241e+17
19168.0	7.43565540074018e+17
19169.0	7.434204005182122e+17
19170.0	7.432756075517267e+17
19171.0	7.431253934473215e+17
19172.0	7.429821290250239e+17
19173.0	7.428374178474666e+17
19174.0	7.42688727114274e+17
19175.0	7.425453670618454e+17
19176.0	7.423988059166036e+17
19177.0	7.422419213309267e+17
19178.0	7.421007146341715e+17
19179.0	7.419512708836009e+17
19180.0	7.418104355225599e+17
19181.0	7.416588795204947e+17
19182.0	7.415172286469459e+17
19183.0	7.413714602251603e+17
19184.0	7.41223923904239e+17
19185.0	7.410769814967636e+17
19186.0	7.409299191321939e+17
19187.0	7.407774915537577e+17
19188.0	7.406348332083884e+17
19189.0	7.404866601921194e+17
19190.0	7.403378209805651e+17
19191.0	7.401879531858602e+17
19192.0	7.400427679121407e+17
19193.0	7.398935365331625e+17
19194.0	7.397432377038164e+17
19195.0	7.39593021502259e+17
19196.0	7.394379482966697e+17
19197.0	7.392728102993917e+17
19198.0	7.390228332762451e+17
19199.0	7.381444133388287e+17
19200.0	7.381401893950807e+17
19201.0	7.385866648070825e+17
19202.0	7.384902939617962e+17
19203.0	7.383537646130516e+17
19204.0	7.382123400921088e+17
19205.0	7.380670776431955e+17
19206.0	7.379201571859114e+17
19207.0	7.377661089284093e+17
19208.0	7.376130803062102e+17
19209.0	7.374748567382698e+17
19210.0	7.373267635535871e+17
19211.0	7.371773309878271e+17
19212.0	7.370271860894378e+17
19213.0	7.368676774073683e+17
19214.0	7.367144975106045e+17
19215.0	7.365741939873108e+17
19216.0	7.36427752100113e+17
19217.0	7.362767208054781e+17
19218.0	7.360829193540947e+17
19219.0	7.359647936326314e+17
19220.0	7.358248917838506e+17
19221.0	7.356593265268054e+17
19222.0	7.355232199639037e+17
19223.0	7.353740965183487e+17
19224.0	7.352196246361428e+17
19225.0	7.350640223890089e+17
19226.0	7.349184016067242e+17
19227.0	7.347097110751913e+17
19228.0	7.345578504268457e+17
19229.0	7.344057409164627e+17
19230.0	7.342526621024255e+17
19231.0	7.340996902431402e+17
19232.0	7.339479111041024e+17
19233.0	7.33791081743428e+17
19234.0	7.336415911564628e+17
19235.0	7.334882420894378e+17
19236.0	7.333364162538156e+17
19237.0	7.33182084321553e+17
19238.0	7.330226768620202e+17
19239.0	7.328754825166847e+17
19240.0	7.327205031236947e+17
19241.0	7.325653899324074e+17
19242.0	7.324117163660628e+17
19243.0	7.322468247142399e+17
19244.0	7.32103296749841e+17
19245.0	7.319159041949696e+17
19246.0	7.317162282014036e+17
19247.0	7.315367644190036e+17
19248.0	7.313539556791636e+17
19249.0	7.31197827326498e+17
19250.0	7.310403114980691e+17
19251.0	7.308783624301225e+17
19252.0	7.307085104545791e+17
19253.0	7.305697743426899e+17
19254.0	7.304137460940799e+17
19255.0	7.3024333180218e+17
19256.0	7.300961943595689e+17
19257.0	7.299401090684246e+17
19258.0	7.297815495573504e+17
19259.0	7.296174186124628e+17
19260.0	7.294030735998973e+17
19261.0	7.292563378317994e+17
19262.0	7.290937038340093e+17
19263.0	7.289319717513897e+17
19264.0	7.287466773271891e+17
19265.0	7.28604434777156e+17
19266.0	7.284451516088317e+17
19267.0	7.282933754058067e+17
19268.0	7.281315966266025e+17
19269.0	7.279693065617407e+17
19270.0	7.278056600589651e+17
19271.0	7.276252023663274e+17
19272.0	7.274772779324755e+17
19273.0	7.272712074428415e+17
19274.0	7.271101871336105e+17
19275.0	7.26986797420817e+17
19276.0	7.268207067572906e+17
19277.0	7.266552497132883e+17
19278.0	7.264892706182484e+17
19279.0	7.263217194980692e+17
19280.0	7.261523736352084e+17
19281.0	7.259872247327402e+17
19282.0	7.258193570824191e+17
19283.0	7.256038087240361e+17
19284.0	7.253871786546514e+17
19285.0	7.252189370122239e+17
19286.0	7.250538637470377e+17
19287.0	7.248822687585619e+17
19288.0	7.24393303369318e+17
19289.0	7.238371824194889e+17
19290.0	7.243658329150804e+17
19291.0	7.241810167813459e+17
19292.0	7.240253442097151e+17
19293.0	7.238510999590227e+17
19294.0	7.236757693835945e+17
19295.0	7.235008943095807e+17
19296.0	7.233238904864765e+17
19297.0	7.231469973929983e+17
19298.0	7.229679994579625e+17
19299.0	7.22789725180177e+17
19300.0	7.226105491270313e+17
19301.0	7.22429844529698e+17
19302.0	7.222085140436308e+17
19303.0	7.219330149602644e+17
19304.0	7.217525263695871e+17
19305.0	7.21568813897045e+17
19306.0	7.213838376807081e+17
19307.0	7.211943745377619e+17
19308.0	7.210069426962432e+17
19309.0	7.207950773562025e+17
19310.0	7.205939541879466e+17
19311.0	7.204344926218921e+17
19312.0	7.202505652611753e+17
19313.0	7.200573901591892e+17
19314.0	7.191185635759442e+17
19315.0	7.189792107615583e+17
19316.0	7.193897623792298e+17
19317.0	7.190827910561791e+17
19318.0	7.18885798158882e+17
19319.0	7.186884111368191e+17
19320.0	7.184877145292799e+17
19321.0	7.18285151875891e+17
19322.0	7.180749516745385e+17
19323.0	7.178675283820543e+17
19324.0	7.176676447704404e+17
19325.0	7.17447005086242e+17
19326.0	7.172514793564841e+17
19327.0	7.168364828950527e+17
19328.0	7.165892935461545e+17
19329.0	7.163762231825748e+17
19330.0	7.161581695664127e+17
19331.0	7.159390841514668e+17
19332.0	7.157220521279487e+17
19333.0	7.155002536973651e+17
19334.0	7.152761576270505e+17
19335.0	7.147486545532244e+17
19336.0	7.145112777785344e+17
19337.0	7.142808994796883e+17
19338.0	7.140360207728637e+17
19339.0	7.138141826362025e+17
19340.0	7.135734451055276e+17
19341.0	7.131932738103978e+17
19342.0	7.126875443473066e+17
19343.0	7.124603916080467e+17
19344.0	7.121736516501501e+17
19345.0	7.118147751160488e+17
19346.0	7.116098045127338e+17
19347.0	7.110906725706405e+17
19348.0	7.106811319200424e+17
19349.0	7.104183154333012e+17
19350.0	7.101544977661952e+17
19351.0	7.098882213980841e+17
19352.0	7.091726832020136e+17
19353.0	7.088000507488936e+17
19354.0	7.085272641219241e+17
19355.0	7.082461523607552e+17
19356.0	7.077993692266496e+17
19357.0	7.073737002188799e+17
19358.0	7.070274341393747e+17
19359.0	7.067208085667837e+17
19360.0	7.064328220617385e+17
19361.0	7.061443368539476e+17
19362.0	7.058538709559978e+17
19363.0	7.055588466884607e+17
19364.0	7.052589854097407e+17
19365.0	7.049513369862143e+17
19366.0	7.046394669957119e+17
19367.0	7.04296195789073e+17
19368.0	7.03868298207778e+17
19369.0	7.035395535536127e+17
19370.0	7.032081204204884e+17
19371.0	7.028738949294761e+17
19372.0	7.02537576690483e+17
19373.0	7.021922063045972e+17
19374.0	7.017101197836285e+17
19375.0	7.012855120046761e+17
19376.0	7.009228705234943e+17
19377.0	7.005543439444649e+17
19378.0	7.001804543186259e+17
19379.0	6.996449127912786e+17
19380.0	6.991364225673897e+17
19381.0	6.987418169245693e+17
19382.0	6.983354728928595e+17
19383.0	6.977694520573955e+17
19384.0	6.971419699882666e+17
19385.0	6.967105545743018e+17
19386.0	6.962704792507732e+17
19387.0	6.953794904522751e+17
19388.0	6.948843251826687e+17
19389.0	6.944058334598484e+17
19390.0	6.934076928469673e+17
19391.0	6.920268916195316e+17
19392.0	6.921566147313665e+17
19393.0	6.911041216708605e+17
19394.0	6.905421068850516e+17
19395.0	6.894400089795235e+17
19396.0	6.885777556373503e+17
19397.0	6.875912210830669e+17
19398.0	6.864245657086633e+17
19399.0	6.855523439738879e+17
19400.0	6.84590956089617e+17
19401.0	6.839163675126442e+17
19402.0	6.832270523148969e+17
19403.0	6.825264807936e+17
19404.0	6.818178362157738e+17
19405.0	6.810899565598036e+17
19406.0	6.803318609980074e+17
19407.0	6.7953910888093e+17
19408.0	6.787131997421567e+17
19409.0	6.779271184558761e+17
19410.0	6.770943050732884e+17
19411.0	6.762385387814911e+17
19412.0	6.753601503712598e+17
19413.0	6.744569606919508e+17
19414.0	6.734863670793555e+17
19415.0	6.725093843533823e+17
19416.0	6.714998452999508e+17
19417.0	6.704493283158697e+17
19418.0	6.693507496411137e+17
19419.0	6.681442836807679e+17
19420.0	6.669790141743103e+17
19421.0	6.65775123866146e+17
19422.0	6.644216479700307e+17
19423.0	6.630967600305491e+17
19424.0	6.616898132596052e+17
19425.0	6.60018758296098e+17
19426.0	6.584463296648531e+17
19427.0	6.56617242414285e+17
19428.0	6.547479186462035e+17
19429.0	6.52702948331793e+17
19430.0	6.504683515062956e+17
19431.0	6.481155882745857e+17
19432.0	6.457400701048146e+17
19433.0	6.432900415924908e+17
19434.0	6.403400810539689e+17
19435.0	6.374644765076137e+17
19436.0	6.341903349273939e+17
19437.0	6.307181773193215e+17
19438.0	6.262260180363946e+17
19439.0	6.23130104946142e+17
19440.0	6.187396208350548e+17
19441.0	6.13882782757683e+17
19442.0	6.085182955541847e+17
19443.0	6.0242311788189e+17
19444.0	5.956259309507922e+17
19445.0	5.878284148189869e+17
19446.0	5.788135102698836e+17
19447.0	5.6820898841231296e+17
19448.0	5.553956781905243e+17
19449.0	5.3928535435946656e+17
19450.0	5.174303817465842e+17
19451.0	5.050405058772999e+17
19452.0	5.2943399717000506e+17
19453.0	5.477218262887088e+17
19454.0	5.617375041464997e+17
19455.0	5.7310114127107405e+17
19456.0	5.826070733389827e+17
19457.0	5.907364519608315e+17
19458.0	5.968437128637115e+17
19459.0	6.039238641800536e+17
19460.0	6.094314051119784e+17
19461.0	6.142740387594239e+17
19462.0	6.186921306182999e+17
19463.0	6.226247044562941e+17
19464.0	6.261194911733076e+17
19465.0	6.293880939653802e+17
19466.0	6.326364621067603e+17
19467.0	6.353676726348457e+17
19468.0	6.380131083878399e+17
19469.0	6.404768380136105e+17
19470.0	6.426373702112593e+17
19471.0	6.4484400955392e+17
19472.0	6.467313627474601e+17
19473.0	6.487139699829417e+17
19474.0	6.503100551178921e+17
19475.0	6.519643841058131e+17
19476.0	6.533832346610346e+17
19477.0	6.5474900525056e+17
19478.0	6.560429791423144e+17
19479.0	6.571249595580415e+17
19480.0	6.58240993108514e+17
19481.0	6.592437721322836e+17
19482.0	6.601729489502207e+17
19483.0	6.610996695837353e+17
19484.0	6.620105538535423e+17
19485.0	6.628256233728682e+17
19486.0	6.635918797919574e+17
19487.0	6.643168168640511e+17
19488.0	6.650451920770388e+17
19489.0	6.657071530027689e+17
19490.0	6.66290450805555e+17
19491.0	6.669525212725247e+17
19492.0	6.675411459112959e+17
19493.0	6.681067152998399e+17
19494.0	6.686522954044756e+17
19495.0	6.691826006928041e+17
19496.0	6.696823254504788e+17
19497.0	6.70174629995042e+17
19498.0	6.705056438375764e+17
19499.0	6.698540492739918e+17
19500.0	6.715021084764842e+17
19501.0	6.719331601743871e+17
19502.0	6.724622414249985e+17
19503.0	6.732372251421353e+17
19504.0	6.737894351131986e+17
19505.0	6.748526094581759e+17
19506.0	6.75194032235042e+17
19507.0	6.762347417479848e+17
19508.0	6.765827637728595e+17
19509.0	6.771447153644881e+17
19510.0	6.777651368121684e+17
19511.0	6.766516174673228e+17
19512.0	6.784312676450301e+17
19513.0	6.786413650160293e+17
19514.0	6.789487036203003e+17
19515.0	6.796945307030871e+17
19516.0	6.800558663576233e+17
19517.0	6.802262573711359e+17
19518.0	6.804463357176485e+17
19519.0	6.808908451894612e+17
19520.0	6.810298355460778e+17
19521.0	6.811649941962751e+17
19522.0	6.812895026697555e+17
19523.0	6.81668449997073e+17
19524.0	6.817828935390548e+17
19525.0	6.818887670693887e+17
19526.0	6.819893904495955e+17
19527.0	6.820840412108116e+17
19528.0	6.823332946466131e+17
19529.0	6.824422349122217e+17
19530.0	6.825188194080084e+17
19531.0	6.825904521084927e+17
19532.0	6.826575216858452e+17
19533.0	6.827196381396991e+17
19534.0	6.828092212030122e+17
19535.0	6.829545260143955e+17
19536.0	6.830007586390015e+17
19537.0	6.830468704676521e+17
19538.0	6.83077079802402e+17
19539.0	6.83089121649186e+17
19540.0	6.83141993996834e+17
19541.0	6.831690634756095e+17
19542.0	6.831915069865983e+17
19543.0	6.832115880558591e+17
19544.0	6.832679925667158e+17
19545.0	6.833043120237225e+17
19546.0	6.835878861209597e+17
19547.0	6.836431391555584e+17
19548.0	6.836512505200639e+17
19549.0	6.836503103668223e+17
19550.0	6.840263301398528e+17
19551.0	6.841731717442217e+17
19552.0	6.841709660296532e+17
19553.0	6.841651434968404e+17
19554.0	6.841574791053311e+17
19555.0	6.845053128059564e+17
19556.0	6.845700576204115e+17
19557.0	6.84555714568738e+17
19558.0	6.845398982677843e+17
19559.0	6.845583145478825e+17
19560.0	6.845573084741632e+17
19561.0	6.848630020724052e+17
19562.0	6.84835491352849e+17
19563.0	6.848037486504617e+17
19564.0	6.847697162775209e+17
19565.0	6.847334463133012e+17
19566.0	6.846940817216852e+17
19567.0	6.84761181987362e+17
19568.0	6.848943854627497e+17
19569.0	6.848511715486377e+17
19570.0	6.84805075308817e+17
19571.0	6.847564671702356e+17
19572.0	6.847042411648339e+17
19573.0	6.846532780643667e+17
19574.0	6.845943046122153e+17
19575.0	6.846117054513151e+17
19576.0	6.847064138143059e+17
19577.0	6.846470363807743e+17
19578.0	6.845847218858666e+17
19579.0	6.84523161526818e+17
19580.0	6.844598427058173e+17
19581.0	6.843956074293929e+17
19582.0	6.843302816339283e+17
19583.0	6.842627254474068e+17
19584.0	6.84193668538914e+17
19585.0	6.841164040066388e+17
19586.0	6.84119181824273e+17
19587.0	6.841369413462697e+17
19588.0	6.840421012122281e+17
19589.0	6.839913115462313e+17
19590.0	6.839132119979348e+17
19591.0	6.838524091301887e+17
19592.0	6.837781582752425e+17
19593.0	6.836982654522708e+17
19594.0	6.836044888539133e+17
19595.0	6.835376010297343e+17
19596.0	6.834156803719168e+17
19597.0	6.833738663067647e+17
19598.0	6.832739566572884e+17
19599.0	6.832076234599081e+17
19600.0	6.831276596133887e+17
19601.0	6.831453160953172e+17
19602.0	6.830577598595072e+17
19603.0	6.829418725681833e+17
19604.0	6.828793326294356e+17
19605.0	6.8277885220509e+17
19606.0	6.827071667262804e+17
19607.0	6.826169160695807e+17
19608.0	6.825251078580905e+17
19609.0	6.824304972223828e+17
19610.0	6.823405382795263e+17
19611.0	6.822469215540563e+17
19612.0	6.821538794482345e+17
19613.0	6.820586320472746e+17
19614.0	6.819615013339135e+17
19615.0	6.818680058238292e+17
19616.0	6.817636507713535e+17
19617.0	6.816742166757375e+17
19618.0	6.815448695832573e+17
19619.0	6.814386228996777e+17
19620.0	6.813449385061033e+17
19621.0	6.81323978101009e+17
19622.0	6.812561261461501e+17
19623.0	6.811562378177193e+17
19624.0	6.810558598042964e+17
19625.0	6.809549175870804e+17
19626.0	6.808530696099156e+17
19627.0	6.807484460520787e+17
19628.0	6.806259524523348e+17
19629.0	6.805228422692863e+17
19630.0	6.802637461301929e+17
19631.0	6.794904436998144e+17
19632.0	6.802043231884628e+17
19633.0	6.801234649066153e+17
19634.0	6.800277236263594e+17
19635.0	6.799223734752598e+17
19636.0	6.798218213982207e+17
19637.0	6.797216247884458e+17
19638.0	6.796419634910548e+17
19639.0	6.795357480550399e+17
19640.0	6.794242617070934e+17
19641.0	6.792871445965484e+17
19642.0	6.792568643780607e+17
19643.0	6.791490712545961e+17
19644.0	6.790377592498858e+17
19645.0	6.789197057403561e+17
19646.0	6.788255955550207e+17
19647.0	6.787183729967103e+17
19648.0	6.786098474778623e+17
19649.0	6.785008765239295e+17
19650.0	6.783919106031615e+17
19651.0	6.782825502081023e+17
19652.0	6.781729301157204e+17
19653.0	6.780629662302208e+17
19654.0	6.779529690000042e+17
19655.0	6.778423617781759e+17
19656.0	6.777470656533843e+17
19657.0	6.776840367286953e+17
19658.0	6.775730822884009e+17
19659.0	6.774618293534719e+17
19660.0	6.773777529918803e+17
19661.0	6.772811046234794e+17
19662.0	6.771691276817748e+17
19663.0	6.770539630690303e+17
19664.0	6.76942095388945e+17
19665.0	6.768325209445716e+17
