# Flux units: erg / (cm m2 s)
# Wavelength units: Angstrom
wave	flux
19000.0	6.249212482857641e+17
19001.0	6.248059109375999e+17
19002.0	6.24692443619874e+17
19003.0	6.245780384557738e+17
19004.0	6.244636531447124e+17
19005.0	6.243492953762474e+17
19006.0	6.242349267025919e+17
19007.0	6.241205257327956e+17
19008.0	6.240057841156095e+17
19009.0	6.238903466633897e+17
19010.0	6.237743920534868e+17
19011.0	6.23662875087121e+17
19012.0	6.235479114514432e+17
19013.0	6.23434776322594e+17
19014.0	6.233205480882173e+17
19015.0	6.232062909131433e+17
19016.0	6.230917269946367e+17
19017.0	6.229777976743251e+17
19018.0	6.228636842240681e+17
19019.0	6.227495195333972e+17
19020.0	6.226353553320618e+17
19021.0	6.225212066496511e+17
19022.0	6.224070707598676e+17
19023.0	6.222929373167613e+17
19024.0	6.22178741588241e+17
19025.0	6.220646526047572e+17
19026.0	6.219504013017087e+17
19027.0	6.21836044931345e+17
19028.0	6.217224993898496e+17
19029.0	6.216085107900415e+17
19030.0	6.21494505832448e+17
19031.0	6.213804922765312e+17
19032.0	6.212664738272595e+17
19033.0	6.211520837626538e+17
19034.0	6.210394390178473e+17
19035.0	6.209232256193875e+17
19036.0	6.207749480251391e+17
19037.0	6.206960263233536e+17
19038.0	6.205838798618623e+17
19039.0	6.204702832197631e+17
19040.0	6.203565274038271e+17
19041.0	6.20242742157858e+17
19042.0	6.201272810777257e+17
19043.0	6.200151699881984e+17
19044.0	6.199013830645076e+17
19045.0	6.197876020128426e+17
19046.0	6.196735034523648e+17
19047.0	6.195596427788287e+17
19048.0	6.194450988531712e+17
19049.0	6.193302326651561e+17
19050.0	6.192187058421759e+17
19051.0	6.191004377240915e+17
19052.0	6.189892971266047e+17
19053.0	6.188779976349012e+17
19054.0	6.187646020397738e+17
19055.0	6.186484558899882e+17
19056.0	6.185374759343444e+17
19057.0	6.184240362291199e+17
19058.0	6.183095598317567e+17
19059.0	6.181966240022527e+17
19060.0	6.180834314813437e+17
19061.0	6.179700810448895e+17
19062.0	6.178566040802644e+17
19063.0	6.177431411665577e+17
19064.0	6.17629067911714e+17
19065.0	6.175152818268842e+17
19066.0	6.17402152989491e+17
19067.0	6.172897376731135e+17
19068.0	6.171764214202368e+17
19069.0	6.170631196377087e+17
19070.0	6.169497857687551e+17
19071.0	6.168365760511999e+17
19072.0	6.167229812965376e+17
19073.0	6.166100796506111e+17
19074.0	6.164968971960319e+17
19075.0	6.163837021585405e+17
19076.0	6.162704221863935e+17
19077.0	6.161572000257363e+17
19078.0	6.160440611220138e+17
19079.0	6.159311417901055e+17
19080.0	6.158180569229993e+17
19081.0	6.157049668130134e+17
19082.0	6.155916987247274e+17
19083.0	6.154780895696211e+17
19084.0	6.153637885640703e+17
19085.0	6.152528365704534e+17
19086.0	6.151363548763476e+17
19087.0	6.150256583857492e+17
19088.0	6.149126221725695e+17
19089.0	6.147992581046272e+17
19090.0	6.146880689930239e+17
19091.0	6.145750497667753e+17
19092.0	6.144612345315327e+17
19093.0	6.14349677928994e+17
19094.0	6.142369139261439e+17
19095.0	6.141241337053183e+17
19096.0	6.140112861659135e+17
19097.0	6.138985898311679e+17
19098.0	6.137855044747263e+17
19099.0	6.136724870660096e+17
19100.0	6.135593002074111e+17
19101.0	6.134464925138944e+17
19102.0	6.133331947159551e+17
19103.0	6.132213422751743e+17
19104.0	6.131087497494527e+17
19105.0	6.129952550289407e+17
19106.0	6.12883481301265e+17
19107.0	6.127706473933482e+17
19108.0	6.126578724154025e+17
19109.0	6.125444906614783e+17
19110.0	6.124328783446015e+17
19111.0	6.123207048298495e+17
19112.0	6.122083088072703e+17
19113.0	6.120962206466047e+17
19114.0	6.119837971513341e+17
19115.0	6.118712074218154e+17
19116.0	6.117589714818388e+17
19117.0	6.116463280652287e+17
19118.0	6.115321418437972e+17
19119.0	6.113710734398803e+17
19120.0	6.11308642692847e+17
19121.0	6.111971250973353e+17
19122.0	6.110852738449407e+17
19123.0	6.109730966951252e+17
19124.0	6.108608675359401e+17
19125.0	6.107485279966547e+17
19126.0	6.106353047175165e+17
19127.0	6.105122094448639e+17
19128.0	6.104108099087018e+17
19129.0	6.102992570111316e+17
19130.0	6.101881196292777e+17
19131.0	6.100761423380479e+17
19132.0	6.099641077945684e+17
19133.0	6.09852052489284e+17
19134.0	6.097401580355583e+17
19135.0	6.096281893426516e+17
19136.0	6.095161337577472e+17
19137.0	6.094033237573631e+17
19138.0	6.092921470189567e+17
19139.0	6.091805010078377e+17
19140.0	6.090686831001599e+17
19141.0	6.089568349934931e+17
19142.0	6.088449745136297e+17
19143.0	6.08732841124386e+17
19144.0	6.086212276191231e+17
19145.0	6.085095958686378e+17
19146.0	6.083921062133759e+17
19147.0	6.082856328975702e+17
19148.0	6.081740841943039e+17
19149.0	6.080623618468522e+17
19150.0	6.079510350222676e+17
19151.0	6.078393926462121e+17
19152.0	6.077277513187327e+17
19153.0	6.07615415414511e+17
19154.0	6.075037116618068e+17
19155.0	6.073927832961023e+17
19156.0	6.07281261646097e+17
19157.0	6.071692872908799e+17
19158.0	6.070570395369471e+17
19159.0	6.069464086872063e+17
19160.0	6.068351313554089e+17
19161.0	6.06723381465361e+17
19162.0	6.066099679046314e+17
19163.0	6.064999978674857e+17
19164.0	6.063894090306902e+17
19165.0	6.06277404196864e+17
19166.0	6.06165888279074e+17
19167.0	6.060552278594902e+17
19168.0	6.059441203270995e+17
19169.0	6.05832864665873e+17
19170.0	6.057216195603114e+17
19171.0	6.056103000058538e+17
19172.0	6.054991062805162e+17
19173.0	6.053878877388799e+17
19174.0	6.052763395249492e+17
19175.0	6.051654700193108e+17
19176.0	6.050543426338815e+17
19177.0	6.04941760663825e+17
19178.0	6.048319163159892e+17
19179.0	6.047207632754004e+17
19180.0	6.046097324987731e+17
19181.0	6.044977686293162e+17
19182.0	6.043873758063274e+17
19183.0	6.042765983656617e+17
19184.0	6.041655579421354e+17
19185.0	6.040545247887359e+17
19186.0	6.039435356755284e+17
19187.0	6.038325247519402e+17
19188.0	6.037215457749673e+17
19189.0	6.036106188073642e+17
19190.0	6.034996505957716e+17
19191.0	6.033886930796544e+17
19192.0	6.032777651333802e+17
19193.0	6.031668092250794e+17
19194.0	6.030558166166186e+17
19195.0	6.029447237642921e+17
19196.0	6.028334188898986e+17
19197.0	6.027216472593748e+17
19198.0	6.026076820078591e+17
19199.0	6.024822578479103e+17
19200.0	6.02373347152145e+17
19201.0	6.022758174905686e+17
19202.0	6.021679599845375e+17
19203.0	6.020581536650579e+17
19204.0	6.019476831775401e+17
19205.0	6.018373062929065e+17
19206.0	6.017266955758249e+17
19207.0	6.016156190812841e+17
19208.0	6.01504042066466e+17
19209.0	6.013949696802816e+17
19210.0	6.012844131396266e+17
19211.0	6.011738209473875e+17
19212.0	6.010631993950207e+17
19213.0	6.009517725362857e+17
19214.0	6.008412584280063e+17
19215.0	6.007313543812436e+17
19216.0	6.006208528558761e+17
19217.0	6.005098133411156e+17
19218.0	6.003949112218964e+17
19219.0	6.002871796847955e+17
19220.0	6.001786769549993e+17
19221.0	6.000666489126911e+17
19222.0	5.999574262306132e+17
19223.0	5.998474958296404e+17
19224.0	5.997369729832276e+17
19225.0	5.996259287848276e+17
19226.0	5.99516268077602e+17
19227.0	5.994059538279081e+17
19228.0	5.992955789705215e+17
19229.0	5.991851816736086e+17
19230.0	5.990747864039423e+17
19231.0	5.989644376910505e+17
19232.0	5.988539881051476e+17
19233.0	5.98743546208802e+17
19234.0	5.986332404176212e+17
19235.0	5.985230233359702e+17
19236.0	5.984126685413375e+17
19237.0	5.983022615276201e+17
19238.0	5.981912690589695e+17
19239.0	5.980817555019092e+17
19240.0	5.979714532059818e+17
19241.0	5.978611701339476e+17
19242.0	5.97750889718306e+17
19243.0	5.976391417156948e+17
19244.0	5.97530329096738e+17
19245.0	5.974200447664127e+17
19246.0	5.973096962632361e+17
19247.0	5.971994821875028e+17
19248.0	5.970892450430976e+17
19249.0	5.969789732956841e+17
19250.0	5.968686621218132e+17
19251.0	5.967576650394282e+17
19252.0	5.966453773697023e+17
19253.0	5.965378529613139e+17
19254.0	5.96427685302545e+17
19255.0	5.963155771490301e+17
19256.0	5.962070089880916e+17
19257.0	5.960969083682815e+17
19258.0	5.959866328459946e+17
19259.0	5.958756141629439e+17
19260.0	5.95765187575808e+17
19261.0	5.956557531512832e+17
19262.0	5.955454328198484e+17
19263.0	5.954343244485971e+17
19264.0	5.953210765628756e+17
19265.0	5.952127567746388e+17
19266.0	5.951015506061994e+17
19267.0	5.949921272266751e+17
19268.0	5.948818528228692e+17
19269.0	5.947715005448191e+17
19270.0	5.946607858789034e+17
19271.0	5.945485226759508e+17
19272.0	5.944400492363775e+17
19273.0	5.94327699001617e+17
19274.0	5.94215748903458e+17
19275.0	5.941092872617983e+17
19276.0	5.939989154802345e+17
19277.0	5.938885042722132e+17
19278.0	5.937780225998847e+17
19279.0	5.936674522180265e+17
19280.0	5.935565778190335e+17
19281.0	5.934463996745044e+17
19282.0	5.93335881371921e+17
19283.0	5.932251818054995e+17
19284.0	5.931143825544531e+17
19285.0	5.930033589081427e+17
19286.0	5.928931346961747e+17
19287.0	5.927820954610346e+17
19288.0	5.926582233333759e+17
19289.0	5.925375158080852e+17
19290.0	5.924497936875519e+17
19291.0	5.923372939258537e+17
19292.0	5.922289674966356e+17
19293.0	5.921181355999231e+17
19294.0	5.920072678419113e+17
19295.0	5.918963318565546e+17
19296.0	5.91784898077218e+17
19297.0	5.916742068994047e+17
19298.0	5.915632024070825e+17
19299.0	5.914515584232105e+17
19300.0	5.913408352987818e+17
19301.0	5.912295721577132e+17
19302.0	5.91118132716066e+17
19303.0	5.910062694399999e+17
19304.0	5.908944437029546e+17
19305.0	5.907810548187136e+17
19306.0	5.906695074436435e+17
19307.0	5.905577281235626e+17
19308.0	5.904460364644352e+17
19309.0	5.903336709903702e+17
19310.0	5.902214057601705e+17
19311.0	5.901098904016212e+17
19312.0	5.899983249211391e+17
19313.0	5.89885645852945e+17
19314.0	5.897099105970857e+17
19315.0	5.896029904480937e+17
19316.0	5.895481308392106e+17
19317.0	5.89436904677922e+17
19318.0	5.893244808331263e+17
19319.0	5.892118488809471e+17
19320.0	5.890988738347008e+17
19321.0	5.889856685211647e+17
19322.0	5.8887257980928e+17
19323.0	5.887586276999168e+17
19324.0	5.88640706310963e+17
19325.0	5.885270788407295e+17
19326.0	5.884136992538623e+17
19327.0	5.882999711203328e+17
19328.0	5.881853845525843e+17
19329.0	5.880721241538559e+17
19330.0	5.879577017232041e+17
19331.0	5.87843405750818e+17
19332.0	5.877289448723796e+17
19333.0	5.876141815846228e+17
19334.0	5.874991821575508e+17
19335.0	5.873824388786858e+17
19336.0	5.872685655523328e+17
19337.0	5.871490292165289e+17
19338.0	5.870289648877567e+17
19339.0	5.86914749096482e+17
19340.0	5.867972660122964e+17
19341.0	5.866802211629738e+17
19342.0	5.865624846729215e+17
19343.0	5.864472059052031e+17
19344.0	5.863286869677396e+17
19345.0	5.861981654002346e+17
19346.0	5.8608469948061e+17
19347.0	5.859697135452159e+17
19348.0	5.858524941429418e+17
19349.0	5.857334707006121e+17
19350.0	5.856139481361066e+17
19351.0	5.854939937680042e+17
19352.0	5.853726792570195e+17
19353.0	5.852527269161642e+17
19354.0	5.851311706734591e+17
19355.0	5.850065069408255e+17
19356.0	5.84884004323328e+17
19357.0	5.847613444194303e+17
19358.0	5.846380988508842e+17
19359.0	5.845139896052393e+17
19360.0	5.843891081882282e+17
19361.0	5.842647635722239e+17
19362.0	5.841393498980352e+17
19363.0	5.840130522742784e+17
19364.0	5.83886024282385e+17
19365.0	5.83758338064384e+17
19366.0	5.836299000173907e+17
19367.0	5.835006081499135e+17
19368.0	5.833703581635924e+17
19369.0	5.832389545339561e+17
19370.0	5.831056693395455e+17
19371.0	5.829687408328704e+17
19372.0	5.828345182814207e+17
19373.0	5.826991503354538e+17
19374.0	5.825625283624959e+17
19375.0	5.824243580622164e+17
19376.0	5.822849345039017e+17
19377.0	5.821441977090048e+17
19378.0	5.820021101385044e+17
19379.0	5.818585593850538e+17
19380.0	5.817059253769556e+17
19381.0	5.815584581222399e+17
19382.0	5.814093701185535e+17
19383.0	5.812596962405033e+17
19384.0	5.811087600866643e+17
19385.0	5.809553827779924e+17
19386.0	5.807983027377492e+17
19387.0	5.806296592110931e+17
19388.0	5.804693366942378e+17
19389.0	5.803044348362751e+17
19390.0	5.801379248821588e+17
19391.0	5.799379624875348e+17
19392.0	5.79777233682432e+17
19393.0	5.796048908495529e+17
19394.0	5.794266522932563e+17
19395.0	5.792444729786367e+17
19396.0	5.790462611466922e+17
19397.0	5.788426182503082e+17
19398.0	5.786463306951338e+17
19399.0	5.784412531370665e+17
19400.0	5.782175056833193e+17
19401.0	5.779935910865577e+17
19402.0	5.777790260128425e+17
19403.0	5.775422237878954e+17
19404.0	5.772966996475904e+17
19405.0	5.770670582879572e+17
19406.0	5.768200636246697e+17
19407.0	5.765645837445802e+17
19408.0	5.762924910652073e+17
19409.0	5.760330244292607e+17
19410.0	5.757601833462443e+17
19411.0	5.754759224317268e+17
19412.0	5.7518019408035834e+17
19413.0	5.748512491481769e+17
19414.0	5.745266218325332e+17
19415.0	5.7418753982682445e+17
19416.0	5.738314782299477e+17
19417.0	5.734335937598804e+17
19418.0	5.73048762732817e+17
19419.0	5.726434586787839e+17
19420.0	5.721955709048149e+17
19421.0	5.717433613200042e+17
19422.0	5.712718339593556e+17
19423.0	5.7073862159892474e+17
19424.0	5.7019105213590176e+17
19425.0	5.6961572819435514e+17
19426.0	5.689535444112723e+17
19427.0	5.68295242736162e+17
19428.0	5.67591930446916e+17
19429.0	5.667834984136702e+17
19430.0	5.659773319337301e+17
19431.0	5.6514310472116896e+17
19432.0	5.6417777593876474e+17
19433.0	5.631282991420758e+17
19434.0	5.620205047425706e+17
19435.0	5.608221943267326e+17
19436.0	5.5942296227894605e+17
19437.0	5.579294255699284e+17
19438.0	5.56198952837666e+17
19439.0	5.5444548846878726e+17
19440.0	5.5236956999297696e+17
19441.0	5.500218679579987e+17
19442.0	5.4727541868462074e+17
19443.0	5.441246061395967e+17
19444.0	5.404522904027133e+17
19445.0	5.360103055512918e+17
19446.0	5.305647328045738e+17
19447.0	5.237019080916988e+17
19448.0	5.145367352617647e+17
19449.0	5.0119010076153165e+17
19450.0	4.767730274140145e+17
19451.0	4.5781414810310195e+17
19452.0	4.914022758132394e+17
19453.0	5.084440445321222e+17
19454.0	5.190580832654673e+17
19455.0	5.267132432515071e+17
19456.0	5.325570502732459e+17
19457.0	5.3725499602152083e+17
19458.0	5.4088608412685664e+17
19459.0	5.4423936816906246e+17
19460.0	5.469766757471572e+17
19461.0	5.493045805973503e+17
19462.0	5.51311967850769e+17
19463.0	5.530261264880979e+17
19464.0	5.5455981855484576e+17
19465.0	5.55918375780352e+17
19466.0	5.5717454668977485e+17
19467.0	5.582451230026409e+17
19468.0	5.5918181314723834e+17
19469.0	5.6005569736430925e+17
19470.0	5.608504662425599e+17
19471.0	5.6153799851158176e+17
19472.0	5.6213840935430816e+17
19473.0	5.627414509344083e+17
19474.0	5.6328531717652474e+17
19475.0	5.6374315307062605e+17
19476.0	5.6420072395461965e+17
19477.0	5.6461269080036685e+17
19478.0	5.649499289900373e+17
19479.0	5.652934710089043e+17
19480.0	5.655781654746452e+17
19481.0	5.658208774739285e+17
19482.0	5.660707907436543e+17
19483.0	5.6628344601094816e+17
19484.0	5.664660161647956e+17
19485.0	5.6664560402868896e+17
19486.0	5.668119003529215e+17
19487.0	5.669482615799806e+17
19488.0	5.6706941684722336e+17
19489.0	5.6718083273086285e+17
19490.0	5.6727642259674445e+17
19491.0	5.67364766802466e+17
19492.0	5.6743355674350925e+17
19493.0	5.674917778773332e+17
19494.0	5.675439975912788e+17
19495.0	5.6759194309973325e+17
19496.0	5.6763767869931514e+17
19497.0	5.676628126466047e+17
19498.0	5.6766852864409594e+17
19499.0	5.676777968675498e+17
19500.0	5.6773440445262496e+17
19501.0	5.677388569160363e+17
19502.0	5.677624570063531e+17
19503.0	5.6776341526500685e+17
19504.0	5.677514422747135e+17
19505.0	5.677350615602515e+17
19506.0	5.6773353714046285e+17
19507.0	5.677103174735188e+17
19508.0	5.676805161746432e+17
19509.0	5.67646695124719e+17
19510.0	5.676139362822825e+17
19511.0	5.6748383840938656e+17
19512.0	5.675308162220031e+17
19513.0	5.674802418636117e+17
19514.0	5.674376339565225e+17
19515.0	5.673986424482474e+17
19516.0	5.6735944374135456e+17
19517.0	5.673041657506474e+17
19518.0	5.6724743114806605e+17
19519.0	5.671882776903679e+17
19520.0	5.6712693298845005e+17
19521.0	5.670652950347775e+17
19522.0	5.670024705125034e+17
19523.0	5.669436630848852e+17
19524.0	5.668764125233151e+17
19525.0	5.668085152000681e+17
19526.0	5.667389792321536e+17
19527.0	5.666681564517716e+17
19528.0	5.6659594661505696e+17
19529.0	5.6652234056444576e+17
19530.0	5.66447590797039e+17
19531.0	5.6637176980439034e+17
19532.0	5.662968449946964e+17
19533.0	5.662217430455636e+17
19534.0	5.6614300421543245e+17
19535.0	5.6606331747259725e+17
19536.0	5.6598268575307085e+17
19537.0	5.659012722152789e+17
19538.0	5.658170809996628e+17
19539.0	5.657330896426324e+17
19540.0	5.6565312943117645e+17
19541.0	5.6556928760108365e+17
19542.0	5.654846707335167e+17
19543.0	5.6539884338981536e+17
19544.0	5.6531331852533754e+17
19545.0	5.652225340735487e+17
19546.0	5.651341240172543e+17
19547.0	5.650528044318719e+17
19548.0	5.649654023367337e+17
19549.0	5.648787587814741e+17
19550.0	5.647912574910462e+17
19551.0	5.6470228679611725e+17
19552.0	5.6461287402154643e+17
19553.0	5.645235170312192e+17
19554.0	5.6443343834098336e+17
19555.0	5.6434322669131085e+17
19556.0	5.642528376225792e+17
19557.0	5.6416497268599456e+17
19558.0	5.6407349183993165e+17
19559.0	5.639817329115136e+17
19560.0	5.6388967255244794e+17
19561.0	5.6379735927685114e+17
19562.0	5.637047854650708e+17
19563.0	5.6361195111710714e+17
19564.0	5.635208444029609e+17
19565.0	5.634308097529172e+17
19566.0	5.633371357052926e+17
19567.0	5.63248430649617e+17
19568.0	5.6315496310155936e+17
19569.0	5.6306074889748474e+17
19570.0	5.62966465487394e+17
19571.0	5.6287194405055136e+17
19572.0	5.6277721981911034e+17
19573.0	5.6268228671133e+17
19574.0	5.625867934542505e+17
19575.0	5.624922230838611e+17
19576.0	5.6239690927308794e+17
19577.0	5.623014060195838e+17
19578.0	5.622055941352105e+17
19579.0	5.6211012555461965e+17
19580.0	5.620142440447999e+17
19581.0	5.619190136307711e+17
19582.0	5.618259512524799e+17
19583.0	5.617297500667903e+17
19584.0	5.616334297628671e+17
19585.0	5.615362594832383e+17
19586.0	5.614391642816511e+17
19587.0	5.6134454190189216e+17
19588.0	5.612450818118997e+17
19589.0	5.6115110444619085e+17
19590.0	5.6105398568659616e+17
19591.0	5.609576934146047e+17
19592.0	5.608606883905536e+17
19593.0	5.6076361332162554e+17
19594.0	5.606641047175167e+17
19595.0	5.6056912973660154e+17
19596.0	5.6047149724467194e+17
19597.0	5.6037439826821114e+17
19598.0	5.6027392357608096e+17
19599.0	5.6017938710964896e+17
19600.0	5.6008190162807456e+17
19601.0	5.599839785407828e+17
19602.0	5.598856328773631e+17
19603.0	5.597860817709738e+17
19604.0	5.596917413183487e+17
19605.0	5.5959335147492685e+17
19606.0	5.594978382949034e+17
19607.0	5.594000378910037e+17
19608.0	5.593020917350399e+17
19609.0	5.592040210082474e+17
19610.0	5.591058357769556e+17
19611.0	5.590076394307583e+17
19612.0	5.589100263025321e+17
19613.0	5.588119097879209e+17
19614.0	5.5871374419995296e+17
19615.0	5.5861549409675936e+17
19616.0	5.585167077517993e+17
19617.0	5.584183307010047e+17
19618.0	5.583156603606356e+17
19619.0	5.5821605109323085e+17
19620.0	5.581192385178281e+17
19621.0	5.5802493728194554e+17
19622.0	5.579275075147092e+17
19623.0	5.5782921218293754e+17
19624.0	5.5773084387027616e+17
19625.0	5.576324209617577e+17
19626.0	5.5753393849412256e+17
19627.0	5.574352941263529e+17
19628.0	5.573362617854634e+17
19629.0	5.572350389693098e+17
19630.0	5.571321757608617e+17
19631.0	5.5702343926852256e+17
19632.0	5.5694065111749965e+17
19633.0	5.568440188272638e+17
19634.0	5.5674595690850976e+17
19635.0	5.566475436468905e+17
19636.0	5.5654851927517856e+17
19637.0	5.564467830063102e+17
19638.0	5.563520057169236e+17
19639.0	5.562535261153962e+17
19640.0	5.5615376088978765e+17
19641.0	5.5604831783485434e+17
19642.0	5.559577924512426e+17
19643.0	5.558592858663593e+17
19644.0	5.5576021291062605e+17
19645.0	5.5566036254064634e+17
19646.0	5.555628526622036e+17
19647.0	5.554650746978303e+17
19648.0	5.5536654490446496e+17
19649.0	5.55267959886097e+17
19650.0	5.551694124067497e+17
19651.0	5.550708288563883e+17
19652.0	5.549722592171349e+17
19653.0	5.548736819582292e+17
19654.0	5.547751250416979e+17
19655.0	5.546765167449428e+17
19656.0	5.5457794514834765e+17
19657.0	5.544794284971349e+17
19658.0	5.5438087843130016e+17
19659.0	5.542823132659711e+17
19660.0	5.541837745247573e+17
19661.0	5.54085690446097e+17
19662.0	5.539880761294847e+17
