# Flux units: erg / (cm m2 s)
# Wavelength units: Angstrom
wave	flux
19000.0	5.919282098951507e+17
19001.0	5.918114465535316e+17
19002.0	5.917079511236607e+17
19003.0	5.915976584047273e+17
19004.0	5.91487463203362e+17
19005.0	5.913774965915647e+17
19006.0	5.912673317989033e+17
19007.0	5.911526575702015e+17
19008.0	5.910430437692756e+17
19009.0	5.909275187260073e+17
19010.0	5.907978258131625e+17
19011.0	5.907127812663977e+17
19012.0	5.905900016151209e+17
19013.0	5.904956496281599e+17
19014.0	5.903819321202004e+17
19015.0	5.902731102038697e+17
19016.0	5.901619712841044e+17
19017.0	5.900548911224147e+17
19018.0	5.899442778887508e+17
19019.0	5.898347033744724e+17
19020.0	5.897234210794154e+17
19021.0	5.896147671449599e+17
19022.0	5.895057376105812e+17
19023.0	5.893931411701759e+17
19024.0	5.892840452958892e+17
19025.0	5.891742748377087e+17
19026.0	5.890622536460969e+17
19027.0	5.889429234603347e+17
19028.0	5.888450644060842e+17
19029.0	5.887348680862377e+17
19030.0	5.886258920991401e+17
19031.0	5.88516012728866e+17
19032.0	5.884057697124352e+17
19033.0	5.882900826991273e+17
19034.0	5.881853698725203e+17
19035.0	5.880704445448191e+17
19036.0	5.872677617838757e+17
19037.0	5.87855795585024e+17
19038.0	5.877451326488576e+17
19039.0	5.876369063936e+17
19040.0	5.875270821085183e+17
19041.0	5.874169410136745e+17
19042.0	5.873017401202004e+17
19043.0	5.871977037649236e+17
19044.0	5.870877711968937e+17
19045.0	5.869781473296383e+17
19046.0	5.868648985351508e+17
19047.0	5.867563309334528e+17
19048.0	5.86636016554257e+17
19049.0	5.865339098584406e+17
19050.0	5.864267075725993e+17
19051.0	5.861993401548799e+17
19052.0	5.861754519158781e+17
19053.0	5.860993766785023e+17
19054.0	5.859904273252351e+17
19055.0	5.858643990457002e+17
19056.0	5.857702917264724e+17
19057.0	5.85661434298368e+17
19058.0	5.855504360975018e+17
19059.0	5.854426404574548e+17
19060.0	5.853318546980863e+17
19061.0	5.852238056521727e+17
19062.0	5.851139436183551e+17
19063.0	5.850045421191167e+17
19064.0	5.848873403329193e+17
19065.0	5.847743278175571e+17
19066.0	5.846742715072512e+17
19067.0	5.845699556016127e+17
19068.0	5.844609047461887e+17
19069.0	5.843514462044159e+17
19070.0	5.842405453114025e+17
19071.0	5.841327547045204e+17
19072.0	5.840233656483839e+17
19073.0	5.839136685905236e+17
19074.0	5.838046782728874e+17
19075.0	5.836953486360576e+17
19076.0	5.835847572826793e+17
19077.0	5.834754804940799e+17
19078.0	5.833656576070995e+17
19079.0	5.83257977590033e+17
19080.0	5.831476197894825e+17
19081.0	5.830371925732009e+17
19082.0	5.829276407780692e+17
19083.0	5.828142002339839e+17
19084.0	5.826971005790889e+17
19085.0	5.826028450611199e+17
19086.0	5.824698725520724e+17
19087.0	5.823582641498794e+17
19088.0	5.822686297063423e+17
19089.0	5.821426200914602e+17
19090.0	5.820553127875924e+17
19091.0	5.819460802489001e+17
19092.0	5.818302727891626e+17
19093.0	5.817301969054378e+17
19094.0	5.816209045979135e+17
19095.0	5.815118329806848e+17
19096.0	5.814020548329471e+17
19097.0	5.812939393073152e+17
19098.0	5.811850863531348e+17
19099.0	5.810760568187564e+17
19100.0	5.80965673013521e+17
19101.0	5.80857891004962e+17
19102.0	5.80743088570368e+17
19103.0	5.806408684186282e+17
19104.0	5.805320228044799e+17
19105.0	5.804226568869203e+17
19106.0	5.803097812456788e+17
19107.0	5.802044085152425e+17
19108.0	5.800965416419328e+17
19109.0	5.799200100275539e+17
19110.0	5.798747129424554e+17
19111.0	5.797704074526719e+17
19112.0	5.796617015787519e+17
19113.0	5.795531996179114e+17
19114.0	5.7944430360221e+17
19115.0	5.793312413843455e+17
19116.0	5.792257079421609e+17
19117.0	5.791168498849107e+17
19118.0	5.789984371332435e+17
19119.0	5.785595698391718e+17
19120.0	5.787851046256637e+17
19121.0	5.786785528064682e+17
19122.0	5.785757509047635e+17
19123.0	5.784671635898368e+17
19124.0	5.783549500194815e+17
19125.0	5.782491840730452e+17
19126.0	5.781411402001066e+17
19127.0	5.779135947341824e+17
19128.0	5.778970461776554e+17
19129.0	5.778115839481172e+17
19130.0	5.777062138740736e+17
19131.0	5.775993285378048e+17
19132.0	5.774908413968383e+17
19133.0	5.773670007264596e+17
19134.0	5.772625128543572e+17
19135.0	5.771655957009748e+17
19136.0	5.770579352573267e+17
19137.0	5.769390463123455e+17
19138.0	5.768389084228265e+17
19139.0	5.767329936485034e+17
19140.0	5.766249218834431e+17
19141.0	5.765166110430547e+17
19142.0	5.764069031499092e+17
19143.0	5.762968948047871e+17
19144.0	5.7618940304206496e+17
19145.0	5.7608358396777805e+17
19146.0	5.759380996401834e+17
19147.0	5.758585665486847e+17
19148.0	5.757589387564373e+17
19149.0	5.7565091103156896e+17
19150.0	5.755427484598271e+17
19151.0	5.7543519000767136e+17
19152.0	5.753258741421396e+17
19153.0	5.75217662636851e+17
19154.0	5.7510249313075194e+17
19155.0	5.750031321661439e+17
19156.0	5.7489495812997114e+17
19157.0	5.747856967903913e+17
19158.0	5.746307733214547e+17
19159.0	5.74569922428928e+17
19160.0	5.7446219249964365e+17
19161.0	5.7435293940886176e+17
19162.0	5.7414161541365754e+17
19163.0	5.7413276277582496e+17
19164.0	5.7403166914423456e+17
19165.0	5.739212073249449e+17
19166.0	5.738053805015039e+17
19167.0	5.736980163155285e+17
19168.0	5.73597606285585e+17
19169.0	5.734889761188521e+17
19170.0	5.733845578721962e+17
19171.0	5.732702259686057e+17
19172.0	5.7316847187394554e+17
19173.0	5.7306098829011616e+17
19174.0	5.729498315445587e+17
19175.0	5.728459773618858e+17
19176.0	5.727382965059583e+17
19177.0	5.7262049647220045e+17
19178.0	5.7251954971115514e+17
19179.0	5.7240639375059616e+17
19180.0	5.7230506237187405e+17
19181.0	5.7219243188770125e+17
19182.0	5.7208956273732256e+17
19183.0	5.719842321596415e+17
19184.0	5.718748953225898e+17
19185.0	5.7176875797053434e+17
19186.0	5.716615158388052e+17
19187.0	5.7154954826437965e+17
19188.0	5.7144611630830925e+17
19189.0	5.713378690815315e+17
19190.0	5.7122963380852045e+17
19191.0	5.711208204905131e+17
19192.0	5.710160366403583e+17
19193.0	5.709076563842389e+17
19194.0	5.7080005906486605e+17
19195.0	5.706935692514645e+17
19196.0	5.7058529804724896e+17
19197.0	5.7047770023854074e+17
19198.0	5.7036987971229e+17
19199.0	5.696411567915004e+17
19200.0	5.697007635136514e+17
19201.0	5.700476934815743e+17
19202.0	5.699410294647466e+17
19203.0	5.698320936730623e+17
19204.0	5.6972473703683405e+17
19205.0	5.6961802198930765e+17
19206.0	5.6951017839438496e+17
19207.0	5.693959764443134e+17
19208.0	5.692834975143252e+17
19209.0	5.69188472201762e+17
19210.0	5.6908190982690125e+17
19211.0	5.689744661588649e+17
19212.0	5.688670875025407e+17
19213.0	5.687505874933077e+17
19214.0	5.6863822684269216e+17
19215.0	5.6854218266378234e+17
19216.0	5.684371750475091e+17
19217.0	5.683300559486975e+17
19218.0	5.6816675799258445e+17
19219.0	5.6810545670171296e+17
19220.0	5.6800613565289805e+17
19221.0	5.6788003949554336e+17
19222.0	5.6779133513891834e+17
19223.0	5.6768484252931405e+17
19224.0	5.675747389734911e+17
19225.0	5.6746104488372896e+17
19226.0	5.673620758768299e+17
19227.0	5.6725451371970534e+17
19228.0	5.6714864648082765e+17
19229.0	5.6704126321076896e+17
19230.0	5.6693261983197856e+17
19231.0	5.668249174452907e+17
19232.0	5.667179305369599e+17
19233.0	5.666070061558442e+17
19234.0	5.665026492159316e+17
19235.0	5.66395354026257e+17
19236.0	5.662892319834111e+17
19237.0	5.6618069590889805e+17
19238.0	5.6606762222660256e+17
19239.0	5.6596675606609914e+17
19240.0	5.6585536304141645e+17
19241.0	5.6574897088539296e+17
19242.0	5.656427113392809e+17
19243.0	5.6552667654826656e+17
19244.0	5.654294118967977e+17
19245.0	5.653219374006271e+17
19246.0	5.6521337196598605e+17
19247.0	5.6510667390539085e+17
19248.0	5.6499922485466445e+17
19249.0	5.6489132680369485e+17
19250.0	5.647827112471209e+17
19251.0	5.6466651574435834e+17
19252.0	5.6455204535883085e+17
19253.0	5.6445937109346976e+17
19254.0	5.643526079512575e+17
19255.0	5.642349152916819e+17
19256.0	5.6413385032116896e+17
19257.0	5.6403002424033274e+17
19258.0	5.639221703693653e+17
19259.0	5.6381020034826234e+17
19260.0	5.636886680829951e+17
19261.0	5.6349527732387834e+17
19262.0	5.6329153607106554e+17
19263.0	5.6318097526620154e+17
19264.0	5.630428283142143e+17
19265.0	5.6295645717899936e+17
19266.0	5.628486695780352e+17
19267.0	5.627542550959445e+17
19268.0	5.626460568726186e+17
19269.0	5.6253782166951245e+17
19270.0	5.624289946501119e+17
19271.0	5.6229876402749434e+17
19272.0	5.622104271618047e+17
19273.0	5.6197561324666854e+17
19274.0	5.6191017378556563e+17
19275.0	5.6188733279436794e+17
19276.0	5.61777455800866e+17
19277.0	5.6166913845930656e+17
19278.0	5.6156059099026765e+17
19279.0	5.6145079991009274e+17
19280.0	5.6133892440064e+17
19281.0	5.6123360556701005e+17
19282.0	5.6112596287924896e+17
19283.0	5.610065884435797e+17
19284.0	5.608974829223935e+17
19285.0	5.607860910860971e+17
19286.0	5.6068704322628256e+17
19287.0	5.605799548857002e+17
19288.0	5.6016849953532544e+17
19289.0	5.598109144973307e+17
19290.0	5.602515954084522e+17
19291.0	5.6012535300969805e+17
19292.0	5.6003190580401485e+17
19293.0	5.5992180853964794e+17
19294.0	5.598116879968937e+17
19295.0	5.597023442392405e+17
19296.0	5.5959191366751565e+17
19297.0	5.5948112343422285e+17
19298.0	5.5937033403979085e+17
19299.0	5.59260658442786e+17
19300.0	5.591498336064853e+17
19301.0	5.5903903854974285e+17
19302.0	5.5892693675758925e+17
19303.0	5.5881262876153165e+17
19304.0	5.587034378163541e+17
19305.0	5.5859344478044154e+17
19306.0	5.58482476568849e+17
19307.0	5.583677520084992e+17
19308.0	5.5825707655932576e+17
19309.0	5.581233496347988e+17
19310.0	5.580051385592489e+17
19311.0	5.5791763034821965e+17
19312.0	5.57809905382195e+17
19313.0	5.576972954501119e+17
19314.0	5.566731645528754e+17
19315.0	5.5659801842373984e+17
19316.0	5.5735613971060045e+17
19317.0	5.572447732498431e+17
19318.0	5.571307568278185e+17
19319.0	5.570177629771091e+17
19320.0	5.569033220915199e+17
19321.0	5.5678896614058656e+17
19322.0	5.5666675446797645e+17
19323.0	5.565500148241747e+17
19324.0	5.564439670904149e+17
19325.0	5.5630664851346765e+17
19326.0	5.5621244255819085e+17
19327.0	5.560955051529555e+17
19328.0	5.5597944820203514e+17
19329.0	5.55863224946961e+17
19330.0	5.5574363052004685e+17
19331.0	5.5562552332342605e+17
19332.0	5.555100693037055e+17
19333.0	5.553922761206441e+17
19334.0	5.552732851142655e+17
19335.0	5.5515365671348896e+17
19336.0	5.55034725196322e+17
19337.0	5.549144992470356e+17
19338.0	5.547804356597076e+17
19339.0	5.546732456072532e+17
19340.0	5.545458863352489e+17
19341.0	5.5442620291918496e+17
19342.0	5.542817101949609e+17
19343.0	5.541841102088873e+17
19344.0	5.5406040193870496e+17
19345.0	5.5381526206655123e+17
19346.0	5.537413852736168e+17
19347.0	5.536812990027092e+17
19348.0	5.535604720795647e+17
19349.0	5.5343192358256634e+17
19350.0	5.5330402471335245e+17
19351.0	5.5317577058658976e+17
19352.0	5.530432136631637e+17
19353.0	5.529183088279551e+17
19354.0	5.5278765297281696e+17
19355.0	5.526496280051711e+17
19356.0	5.5252315904409594e+17
19357.0	5.523896040161279e+17
19358.0	5.522534151050581e+17
19359.0	5.52112057553169e+17
19360.0	5.5197914795868154e+17
19361.0	5.51842206589474e+17
19362.0	5.5170559733923834e+17
19363.0	5.515650848697002e+17
19364.0	5.514232694396244e+17
19365.0	5.5128042941098656e+17
19366.0	5.5113597478502374e+17
19367.0	5.509900843089919e+17
19368.0	5.508426973751979e+17
19369.0	5.5068797313570125e+17
19370.0	5.505286601878186e+17
19371.0	5.5038699805955405e+17
19372.0	5.5023577690275834e+17
19373.0	5.5007813237910176e+17
19374.0	5.4992129309190816e+17
19375.0	5.4976073345706656e+17
19376.0	5.495983078462804e+17
19377.0	5.4943315153387514e+17
19378.0	5.4926596433947296e+17
19379.0	5.490961373200383e+17
19380.0	5.489236193749675e+17
19381.0	5.487483260589395e+17
19382.0	5.485653765302953e+17
19383.0	5.4838115193323514e+17
19384.0	5.482037000885588e+17
19385.0	5.4801638827403936e+17
19386.0	5.4782540602408954e+17
19387.0	5.476304796603732e+17
19388.0	5.4743171012580685e+17
19389.0	5.4722891832360954e+17
19390.0	5.4702182253636256e+17
19391.0	5.4602904790630317e+17
19392.0	5.465449219926697e+17
19393.0	5.4637424199161165e+17
19394.0	5.4614771637070496e+17
19395.0	5.459158029565951e+17
19396.0	5.4567867518375245e+17
19397.0	5.4543765796290554e+17
19398.0	5.451873865695231e+17
19399.0	5.448884174192639e+17
19400.0	5.446637609200298e+17
19401.0	5.44402673115682e+17
19402.0	5.441215919030271e+17
19403.0	5.437913547756885e+17
19404.0	5.435007252299775e+17
19405.0	5.4320025081391776e+17
19406.0	5.428927399635626e+17
19407.0	5.425760333813076e+17
19408.0	5.42198696247296e+17
19409.0	5.4191012715342496e+17
19410.0	5.415669008258388e+17
19411.0	5.412101247991806e+17
19412.0	5.408425264895318e+17
19413.0	5.4046382928254285e+17
19414.0	5.400723826496853e+17
19415.0	5.396568159027199e+17
19416.0	5.391544078390613e+17
19417.0	5.3872835435342496e+17
19418.0	5.382982988027221e+17
19419.0	5.3784193413065376e+17
19420.0	5.3734954563010534e+17
19421.0	5.36744558592e+17
19422.0	5.3623841501129376e+17
19423.0	5.356634861032788e+17
19424.0	5.3497912612618234e+17
19425.0	5.343320263185747e+17
19426.0	5.3355488358345376e+17
19427.0	5.3266351722769056e+17
19428.0	5.3167731723905683e+17
19429.0	5.304775667788458e+17
19430.0	5.288748465345877e+17
19431.0	5.268174283647657e+17
19432.0	5.2426762428088314e+17
19433.0	5.22343434612463e+17
19434.0	5.2090062598307834e+17
19435.0	5.193155209767593e+17
19436.0	5.175673821156694e+17
19437.0	5.1579107920226976e+17
19438.0	5.126255779250181e+17
19439.0	5.115896620821162e+17
19440.0	5.0939917619254605e+17
19441.0	5.06667144000307e+17
19442.0	5.030459290768716e+17
19443.0	4.970133445410816e+17
19444.0	4.8990523245636243e+17
19445.0	4.844400727293953e+17
19446.0	4.7807300090811744e+17
19447.0	4.695699227323038e+17
19448.0	4.5482478830005005e+17
19449.0	4.3540045854583526e+17
19450.0	3.8622864989661594e+17
19451.0	3.7123645341258976e+17
19452.0	4.136953521897481e+17
19453.0	4.471178396347061e+17
19454.0	4.623401488482295e+17
19455.0	4.738248519013714e+17
19456.0	4.80621133212331e+17
19457.0	4.863339921058471e+17
19458.0	4.9015783315647264e+17
19459.0	4.989516040022703e+17
19460.0	5.0347928897017146e+17
19461.0	5.063359649021952e+17
19462.0	5.086396212226732e+17
19463.0	5.1066170315025043e+17
19464.0	5.1249488474057376e+17
19465.0	5.141670136556202e+17
19466.0	5.157583739071145e+17
19467.0	5.1719283230638074e+17
19468.0	5.1849723813123405e+17
19469.0	5.197748193547601e+17
19470.0	5.221345234605409e+17
19471.0	5.24258730399061e+17
19472.0	5.2575300229966554e+17
19473.0	5.2689970837585926e+17
19474.0	5.278185517569363e+17
19475.0	5.285012521877504e+17
19476.0	5.291022518408532e+17
19477.0	5.2969474943003296e+17
19478.0	5.300935389609983e+17
19479.0	5.305776256756394e+17
19480.0	5.3088755209557325e+17
19481.0	5.3122383202658976e+17
19482.0	5.315991586908841e+17
19483.0	5.318622103382698e+17
19484.0	5.321088916870485e+17
19485.0	5.323384177033215e+17
19486.0	5.3257535442561696e+17
19487.0	5.328553314178389e+17
19488.0	5.330482540926292e+17
19489.0	5.332141237163347e+17
19490.0	5.333135381583188e+17
19491.0	5.3355645826498554e+17
19492.0	5.337074859944617e+17
19493.0	5.3384546517428896e+17
19494.0	5.339734370243924e+17
19495.0	5.340914081857535e+17
19496.0	5.341741041319935e+17
19497.0	5.342983956900521e+17
19498.0	5.3419259905529165e+17
19499.0	5.332614151230805e+17
19500.0	5.3458215363761485e+17
19501.0	5.3467002241897805e+17
19502.0	5.3473081466115405e+17
19503.0	5.3478600163546445e+17
19504.0	5.348340020893012e+17
19505.0	5.348759860237652e+17
19506.0	5.3491189206220794e+17
19507.0	5.349414732999338e+17
19508.0	5.3496700598572365e+17
19509.0	5.349864915337215e+17
19510.0	5.349869265529513e+17
19511.0	5.33325558404437e+17
19512.0	5.347655610444458e+17
19513.0	5.346538802905084e+17
19514.0	5.347300059294375e+17
19515.0	5.3497101042756256e+17
19516.0	5.3499540743563936e+17
19517.0	5.349791602398549e+17
19518.0	5.3496573525142176e+17
19519.0	5.349442702016511e+17
19520.0	5.3491914611097594e+17
19521.0	5.3489473260530336e+17
19522.0	5.3486324729337165e+17
19523.0	5.348331858078378e+17
19524.0	5.34798404751633e+17
19525.0	5.347603355708074e+17
19526.0	5.347219821559807e+17
19527.0	5.3468023128500896e+17
19528.0	5.3463616494851405e+17
19529.0	5.345907456693589e+17
19530.0	5.345435059923625e+17
19531.0	5.3449399363174394e+17
19532.0	5.3444271980325523e+17
19533.0	5.3438975336338765e+17
19534.0	5.343348877426687e+17
19535.0	5.3427837718582605e+17
19536.0	5.3421876123620685e+17
19537.0	5.341624510272852e+17
19538.0	5.3409060252986016e+17
19539.0	5.340073368573269e+17
19540.0	5.339756361678847e+17
19541.0	5.339131269873662e+17
19542.0	5.3384774310079136e+17
19543.0	5.3378121962181965e+17
19544.0	5.3371417241408845e+17
19545.0	5.3360948377463456e+17
19546.0	5.33520882807603e+17
19547.0	5.3350658799042554e+17
19548.0	5.334348808410452e+17
19549.0	5.3335773619595936e+17
19550.0	5.332907462404778e+17
19551.0	5.332173536100351e+17
19552.0	5.3314297447929165e+17
19553.0	5.330660772981419e+17
19554.0	5.329899308974079e+17
19555.0	5.329149263959379e+17
19556.0	5.32838904566033e+17
19557.0	5.3276098194746016e+17
19558.0	5.3268284269308576e+17
19559.0	5.326037746799956e+17
19560.0	5.32523108077841e+17
19561.0	5.324431050145791e+17
19562.0	5.3236462909740365e+17
19563.0	5.3228377158451194e+17
19564.0	5.322024654908074e+17
19565.0	5.3212069886252365e+17
19566.0	5.320371960720043e+17
19567.0	5.3195566355578874e+17
19568.0	5.318711881760767e+17
19569.0	5.317887719899135e+17
19570.0	5.317055983124479e+17
19571.0	5.3162092090709325e+17
19572.0	5.315351436154195e+17
19573.0	5.31450227204642e+17
19574.0	5.3136149754238285e+17
19575.0	5.312812542853119e+17
19576.0	5.3119566769466016e+17
19577.0	5.311080211415039e+17
19578.0	5.3102010755099296e+17
19579.0	5.3093506391299405e+17
19580.0	5.3084803587986765e+17
19581.0	5.3076160742249805e+17
19582.0	5.306752584471892e+17
19583.0	5.3058765041172474e+17
19584.0	5.304987460567039e+17
19585.0	5.304049217830911e+17
19586.0	5.303139982901248e+17
19587.0	5.3023093827829754e+17
19588.0	5.301145121587199e+17
19589.0	5.300558888610475e+17
19590.0	5.2996194064575136e+17
19591.0	5.2987907713706656e+17
19592.0	5.2978969470129485e+17
19593.0	5.296989292636841e+17
19594.0	5.295961223987199e+17
19595.0	5.295163124132521e+17
19596.0	5.293734276453717e+17
19597.0	5.293341916790783e+17
19598.0	5.2922419920240634e+17
19599.0	5.2915927382316365e+17
19600.0	5.290693017381545e+17
19601.0	5.2897410348045645e+17
19602.0	5.288827298687658e+17
19603.0	5.287621674663934e+17
19604.0	5.286996618510335e+17
19605.0	5.2859601053286394e+17
19606.0	5.2852311940136954e+17
19607.0	5.284320819631444e+17
19608.0	5.2833981321707514e+17
19609.0	5.282456859749034e+17
19610.0	5.2815713932410874e+17
19611.0	5.2806497215010125e+17
19612.0	5.2797377658661536e+17
19613.0	5.2788118494904314e+17
19614.0	5.277873065689087e+17
19615.0	5.276972508774398e+17
19616.0	5.27598901928482e+17
19617.0	5.2751281334954656e+17
19618.0	5.273810108415998e+17
19619.0	5.272813373314388e+17
19620.0	5.2719216370210125e+17
19621.0	5.2714365196260685e+17
19622.0	5.2705142278280525e+17
19623.0	5.2695882107890336e+17
19624.0	5.268661568798719e+17
19625.0	5.267733637758975e+17
19626.0	5.266806340059134e+17
19627.0	5.2658747201290234e+17
19628.0	5.2647943953448954e+17
19629.0	5.263953297582762e+17
19630.0	5.262249959970132e+17
19631.0	5.2554795032685235e+17
19632.0	5.261224268791806e+17
19633.0	5.260267601876308e+17
19634.0	5.25936591249954e+17
19635.0	5.2584102291483296e+17
19636.0	5.2574991312486394e+17
19637.0	5.256335773226325e+17
19638.0	5.2556288072089594e+17
19639.0	5.2546920268868256e+17
19640.0	5.2536447727916365e+17
19641.0	5.252284759932928e+17
19642.0	5.251902282050219e+17
19643.0	5.2509610606592e+17
19644.0	5.249986521814357e+17
19645.0	5.2489176509754016e+17
19646.0	5.248161233414826e+17
19647.0	5.247229256968873e+17
19648.0	5.246294107531945e+17
19649.0	5.2453564778632525e+17
19650.0	5.24442230849536e+17
19651.0	5.243486094404265e+17
19652.0	5.2425496286549325e+17
19653.0	5.241611743133696e+17
19654.0	5.2406761728682656e+17
19655.0	5.239736032209577e+17
19656.0	5.238797860776617e+17
19657.0	5.237865053858473e+17
