# Flux units: erg / (cm m2 s)
# Wavelength units: Angstrom
wave	flux
19000.0	7.036913261914793e+17
19001.0	7.035482410756778e+17
19002.0	7.034263955658068e+17
19003.0	7.032930218016767e+17
19004.0	7.031599313627817e+17
19005.0	7.030275986948095e+17
19006.0	7.028948803605843e+17
19007.0	7.027323231185578e+17
19008.0	7.026220484351316e+17
19009.0	7.024943447408639e+17
19010.0	7.023111743122088e+17
19011.0	7.022287626698751e+17
19012.0	7.020610244138323e+17
19013.0	7.019658400672426e+17
19014.0	7.018265654067199e+17
19015.0	7.016969166738772e+17
19016.0	7.015634164514815e+17
19017.0	7.014134829460137e+17
19018.0	7.01299418079778e+17
19019.0	7.011694673570474e+17
19020.0	7.01030460223215e+17
19021.0	7.009015227744255e+17
19022.0	7.007729886778708e+17
19023.0	7.006360606605311e+17
19024.0	7.005057971825321e+17
19025.0	7.003722928357375e+17
19026.0	7.002375783623338e+17
19027.0	7.000872256361811e+17
19028.0	6.999783683478868e+17
19029.0	6.998438842116778e+17
19030.0	6.997148495249405e+17
19031.0	6.995831679527594e+17
19032.0	6.994506390612649e+17
19033.0	6.993084292967081e+17
19034.0	6.991838695828137e+17
19035.0	6.990497046331391e+17
19036.0	6.969483026847045e+17
19037.0	6.987877528720724e+17
19038.0	6.98654432235793e+17
19039.0	6.985243011579903e+17
19040.0	6.983928135723689e+17
19041.0	6.982597945065471e+17
19042.0	6.981184273077587e+17
19043.0	6.979961355938473e+17
19044.0	6.978629703565311e+17
19045.0	6.977311093380435e+17
19046.0	6.975928161446569e+17
19047.0	6.974679038995113e+17
19048.0	6.973124451674793e+17
19049.0	6.971961139789823e+17
19050.0	6.970664328800938e+17
19051.0	6.96654048771003e+17
19052.0	6.96790099549662e+17
19053.0	6.9666849437341e+17
19054.0	6.965437732487167e+17
19055.0	6.963845564902058e+17
19056.0	6.962773604958207e+17
19057.0	6.961473460196691e+17
19058.0	6.960074424931668e+17
19059.0	6.958846297767936e+17
19060.0	6.957502810466985e+17
19061.0	6.956215805760852e+17
19062.0	6.954890689511423e+17
19063.0	6.953579357842089e+17
19064.0	6.952116261573972e+17
19065.0	6.950740522871465e+17
19066.0	6.949557741027325e+17
19067.0	6.94829734638387e+17
19068.0	6.946992435494911e+17
19069.0	6.945678955642879e+17
19070.0	6.944328800097619e+17
19071.0	6.943029023735807e+17
19072.0	6.941730367253162e+17
19073.0	6.94040881406498e+17
19074.0	6.939104568672255e+17
19075.0	6.937789797673642e+17
19076.0	6.936449742711465e+17
19077.0	6.935151680421887e+17
19078.0	6.933768714933587e+17
19079.0	6.932529082793983e+17
19080.0	6.931203204579328e+17
19081.0	6.929851028078591e+17
19082.0	6.928515814741331e+17
19083.0	6.927150343695017e+17
19084.0	6.925690700038143e+17
19085.0	6.924636548410025e+17
19086.0	6.922885676051113e+17
19087.0	6.921460239739562e+17
19088.0	6.920626859496788e+17
19089.0	6.918896879665151e+17
19090.0	6.918007960545961e+17
19091.0	6.916694498869247e+17
19092.0	6.915208684852564e+17
19093.0	6.914096207932073e+17
19094.0	6.912778993052329e+17
19095.0	6.911466834406058e+17
19096.0	6.910111287782058e+17
19097.0	6.908854253475156e+17
19098.0	6.907546336668329e+17
19099.0	6.906231346167807e+17
19100.0	6.904897326809087e+17
19101.0	6.903612977097385e+17
19102.0	6.902217228768595e+17
19103.0	6.900999247626239e+17
19104.0	6.899699411146068e+17
19105.0	6.898387056765608e+17
19106.0	6.896975944002217e+17
19107.0	6.895753237976404e+17
19108.0	6.894466474442751e+17
19109.0	6.89105562658406e+17
19110.0	6.891842484305919e+17
19111.0	6.890539144183807e+17
19112.0	6.889240362571091e+17
19113.0	6.887932466036736e+17
19114.0	6.886622984055465e+17
19115.0	6.885235681656832e+17
19116.0	6.883990671720447e+17
19117.0	6.882689397293055e+17
19118.0	6.881217239930196e+17
19119.0	6.877369885960869e+17
19120.0	6.878625995423743e+17
19121.0	6.877396946911231e+17
19122.0	6.876187238334461e+17
19123.0	6.874862471610365e+17
19124.0	6.873474052128767e+17
19125.0	6.872247159488511e+17
19126.0	6.870893487718399e+17
19127.0	6.867862984239784e+17
19128.0	6.866527744338598e+17
19129.0	6.866957866019497e+17
19130.0	6.865744507000147e+17
19131.0	6.864391179862015e+17
19132.0	6.86315121217809e+17
19133.0	6.86100352790255e+17
19134.0	6.85964489776606e+17
19135.0	6.859238861176832e+17
19136.0	6.857949796368383e+17
19137.0	6.856472057085951e+17
19138.0	6.855079359414271e+17
19139.0	6.854042632323071e+17
19140.0	6.852747051663359e+17
19141.0	6.851447545135103e+17
19142.0	6.850112717673812e+17
19143.0	6.848777495947946e+17
19144.0	6.847497567731711e+17
19145.0	6.846235956041044e+17
19146.0	6.844251455356928e+17
19147.0	6.843553827957417e+17
19148.0	6.842335134482431e+17
19149.0	6.841037471350783e+17
19150.0	6.839732541587453e+17
19151.0	6.838450657427455e+17
19152.0	6.837112288575487e+17
19153.0	6.835837394223103e+17
19154.0	6.834426344374271e+17
19155.0	6.833260759875583e+17
19156.0	6.831966055825407e+17
19157.0	6.830645581971455e+17
19158.0	6.827909060755452e+17
19159.0	6.828052472397824e+17
19160.0	6.826713150040745e+17
19161.0	6.825295183784617e+17
19162.0	6.820951172491948e+17
19163.0	6.822875391240874e+17
19164.0	6.821600142469802e+17
19165.0	6.820246978210473e+17
19166.0	6.818840279952042e+17
19167.0	6.817408866757289e+17
19168.0	6.81623872934161e+17
19169.0	6.814989933346815e+17
19170.0	6.813829737130665e+17
19171.0	6.81236906517026e+17
19172.0	6.81122403905263e+17
19173.0	6.809943287354708e+17
19174.0	6.8085937092253e+17
19175.0	6.807363017244672e+17
19176.0	6.806063708547753e+17
19177.0	6.804614799512916e+17
19178.0	6.803448711697748e+17
19179.0	6.801946162408106e+17
19180.0	6.800433072832512e+17
19181.0	6.799488230359039e+17
19182.0	6.798184601529001e+17
19183.0	6.7969695102621e+17
19184.0	6.795541970507091e+17
19185.0	6.794416194147668e+17
19186.0	6.793145068377427e+17
19187.0	6.791755655544831e+17
19188.0	6.790538843215187e+17
19189.0	6.789192171039401e+17
19190.0	6.787884963069951e+17
19191.0	6.78661559820834e+17
19192.0	6.785368607861417e+17
19193.0	6.783741644330324e+17
19194.0	6.782638183765332e+17
19195.0	6.781482525087059e+17
19196.0	6.780214285697023e+17
19197.0	6.778928860845395e+17
19198.0	6.777608910580393e+17
19199.0	6.757257012314107e+17
19200.0	6.762939946106886e+17
19201.0	6.773736418050047e+17
19202.0	6.77246973055249e+17
19203.0	6.771144943555923e+17
19204.0	6.769862927974397e+17
19205.0	6.768594921368234e+17
19206.0	6.767300949923155e+17
19207.0	6.765940152729599e+17
19208.0	6.764507676278783e+17
19209.0	6.763422254017193e+17
19210.0	6.762150665475412e+17
19211.0	6.760871706143402e+17
19212.0	6.759589703843839e+17
19213.0	6.758040811689299e+17
19214.0	6.756653326838442e+17
19215.0	6.75565990453794e+17
19216.0	6.754390509617152e+17
19217.0	6.753141226384042e+17
19218.0	6.750986251010045e+17
19219.0	6.750397539898708e+17
19220.0	6.749248659914751e+17
19221.0	6.747623086096383e+17
19222.0	6.746716871065599e+17
19223.0	6.745398690097834e+17
19224.0	6.744013144413523e+17
19225.0	6.742670143651839e+17
19226.0	6.741532946901674e+17
19227.0	6.74024491459106e+17
19228.0	6.738990405255167e+17
19229.0	6.737703307575296e+17
19230.0	6.736328116229459e+17
19231.0	6.735053294578345e+17
19232.0	6.73376776626722e+17
19233.0	6.732471056640681e+17
19234.0	6.731235724361727e+17
19235.0	6.729936281447082e+17
19236.0	6.728693186909524e+17
19237.0	6.727384348753919e+17
19238.0	6.725992757679444e+17
19239.0	6.724827840075091e+17
19240.0	6.723195280643412e+17
19241.0	6.722140060166825e+17
19242.0	6.720932410294271e+17
19243.0	6.719475920754003e+17
19244.0	6.718389943446184e+17
19245.0	6.717098834613588e+17
19246.0	6.715799681105919e+17
19247.0	6.714511170644649e+17
19248.0	6.713239958192127e+17
19249.0	6.711947134588243e+17
19250.0	6.710643667238911e+17
19251.0	6.709279678879059e+17
19252.0	6.707702456298153e+17
19253.0	6.706775928253097e+17
19254.0	6.70545835336226e+17
19255.0	6.703988508459007e+17
19256.0	6.702864400034473e+17
19257.0	6.701637830355625e+17
19258.0	6.700349419858602e+17
19259.0	6.698974759791274e+17
19260.0	6.697503872603475e+17
19261.0	6.696468142358527e+17
19262.0	6.695125089168042e+17
19263.0	6.693847940377258e+17
19264.0	6.692055192087209e+17
19265.0	6.69111425381171e+17
19266.0	6.689875804465833e+17
19267.0	6.688735021585748e+17
19268.0	6.687430624499028e+17
19269.0	6.686142205613395e+17
19270.0	6.684817367586131e+17
19271.0	6.683172866271916e+17
19272.0	6.682194161784148e+17
19273.0	6.671958833889267e+17
19274.0	6.67532132002474e+17
19275.0	6.678350746965332e+17
19276.0	6.677033560047613e+17
19277.0	6.675737455099904e+17
19278.0	6.674444800666281e+17
19279.0	6.673049656317267e+17
19280.0	6.671758102888447e+17
19281.0	6.670547387678719e+17
19282.0	6.66926362866483e+17
19283.0	6.667652581119316e+17
19284.0	6.665990325316265e+17
19285.0	6.665112964300797e+17
19286.0	6.663958416414035e+17
19287.0	6.662661225141588e+17
19288.0	6.657003264234835e+17
19289.0	6.646266413623948e+17
19290.0	6.658749526354601e+17
19291.0	6.65715035148561e+17
19292.0	6.656135044005887e+17
19293.0	6.654820330329427e+17
19294.0	6.653507575392937e+17
19295.0	6.652211486523391e+17
19296.0	6.650893322332841e+17
19297.0	6.649551103808852e+17
19298.0	6.648240520123731e+17
19299.0	6.646960301801472e+17
19300.0	6.645645618883241e+17
19301.0	6.644317341526698e+17
19302.0	6.642996319617023e+17
19303.0	6.641573596321108e+17
19304.0	6.640296651653119e+17
19305.0	6.639026601022803e+17
19306.0	6.637697331014314e+17
19307.0	6.636312077533183e+17
19308.0	6.635022163378175e+17
19309.0	6.633128307195901e+17
19310.0	6.631473958354941e+17
19311.0	6.631000777949183e+17
19312.0	6.629718799417343e+17
19313.0	6.628256421773311e+17
19314.0	6.619167824281582e+17
19315.0	6.61845912531765e+17
19316.0	6.624362325082111e+17
19317.0	6.623045189894143e+17
19318.0	6.621694722572287e+17
19319.0	6.620365645501779e+17
19320.0	6.61898026758963e+17
19321.0	6.617663384758954e+17
19322.0	6.616135809455444e+17
19323.0	6.614616729714688e+17
19324.0	6.613574781414057e+17
19325.0	6.611728482347689e+17
19326.0	6.610852562774697e+17
19327.0	6.609446063745705e+17
19328.0	6.608007669131945e+17
19329.0	6.606645998824105e+17
19330.0	6.605221430733482e+17
19331.0	6.603835522940927e+17
19332.0	6.602488130043901e+17
19333.0	6.601076973240319e+17
19334.0	6.599658076547753e+17
19335.0	6.598305579182762e+17
19336.0	6.596892945984169e+17
19337.0	6.595480631552682e+17
19338.0	6.593846444031999e+17
19339.0	6.592648675939668e+17
19340.0	6.591166171927891e+17
19341.0	6.589751342312105e+17
19342.0	6.587767649730559e+17
19343.0	6.586794418110464e+17
19344.0	6.585335244914687e+17
19345.0	6.58162636659097e+17
19346.0	6.581878338005674e+17
19347.0	6.580895670599679e+17
19348.0	6.579499585328468e+17
19349.0	6.577974763585536e+17
19350.0	6.576492987285503e+17
19351.0	6.5749888008192e+17
19352.0	6.57345351778304e+17
19353.0	6.572023676054185e+17
19354.0	6.570496113333588e+17
19355.0	6.568858998887764e+17
19356.0	6.567421167009791e+17
19357.0	6.565862117649065e+17
19358.0	6.56422407766016e+17
19359.0	6.56224890650624e+17
19360.0	6.561096601174015e+17
19361.0	6.55942340452898e+17
19362.0	6.557765719119188e+17
19363.0	6.556136869549396e+17
19364.0	6.554487638458365e+17
19365.0	6.552832054394879e+17
19366.0	6.551168241106943e+17
19367.0	6.549476316894548e+17
19368.0	6.547775689501353e+17
19369.0	6.545864491270143e+17
19370.0	6.543209131234644e+17
19371.0	6.542481420189695e+17
19372.0	6.540702891289257e+17
19373.0	6.538702464832852e+17
19374.0	6.536896889662121e+17
19375.0	6.535042723479551e+17
19376.0	6.533161631263401e+17
19377.0	6.531246834319359e+17
19378.0	6.529314459047252e+17
19379.0	6.527173420646399e+17
19380.0	6.524917694595072e+17
19381.0	6.522857488121855e+17
19382.0	6.520698955279017e+17
19383.0	6.518572644477609e+17
19384.0	6.516544830614186e+17
19385.0	6.514148422713343e+17
19386.0	6.511796689742505e+17
19387.0	6.509511203706195e+17
19388.0	6.507180876365823e+17
19389.0	6.504600479028564e+17
19390.0	6.501954451319465e+17
19391.0	6.48212824195069e+17
19392.0	6.496715150458879e+17
19393.0	6.493512451227647e+17
19394.0	6.490803652263936e+17
19395.0	6.487885902162601e+17
19396.0	6.484879484474708e+17
19397.0	6.482001789277523e+17
19398.0	6.478944947666941e+17
19399.0	6.475112621189801e+17
19400.0	6.472263919119017e+17
19401.0	6.468892375384063e+17
19402.0	6.465439992730963e+17
19403.0	6.461836671756969e+17
19404.0	6.458057304659284e+17
19405.0	6.453749306359808e+17
19406.0	6.449682788122623e+17
19407.0	6.445440220266495e+17
19408.0	6.439806473076736e+17
19409.0	6.435758514634751e+17
19410.0	6.430870411935744e+17
19411.0	6.425303763124221e+17
19412.0	6.41980279221999e+17
19413.0	6.413639496673961e+17
19414.0	6.407266014068736e+17
19415.0	6.400555521234259e+17
19416.0	6.392673724268541e+17
19417.0	6.384485854259881e+17
19418.0	6.375921012790615e+17
19419.0	6.366289937301501e+17
19420.0	6.357000953440938e+17
19421.0	6.348450234892287e+17
19422.0	6.339057495834623e+17
19423.0	6.329401836830717e+17
19424.0	6.31916881580305e+17
19425.0	6.307725004767231e+17
19426.0	6.295826717824339e+17
19427.0	6.282662780775082e+17
19428.0	6.268792083229352e+17
19429.0	6.253360139905705e+17
19430.0	6.235893801855658e+17
19431.0	6.213472696838835e+17
19432.0	6.195231249312425e+17
19433.0	6.169946658701312e+17
19434.0	6.1412923160221e+17
19435.0	6.116674466654888e+17
19436.0	6.08987709125427e+17
19437.0	6.063169449492479e+17
19438.0	6.012124543320063e+17
19439.0	5.99637497723836e+17
19440.0	5.955724593070077e+17
19441.0	5.907314232699562e+17
19442.0	5.84964678684945e+17
19443.0	5.79521995743778e+17
19444.0	5.734682673020925e+17
19445.0	5.662288010805253e+17
19446.0	5.574177870315516e+17
19447.0	5.479141925191674e+17
19448.0	5.3636097571990234e+17
19449.0	5.2136970456924154e+17
19450.0	4.908981593396542e+17
19451.0	4.791669144682492e+17
19452.0	5.082551171416069e+17
19453.0	5.2957091609968704e+17
19454.0	5.420269519415972e+17
19455.0	5.521662612428117e+17
19456.0	5.611172084580354e+17
19457.0	5.6893196765320506e+17
19458.0	5.7432700462913024e+17
19459.0	5.806962574185816e+17
19460.0	5.860884110202194e+17
19461.0	5.912530772470445e+17
19462.0	5.954257933041664e+17
19463.0	5.98949380768836e+17
19464.0	6.020416979424595e+17
19465.0	6.047676877504512e+17
19466.0	6.07149545121382e+17
19467.0	6.094134028795903e+17
19468.0	6.118520435769341e+17
19469.0	6.142328609002839e+17
19470.0	6.164450558782122e+17
19471.0	6.182341414223872e+17
19472.0	6.197941225477459e+17
19473.0	6.211785271017471e+17
19474.0	6.224141280258729e+17
19475.0	6.234243486537043e+17
19476.0	6.245070865607337e+17
19477.0	6.254169583255551e+17
19478.0	6.262591243769172e+17
19479.0	6.26998268465425e+17
19480.0	6.277115940962303e+17
19481.0	6.283564296787283e+17
19482.0	6.289919377582762e+17
19483.0	6.297007568191487e+17
19484.0	6.303753161058984e+17
19485.0	6.309869936880298e+17
19486.0	6.315021500590761e+17
19487.0	6.319586676135252e+17
19488.0	6.324115074624169e+17
19489.0	6.327484440117247e+17
19490.0	6.329738713541288e+17
19491.0	6.33384320770594e+17
19492.0	6.33697206272e+17
19493.0	6.339179468292095e+17
19494.0	6.341501293079209e+17
19495.0	6.343548462257491e+17
19496.0	6.34492707685444e+17
19497.0	6.346873941349716e+17
19498.0	6.347965107011587e+17
19499.0	6.321562425404041e+17
19500.0	6.35092634435584e+17
19501.0	6.351853681202516e+17
19502.0	6.352788985129642e+17
19503.0	6.353773700754089e+17
19504.0	6.354365607226025e+17
19505.0	6.354938735798953e+17
19506.0	6.355394022604797e+17
19507.0	6.35588457931298e+17
19508.0	6.356289574316713e+17
19509.0	6.356496187129855e+17
19510.0	6.356981096207699e+17
19511.0	6.335649013563375e+17
19512.0	6.354125359590042e+17
19513.0	6.349537307612485e+17
19514.0	6.352463537897466e+17
19515.0	6.356794747475287e+17
19516.0	6.357391376034474e+17
19517.0	6.357111347522217e+17
19518.0	6.357197957802666e+17
19519.0	6.356872972642985e+17
19520.0	6.356496029144404e+17
19521.0	6.356141648904191e+17
19522.0	6.355667850537641e+17
19523.0	6.35534683738385e+17
19524.0	6.355026080082602e+17
19525.0	6.354483785935529e+17
19526.0	6.354127349787305e+17
19527.0	6.353552937757353e+17
19528.0	6.35296509137169e+17
19529.0	6.352345832445268e+17
19530.0	6.351718041605459e+17
19531.0	6.351102502327635e+17
19532.0	6.350575468456617e+17
19533.0	6.349882066818388e+17
19534.0	6.349161802760191e+17
19535.0	6.348401111902889e+17
19536.0	6.347632614746793e+17
19537.0	6.346904041073321e+17
19538.0	6.346089997271039e+17
19539.0	6.34471475489451e+17
19540.0	6.344484108719443e+17
19541.0	6.343690577859924e+17
19542.0	6.342846767781204e+17
19543.0	6.341996120986963e+17
19544.0	6.341155973234687e+17
19545.0	6.340073874259964e+17
19546.0	6.338533228806144e+17
19547.0	6.338640287716692e+17
19548.0	6.337759693591891e+17
19549.0	6.3367309440669e+17
19550.0	6.335931108469417e+17
19551.0	6.33500749406754e+17
19552.0	6.334071682629632e+17
19553.0	6.333110529206953e+17
19554.0	6.332134159548415e+17
19555.0	6.331208851346772e+17
19556.0	6.330258803042985e+17
19557.0	6.329285283414015e+17
19558.0	6.328310587282772e+17
19559.0	6.327297279087956e+17
19560.0	6.326313661672106e+17
19561.0	6.325320302985215e+17
19562.0	6.324345714507776e+17
19563.0	6.32334350094609e+17
19564.0	6.322341065086291e+17
19565.0	6.321321684238335e+17
19566.0	6.320278648214867e+17
19567.0	6.319285581032105e+17
19568.0	6.318232246594218e+17
19569.0	6.317209190137855e+17
19570.0	6.31620172390946e+17
19571.0	6.315165249175551e+17
19572.0	6.314101004653908e+17
19573.0	6.313180584913578e+17
19574.0	6.312034131334484e+17
19575.0	6.311091797054804e+17
19576.0	6.31003822563874e+17
19577.0	6.308879822487551e+17
19578.0	6.307881879426388e+17
19579.0	6.30683321045265e+17
19580.0	6.305774313668605e+17
19581.0	6.304717396596052e+17
19582.0	6.303666942945961e+17
19583.0	6.302594904009385e+17
19584.0	6.301512302417236e+17
19585.0	6.300314330202111e+17
19586.0	6.299153382506496e+17
19587.0	6.298091530136233e+17
19588.0	6.296667426215252e+17
19589.0	6.295969150096724e+17
19590.0	6.294930671883604e+17
19591.0	6.293934486934867e+17
19592.0	6.292850814397098e+17
19593.0	6.29173246894626e+17
19594.0	6.29035879314227e+17
19595.0	6.289548731831635e+17
19596.0	6.284199352161622e+17
19597.0	6.287352814458195e+17
19598.0	6.285994894557183e+17
19599.0	6.2851783341725e+17
19600.0	6.284084687579817e+17
19601.0	6.282912102787753e+17
19602.0	6.281837557754537e+17
19603.0	6.280054296980137e+17
19604.0	6.279609198138708e+17
19605.0	6.278228175312212e+17
19606.0	6.277435361678676e+17
19607.0	6.276341525643264e+17
19608.0	6.275217507396265e+17
19609.0	6.274055732024659e+17
19610.0	6.273016012297556e+17
19611.0	6.271894395289599e+17
19612.0	6.270793269553833e+17
19613.0	6.269662424378025e+17
19614.0	6.268518041387008e+17
19615.0	6.267446815446356e+17
19616.0	6.26618117722385e+17
19617.0	6.26521118081024e+17
19618.0	6.263575982462291e+17
19619.0	6.262253217120252e+17
19620.0	6.261184400108201e+17
19621.0	6.260735497033043e+17
19622.0	6.2596218631837e+17
19623.0	6.258504778820265e+17
19624.0	6.257372907438079e+17
19625.0	6.256258239692799e+17
19626.0	6.255128007584425e+17
19627.0	6.254018296108372e+17
19628.0	6.252442728180396e+17
19629.0	6.251673116038484e+17
19630.0	6.25039557787648e+17
19631.0	6.229520556228595e+17
19632.0	6.248385668098729e+17
19633.0	6.247215327958356e+17
19634.0	6.246150369705983e+17
19635.0	6.244980511211519e+17
19636.0	6.243886471053311e+17
19637.0	6.24232946921199e+17
19638.0	6.24163766280738e+17
19639.0	6.240497227355476e+17
19640.0	6.239325980546388e+17
19641.0	6.237640162541569e+17
19642.0	6.237129336859305e+17
19643.0	6.235975161566548e+17
19644.0	6.234821511260842e+17
19645.0	6.233482135076863e+17
19646.0	6.232633042971305e+17
19647.0	6.231504969531391e+17
19648.0	6.2303714162333e+17
19649.0	6.229239762255871e+17
19650.0	6.228118572367871e+17
19651.0	6.226982635307008e+17
19652.0	6.225852213755903e+17
19653.0	6.224723084749481e+17
19654.0	6.223590323475796e+17
19655.0	6.222456875035305e+17
19656.0	6.2213322716829e+17
19657.0	6.220204782649343e+17
19658.0	6.219078683328511e+17
19659.0	6.218008093523967e+17
19660.0	6.216919887642623e+17
19661.0	6.215784809015978e+17
19662.0	6.214660225236991e+17
19663.0	6.213478527620435e+17
19664.0	6.212303815617193e+17
19665.0	6.211270711006548e+17
19666.0	6.210120392376319e+17
