# Flux units: erg / (cm m2 s)
# Wavelength units: Angstrom
wave	flux
19000.0	4.1269212500459514e+17
19001.0	4.1260700237387085e+17
19002.0	4.1255303335553696e+17
19003.0	4.12481735570227e+17
19004.0	4.123987444847957e+17
19005.0	4.123303880949759e+17
19006.0	4.122449264945833e+17
19007.0	4.121977333743615e+17
19008.0	4.1211732877639674e+17
19009.0	4.120480436977664e+17
19010.0	4.1188555796862266e+17
19011.0	4.119023410566485e+17
19012.0	4.1180294569874765e+17
19013.0	4.117749987715754e+17
19014.0	4.116878349828095e+17
19015.0	4.1160890230592845e+17
19016.0	4.115431564509183e+17
19017.0	4.114890819458389e+17
19018.0	4.1141518830578336e+17
19019.0	4.1134465542171296e+17
19020.0	4.1127454993722016e+17
19021.0	4.1120493183085216e+17
19022.0	4.1113764820418554e+17
19023.0	4.110512214944427e+17
19024.0	4.10978419352098e+17
19025.0	4.109218619588608e+17
19026.0	4.108478237551274e+17
19027.0	4.1077448998475085e+17
19028.0	4.1070572905431034e+17
19029.0	4.106306372414121e+17
19030.0	4.105597145666902e+17
19031.0	4.1049136062354765e+17
19032.0	4.1042959942724256e+17
19033.0	4.103387010301951e+17
19034.0	4.1028459786403834e+17
19035.0	4.1021607586911565e+17
19036.0	4.0955505118194285e+17
19037.0	4.100699486246229e+17
19038.0	4.100004343272789e+17
19039.0	4.0993187276608845e+17
19040.0	4.098594831335423e+17
19041.0	4.097898369253375e+17
19042.0	4.090484047740919e+17
19043.0	4.0965360005939206e+17
19044.0	4.095862189151574e+17
19045.0	4.095109359119018e+17
19046.0	4.094299645935615e+17
19047.0	4.093679893479423e+17
19048.0	4.091808575389695e+17
19049.0	4.078421486687554e+17
19050.0	4.091522291073023e+17
19051.0	4.08973636551748e+17
19052.0	4.0901414737674234e+17
19053.0	4.0895104763822074e+17
19054.0	4.088748585254911e+17
19055.0	4.085663711013547e+17
19056.0	4.0867764997106323e+17
19057.0	4.086715986389674e+17
19058.0	4.078933140045812e+17
19059.0	4.082388812431356e+17
19060.0	4.0845711507456e+17
19061.0	4.083863891826006e+17
19062.0	4.0831050646377805e+17
19063.0	4.0825083514934605e+17
19064.0	4.0816119217739085e+17
19065.0	4.0808644898106016e+17
19066.0	4.0776758701588506e+17
19067.0	4.0795344277777056e+17
19068.0	4.079012536822442e+17
19069.0	4.078307914721961e+17
19070.0	4.077466921118378e+17
19071.0	4.0768345354185376e+17
19072.0	4.073429855283879e+17
19073.0	4.075519787488597e+17
19074.0	4.0747175052137805e+17
19075.0	4.0741097757300045e+17
19076.0	4.073290296109739e+17
19077.0	4.072658183039657e+17
19078.0	4.071874739481259e+17
19079.0	4.07124960083968e+17
19080.0	4.07058742649378e+17
19081.0	4.069821684296361e+17
19082.0	4.0691450612722336e+17
19083.0	4.0683982367839565e+17
19084.0	4.0675411943751674e+17
19085.0	4.067050813827754e+17
19086.0	4.062554735946408e+17
19087.0	4.059903021460131e+17
19088.0	4.061607103561721e+17
19089.0	4.0640161586872326e+17
19090.0	4.0636013567016954e+17
19091.0	4.0625113360848237e+17
19092.0	4.0568176096488256e+17
19093.0	4.0615147177246714e+17
19094.0	4.0608395459297274e+17
19095.0	4.0600840448245754e+17
19096.0	4.0594161333698554e+17
19097.0	4.0587253944156166e+17
19098.0	4.0552993855460666e+17
19099.0	4.0539761280723654e+17
19100.0	4.056593054302208e+17
19101.0	4.055881403247274e+17
19102.0	4.054994249930067e+17
19103.0	4.0545118623279776e+17
19104.0	4.0539067053506554e+17
19105.0	4.047105842042215e+17
19106.0	4.0524084440378016e+17
19107.0	4.050346006893907e+17
19108.0	4.048804831559681e+17
19109.0	4.050113064337408e+17
19110.0	4.0496784533531296e+17
19111.0	4.0472582378837306e+17
19112.0	4.046154478824102e+17
19113.0	4.047598460250795e+17
19114.0	4.0457829431814803e+17
19115.0	4.0458650865281696e+17
19116.0	4.0453790596683085e+17
19117.0	4.0447273179545594e+17
19118.0	4.043516746749268e+17
19119.0	4.0132248694947405e+17
19120.0	4.042424238910122e+17
19121.0	4.0419330432696314e+17
19122.0	4.041388738652842e+17
19123.0	4.0407246111593805e+17
19124.0	4.039998454803114e+17
19125.0	4.039322028911274e+17
19126.0	4.038620844042921e+17
19127.0	4.03470358780313e+17
19128.0	4.0371929302958074e+17
19129.0	4.036459008884735e+17
19130.0	4.035875122621098e+17
19131.0	4.0351760139332256e+17
19132.0	4.0344423253060256e+17
19133.0	4.0337328524929696e+17
19134.0	4.033084527738879e+17
19135.0	4.0324103891408205e+17
19136.0	4.0316492571825485e+17
19137.0	4.030676892385279e+17
19138.0	4.030321838959274e+17
19139.0	4.029681200966314e+17
19140.0	4.028997688797866e+17
19141.0	4.0282890842057376e+17
19142.0	4.0275084207718394e+17
19143.0	4.026760399508821e+17
19144.0	4.026123191757482e+17
19145.0	4.025495184911019e+17
19146.0	4.0238910509765984e+17
19147.0	4.023833063325695e+17
19148.0	4.0211538677596205e+17
19149.0	4.019974812554581e+17
19150.0	4.022079710735017e+17
19151.0	4.021362505023487e+17
19152.0	4.0207146332542285e+17
19153.0	4.0150591106361946e+17
19154.0	4.0187462785433594e+17
19155.0	4.0186556641006925e+17
19156.0	4.0179416313801376e+17
19157.0	4.0157271912611885e+17
19158.0	4.0129116549502336e+17
19159.0	4.015711006141098e+17
19160.0	4.0151446401843206e+17
19161.0	4.0144925042059936e+17
19162.0	4.0133707215230285e+17
19163.0	4.0131311554614605e+17
19164.0	4.012421841332906e+17
19165.0	4.006400460062711e+17
19166.0	4.0107368286344525e+17
19167.0	4.0102739382545056e+17
19168.0	4.0096820520550394e+17
19169.0	4.008978180035925e+17
19170.0	4.008331939850922e+17
19171.0	4.007559371423743e+17
19172.0	4.0069430156547405e+17
19173.0	4.006292392422059e+17
19174.0	4.0054738607144954e+17
19175.0	4.0048687904194554e+17
19176.0	4.004222210495829e+17
19177.0	4.0032897111599776e+17
19178.0	4.0027296408535046e+17
19179.0	4.001971359623851e+17
19180.0	4.001457310618965e+17
19181.0	4.00041662620194e+17
19182.0	4.000001492167338e+17
19183.0	3.9994081631272954e+17
19184.0	3.998704674886998e+17
19185.0	3.998009663335082e+17
19186.0	3.997361753817087e+17
19187.0	3.996595722212693e+17
19188.0	3.995991520837632e+17
19189.0	3.9953421468084896e+17
19190.0	3.994653822375253e+17
19191.0	3.9938827352364365e+17
19192.0	3.993289541113172e+17
19193.0	3.992028367727275e+17
19194.0	3.9909814393896966e+17
19195.0	3.99124761341679e+17
19196.0	3.9905239554676045e+17
19197.0	3.989798450626559e+17
19198.0	3.989124831423146e+17
19199.0	3.984964776711507e+17
19200.0	3.9856142066647046e+17
19201.0	3.9871020675017376e+17
19202.0	3.986473264436565e+17
19203.0	3.9857650960520525e+17
19204.0	3.985096641434963e+17
19205.0	3.984414948895403e+17
19206.0	3.9837318393801376e+17
19207.0	3.982819687312042e+17
19208.0	3.981844006218409e+17
19209.0	3.9816799893585914e+17
19210.0	3.9809546047542605e+17
19211.0	3.980333363320149e+17
19212.0	3.9796553988177914e+17
19213.0	3.9788334103046816e+17
19214.0	3.978113678224043e+17
19215.0	3.977613422187861e+17
19216.0	3.97695204406067e+17
19217.0	3.9762999933665274e+17
19218.0	3.9742293444744506e+17
19219.0	3.974698067733161e+17
19220.0	3.9742118849850016e+17
19221.0	3.9730136065856845e+17
19222.0	3.972816854581247e+17
19223.0	3.972150360102229e+17
19224.0	3.971429984195925e+17
19225.0	3.970598056580436e+17
19226.0	3.970164060061695e+17
19227.0	3.9694707416104954e+17
19228.0	3.968822878928896e+17
19229.0	3.968016056319999e+17
19230.0	3.9674289642100045e+17
19231.0	3.966810404334249e+17
19232.0	3.966136838258687e+17
19233.0	3.96533789884416e+17
19234.0	3.964686663942143e+17
19235.0	3.964032079189332e+17
19236.0	3.963409633989974e+17
19237.0	3.962645060605268e+17
19238.0	3.961824468795391e+17
19239.0	3.961378993165652e+17
19240.0	3.960647365339818e+17
19241.0	3.960015097080491e+17
19242.0	3.959236926461268e+17
19243.0	3.95847795946291e+17
19244.0	3.9579723053574816e+17
19245.0	3.957270797527721e+17
19246.0	3.956622645439146e+17
19247.0	3.955987990620842e+17
19248.0	3.95530470494481e+17
19249.0	3.9544844710488736e+17
19250.0	3.9529963879137274e+17
19251.0	3.952262321799165e+17
19252.0	3.952223518195712e+17
19253.0	3.9518675769753594e+17
19254.0	3.9512621096195405e+17
19255.0	3.950295678364329e+17
19256.0	3.949838118245717e+17
19257.0	3.949219782765227e+17
19258.0	3.948530704056319e+17
19259.0	3.947815485046783e+17
19260.0	3.9469410754232314e+17
19261.0	3.9465373673717754e+17
19262.0	3.9457539384934394e+17
19263.0	3.945030224620202e+17
19264.0	3.943504687748435e+17
19265.0	3.943407128936446e+17
19266.0	3.942271586839211e+17
19267.0	3.942514884433238e+17
19268.0	3.941759972627798e+17
19269.0	3.9411409702529696e+17
19270.0	3.940478032543743e+17
19271.0	3.939130754990082e+17
19272.0	3.9390933026515616e+17
19273.0	3.938195894261077e+17
19274.0	3.9372246521391763e+17
19275.0	3.9371500165966496e+17
19276.0	3.93645236752657e+17
19277.0	3.9358080028945056e+17
19278.0	3.9350626513059834e+17
19279.0	3.9344291303478605e+17
19280.0	3.9336570142064634e+17
19281.0	3.9331096582335136e+17
19282.0	3.932466556786004e+17
19283.0	3.931733893666133e+17
19284.0	3.931089763915093e+17
19285.0	3.930166704559443e+17
19286.0	3.92969145356561e+17
19287.0	3.9290459599667194e+17
19288.0	3.927218326951253e+17
19289.0	3.9234288676590835e+17
19290.0	3.9271098440744954e+17
19291.0	3.92606538338577e+17
19292.0	3.9257597241808205e+17
19293.0	3.925060854568276e+17
19294.0	3.9244100600681805e+17
19295.0	3.9237228373387936e+17
19296.0	3.920179729093982e+17
19297.0	3.9219496568750086e+17
19298.0	3.9216793668375885e+17
19299.0	3.9178813232032454e+17
19300.0	3.920368196648961e+17
19301.0	3.91970991182097e+17
19302.0	3.919077032591359e+17
19303.0	3.918238473082197e+17
19304.0	3.917668621658795e+17
19305.0	3.91700551757551e+17
19306.0	3.916386826977278e+17
19307.0	3.9156198320810656e+17
19308.0	3.9149934505274016e+17
19309.0	3.9142208786049696e+17
19310.0	3.913522290010793e+17
19311.0	3.9129442065667405e+17
19312.0	3.912281989578751e+17
19313.0	3.9115169576168096e+17
19314.0	3.8782666497064506e+17
19315.0	3.879505524774286e+17
19316.0	3.905888795142832e+17
19317.0	3.908973212904106e+17
19318.0	3.908367739955882e+17
19319.0	3.907673268071082e+17
19320.0	3.906004413229735e+17
19321.0	3.903856719866538e+17
19322.0	3.9056623376793594e+17
19323.0	3.9050742095762765e+17
19324.0	3.9044332416314016e+17
19325.0	3.903666949281108e+17
19326.0	3.903100570741418e+17
19327.0	3.902436628496383e+17
19328.0	3.896238480381275e+17
19329.0	3.901136891281408e+17
19330.0	3.9004200770382496e+17
19331.0	3.899762563962197e+17
19332.0	3.899147708355923e+17
19333.0	3.898498711115093e+17
19334.0	3.897646724939777e+17
19335.0	3.885840059771576e+17
19336.0	3.896401745761621e+17
19337.0	3.8958267031879674e+17
19338.0	3.8948388949633696e+17
19339.0	3.894450075293013e+17
19340.0	3.892880444402346e+17
19341.0	3.8890428226164134e+17
19342.0	3.8908151432478746e+17
19343.0	3.8918691285019296e+17
19344.0	3.8870606260032915e+17
19345.0	3.884470845308921e+17
19346.0	3.888790266096301e+17
19347.0	3.8840684836290554e+17
19348.0	3.888574184641876e+17
19349.0	3.887860493058047e+17
19350.0	3.8853780299229875e+17
19351.0	3.886479574390101e+17
19352.0	3.880377726795768e+17
19353.0	3.885242969838933e+17
19354.0	3.884614924544682e+17
19355.0	3.883811549653674e+17
19356.0	3.883261658923008e+17
19357.0	3.882630967022933e+17
19358.0	3.8819591492730874e+17
19359.0	3.880127532367866e+17
19360.0	3.87624330277683e+17
19361.0	3.8799011538971296e+17
19362.0	3.879328625109674e+17
19363.0	3.8786660634897056e+17
19364.0	3.878029568070997e+17
19365.0	3.877343303740075e+17
19366.0	3.8765894419087354e+17
19367.0	3.876016527944363e+17
19368.0	3.8753852712113485e+17
19369.0	3.874678097575936e+17
19370.0	3.87407462600977e+17
19371.0	3.873304203668138e+17
19372.0	3.872736471067306e+17
19373.0	3.872020573978623e+17
19374.0	3.871378641343829e+17
19375.0	3.870777875802795e+17
19376.0	3.8701385429374285e+17
19377.0	3.8694735444268365e+17
19378.0	3.868832581375317e+17
19379.0	3.8681731927463245e+17
19380.0	3.867405343610197e+17
19381.0	3.8667258474878285e+17
19382.0	3.866073654187349e+17
19383.0	3.865345412562944e+17
19384.0	3.864708277512874e+17
19385.0	3.864198086568618e+17
19386.0	3.8635493193154554e+17
19387.0	3.862880608146774e+17
19388.0	3.8621836797979296e+17
19389.0	3.8614920649332045e+17
19390.0	3.8608327399178234e+17
19391.0	3.8545711431679904e+17
19392.0	3.859483723825151e+17
19393.0	3.8588490585210874e+17
19394.0	3.858195269287936e+17
19395.0	3.8558773752627245e+17
19396.0	3.856522134159361e+17
19397.0	3.8561989882019834e+17
19398.0	3.854230990706006e+17
19399.0	3.851456386607784e+17
19400.0	3.8530883015147526e+17
19401.0	3.8535684186002765e+17
19402.0	3.8529591281363616e+17
19403.0	3.852272998722218e+17
19404.0	3.8515704052667725e+17
19405.0	3.850862881406976e+17
19406.0	3.8502873362158925e+17
19407.0	3.847621131108349e+17
19408.0	3.847452413831855e+17
19409.0	3.848288732184576e+17
19410.0	3.84765624721954e+17
19411.0	3.846983549364906e+17
19412.0	3.8462946600987296e+17
19413.0	3.843584523851093e+17
19414.0	3.844945609752576e+17
19415.0	3.8443084327594656e+17
19416.0	3.843362675927722e+17
19417.0	3.84292787130641e+17
19418.0	3.8423226786775034e+17
19419.0	3.841646550581248e+17
19420.0	3.840974763589631e+17
19421.0	3.840283549979988e+17
19422.0	3.8395263935228576e+17
19423.0	3.838949334188032e+17
19424.0	3.838268865686185e+17
19425.0	3.837522906622633e+17
19426.0	3.8368940420410016e+17
19427.0	3.8361851242741754e+17
19428.0	3.8354238014750714e+17
19429.0	3.8347983300853754e+17
19430.0	3.83398921109504e+17
19431.0	3.8319800737682797e+17
19432.0	3.8325485417704096e+17
19433.0	3.8317591625728e+17
19434.0	3.8310075041491616e+17
19435.0	3.830070692369748e+17
19436.0	3.828576762374825e+17
19437.0	3.8282871995105274e+17
19438.0	3.816241044477271e+17
19439.0	3.8254939566243834e+17
19440.0	3.8253472790173e+17
19441.0	3.8241334278662816e+17
19442.0	3.8227323807334394e+17
19443.0	3.820934362999466e+17
19444.0	3.818613598672212e+17
19445.0	3.815441059282944e+17
19446.0	3.810625353766229e+17
19447.0	3.8025480777673376e+17
19448.0	3.7865498607616e+17
19449.0	3.7480699044823034e+17
19450.0	3.650666197155834e+17
19451.0	3.581393647610538e+17
19452.0	3.680525566170453e+17
19453.0	3.759307180998658e+17
19454.0	3.787956043819689e+17
19455.0	3.799763136107861e+17
19456.0	3.805272602574848e+17
19457.0	3.8077777897499296e+17
19458.0	3.6933425035566374e+17
19459.0	3.805685689090066e+17
19460.0	3.810930851490474e+17
19461.0	3.8113520148370765e+17
19462.0	3.811299641262079e+17
19463.0	3.8111357809896096e+17
19464.0	3.810784689083732e+17
19465.0	3.810451467010047e+17
19466.0	3.8100071902522016e+17
19467.0	3.809583378901674e+17
19468.0	3.809101048621738e+17
19469.0	3.8041007196296454e+17
19470.0	3.808039217922047e+17
19471.0	3.8074912474835616e+17
19472.0	3.806828083281919e+17
19473.0	3.806255590845098e+17
19474.0	3.801610498430286e+17
19475.0	3.80328750769766e+17
19476.0	3.804482701186388e+17
19477.0	3.8038638749723296e+17
19478.0	3.8033703703674874e+17
19479.0	3.798813824603471e+17
19480.0	3.802108911069865e+17
19481.0	3.801188280915285e+17
19482.0	3.8007986412584954e+17
19483.0	3.800286576159402e+17
19484.0	3.7995865531132576e+17
19485.0	3.798928644374527e+17
19486.0	3.794118620042594e+17
19487.0	3.797721923540308e+17
19488.0	3.797167431658154e+17
19489.0	3.7965233725112314e+17
19490.0	3.792828166220453e+17
19491.0	3.795182896021503e+17
19492.0	3.794619459786069e+17
19493.0	3.7939681221236045e+17
19494.0	3.7933233939851936e+17
19495.0	3.792740779294719e+17
19496.0	3.79108887643204e+17
19497.0	3.79144247513361e+17
19498.0	3.790761485839019e+17
19499.0	3.780865782622878e+17
19500.0	3.789555764647252e+17
19501.0	3.789042544017408e+17
19502.0	3.788405948634453e+17
19503.0	3.7877758187711136e+17
19504.0	3.787119891841023e+17
19505.0	3.786387595023701e+17
19506.0	3.785865238500693e+17
19507.0	3.785170737255765e+17
19508.0	3.784557492961279e+17
19509.0	3.7838811677327354e+17
19510.0	3.7821791967641574e+17
19511.0	3.733457133196577e+17
19512.0	3.78052698352298e+17
19513.0	3.7778619912683456e+17
19514.0	3.7787127121619603e+17
19515.0	3.779180556014937e+17
19516.0	3.778978714222591e+17
19517.0	3.77860180218129e+17
19518.0	3.777126973046782e+17
19519.0	3.776449296553299e+17
19520.0	3.773219878207483e+17
19521.0	3.776321681358848e+17
19522.0	3.77512116040499e+17
19523.0	3.7742279372308506e+17
19524.0	3.771525859639303e+17
19525.0	3.773698427322367e+17
19526.0	3.7730800079557965e+17
19527.0	3.772447375491072e+17
19528.0	3.771559580445353e+17
19529.0	3.770799687903914e+17
19530.0	3.7705697673434445e+17
19531.0	3.769918868684799e+17
19532.0	3.7692710402566816e+17
19533.0	3.768577538654208e+17
19534.0	3.768031527654742e+17
19535.0	3.767385603440638e+17
19536.0	3.7666750960325965e+17
19537.0	3.766107337566889e+17
19538.0	3.761947460414128e+17
19539.0	3.7636886383383955e+17
19540.0	3.764202386751487e+17
19541.0	3.7628606512715085e+17
19542.0	3.762633675112447e+17
19543.0	3.758599575349932e+17
19544.0	3.761453712539648e+17
19545.0	3.7604077789511616e+17
19546.0	3.758460720119808e+17
19547.0	3.759811139207167e+17
19548.0	3.759160131496618e+17
19549.0	3.7583601966339405e+17
19550.0	3.7577824480351565e+17
19551.0	3.757267452515669e+17
19552.0	3.7565520070137165e+17
19553.0	3.7559526626426874e+17
19554.0	3.75520155926528e+17
19555.0	3.754264128126976e+17
19556.0	3.753762046170453e+17
19557.0	3.753404427228501e+17
19558.0	3.752798102836565e+17
19559.0	3.752168472095402e+17
19560.0	3.750229034314407e+17
19561.0	3.750869884119722e+17
19562.0	3.7490386481971174e+17
19563.0	3.749656557955753e+17
19564.0	3.748889942644053e+17
19565.0	3.748336306399914e+17
19566.0	3.747619457204223e+17
19567.0	3.747130887198037e+17
19568.0	3.746473718753963e+17
19569.0	3.745837598725461e+17
19570.0	3.7452226641264634e+17
19571.0	3.7445685540290554e+17
19572.0	3.7439180489359354e+17
19573.0	3.7429349648957434e+17
19574.0	3.7424384585673376e+17
19575.0	3.742088476054869e+17
19576.0	3.7412801190297594e+17
19577.0	3.7402787848738125e+17
19578.0	3.740114939980457e+17
19579.0	3.7395345168138234e+17
19580.0	3.738870513052331e+17
19581.0	3.738178171174911e+17
19582.0	3.737668218606933e+17
19583.0	3.7370725994769056e+17
19584.0	3.7363800178251085e+17
19585.0	3.735632941678591e+17
19586.0	3.7349807812334925e+17
19587.0	3.734527796401493e+17
19588.0	3.733023744152918e+17
19589.0	3.73325324877824e+17
19590.0	3.732340144603136e+17
19591.0	3.732002450702336e+17
19592.0	3.7313487257818445e+17
19593.0	3.7304441458305696e+17
19594.0	3.729469451796479e+17
19595.0	3.729475993512618e+17
19596.0	3.7287888980104525e+17
19597.0	3.7282369513717754e+17
19598.0	3.726070766021288e+17
19599.0	3.7269827062770336e+17
19600.0	3.7263224158726816e+17
19601.0	3.7256244074905594e+17
19602.0	3.7250343031712416e+17
19603.0	3.723650504414547e+17
19604.0	3.7238216075509754e+17
19605.0	3.722722449642838e+17
19606.0	3.722522764421802e+17
19607.0	3.721978243099306e+17
19608.0	3.721221080350719e+17
19609.0	3.7206219967255885e+17
19610.0	3.7183129519827654e+17
19611.0	3.716715103911938e+17
19612.0	3.718857117488469e+17
19613.0	3.7181280740529485e+17
19614.0	3.7175279586290336e+17
19615.0	3.7169818469662714e+17
19616.0	3.71455666264474e+17
19617.0	3.7129596548328115e+17
19618.0	3.71396223050274e+17
19619.0	3.712611531795111e+17
19620.0	3.711649267580921e+17
19621.0	3.7092057995892026e+17
19622.0	3.7125977437197645e+17
19623.0	3.7118388361407136e+17
19624.0	3.710922017210368e+17
19625.0	3.710724695479638e+17
19626.0	3.710048040299178e+17
19627.0	3.7094867683246074e+17
19628.0	3.708763573846016e+17
19629.0	3.6988161352881434e+17
19630.0	3.707602345831082e+17
19631.0	3.703917563783848e+17
19632.0	3.706281050592597e+17
19633.0	3.7056500077690874e+17
19634.0	3.70503900463104e+17
19635.0	3.7040627775788346e+17
19636.0	3.699251199257253e+17
19637.0	3.698475572483408e+17
19638.0	3.7022973838404243e+17
19639.0	3.7018924860047354e+17
19640.0	3.701271698953558e+17
19641.0	3.6967507865982464e+17
19642.0	3.6998925363008845e+17
19643.0	3.6992235119575034e+17
19644.0	3.698777886730922e+17
19645.0	3.697767821432148e+17
19646.0	3.692885784395769e+17
19647.0	3.6968484041304736e+17
19648.0	3.696411343672661e+17
19649.0	3.6957100392666445e+17
19650.0	3.695151077654527e+17
19651.0	3.69453816680721e+17
19652.0	3.693922391949312e+17
19653.0	3.693270883718485e+17
19654.0	3.692697429387946e+17
19655.0	3.6919611626618874e+17
19656.0	3.691446733373438e+17
