# Flux units: erg / (cm m2 s)
# Wavelength units: Angstrom
wave	flux
19000.0	7.255324380277417e+17
19001.0	7.25379939845188e+17
19002.0	7.25259992956928e+17
19003.0	7.2512280999581e+17
19004.0	7.249861450312361e+17
19005.0	7.248490867807572e+17
19006.0	7.247124169228288e+17
19007.0	7.245706404997802e+17
19008.0	7.244282805092351e+17
19009.0	7.242986078688598e+17
19010.0	7.24084425175859e+17
19011.0	7.240251974090751e+17
19012.0	7.238740263043071e+17
19013.0	7.237550773807785e+17
19014.0	7.236082294849535e+17
19015.0	7.234760884966739e+17
19016.0	7.233380187198803e+17
19017.0	7.231874151044436e+17
19018.0	7.23070084063778e+17
19019.0	7.229338490153642e+17
19020.0	7.227892331883177e+17
19021.0	7.226572321499817e+17
19022.0	7.225255645588138e+17
19023.0	7.223821706723325e+17
19024.0	7.22249028084258e+17
19025.0	7.221154579567956e+17
19026.0	7.219751152866644e+17
19027.0	7.218386829661523e+17
19028.0	7.217060579551913e+17
19029.0	7.215667414914387e+17
19030.0	7.214348321685501e+17
19031.0	7.212992985475756e+17
19032.0	7.211624507113471e+17
19033.0	7.210107802047827e+17
19034.0	7.208863094800383e+17
19035.0	7.207469678504617e+17
19036.0	7.201234173121873e+17
19037.0	7.204778596281002e+17
19038.0	7.20339529245218e+17
19039.0	7.202062177665024e+17
19040.0	7.200708271712936e+17
19041.0	7.199330888843263e+17
19042.0	7.197825235768659e+17
19043.0	7.19661053317393e+17
19044.0	7.195231225118719e+17
19045.0	7.193886494905683e+17
19046.0	7.192417986587306e+17
19047.0	7.191156388877651e+17
19048.0	7.189433900072957e+17
19049.0	7.188311677687123e+17
19050.0	7.186983605851475e+17
19051.0	7.184854111573331e+17
19052.0	7.184288578185897e+17
19053.0	7.182962041465513e+17
19054.0	7.181610179537578e+17
19055.0	7.179825283683671e+17
19056.0	7.178844556143274e+17
19057.0	7.177516607340543e+17
19058.0	7.17612440040243e+17
19059.0	7.174800615145471e+17
19060.0	7.173404100657152e+17
19061.0	7.172085327593471e+17
19062.0	7.170711885971455e+17
19063.0	7.16935964655616e+17
19064.0	7.167774957415084e+17
19065.0	7.166323584226644e+17
19066.0	7.165168005939199e+17
19067.0	7.163890088192681e+17
19068.0	7.162549371928575e+17
19069.0	7.161193153516883e+17
19070.0	7.159782548963327e+17
19071.0	7.158462714740735e+17
19072.0	7.157112819941373e+17
19073.0	7.155740626823849e+17
19074.0	7.154397395375444e+17
19075.0	7.153037801947135e+17
19076.0	7.151639486704297e+17
19077.0	7.150304962630995e+17
19078.0	7.148857766969343e+17
19079.0	7.14759705146163e+17
19080.0	7.146218439660884e+17
19081.0	7.144801445784233e+17
19082.0	7.143419909155498e+17
19083.0	7.141970346508287e+17
19084.0	7.140388021556564e+17
19085.0	7.139425940493654e+17
19086.0	7.137421463038633e+17
19087.0	7.136582393921535e+17
19088.0	7.135251992849066e+17
19089.0	7.133623070578004e+17
19090.0	7.132604163686399e+17
19091.0	7.131265257963519e+17
19092.0	7.129810044190719e+17
19093.0	7.128584959295487e+17
19094.0	7.12722384752913e+17
19095.0	7.12586855326242e+17
19096.0	7.124489812836351e+17
19097.0	7.123168123333289e+17
19098.0	7.121806566970708e+17
19099.0	7.120444830253055e+17
19100.0	7.119089721933824e+17
19101.0	7.117746430367059e+17
19102.0	7.11624211108113e+17
19103.0	7.115026800312319e+17
19104.0	7.113685389191849e+17
19105.0	7.112325095314772e+17
19106.0	7.110948969338194e+17
19107.0	7.109589532497236e+17
19108.0	7.108268293182803e+17
19109.0	7.106407115522045e+17
19110.0	7.105557802516479e+17
19111.0	7.104208545251325e+17
19112.0	7.102855630553087e+17
19113.0	7.101499649818624e+17
19114.0	7.10014173131571e+17
19115.0	7.098711079387135e+17
19116.0	7.097404977315839e+17
19117.0	7.096060107292671e+17
19118.0	7.094582638542845e+17
19119.0	7.089137102356472e+17
19120.0	7.091967359975423e+17
19121.0	7.090657934617257e+17
19122.0	7.089334437369172e+17
19123.0	7.08796229038899e+17
19124.0	7.086602653619539e+17
19125.0	7.08527121375778e+17
19126.0	7.083913156842836e+17
19127.0	7.079816633253883e+17
19128.0	7.080815298434387e+17
19129.0	7.079718980070057e+17
19130.0	7.07850543510323e+17
19131.0	7.077163031330815e+17
19132.0	7.075822779236351e+17
19133.0	7.073631321107114e+17
19134.0	7.072921776291839e+17
19135.0	7.071772483867987e+17
19136.0	7.07043431494451e+17
19137.0	7.068818771105108e+17
19138.0	7.067675484924585e+17
19139.0	7.066385968529407e+17
19140.0	7.065040414834687e+17
19141.0	7.063692608798719e+17
19142.0	7.062302781429075e+17
19143.0	7.060892027278676e+17
19144.0	7.059589167404372e+17
19145.0	7.058292724815187e+17
19146.0	7.05596763336431e+17
19147.0	7.055457773770067e+17
19148.0	7.054251624759296e+17
19149.0	7.052899695722493e+17
19150.0	7.051544797118463e+17
19151.0	7.050209309753343e+17
19152.0	7.048842843258879e+17
19153.0	7.047489337163773e+17
19154.0	7.045969317199871e+17
19155.0	7.044835210952704e+17
19156.0	7.043485521674239e+17
19157.0	7.04213044830754e+17
19158.0	7.040438126335314e+17
19159.0	7.039417954162004e+17
19160.0	7.03805540934178e+17
19161.0	7.036715066370729e+17
19162.0	7.034618412793856e+17
19163.0	7.034061446971391e+17
19164.0	7.032728367835817e+17
19165.0	7.031356009043283e+17
19166.0	7.029860028033706e+17
19167.0	7.028621025738751e+17
19168.0	7.027130944017746e+17
19169.0	7.025884154298368e+17
19170.0	7.024660085822804e+17
19171.0	7.023267332926121e+17
19172.0	7.021962152902655e+17
19173.0	7.020629645590528e+17
19174.0	7.019189504049151e+17
19175.0	7.017942264840191e+17
19176.0	7.016590070164137e+17
19177.0	7.015006586885459e+17
19178.0	7.013902036500479e+17
19179.0	7.012505342356138e+17
19180.0	7.011135038772564e+17
19181.0	7.009712462277289e+17
19182.0	7.00842097246208e+17
19183.0	7.007189383599444e+17
19184.0	7.005659969792681e+17
19185.0	7.00447984853538e+17
19186.0	7.003166495211519e+17
19187.0	7.001684007976959e+17
19188.0	7.000474750287871e+17
19189.0	6.999127093149693e+17
19190.0	6.997780878852095e+17
19191.0	6.996397102465023e+17
19192.0	6.995112429092861e+17
19193.0	6.993711316948307e+17
19194.0	6.992374037217279e+17
19195.0	6.991072838986408e+17
19196.0	6.989709177782271e+17
19197.0	6.988381053517823e+17
19198.0	6.987045945737215e+17
19199.0	6.980888947938642e+17
19200.0	6.981285825566038e+17
19201.0	6.983023093699923e+17
19202.0	6.981690459160575e+17
19203.0	6.980340740521983e+17
19204.0	6.97896588751667e+17
19205.0	6.977642943217664e+17
19206.0	6.976291998444201e+17
19207.0	6.974838658127187e+17
19208.0	6.973282530798248e+17
19209.0	6.97226925056546e+17
19210.0	6.970929879973887e+17
19211.0	6.969606652559359e+17
19212.0	6.968268411633664e+17
19213.0	6.966754915909631e+17
19214.0	6.965390289316522e+17
19215.0	6.964230680302931e+17
19216.0	6.962858831118335e+17
19217.0	6.961546060103679e+17
19218.0	6.958878087097e+17
19219.0	6.958599707645267e+17
19220.0	6.957489587224575e+17
19221.0	6.955638715667796e+17
19222.0	6.954848126413481e+17
19223.0	6.953458213060607e+17
19224.0	6.952011852764499e+17
19225.0	6.950548589423272e+17
19226.0	6.949422246832809e+17
19227.0	6.948077594214399e+17
19228.0	6.946783776560468e+17
19229.0	6.945439992862035e+17
19230.0	6.944056352789844e+17
19231.0	6.942708714526036e+17
19232.0	6.941338097767763e+17
19233.0	6.939939792311635e+17
19234.0	6.938668570072403e+17
19235.0	6.937304543264767e+17
19236.0	6.936026642994515e+17
19237.0	6.934647873907369e+17
19238.0	6.933181893356202e+17
19239.0	6.931992279689897e+17
19240.0	6.930222472145577e+17
19241.0	6.92914654159394e+17
19242.0	6.927902440423423e+17
19243.0	6.926289502644905e+17
19244.0	6.9252506203805e+17
19245.0	6.923894618674516e+17
19246.0	6.922527986505043e+17
19247.0	6.92118389662242e+17
19248.0	6.919861192796842e+17
19249.0	6.918508564709375e+17
19250.0	6.917124284306772e+17
19251.0	6.91565817443123e+17
19252.0	6.913878171232938e+17
19253.0	6.913068107825151e+17
19254.0	6.911691944798889e+17
19255.0	6.910042988434771e+17
19256.0	6.909012902324906e+17
19257.0	6.907689063241044e+17
19258.0	6.906336178601983e+17
19259.0	6.904849279658665e+17
19260.0	6.903536662435155e+17
19261.0	6.902251251564541e+17
19262.0	6.900814403250857e+17
19263.0	6.89947795469107e+17
19264.0	6.897355715859795e+17
19265.0	6.896529101728425e+17
19266.0	6.895250220690089e+17
19267.0	6.894124855372457e+17
19268.0	6.892750525257044e+17
19269.0	6.891388998254591e+17
19270.0	6.890034674969258e+17
19271.0	6.888134737046188e+17
19272.0	6.887025541469523e+17
19273.0	6.874939814576113e+17
19274.0	6.879079253584547e+17
19275.0	6.882975715164159e+17
19276.0	6.881575412520276e+17
19277.0	6.880208507021993e+17
19278.0	6.87884895064337e+17
19279.0	6.877404797250217e+17
19280.0	6.875959888882345e+17
19281.0	6.874721069039615e+17
19282.0	6.873372004013395e+17
19283.0	6.87192422883874e+17
19284.0	6.870442660855807e+17
19285.0	6.868862694501033e+17
19286.0	6.86780041081651e+17
19287.0	6.866480694733481e+17
19288.0	6.863989652149587e+17
19289.0	6.860266309069475e+17
19290.0	6.862327826961748e+17
19291.0	6.860490405838849e+17
19292.0	6.859546806976511e+17
19293.0	6.858144338673663e+17
19294.0	6.856745280339967e+17
19295.0	6.85537075728657e+17
19296.0	6.853961851426134e+17
19297.0	6.852524516573183e+17
19298.0	6.851118374759081e+17
19299.0	6.849766900105215e+17
19300.0	6.848362212316499e+17
19301.0	6.846938038490452e+17
19302.0	6.845523410900308e+17
19303.0	6.843967473014099e+17
19304.0	6.842614837936128e+17
19305.0	6.841264660021247e+17
19306.0	6.839856984489983e+17
19307.0	6.838355901109587e+17
19308.0	6.836974732880553e+17
19309.0	6.835431450607615e+17
19310.0	6.83389974810897e+17
19311.0	6.832676512901801e+17
19312.0	6.831284532456105e+17
19313.0	6.82973760463394e+17
19314.0	6.826225486004219e+17
19315.0	6.824944902777518e+17
19316.0	6.825535812403199e+17
19317.0	6.824067462769321e+17
19318.0	6.822600098796884e+17
19319.0	6.821165276332031e+17
19320.0	6.819667479887871e+17
19321.0	6.818102899638272e+17
19322.0	6.816230565827923e+17
19323.0	6.814874218790911e+17
19324.0	6.813472768305833e+17
19325.0	6.811864574984191e+17
19326.0	6.810488273545897e+17
19327.0	6.808937117865299e+17
19328.0	6.807443596115965e+17
19329.0	6.80593212973602e+17
19330.0	6.804344714996393e+17
19331.0	6.802816848887807e+17
19332.0	6.801358764812969e+17
19333.0	6.799794963305812e+17
19334.0	6.798230709512874e+17
19335.0	6.796722407036244e+17
19336.0	6.795164567732224e+17
19337.0	6.793592831999999e+17
19338.0	6.791681644953597e+17
19339.0	6.790441938714624e+17
19340.0	6.788754643615743e+17
19341.0	6.787191812390911e+17
19342.0	6.784588500172797e+17
19343.0	6.783412845849257e+17
19344.0	6.781765704919721e+17
19345.0	6.776694223055521e+17
19346.0	6.777646208428714e+17
19347.0	6.776735522269865e+17
19348.0	6.775174284880554e+17
19349.0	6.773433166375594e+17
19350.0	6.771752474509311e+17
19351.0	6.770017235719508e+17
19352.0	6.768249371536041e+17
19353.0	6.766641036307114e+17
19354.0	6.764849240124074e+17
19355.0	6.762463698266794e+17
19356.0	6.760843771379711e+17
19357.0	6.759036377978195e+17
19358.0	6.757139942998015e+17
19359.0	6.75481912274671e+17
19360.0	6.753480520411817e+17
19361.0	6.75159857115955e+17
19362.0	6.749793504897705e+17
19363.0	6.747447107081555e+17
19364.0	6.745324534104064e+17
19365.0	6.743363466996394e+17
19366.0	6.74139297948194e+17
19367.0	6.739387827443028e+17
19368.0	6.737356116372138e+17
19369.0	6.734701863632895e+17
19370.0	6.731171935289341e+17
19371.0	6.730252787122175e+17
19372.0	6.728195464232959e+17
19373.0	6.725895695892479e+17
19374.0	6.722869862072319e+17
19375.0	6.720299705827327e+17
19376.0	6.718009612348074e+17
19377.0	6.715660809797632e+17
19378.0	6.712914167027027e+17
19379.0	6.710354758686036e+17
19380.0	6.707901424293203e+17
19381.0	6.705374790243668e+17
19382.0	6.702677325687465e+17
19383.0	6.700031372776788e+17
19384.0	6.697537008304127e+17
19385.0	6.694799529388714e+17
19386.0	6.691575897784319e+17
19387.0	6.688630851851603e+17
19388.0	6.68569674256657e+17
19389.0	6.682703399922346e+17
19390.0	6.679619791661738e+17
19391.0	6.672226989725006e+17
19392.0	6.673192514311507e+17
19393.0	6.669332248876372e+17
19394.0	6.665717563435689e+17
19395.0	6.662178474732201e+17
19396.0	6.658531252677289e+17
19397.0	6.654790041862143e+17
19398.0	6.649971861007017e+17
19399.0	6.644898943292754e+17
19400.0	6.641768038662143e+17
19401.0	6.637049068475732e+17
19402.0	6.631956117367465e+17
19403.0	6.627311990341632e+17
19404.0	6.621620248510461e+17
19405.0	6.61613713765171e+17
19406.0	6.610165015685801e+17
19407.0	6.603894705968467e+17
19408.0	6.595716426235905e+17
19409.0	6.589901937399123e+17
19410.0	6.581716784600403e+17
19411.0	6.573520328152406e+17
19412.0	6.564519566376957e+17
19413.0	6.555253435880787e+17
19414.0	6.546794985728682e+17
19415.0	6.539069374158164e+17
19416.0	6.530443722970452e+17
19417.0	6.521927582963028e+17
19418.0	6.513081458185556e+17
19419.0	6.503785627123711e+17
19420.0	6.493587437693609e+17
19421.0	6.482872656112298e+17
19422.0	6.471883179076265e+17
19423.0	6.459399768550057e+17
19424.0	6.446926121664511e+17
19425.0	6.432899070951423e+17
19426.0	6.417801352839168e+17
19427.0	6.401386607891795e+17
19428.0	6.383551795341996e+17
19429.0	6.363042759573503e+17
19430.0	6.340059868779858e+17
19431.0	6.312417120922278e+17
19432.0	6.284480226525183e+17
19433.0	6.260708181628244e+17
19434.0	6.235923670193492e+17
19435.0	6.209191640651091e+17
19436.0	6.17983108063778e+17
19437.0	6.148167658285738e+17
19438.0	6.108140321898491e+17
19439.0	6.071453240437418e+17
19440.0	6.022821417320443e+17
19441.0	5.964605894776147e+17
19442.0	5.909918167072769e+17
19443.0	5.851409812903254e+17
19444.0	5.78433244742724e+17
19445.0	5.7028644948323014e+17
19446.0	5.6078207462058656e+17
19447.0	5.5046585195342445e+17
19448.0	5.377633002979333e+17
19449.0	5.216657996425897e+17
19450.0	4.9248698769953837e+17
19451.0	4.8145215709511654e+17
19452.0	5.0881023851888685e+17
19453.0	5.303738468139013e+17
19454.0	5.440103500830029e+17
19455.0	5.552707631491754e+17
19456.0	5.6470673870028794e+17
19457.0	5.7349731502434925e+17
19458.0	5.803471320820397e+17
19459.0	5.865955165645484e+17
19460.0	5.918673051757222e+17
19461.0	5.974162260623354e+17
19462.0	6.025589906822487e+17
19463.0	6.067533737448788e+17
19464.0	6.103223834247165e+17
19465.0	6.13434480516574e+17
19466.0	6.162148680007677e+17
19467.0	6.187897633898495e+17
19468.0	6.210910314037248e+17
19469.0	6.231328426382675e+17
19470.0	6.255987581255679e+17
19471.0	6.28229088861662e+17
19472.0	6.30465137545489e+17
19473.0	6.323356064983722e+17
19474.0	6.340088915733164e+17
19475.0	6.353806528173395e+17
19476.0	6.367887220539392e+17
19477.0	6.379648919972525e+17
19478.0	6.390556111055529e+17
19479.0	6.400423239177555e+17
19480.0	6.409575439794176e+17
19481.0	6.417737115675306e+17
19482.0	6.425990342027946e+17
19483.0	6.433084101274282e+17
19484.0	6.439619933503487e+17
19485.0	6.445734066214227e+17
19486.0	6.451907120507564e+17
19487.0	6.457429787148287e+17
19488.0	6.462643727848791e+17
19489.0	6.468821874027176e+17
19490.0	6.474027206617766e+17
19491.0	6.482092533743616e+17
19492.0	6.487334809064787e+17
19493.0	6.492049141749076e+17
19494.0	6.496946021029207e+17
19495.0	6.500341402391891e+17
19496.0	6.504187414882985e+17
19497.0	6.507258680005972e+17
19498.0	6.510481583898623e+17
19499.0	6.506176680995489e+17
19500.0	6.515142606979071e+17
19501.0	6.518001108342099e+17
19502.0	6.519735362169514e+17
19503.0	6.521276806638249e+17
19504.0	6.522898483948201e+17
19505.0	6.524820286778025e+17
19506.0	6.526000739385343e+17
19507.0	6.52701521080047e+17
19508.0	6.527998428359338e+17
19509.0	6.529083143181652e+17
19510.0	6.529975341547519e+17
19511.0	6.52534809589623e+17
19512.0	6.530701609052837e+17
19513.0	6.529601319381669e+17
19514.0	6.53116832953139e+17
19515.0	6.532034035974148e+17
19516.0	6.533105070374911e+17
19517.0	6.53369266090803e+17
19518.0	6.53399889682978e+17
19519.0	6.534104934427306e+17
19520.0	6.534113888567295e+17
19521.0	6.534172494878036e+17
19522.0	6.534056408427178e+17
19523.0	6.534043659141117e+17
19524.0	6.533981748417875e+17
19525.0	6.534132509878953e+17
19526.0	6.533984999702527e+17
19527.0	6.53372066767394e+17
19528.0	6.533471103789738e+17
19529.0	6.533923519594495e+17
19530.0	6.53373905759983e+17
19531.0	6.533524335798953e+17
19532.0	6.533093442366121e+17
19533.0	6.53265088876817e+17
19534.0	6.532773563771561e+17
19535.0	6.532308535694676e+17
19536.0	6.531752654798847e+17
19537.0	6.531257209629353e+17
19538.0	6.530630960895316e+17
19539.0	6.529152219174234e+17
19540.0	6.529505929024852e+17
19541.0	6.529378536128511e+17
19542.0	6.528706236732756e+17
19543.0	6.528022816139945e+17
19544.0	6.527334972653565e+17
19545.0	6.526082419960485e+17
19546.0	6.524348310836566e+17
19547.0	6.525133309083647e+17
19548.0	6.524389579292671e+17
19549.0	6.523431115816959e+17
19550.0	6.523155490624851e+17
19551.0	6.5224703475712e+17
19552.0	6.521651680946857e+17
19553.0	6.520793480211113e+17
19554.0	6.51991141388561e+17
19555.0	6.519106843617961e+17
19556.0	6.518264129650687e+17
19557.0	6.517387246785876e+17
19558.0	6.516502193416873e+17
19559.0	6.515572993600169e+17
19560.0	6.514663744689491e+17
19561.0	6.513752478318592e+17
19562.0	6.512867850671443e+17
19563.0	6.511945344264873e+17
19564.0	6.511027982172159e+17
19565.0	6.510410607187284e+17
19566.0	6.509416797612713e+17
19567.0	6.508505856999423e+17
19568.0	6.507493032547668e+17
19569.0	6.506530778120191e+17
19570.0	6.50559061299473e+17
19571.0	6.504606416065876e+17
19572.0	6.50373005189666e+17
19573.0	6.502789561013588e+17
19574.0	6.501636375576575e+17
19575.0	6.500794757021695e+17
19576.0	6.499783061536765e+17
19577.0	6.498657350189055e+17
19578.0	6.497677309815465e+17
19579.0	6.496668074988884e+17
19580.0	6.495645924502185e+17
19581.0	6.494623803375615e+17
19582.0	6.493612446930259e+17
19583.0	6.492567659085823e+17
19584.0	6.491518054782292e+17
19585.0	6.490272901540521e+17
19586.0	6.489164734267391e+17
19587.0	6.488294191792127e+17
19588.0	6.48650113941504e+17
19589.0	6.486166698196991e+17
19590.0	6.485014031455571e+17
19591.0	6.484064775875241e+17
19592.0	6.482999663831721e+17
19593.0	6.481888474562559e+17
19594.0	6.480679623021907e+17
19595.0	6.479980833800191e+17
19596.0	6.477974397605204e+17
19597.0	6.477815361481385e+17
19598.0	6.476304252316329e+17
19599.0	6.4756478640128e+17
19600.0	6.474562511656276e+17
19601.0	6.47335563563281e+17
19602.0	6.472299039424511e+17
19603.0	6.470562424902995e+17
19604.0	6.470081176054441e+17
19605.0	6.468535577127596e+17
19606.0	6.467918601300649e+17
19607.0	6.466822480767657e+17
19608.0	6.46569300992546e+17
19609.0	6.464506930659327e+17
19610.0	6.463489642070016e+17
19611.0	6.462354852850346e+17
19612.0	6.46125753344546e+17
19613.0	6.460113639090858e+17
19614.0	6.458943621911892e+17
19615.0	6.457889136836607e+17
19616.0	6.456730888874665e+17
19617.0	6.455637461783891e+17
19618.0	6.453709059915775e+17
19619.0	6.45226592364134e+17
19620.0	6.451213558786728e+17
19621.0	6.451115976906068e+17
19622.0	6.449990883519145e+17
19623.0	6.448862389949779e+17
19624.0	6.447711110823935e+17
19625.0	6.446592632553472e+17
19626.0	6.445438404132863e+17
19627.0	6.444320326418432e+17
19628.0	6.443055283787092e+17
19629.0	6.441894593342121e+17
19630.0	6.440833519714303e+17
19631.0	6.434704377686694e+17
19632.0	6.438614119131817e+17
19633.0	6.437400184793769e+17
19634.0	6.436335476801535e+17
19635.0	6.435122238018899e+17
19636.0	6.434029658876585e+17
19637.0	6.432219171476823e+17
19638.0	6.431740136521727e+17
19639.0	6.430593395632809e+17
19640.0	6.429356566686377e+17
19641.0	6.427337927862958e+17
19642.0	6.427150188718762e+17
19643.0	6.425972306520745e+17
19644.0	6.424770072892756e+17
19645.0	6.423293338845181e+17
19646.0	6.4225728280221e+17
19647.0	6.421422190624767e+17
19648.0	6.420262940224169e+17
19649.0	6.419106425208831e+17
19650.0	6.41796563673634e+17
19651.0	6.416802113039017e+17
19652.0	6.415646788506963e+17
19653.0	6.414505166766079e+17
19654.0	6.41333398147345e+17
19655.0	6.412173510530388e+17
19656.0	6.411030311032148e+17
19657.0	6.409874908206419e+17
19658.0	6.408731506682538e+17
19659.0	6.407573485912064e+17
19660.0	6.406425047029076e+17
19661.0	6.405260929837738e+17
19662.0	6.404112704864255e+17
19663.0	6.402880532993364e+17
19664.0	6.401765863150932e+17
19665.0	6.400642272023891e+17
