# Flux units: erg / (cm m2 s)
# Wavelength units: Angstrom
wave	flux
19000.0	5.1159411042112845e+17
19001.0	5.114846078391635e+17
19002.0	5.1140579875444045e+17
19003.0	5.113108485199189e+17
19004.0	5.112163365901653e+17
19005.0	5.111205619651924e+17
19006.0	5.110271468459349e+17
19007.0	5.1093353095932576e+17
19008.0	5.108284813301076e+17
19009.0	5.107303128760319e+17
19010.0	5.105652247210664e+17
19011.0	5.105497519336106e+17
19012.0	5.10442493514001e+17
19013.0	5.1036575340953594e+17
19014.0	5.1026391228306765e+17
19015.0	5.1016985389738656e+17
19016.0	5.100728427915945e+17
19017.0	5.099892917665791e+17
19018.0	5.09892546929186e+17
19019.0	5.097992063287294e+17
19020.0	5.097036990207317e+17
19021.0	5.096121265990315e+17
19022.0	5.095172310302719e+17
19023.0	5.094184404211028e+17
19024.0	5.093255778314921e+17
19025.0	5.092350388163924e+17
19026.0	5.0913696424482125e+17
19027.0	5.0904098808354125e+17
19028.0	5.089533669059242e+17
19029.0	5.0885650728441165e+17
19030.0	5.0876644453253114e+17
19031.0	5.086731555919189e+17
19032.0	5.085777285349375e+17
19033.0	5.0847021747841683e+17
19034.0	5.083885998877354e+17
19035.0	5.0829096124416e+17
19036.0	5.0758766740985146e+17
19037.0	5.08107123991074e+17
19038.0	5.0801198060885325e+17
19039.0	5.0792121880630605e+17
19040.0	5.0782822500488525e+17
19041.0	5.077331957077332e+17
19042.0	5.0761082143593805e+17
19043.0	5.0754697357339296e+17
19044.0	5.074514766113449e+17
19045.0	5.07359450435857e+17
19046.0	5.0725535801671674e+17
19047.0	5.0716946796817056e+17
19048.0	5.0703862840251725e+17
19049.0	5.069432779614889e+17
19050.0	5.068824901233322e+17
19051.0	5.0670587448306336e+17
19052.0	5.066904119017471e+17
19053.0	5.066104545563989e+17
19054.0	5.0651692612102816e+17
19055.0	5.063792704618496e+17
19056.0	5.063235952705535e+17
19057.0	5.0623534795325434e+17
19058.0	5.0612515107416723e+17
19059.0	5.060424637961557e+17
19060.0	5.0595220873543674e+17
19061.0	5.058628007843157e+17
19062.0	5.057685424701439e+17
19063.0	5.0567553238084256e+17
19064.0	5.0556228847970976e+17
19065.0	5.054632916505941e+17
19066.0	5.0538160345579514e+17
19067.0	5.053006599596714e+17
19068.0	5.0520923783386445e+17
19069.0	5.0511623613317114e+17
19070.0	5.0501822783160314e+17
19071.0	5.049289923362815e+17
19072.0	5.0483045743984634e+17
19073.0	5.0474266198889805e+17
19074.0	5.046503553542825e+17
19075.0	5.0455722118348794e+17
19076.0	5.0446074883604474e+17
19077.0	5.043682110952788e+17
19078.0	5.042706504657579e+17
19079.0	5.041843674808318e+17
19080.0	5.0408961794375674e+17
19081.0	5.039917748977662e+17
19082.0	5.0389882828226554e+17
19083.0	5.0379928060122445e+17
19084.0	5.0368825625586336e+17
19085.0	5.036246995479209e+17
19086.0	5.034729666860373e+17
19087.0	5.034132044251135e+17
19088.0	5.033292043998548e+17
19089.0	5.032222921501354e+17
19090.0	5.031584843431934e+17
19091.0	5.030644656635904e+17
19092.0	5.02955600056593e+17
19093.0	5.028841778402644e+17
19094.0	5.0279145813661005e+17
19095.0	5.0269871885953696e+17
19096.0	5.0260321742356474e+17
19097.0	5.025129048309759e+17
19098.0	5.02413117165841e+17
19099.0	5.023190815692115e+17
19100.0	5.022313117734228e+17
19101.0	5.02142154641681e+17
19102.0	5.0202868459765754e+17
19103.0	5.0195647692799994e+17
19104.0	5.018649406472192e+17
19105.0	5.01757264265216e+17
19106.0	5.0167723303021216e+17
19107.0	5.015805599154175e+17
19108.0	5.014892886447445e+17
19109.0	5.013665036806826e+17
19110.0	5.0130882955400525e+17
19111.0	5.0121329868799994e+17
19112.0	5.0112016920084474e+17
19113.0	5.010319620789588e+17
19114.0	5.009367565511338e+17
19115.0	5.008387745338708e+17
19116.0	5.0075235796036256e+17
19117.0	5.0065964972113914e+17
19118.0	5.005561254204755e+17
19119.0	4.988785256650044e+17
19120.0	5.003793030010196e+17
19121.0	5.0029048658657274e+17
19122.0	5.002019930636287e+17
19123.0	5.0010982218465274e+17
19124.0	5.00015231541794e+17
19125.0	4.9992514760867834e+17
19126.0	4.9983199407418016e+17
19127.0	4.994420329938943e+17
19128.0	4.996449170008746e+17
19129.0	4.995449691133268e+17
19130.0	4.994623574026921e+17
19131.0	4.993722793416019e+17
19132.0	4.9928018319114234e+17
19133.0	4.991789507979945e+17
19134.0	4.990951623753727e+17
19135.0	4.9900415639442765e+17
19136.0	4.9891307470629536e+17
19137.0	4.987943208878079e+17
19138.0	4.9872689087993165e+17
19139.0	4.9863728768395936e+17
19140.0	4.985456153679188e+17
19141.0	4.984537620676607e+17
19142.0	4.983579169783808e+17
19143.0	4.9826024373179725e+17
19144.0	4.981725741099689e+17
19145.0	4.980859925605034e+17
19146.0	4.978984395735041e+17
19147.0	4.9788638360589645e+17
19148.0	4.9780577747162445e+17
19149.0	4.977123104828074e+17
19150.0	4.976266855841791e+17
19151.0	4.9753548645553485e+17
19152.0	4.9744357702150816e+17
19153.0	4.973389749944319e+17
19154.0	4.9723967799295994e+17
19155.0	4.9716982360746656e+17
19156.0	4.970778809685332e+17
19157.0	4.9698204203089914e+17
19158.0	4.9686326150867616e+17
19159.0	4.968002847331668e+17
19160.0	4.967104228185428e+17
19161.0	4.9662037209033376e+17
19162.0	4.9647205409095674e+17
19163.0	4.9643634881986554e+17
19164.0	4.963463096259924e+17
19165.0	4.962402179918506e+17
19166.0	4.961403502854143e+17
19167.0	4.96067135283746e+17
19168.0	4.959802611116714e+17
19169.0	4.9588764941134496e+17
19170.0	4.9579830535345485e+17
19171.0	4.957034621435903e+17
19172.0	4.956156307614378e+17
19173.0	4.955245631242239e+17
19174.0	4.954231642871125e+17
19175.0	4.953416095410858e+17
19176.0	4.952504566895956e+17
19177.0	4.951356796305407e+17
19178.0	4.950673725237931e+17
19179.0	4.9497234602284365e+17
19180.0	4.948849625923583e+17
19181.0	4.9477012702276256e+17
19182.0	4.9470148982429e+17
19183.0	4.946133606465536e+17
19184.0	4.9452134761321805e+17
19185.0	4.9442949445277005e+17
19186.0	4.9433989006841165e+17
19187.0	4.9424003683232416e+17
19188.0	4.9415766692331514e+17
19189.0	4.9406763087517005e+17
19190.0	4.9397648711133856e+17
19191.0	4.9388082461409274e+17
19192.0	4.9379471065961805e+17
19193.0	4.937014707224575e+17
19194.0	4.93608686915857e+17
19195.0	4.9352184895460685e+17
19196.0	4.9342824334404275e+17
19197.0	4.933385740877823e+17
19198.0	4.9324734329214285e+17
19199.0	4.928200649299283e+17
19200.0	4.928405160766124e+17
19201.0	4.9297552750673914e+17
19202.0	4.928863684176553e+17
19203.0	4.927949875358378e+17
19204.0	4.926965317020329e+17
19205.0	4.9260594983512736e+17
19206.0	4.925142821328213e+17
19207.0	4.9240862558781434e+17
19208.0	4.922941310850387e+17
19209.0	4.9224303859029325e+17
19210.0	4.9215281281979725e+17
19211.0	4.920643009817258e+17
19212.0	4.9197324341084154e+17
19213.0	4.918685151352149e+17
19214.0	4.9177324165966496e+17
19215.0	4.917009888313343e+17
19216.0	4.916117163562326e+17
19217.0	4.9152008053063674e+17
19218.0	4.912989436116989e+17
19219.0	4.9131890220728314e+17
19220.0	4.9124621960260256e+17
19221.0	4.9110692746581325e+17
19222.0	4.910682025754624e+17
19223.0	4.9097519828828154e+17
19224.0	4.908817977092778e+17
19225.0	4.907742310782293e+17
19226.0	4.907042418458623e+17
19227.0	4.90614488633617e+17
19228.0	4.905277186200917e+17
19229.0	4.9043733143879674e+17
19230.0	4.903457840431103e+17
19231.0	4.9025500231761914e+17
19232.0	4.9016557723975674e+17
19233.0	4.9006608184770554e+17
19234.0	4.8998245602426874e+17
19235.0	4.8989112169922554e+17
19236.0	4.8980584185200634e+17
19237.0	4.897128033812479e+17
19238.0	4.8961056211817805e+17
19239.0	4.895359028778324e+17
19240.0	4.894444192355669e+17
19241.0	4.893522447914324e+17
19242.0	4.8926326682637645e+17
19243.0	4.891518726133076e+17
19244.0	4.890857210292906e+17
19245.0	4.889949047007914e+17
19246.0	4.889028971899561e+17
19247.0	4.8881437514574496e+17
19248.0	4.8872583310868474e+17
19249.0	4.886349286298966e+17
19250.0	4.885405135186601e+17
19251.0	4.884360631855785e+17
19252.0	4.8832532684909216e+17
19253.0	4.882715626526037e+17
19254.0	4.881861482381311e+17
19255.0	4.880691897215657e+17
19256.0	4.880015549617493e+17
19257.0	4.879163996154538e+17
19258.0	4.8782677335080954e+17
19259.0	4.8772667803347616e+17
19260.0	4.8763145020593485e+17
19261.0	4.875553788133375e+17
19262.0	4.8745876246145696e+17
19263.0	4.873672986722303e+17
19264.0	4.871939213841748e+17
19265.0	4.8716321041066656e+17
19266.0	4.870530541464234e+17
19267.0	4.8701902491921056e+17
19268.0	4.869282538192896e+17
19269.0	4.868390037837141e+17
19270.0	4.8674943938505376e+17
19271.0	4.866016518952278e+17
19272.0	4.865647931905364e+17
19273.0	4.864059257476435e+17
19274.0	4.863162295779327e+17
19275.0	4.863015353931093e+17
19276.0	4.862087462038187e+17
19277.0	4.8612009944896845e+17
19278.0	4.8603063263778125e+17
19279.0	4.859391112467795e+17
19280.0	4.8583795386176845e+17
19281.0	4.8576104486666234e+17
19282.0	4.85674203549969e+17
19283.0	4.85579597877521e+17
19284.0	4.854909232305492e+17
19285.0	4.853787741126655e+17
19286.0	4.85310014230801e+17
19287.0	4.8522590116904954e+17
19288.0	4.849697344017748e+17
19289.0	4.846367741225636e+17
19290.0	4.849572955641172e+17
19291.0	4.8483016187576326e+17
19292.0	4.8477857557162656e+17
19293.0	4.846878942298111e+17
19294.0	4.8459791375619405e+17
19295.0	4.845099500437502e+17
19296.0	4.844127561362089e+17
19297.0	4.8432585169524045e+17
19298.0	4.842364557677908e+17
19299.0	4.8414392012417696e+17
19300.0	4.840602055213055e+17
19301.0	4.8397143936860154e+17
19302.0	4.838805353791487e+17
19303.0	4.837811228246015e+17
19304.0	4.8369824456594765e+17
19305.0	4.836109455108777e+17
19306.0	4.835227849457663e+17
19307.0	4.834266317848576e+17
19308.0	4.8334052027706016e+17
19309.0	4.8324084292212045e+17
19310.0	4.831452146783571e+17
19311.0	4.830694853312511e+17
19312.0	4.82984372277521e+17
19313.0	4.8289646882324474e+17
19314.0	4.814912053663062e+17
19315.0	4.8151115948796755e+17
19316.0	4.826169927707306e+17
19317.0	4.8253567024933536e+17
19318.0	4.824459364706987e+17
19319.0	4.823584773330261e+17
19320.0	4.822659695116288e+17
19321.0	4.821733666892458e+17
19322.0	4.8207801219372365e+17
19323.0	4.819937424048128e+17
19324.0	4.81908640256273e+17
19325.0	4.8180809810575354e+17
19326.0	4.81729798279441e+17
19327.0	4.8163718643930445e+17
19328.0	4.815369593509204e+17
19329.0	4.81460041687586e+17
19330.0	4.813635112490324e+17
19331.0	4.8127251162944845e+17
19332.0	4.811891608125439e+17
19333.0	4.810975077903017e+17
19334.0	4.810084794935978e+17
19335.0	4.80892822749184e+17
19336.0	4.808274863281492e+17
19337.0	4.807369365476693e+17
19338.0	4.806141053763583e+17
19339.0	4.805560403405482e+17
19340.0	4.804287725742762e+17
19341.0	4.8035566697403725e+17
19342.0	4.802194928828415e+17
19343.0	4.8019278334525434e+17
19344.0	4.8009149139298976e+17
19345.0	4.796502775256397e+17
19346.0	4.7975717998865043e+17
19347.0	4.7978716947196576e+17
19348.0	4.797190390852265e+17
19349.0	4.796227937195348e+17
19350.0	4.7952735568745805e+17
19351.0	4.794385515763029e+17
19352.0	4.7932871254125216e+17
19353.0	4.792615859213653e+17
19354.0	4.791700247543807e+17
19355.0	4.790626423930879e+17
19356.0	4.7898522134336845e+17
19357.0	4.788932452199082e+17
19358.0	4.788002837845332e+17
19359.0	4.7869770704704845e+17
19360.0	4.7859848009045325e+17
19361.0	4.78515685368354e+17
19362.0	4.7842885369856e+17
19363.0	4.7833527884622496e+17
19364.0	4.7824134447213216e+17
19365.0	4.781475671048191e+17
19366.0	4.780533411566932e+17
19367.0	4.779590113995434e+17
19368.0	4.778645417623551e+17
19369.0	4.777620146574677e+17
19370.0	4.77666366141235e+17
19371.0	4.775704440864766e+17
19372.0	4.7748277516369914e+17
19373.0	4.773836013349546e+17
19374.0	4.7728727494929056e+17
19375.0	4.771648664939177e+17
19376.0	4.7706808341845325e+17
19377.0	4.769685018334549e+17
19378.0	4.768707783251283e+17
19379.0	4.767724728571221e+17
19380.0	4.7667327714809165e+17
19381.0	4.765726119646548e+17
19382.0	4.7646196272988154e+17
19383.0	4.763542521643007e+17
19384.0	4.7626820811489274e+17
19385.0	4.7616723793565005e+17
19386.0	4.7606475536029005e+17
19387.0	4.7592577562924365e+17
19388.0	4.7581761543427405e+17
19389.0	4.757115851767807e+17
19390.0	4.7560444699388576e+17
19391.0	4.7492617798505715e+17
19392.0	4.753797679153151e+17
19393.0	4.7527815635708576e+17
19394.0	4.7512429027218765e+17
19395.0	4.749980257834324e+17
19396.0	4.7488722338665805e+17
19397.0	4.747734747709439e+17
19398.0	4.746486002046293e+17
19399.0	4.743365827144361e+17
19400.0	4.7431211957616634e+17
19401.0	4.7419550918683296e+17
19402.0	4.740354151896405e+17
19403.0	4.738578312243882e+17
19404.0	4.73729845113651e+17
19405.0	4.735252246648149e+17
19406.0	4.7335660364759034e+17
19407.0	4.73161630028049e+17
19408.0	4.728129251005783e+17
19409.0	4.7276032901775354e+17
19410.0	4.725794251210751e+17
19411.0	4.724231227047936e+17
19412.0	4.7224981567133005e+17
19413.0	4.7203560515611296e+17
19414.0	4.718617962741759e+17
19415.0	4.716881450281642e+17
19416.0	4.71481409741346e+17
19417.0	4.7130989171834874e+17
19418.0	4.71043471835136e+17
19419.0	4.7082125229643085e+17
19420.0	4.706062385719978e+17
19421.0	4.702953848613547e+17
19422.0	4.7000573922945696e+17
19423.0	4.696783566056106e+17
19424.0	4.693177679566164e+17
19425.0	4.6882621538085504e+17
19426.0	4.68322516939571e+17
19427.0	4.6767847911369344e+17
19428.0	4.6688048411661664e+17
19429.0	4.657244998205435e+17
19430.0	4.6422914481083795e+17
19431.0	4.630086031856983e+17
19432.0	4.624673955730772e+17
19433.0	4.6175537709711354e+17
19434.0	4.60990062718703e+17
19435.0	4.601858755308202e+17
19436.0	4.592166407329108e+17
19437.0	4.5830796714093203e+17
19438.0	4.5609990823608346e+17
19439.0	4.5567629373822246e+17
19440.0	4.5333309659545536e+17
19441.0	4.48681580604075e+17
19442.0	4.44671508541167e+17
19443.0	4.4163883709672096e+17
19444.0	4.383919105376254e+17
19445.0	4.348944934327638e+17
19446.0	4.313517630248275e+17
19447.0	4.2665510304044346e+17
19448.0	4.1403534058455277e+17
19449.0	4.011963627601915e+17
19450.0	3.613560352538692e+17
19451.0	3.404317022224397e+17
19452.0	3.871302906893673e+17
19453.0	4.0781477678066406e+17
19454.0	4.2091763721393414e+17
19455.0	4.2885538032298624e+17
19456.0	4.3241450766336006e+17
19457.0	4.35783891890995e+17
19458.0	4.3510668592852256e+17
19459.0	4.418684790855008e+17
19460.0	4.449146210964814e+17
19461.0	4.498822487080955e+17
19462.0	4.529278295911087e+17
19463.0	4.545906879758334e+17
19464.0	4.5564920755213664e+17
19465.0	4.565331583085225e+17
19466.0	4.572739824254976e+17
19467.0	4.5797107533086714e+17
19468.0	4.5856708152524794e+17
19469.0	4.590997046558719e+17
19470.0	4.5964549706219514e+17
19471.0	4.602289589321727e+17
19472.0	4.615534433097044e+17
19473.0	4.6263126031947104e+17
19474.0	4.633995127379284e+17
19475.0	4.6382240008328506e+17
19476.0	4.6438838449821e+17
19477.0	4.6468883633493306e+17
19478.0	4.6488158543544314e+17
19479.0	4.651272758799017e+17
19480.0	4.6520415691298125e+17
19481.0	4.653615231445674e+17
19482.0	4.654405098580649e+17
19483.0	4.6548406162336416e+17
19484.0	4.655620220605781e+17
19485.0	4.656130079500969e+17
19486.0	4.656210701713407e+17
19487.0	4.6564499315316045e+17
19488.0	4.6564972558636365e+17
19489.0	4.656349647820117e+17
19490.0	4.654299217570471e+17
19491.0	4.656726166295893e+17
19492.0	4.6566124510248954e+17
19493.0	4.6569792436087443e+17
19494.0	4.6568246506509645e+17
19495.0	4.657636886708223e+17
19496.0	4.656574083629054e+17
19497.0	4.657596003429035e+17
19498.0	4.657028900672853e+17
19499.0	4.647846599633571e+17
19500.0	4.6573285186819405e+17
19501.0	4.6570077977313274e+17
19502.0	4.6565052138564256e+17
19503.0	4.656270367085908e+17
19504.0	4.656367900033023e+17
19505.0	4.6558133053904205e+17
19506.0	4.6552550113716896e+17
19507.0	4.6546262069084154e+17
19508.0	4.6541141425083725e+17
19509.0	4.653939351180629e+17
19510.0	4.652949503825236e+17
19511.0	4.6313385111497235e+17
19512.0	4.6506714507946624e+17
19513.0	4.648272321489573e+17
19514.0	4.648817683770025e+17
19515.0	4.649221040898049e+17
19516.0	4.649480902497619e+17
19517.0	4.6489078382373536e+17
19518.0	4.6483192879076685e+17
19519.0	4.647605854273534e+17
19520.0	4.646793287565311e+17
19521.0	4.646220258257578e+17
19522.0	4.645432876946772e+17
19523.0	4.6447479540940794e+17
19524.0	4.6439762867432096e+17
19525.0	4.643286412514645e+17
19526.0	4.6425682505018016e+17
19527.0	4.6418090653996365e+17
19528.0	4.641051820163071e+17
19529.0	4.6402926008074234e+17
19530.0	4.6397322767455565e+17
19531.0	4.639066226862762e+17
19532.0	4.638304359503189e+17
19533.0	4.637539527469739e+17
19534.0	4.6367666214010874e+17
19535.0	4.635972710258004e+17
19536.0	4.635163526955007e+17
19537.0	4.6344523582450336e+17
19538.0	4.6334211228958726e+17
19539.0	4.631910819037186e+17
19540.0	4.632068493410302e+17
19541.0	4.631303971056297e+17
19542.0	4.6305230287011834e+17
19543.0	4.629655346042197e+17
19544.0	4.628951623619925e+17
19545.0	4.6273623808628026e+17
19546.0	4.6258117949085005e+17
19547.0	4.6265967050752e+17
19548.0	4.625809404854272e+17
19549.0	4.6248657808261114e+17
19550.0	4.6242153659105274e+17
19551.0	4.6234210800762874e+17
19552.0	4.622619672313855e+17
19553.0	4.6217808219996154e+17
19554.0	4.620946897895423e+17
19555.0	4.62018199106355e+17
19556.0	4.619406504099839e+17
19557.0	4.618601601084074e+17
19558.0	4.6177956578809165e+17
19559.0	4.6169928191617696e+17
19560.0	4.616117306436266e+17
19561.0	4.6153386045385376e+17
19562.0	4.6145305781643936e+17
19563.0	4.6137666758683296e+17
19564.0	4.61295738491153e+17
19565.0	4.6121432075905696e+17
19566.0	4.611286575524523e+17
19567.0	4.610524734728874e+17
19568.0	4.609680394769749e+17
19569.0	4.608866398502911e+17
19570.0	4.6080900125600416e+17
19571.0	4.607267672424447e+17
19572.0	4.606428144730111e+17
19573.0	4.605774485520384e+17
19574.0	4.604863243616256e+17
19575.0	4.6041838411666765e+17
19576.0	4.603361851255466e+17
19577.0	4.602503703647572e+17
19578.0	4.601666665971711e+17
19579.0	4.6008848106564256e+17
19580.0	4.6000703865705805e+17
19581.0	4.5992656261611514e+17
19582.0	4.598479431838378e+17
19583.0	4.5976628770461005e+17
19584.0	4.5968395533462176e+17
19585.0	4.59585438613504e+17
19586.0	4.594994972546389e+17
19587.0	4.594370240053247e+17
19588.0	4.5927830217468595e+17
19589.0	4.592724110650026e+17
19590.0	4.5917234063387296e+17
19591.0	4.5911090771176096e+17
19592.0	4.5902972010714445e+17
19593.0	4.58944703102976e+17
19594.0	4.5882724798081696e+17
19595.0	4.58779329106193e+17
19596.0	4.586939726430208e+17
19597.0	4.586189423465813e+17
19598.0	4.584460783714302e+17
19599.0	4.584562840218281e+17
19600.0	4.5837583083984205e+17
19601.0	4.5828319593103366e+17
19602.0	4.58204156858641e+17
19603.0	4.5805607954240826e+17
19604.0	4.5804140248432634e+17
19605.0	4.5791857424902835e+17
19606.0	4.5788328449365325e+17
19607.0	4.5780276308432205e+17
19608.0	4.577180593247573e+17
19609.0	4.576304591885651e+17
19610.0	4.575523729921364e+17
19611.0	4.5746665931407354e+17
19612.0	4.5739337251990176e+17
19613.0	4.573099045421056e+17
19614.0	4.5722370663164576e+17
19615.0	4.571476616631636e+17
19616.0	4.570563565584382e+17
19617.0	4.569743614803966e+17
19618.0	4.568011811848191e+17
19619.0	4.5669378330460134e+17
19620.0	4.5661961885231763e+17
19621.0	4.5664666610128205e+17
19622.0	4.565747993586346e+17
19623.0	4.5649254961643514e+17
19624.0	4.564084923389268e+17
19625.0	4.5632937616124576e+17
19626.0	4.562464547012607e+17
19627.0	4.5616564024989005e+17
19628.0	4.560745294113451e+17
19629.0	4.5596549498361165e+17
19630.0	4.5590045691740154e+17
19631.0	4.5545360898129914e+17
19632.0	4.557554078187519e+17
19633.0	4.556688721969151e+17
19634.0	4.5559323435554125e+17
19635.0	4.55505050931473e+17
19636.0	4.554186427465727e+17
19637.0	4.552893789110272e+17
19638.0	4.552633547926185e+17
19639.0	4.551829597017429e+17
19640.0	4.55085068910592e+17
19641.0	4.547854720128347e+17
19642.0	4.5493769560828576e+17
19643.0	4.5485550493586765e+17
19644.0	4.547662016326313e+17
19645.0	4.5464716344033254e+17
19646.0	4.546021749161983e+17
19647.0	4.545314378394281e+17
19648.0	4.544496175240532e+17
19649.0	4.5436747816195405e+17
19650.0	4.542868253310976e+17
19651.0	4.54204659405073e+17
19652.0	4.541228138539691e+17
19653.0	4.5404217731099296e+17
19654.0	4.5395983368628896e+17
19655.0	4.538776697176064e+17
