# Flux units: erg / (cm m2 s)
# Wavelength units: Angstrom
wave	flux
19000.0	6.175743966270803e+17
19001.0	6.17451530363426e+17
19002.0	6.175021152075776e+17
19003.0	6.17476276477406e+17
19004.0	6.173599673789097e+17
19005.0	6.172470725836799e+17
19006.0	6.171317750814035e+17
19007.0	6.169881826645332e+17
19008.0	6.168964402337108e+17
19009.0	6.167773968684372e+17
19010.0	6.166350038827007e+17
19011.0	6.165455960014845e+17
19012.0	6.163365598593023e+17
19013.0	6.163240725774335e+17
19014.0	6.162045797225812e+17
19015.0	6.160908148189865e+17
19016.0	6.159743773048831e+17
19017.0	6.158626918673065e+17
19018.0	6.157414438360403e+17
19019.0	6.156322585531732e+17
19020.0	6.155156523581439e+17
19021.0	6.15402084307217e+17
19022.0	6.152879920381951e+17
19023.0	6.151697077021353e+17
19024.0	6.15054698488354e+17
19025.0	6.14931660398046e+17
19026.0	6.148145185903956e+17
19027.0	6.146161291296767e+17
19028.0	6.145960988114944e+17
19029.0	6.144798004783786e+17
19030.0	6.143663960053076e+17
19031.0	6.142548471622314e+17
19032.0	6.141407990732116e+17
19033.0	6.140187962769407e+17
19034.0	6.139093822646953e+17
19035.0	6.13785265119778e+17
19036.0	6.072715517624321e+17
19037.0	6.135615862429011e+17
19038.0	6.134483409436671e+17
19039.0	6.133355398212265e+17
19040.0	6.132206337873236e+17
19041.0	6.131054917539156e+17
19042.0	6.129780595709267e+17
19043.0	6.128759915326121e+17
19044.0	6.127594332225535e+17
19045.0	6.126427352421716e+17
19046.0	6.125269963593043e+17
19047.0	6.12414377828898e+17
19048.0	6.122838093550932e+17
19049.0	6.121699021247827e+17
19050.0	6.12067369357585e+17
19051.0	6.110415394177012e+17
19052.0	6.116365809920681e+17
19053.0	6.117197134954495e+17
19054.0	6.116117423936852e+17
19055.0	6.114758686146559e+17
19056.0	6.11380110696994e+17
19057.0	6.112662405163689e+17
19058.0	6.111396341918378e+17
19059.0	6.110357126206804e+17
19060.0	6.109206717399039e+17
19061.0	6.108086361478484e+17
19062.0	6.106935172530175e+17
19063.0	6.105789570394793e+17
19064.0	6.104553174859775e+17
19065.0	6.101534210610514e+17
19066.0	6.099865275378344e+17
19067.0	6.098781270791508e+17
19068.0	6.097638077584724e+17
19069.0	6.096493005329747e+17
19070.0	6.095329228576084e+17
19071.0	6.094167578334548e+17
19072.0	6.093025465161044e+17
19073.0	6.091909797074262e+17
19074.0	6.090769458790399e+17
19075.0	6.089625056225961e+17
19076.0	6.088465035471529e+17
19077.0	6.087324061750611e+17
19078.0	6.086171381727231e+17
19079.0	6.085046936360276e+17
19080.0	6.083891046995284e+17
19081.0	6.082730529215828e+17
19082.0	6.081583864523434e+17
19083.0	6.08039254167825e+17
19084.0	6.079155119237801e+17
19085.0	6.078183691867476e+17
19086.0	6.076675089498112e+17
19087.0	6.074040807238316e+17
19088.0	6.074582614147071e+17
19089.0	6.072514839751337e+17
19090.0	6.072431797425492e+17
19091.0	6.071296066584575e+17
19092.0	6.069673537131859e+17
19093.0	6.069047916145322e+17
19094.0	6.06790790292002e+17
19095.0	6.066766335705087e+17
19096.0	6.065608177920681e+17
19097.0	6.06448345363251e+17
19098.0	6.063321801992873e+17
19099.0	6.062176600413524e+17
19100.0	6.060965461579092e+17
19101.0	6.059887821848575e+17
19102.0	6.058702617094826e+17
19103.0	6.05764692615714e+17
19104.0	6.056506785005567e+17
19105.0	6.055310675061418e+17
19106.0	6.053878684450815e+17
19107.0	6.05305636528674e+17
19108.0	6.051919154555561e+17
19109.0	6.045700009754618e+17
19110.0	6.049470473743016e+17
19111.0	6.048494126454099e+17
19112.0	6.047371781734399e+17
19113.0	6.046256955304618e+17
19114.0	6.045106385016148e+17
19115.0	6.043802369611092e+17
19116.0	6.042826309631999e+17
19117.0	6.041684161505961e+17
19118.0	6.040188318209366e+17
19119.0	6.035515725141329e+17
19120.0	6.037761678464339e+17
19121.0	6.036757757820927e+17
19122.0	6.036021500182527e+17
19123.0	6.034884420173823e+17
19124.0	6.033451671792297e+17
19125.0	6.032555771953151e+17
19126.0	6.031458054788438e+17
19127.0	6.028947805787476e+17
19128.0	6.027484970964307e+17
19129.0	6.028009118455124e+17
19130.0	6.026915996849492e+17
19131.0	6.025742660577961e+17
19132.0	6.024660202291199e+17
19133.0	6.02314224312866e+17
19134.0	6.021636399213228e+17
19135.0	6.021233703387135e+17
19136.0	6.020125039788032e+17
19137.0	6.018862789864106e+17
19138.0	6.017779800298838e+17
19139.0	6.016719548055551e+17
19140.0	6.015589304762367e+17
19141.0	6.014455576002559e+17
19142.0	6.013285784616959e+17
19143.0	6.012145295338153e+17
19144.0	6.011025848882516e+17
19145.0	6.009907870433279e+17
19146.0	6.008295916219052e+17
19147.0	6.007568211465556e+17
19148.0	6.006472594249044e+17
19149.0	6.005345672145578e+17
19150.0	6.004251394310144e+17
19151.0	6.003123315277823e+17
19152.0	6.001928820140714e+17
19153.0	6.000812525704534e+17
19154.0	5.999623044857855e+17
19155.0	5.998578036812457e+17
19156.0	5.997459347428692e+17
19157.0	5.996232684077055e+17
19158.0	5.991686393386321e+17
19159.0	5.994033338559145e+17
19160.0	5.992862156062719e+17
19161.0	5.991655524706986e+17
19162.0	5.982805011289436e+17
19163.0	5.989249898425002e+17
19164.0	5.988410519628457e+17
19165.0	5.987086256220841e+17
19166.0	5.985856325506388e+17
19167.0	5.984271250489343e+17
19168.0	5.983852422671018e+17
19169.0	5.982603826604714e+17
19170.0	5.981629320615252e+17
19171.0	5.980011062362111e+17
19172.0	5.979329453708628e+17
19173.0	5.978217608030889e+17
19174.0	5.977079443095552e+17
19175.0	5.975996383625215e+17
19176.0	5.974867021135871e+17
19177.0	5.973617894490111e+17
19178.0	5.972393308018004e+17
19179.0	5.970804191789056e+17
19180.0	5.970229956618922e+17
19181.0	5.969127737567913e+17
19182.0	5.968055451866452e+17
19183.0	5.966949282480127e+17
19184.0	5.96579878838818e+17
19185.0	5.964706473487018e+17
19186.0	5.963581868736511e+17
19187.0	5.962384273309695e+17
19188.0	5.961297575280639e+17
19189.0	5.960119833591807e+17
19190.0	5.95895893762594e+17
19191.0	5.957827375224147e+17
19192.0	5.956806267721044e+17
19193.0	5.955628107300863e+17
19194.0	5.954508286853119e+17
19195.0	5.953413669978111e+17
19196.0	5.952276899648852e+17
19197.0	5.95112367296785e+17
19198.0	5.949881218760703e+17
19199.0	5.904924526597449e+17
19200.0	5.916495859854011e+17
19201.0	5.946522598375423e+17
19202.0	5.945500923243178e+17
19203.0	5.944272773010772e+17
19204.0	5.943242333880319e+17
19205.0	5.942151452732073e+17
19206.0	5.941024518045695e+17
19207.0	5.939826288579924e+17
19208.0	5.938624030485161e+17
19209.0	5.937644099163476e+17
19210.0	5.936529299996671e+17
19211.0	5.935409551551146e+17
19212.0	5.934281788489727e+17
19213.0	5.93268972855842e+17
19214.0	5.931349677091497e+17
19215.0	5.930709384429567e+17
19216.0	5.929773563204948e+17
19217.0	5.928647363919871e+17
19218.0	5.926856924594173e+17
19219.0	5.926277854789631e+17
19220.0	5.925226328795818e+17
19221.0	5.923880692613119e+17
19222.0	5.923006406022484e+17
19223.0	5.921876827526484e+17
19224.0	5.920728657078954e+17
19225.0	5.919526390595583e+17
19226.0	5.918496660302506e+17
19227.0	5.917367970998954e+17
19228.0	5.916260676840106e+17
19229.0	5.915133468125865e+17
19230.0	5.913944373854208e+17
19231.0	5.912825152492884e+17
19232.0	5.911734968298154e+17
19233.0	5.910560439446185e+17
19234.0	5.909479217081001e+17
19235.0	5.908353148518399e+17
19236.0	5.907241782389418e+17
19237.0	5.906101360219475e+17
19238.0	5.904841088608937e+17
19239.0	5.903857875943423e+17
19240.0	5.902693714711892e+17
19241.0	5.901573117618857e+17
19242.0	5.900458143689386e+17
19243.0	5.89922154123537e+17
19244.0	5.898217266872319e+17
19245.0	5.897088130875391e+17
19246.0	5.895946688790527e+17
19247.0	5.894828381088425e+17
19248.0	5.893686451066195e+17
19249.0	5.892542214176767e+17
19250.0	5.891413712218793e+17
19251.0	5.890194888021332e+17
19252.0	5.888975090745344e+17
19253.0	5.888028067233791e+17
19254.0	5.886905510002687e+17
19255.0	5.885651203391487e+17
19256.0	5.884574401822719e+17
19257.0	5.883513817530367e+17
19258.0	5.882387279904768e+17
19259.0	5.881202402306729e+17
19260.0	5.878910700311891e+17
19261.0	5.878976415268863e+17
19262.0	5.877808659518804e+17
19263.0	5.876665011230036e+17
19264.0	5.875160405333331e+17
19265.0	5.874291219715411e+17
19266.0	5.873148510251689e+17
19267.0	5.872177624645631e+17
19268.0	5.871040938901504e+17
19269.0	5.869903726772224e+17
19270.0	5.868763475869695e+17
19271.0	5.867363083048276e+17
19272.0	5.866460664561664e+17
19273.0	5.864119937444521e+17
19274.0	5.863375704337065e+17
19275.0	5.863068289116841e+17
19276.0	5.861911795772074e+17
19277.0	5.860770598354943e+17
19278.0	5.859629001080832e+17
19279.0	5.858419638534144e+17
19280.0	5.857053687939073e+17
19281.0	5.853447355454804e+17
19282.0	5.852307842050729e+17
19283.0	5.850432826682025e+17
19284.0	5.849441601497769e+17
19285.0	5.848717817719465e+17
19286.0	5.847686645284864e+17
19287.0	5.846556157323945e+17
19288.0	5.826430484436287e+17
19289.0	5.8051860648427e+17
19290.0	5.843093731409919e+17
19291.0	5.841749809299455e+17
19292.0	5.840790509759145e+17
19293.0	5.839627523631786e+17
19294.0	5.838466234100393e+17
19295.0	5.837314404821673e+17
19296.0	5.836126553462099e+17
19297.0	5.834940987998208e+17
19298.0	5.833803400478719e+17
19299.0	5.832628763972948e+17
19300.0	5.831484114643625e+17
19301.0	5.830315917093546e+17
19302.0	5.829134429891241e+17
19303.0	5.827902470531754e+17
19304.0	5.826771035357183e+17
19305.0	5.825607271186431e+17
19306.0	5.824404059586559e+17
19307.0	5.823167986313898e+17
19308.0	5.822009739750057e+17
19309.0	5.8191701372218e+17
19310.0	5.817537950384125e+17
19311.0	5.818269783730857e+17
19312.0	5.817326628066644e+17
19313.0	5.816134902568276e+17
19314.0	5.754177515596513e+17
19315.0	5.7561161347891616e+17
19316.0	5.812363773782698e+17
19317.0	5.811348132855807e+17
19318.0	5.810144786339156e+17
19319.0	5.808952326138537e+17
19320.0	5.807729432068095e+17
19321.0	5.806508815504724e+17
19322.0	5.80446006018048e+17
19323.0	5.80009588826658e+17
19324.0	5.799531764165289e+17
19325.0	5.796741216818519e+17
19326.0	5.797091594993663e+17
19327.0	5.795862396185257e+17
19328.0	5.794588477008554e+17
19329.0	5.793389472994644e+17
19330.0	5.792108996722687e+17
19331.0	5.790848182648831e+17
19332.0	5.789601136377855e+17
19333.0	5.788329370976255e+17
19334.0	5.78708194791697e+17
19335.0	5.785723264652628e+17
19336.0	5.784502813065215e+17
19337.0	5.78324443308578e+17
19338.0	5.781796025270272e+17
19339.0	5.78064704672017e+17
19340.0	5.77928583848482e+17
19341.0	5.777952601363796e+17
19342.0	5.773352471188817e+17
19343.0	5.771365343472297e+17
19344.0	5.769991320939178e+17
19345.0	5.767202391894696e+17
19346.0	5.76657904911428e+17
19347.0	5.765851919679487e+17
19348.0	5.7645764835628365e+17
19349.0	5.7631527053994656e+17
19350.0	5.7617416268895565e+17
19351.0	5.760374093643775e+17
19352.0	5.758878868307967e+17
19353.0	5.757399265356458e+17
19354.0	5.751576680813908e+17
19355.0	5.7500329427599354e+17
19356.0	5.7486212316091725e+17
19357.0	5.747126349507243e+17
19358.0	5.7455853650138445e+17
19359.0	5.744011546110634e+17
19360.0	5.742487301783551e+17
19361.0	5.740965590816084e+17
19362.0	5.736977325009579e+17
19363.0	5.735201309196287e+17
19364.0	5.7335772816779936e+17
19365.0	5.7319372382098765e+17
19366.0	5.730276365828094e+17
19367.0	5.7285860711028045e+17
19368.0	5.7268941364046496e+17
19369.0	5.7250881418035194e+17
19370.0	5.7232725841892685e+17
19371.0	5.7216139739354445e+17
19372.0	5.719856243889492e+17
19373.0	5.7180078861189114e+17
19374.0	5.716185835023017e+17
19375.0	5.7142990679135565e+17
19376.0	5.712401921299795e+17
19377.0	5.7104613923007136e+17
19378.0	5.708493638074366e+17
19379.0	5.7064945391151776e+17
19380.0	5.704457476112383e+17
19381.0	5.702383192855892e+17
19382.0	5.700214810389161e+17
19383.0	5.698029148089002e+17
19384.0	5.6959151119182496e+17
19385.0	5.693677872261803e+17
19386.0	5.691395056599038e+17
19387.0	5.6890529250891085e+17
19388.0	5.686674905716052e+17
19389.0	5.6842351524795725e+17
19390.0	5.6817238737769805e+17
19391.0	5.6250313876001434e+17
19392.0	5.6748148386693024e+17
19393.0	5.6739068019124896e+17
19394.0	5.671142712235349e+17
19395.0	5.668252294316032e+17
19396.0	5.665383135226538e+17
19397.0	5.662577722567337e+17
19398.0	5.659507634645673e+17
19399.0	5.6559162597485216e+17
19400.0	5.653204532461568e+17
19401.0	5.650006289678335e+17
19402.0	5.6466495714099194e+17
19403.0	5.643191454444202e+17
19404.0	5.639655613530111e+17
19405.0	5.6359964537869645e+17
19406.0	5.632269119127551e+17
19407.0	5.6284232121931085e+17
19408.0	5.623919088937643e+17
19409.0	5.6204093023409485e+17
19410.0	5.616255495045119e+17
19411.0	5.611838277069483e+17
19412.0	5.6070890869227514e+17
19413.0	5.6025302965070496e+17
19414.0	5.5978461844821325e+17
19415.0	5.593080911276713e+17
19416.0	5.587789465430698e+17
19417.0	5.582361518058153e+17
19418.0	5.578024332995242e+17
19419.0	5.572159030864553e+17
19420.0	5.5663917663955616e+17
19421.0	5.560784706863103e+17
19422.0	5.5549582390941e+17
19423.0	5.547796015524519e+17
19424.0	5.5413500378699085e+17
19425.0	5.533913373300052e+17
19426.0	5.526404057093459e+17
19427.0	5.5171446731352723e+17
19428.0	5.507544518055251e+17
19429.0	5.4957721140592614e+17
19430.0	5.479722289638062e+17
19431.0	5.452388305469455e+17
19432.0	5.4357863246943546e+17
19433.0	5.4055596772556826e+17
19434.0	5.387940260391594e+17
19435.0	5.369229449975122e+17
19436.0	5.347808461367974e+17
19437.0	5.3316035364782074e+17
19438.0	5.2298210002425517e+17
19439.0	5.281872568735062e+17
19440.0	5.261510978830334e+17
19441.0	5.234197191633578e+17
19442.0	5.198624515773777e+17
19443.0	5.1409179014157594e+17
19444.0	5.060885264815441e+17
19445.0	5.0018082923479046e+17
19446.0	4.9361817820637875e+17
19447.0	4.846714923341132e+17
19448.0	4.6946939484241914e+17
19449.0	4.499873416085502e+17
19450.0	4.032399419637748e+17
19451.0	3.8760100722114285e+17
19452.0	4.298188247444142e+17
19453.0	4.614024299107677e+17
19454.0	4.772342518863185e+17
19455.0	4.8914374621921274e+17
19456.0	4.962630121466541e+17
19457.0	5.022057245616807e+17
19458.0	4.968110458492379e+17
19459.0	5.151543630233647e+17
19460.0	5.201840628389201e+17
19461.0	5.230322128693932e+17
19462.0	5.254381412810752e+17
19463.0	5.276750125378216e+17
19464.0	5.2968891704060576e+17
19465.0	5.315803178773162e+17
19466.0	5.3325596050063334e+17
19467.0	5.3490890417984845e+17
19468.0	5.363732899867306e+17
19469.0	5.384934812286964e+17
19470.0	5.413481489279662e+17
19471.0	5.4337953410143526e+17
19472.0	5.447582952893098e+17
19473.0	5.4585814015453856e+17
19474.0	5.4673795560680083e+17
19475.0	5.4738603800002534e+17
19476.0	5.480049706095956e+17
19477.0	5.486403184667306e+17
19478.0	5.4906666045057696e+17
19479.0	5.495583969465685e+17
19480.0	5.499880860549119e+17
19481.0	5.503513320751103e+17
19482.0	5.5069618942771194e+17
19483.0	5.511045690949631e+17
19484.0	5.5142656965782176e+17
19485.0	5.5172295476729165e+17
19486.0	5.520053768290304e+17
19487.0	5.522830847027881e+17
19488.0	5.5254631894220794e+17
19489.0	5.527845993796949e+17
19490.0	5.5293161281071763e+17
19491.0	5.532981654104745e+17
19492.0	5.5351277662153363e+17
19493.0	5.5371221270091085e+17
19494.0	5.5390005893966496e+17
19495.0	5.5407571212697594e+17
19496.0	5.542110958714878e+17
19497.0	5.5439526174829216e+17
19498.0	5.536088803595602e+17
19499.0	5.464355549566283e+17
19500.0	5.5480717197093536e+17
19501.0	5.549263702458366e+17
19502.0	5.55032313401617e+17
19503.0	5.5513748725213856e+17
19504.0	5.552288870083241e+17
19505.0	5.5531593685183136e+17
19506.0	5.553933013483519e+17
19507.0	5.554617024075092e+17
19508.0	5.555264490394964e+17
19509.0	5.5558335973294086e+17
19510.0	5.556168114743977e+17
19511.0	5.4435453124389274e+17
19512.0	5.541909916636494e+17
19513.0	5.533815267131357e+17
19514.0	5.539258792848017e+17
19515.0	5.556962211834539e+17
19516.0	5.55818939388177e+17
19517.0	5.5582947813621766e+17
19518.0	5.5584197429602976e+17
19519.0	5.5584259763950925e+17
19520.0	5.5584300665405434e+17
19521.0	5.558447258293589e+17
19522.0	5.5583529927092896e+17
19523.0	5.558260829869396e+17
19524.0	5.5580974603304954e+17
19525.0	5.55794120642833e+17
19526.0	5.557748671097513e+17
19527.0	5.557513102906708e+17
19528.0	5.5572442675937274e+17
19529.0	5.5569566529836365e+17
19530.0	5.556651155958442e+17
19531.0	5.556310751838207e+17
19532.0	5.555946448573781e+17
19533.0	5.5555591528338765e+17
19534.0	5.555146875819347e+17
19535.0	5.5547110345058976e+17
19536.0	5.5542376332001274e+17
19537.0	5.553798180590931e+17
19538.0	5.55317428556049e+17
19539.0	5.5524044273527456e+17
19540.0	5.552257251322537e+17
19541.0	5.5517353100356256e+17
19542.0	5.5525085306770765e+17
19543.0	5.553004828688383e+17
19544.0	5.552433326107306e+17
19545.0	5.5514331216172365e+17
19546.0	5.550534633193471e+17
19547.0	5.550554299585877e+17
19548.0	5.549898297158315e+17
19549.0	5.549168166699007e+17
19550.0	5.5485627454805325e+17
19551.0	5.5490346032824294e+17
19552.0	5.551370059557545e+17
19553.0	5.550623175649962e+17
19554.0	5.5498790732649805e+17
19555.0	5.5491469393264634e+17
19556.0	5.5484044720209894e+17
19557.0	5.54764770423603e+17
19558.0	5.546881398603774e+17
19559.0	5.54610509025553e+17
19560.0	5.545292334104575e+17
19561.0	5.544516169061717e+17
19562.0	5.543730104762367e+17
19563.0	5.5429424689971194e+17
19564.0	5.5421356254167034e+17
19565.0	5.541322907014484e+17
19566.0	5.5434796195293894e+17
19567.0	5.543216220733438e+17
19568.0	5.542357350307156e+17
19569.0	5.54152327590707e+17
19570.0	5.5406799530666656e+17
19571.0	5.539820508020736e+17
19572.0	5.538944550699007e+17
19573.0	5.538083850158078e+17
19574.0	5.537169790380713e+17
19575.0	5.536364335813972e+17
19576.0	5.5354910236999686e+17
19577.0	5.53459369709841e+17
19578.0	5.533697555387732e+17
19579.0	5.5328249772769274e+17
19580.0	5.5319364489270605e+17
19581.0	5.531055659068074e+17
19582.0	5.530174357504e+17
19583.0	5.529277393709738e+17
19584.0	5.5283473718094496e+17
19585.0	5.527392477686441e+17
19586.0	5.52643947799074e+17
19587.0	5.5253741625234765e+17
19588.0	5.5243819118318925e+17
19589.0	5.523806660242089e+17
19590.0	5.5228271902938445e+17
19591.0	5.522002108481534e+17
19592.0	5.521088935100415e+17
19593.0	5.520149694818985e+17
19594.0	5.5210216682509626e+17
19595.0	5.521210669181609e+17
19596.0	5.5168059334546784e+17
19597.0	5.519202307801088e+17
19598.0	5.51815265526306e+17
19599.0	5.517511804059647e+17
19600.0	5.5165801365940896e+17
19601.0	5.515587065916074e+17
19602.0	5.514651661325653e+17
19603.0	5.512710865289213e+17
19604.0	5.512658049914196e+17
19605.0	5.511640816549887e+17
19606.0	5.510915273960106e+17
19607.0	5.509970503488852e+17
19608.0	5.5090058261517645e+17
19609.0	5.5080232076793165e+17
19610.0	5.5071003440578534e+17
19611.0	5.5061372675467936e+17
19612.0	5.505212503905621e+17
19613.0	5.504249574195199e+17
19614.0	5.50327119057169e+17
19615.0	5.502318643860821e+17
19616.0	5.5008689078490445e+17
19617.0	5.5003998791051936e+17
19618.0	5.499013742723071e+17
19619.0	5.4979627494058643e+17
19620.0	5.497012522145109e+17
19621.0	5.496549708660735e+17
19622.0	5.495624115945471e+17
19623.0	5.494660929683455e+17
19624.0	5.4936891996241914e+17
19625.0	5.4927276379559245e+17
19626.0	5.4917636645628576e+17
19627.0	5.490785476673534e+17
19628.0	5.488681199250092e+17
19629.0	5.488684951055017e+17
19630.0	5.4839008587066016e+17
19631.0	5.438619718953653e+17
19632.0	5.485900416942079e+17
19633.0	5.4848869486646605e+17
19634.0	5.484016362848255e+17
19635.0	5.4830428257430176e+17
19636.0	5.482097031861588e+17
19637.0	5.480860225983828e+17
19638.0	5.4801836148435616e+17
19639.0	5.479195989770239e+17
19640.0	5.4781447035508045e+17
19641.0	5.4766095785000966e+17
19642.0	5.476299513178793e+17
19643.0	5.4753096154917536e+17
19644.0	5.4743081701867514e+17
19645.0	5.473169306899796e+17
19646.0	5.472369883742207e+17
19647.0	5.4714320723203405e+17
19648.0	5.470459697736361e+17
19649.0	5.4694818656638285e+17
19650.0	5.4685079447797754e+17
19651.0	5.4675271221684896e+17
19652.0	5.466552809117013e+17
19653.0	5.465553092564308e+17
19654.0	5.464600998139221e+17
19655.0	5.4636202034899616e+17
19656.0	5.462641112427179e+17
19657.0	5.461668757416617e+17
19658.0	5.4606862521903776e+17
19659.0	5.459711321877162e+17
19660.0	5.458734533487273e+17
