# Flux units: erg / (cm m2 s)
# Wavelength units: Angstrom
wave	flux
19000.0	7.625311223021568e+17
19001.0	7.623834608511658e+17
19002.0	7.62241496383488e+17
19003.0	7.620964138702164e+17
19004.0	7.619511535184553e+17
19005.0	7.618068851195903e+17
19006.0	7.616623285720403e+17
19007.0	7.614787861086207e+17
19008.0	7.613694414422015e+17
19009.0	7.612271635202047e+17
19010.0	7.610697403858944e+17
19011.0	7.609376391036927e+17
19012.0	7.607624023408639e+17
19013.0	7.606490461022889e+17
19014.0	7.605025564000255e+17
19015.0	7.603587871233364e+17
19016.0	7.602140398747647e+17
19017.0	7.600472451274067e+17
19018.0	7.599227121871528e+17
19019.0	7.597814127962794e+17
19020.0	7.596341026881535e+17
19021.0	7.594909084505428e+17
19022.0	7.59348033818897e+17
19023.0	7.592023062216701e+17
19024.0	7.59058638447138e+17
19025.0	7.589106250940415e+17
19026.0	7.58766615343923e+17
19027.0	7.586093117472768e+17
19028.0	7.584815904369322e+17
19029.0	7.583366777929727e+17
19030.0	7.581934034441555e+17
19031.0	7.580491287538345e+17
19032.0	7.57904848331298e+17
19033.0	7.577580257411071e+17
19034.0	7.576156499520169e+17
19035.0	7.574708810328744e+17
19036.0	7.554062080453275e+17
19037.0	7.571833255624703e+17
19038.0	7.57038917213662e+17
19039.0	7.56895587639842e+17
19040.0	7.567515035107327e+17
19041.0	7.566071737352191e+17
19042.0	7.564607237390335e+17
19043.0	7.563194896394921e+17
19044.0	7.561749939093501e+17
19045.0	7.560302402295123e+17
19046.0	7.558831310285481e+17
19047.0	7.557434012860412e+17
19048.0	7.555937096521044e+17
19049.0	7.554536984717993e+17
19050.0	7.553105830871039e+17
19051.0	7.549822900196687e+17
19052.0	7.550106140147711e+17
19053.0	7.548709688573951e+17
19054.0	7.547368551481341e+17
19055.0	7.54585791557359e+17
19056.0	7.544479327540564e+17
19057.0	7.543048428148051e+17
19058.0	7.541520174765395e+17
19059.0	7.540184452519251e+17
19060.0	7.538738462020948e+17
19061.0	7.537311754136234e+17
19062.0	7.535873425233235e+17
19063.0	7.534441144516607e+17
19064.0	7.532968619453097e+17
19065.0	7.531514408118953e+17
19066.0	7.530116962495145e+17
19067.0	7.528698451678548e+17
19068.0	7.527268393943037e+17
19069.0	7.525834724911786e+17
19070.0	7.5243838242816e+17
19071.0	7.522954819316396e+17
19072.0	7.521533078885718e+17
19073.0	7.520100903026687e+17
19074.0	7.518669974274047e+17
19075.0	7.517237699149824e+17
19076.0	7.515799152143016e+17
19077.0	7.514371827695616e+17
19078.0	7.512896537187668e+17
19079.0	7.511511052320768e+17
19080.0	7.510075999169194e+17
19081.0	7.508634470012242e+17
19082.0	7.507187351246166e+17
19083.0	7.50575212892433e+17
19084.0	7.504283402502143e+17
19085.0	7.502921800002217e+17
19086.0	7.501364354263721e+17
19087.0	7.499671206013608e+17
19088.0	7.498608175043923e+17
19089.0	7.496946721751039e+17
19090.0	7.495772730469033e+17
19091.0	7.494343760456362e+17
19092.0	7.492817386121897e+17
19093.0	7.491500659878569e+17
19094.0	7.490034203972947e+17
19095.0	7.488593414411607e+17
19096.0	7.48711231758882e+17
19097.0	7.485775332857172e+17
19098.0	7.484365569960617e+17
19099.0	7.482935364026368e+17
19100.0	7.481483195318271e+17
19101.0	7.48007927648529e+17
19102.0	7.478642457531732e+17
19103.0	7.477240094785535e+17
19104.0	7.475816694808573e+17
19105.0	7.474392061706239e+17
19106.0	7.472891939520511e+17
19107.0	7.471539469418496e+17
19108.0	7.47011900126003e+17
19109.0	7.466387225531729e+17
19110.0	7.467260394340348e+17
19111.0	7.465841673808553e+17
19112.0	7.464423673298943e+17
19113.0	7.463005507813375e+17
19114.0	7.461585391976447e+17
19115.0	7.460127200247807e+17
19116.0	7.458735425323008e+17
19117.0	7.457316043489279e+17
19118.0	7.455800498847743e+17
19119.0	7.453944604611923e+17
19120.0	7.452955744316072e+17
19121.0	7.451576412493139e+17
19122.0	7.45021872607505e+17
19123.0	7.448779129094143e+17
19124.0	7.447302086765225e+17
19125.0	7.445904086095187e+17
19126.0	7.444362220797951e+17
19127.0	7.442660460243625e+17
19128.0	7.439443152251558e+17
19129.0	7.440259187649193e+17
19130.0	7.43886426420019e+17
19131.0	7.437367166107645e+17
19132.0	7.43603438826291e+17
19133.0	7.434120949574316e+17
19134.0	7.432099504761516e+17
19135.0	7.431779450006186e+17
19136.0	7.430368715429203e+17
19137.0	7.428901849879891e+17
19138.0	7.426938483594582e+17
19139.0	7.426113858262355e+17
19140.0	7.424706785312765e+17
19141.0	7.42329304341982e+17
19142.0	7.421863247129258e+17
19143.0	7.420436616140115e+17
19144.0	7.419014674382847e+17
19145.0	7.417624494691668e+17
19146.0	7.415975386633556e+17
19147.0	7.414785512920404e+17
19148.0	7.413381452879187e+17
19149.0	7.411971400575658e+17
19150.0	7.410509435371519e+17
19151.0	7.409157900599296e+17
19152.0	7.40770273436194e+17
19153.0	7.406323615050409e+17
19154.0	7.404887748203862e+17
19155.0	7.40350550413585e+17
19156.0	7.402098715000832e+17
19157.0	7.4006630760448e+17
19158.0	7.397648171182758e+17
19159.0	7.397856786077011e+17
19160.0	7.396396927811583e+17
19161.0	7.394802366676991e+17
19162.0	7.390095359344643e+17
19163.0	7.392209659057492e+17
19164.0	7.390820179815084e+17
19165.0	7.389375566446591e+17
19166.0	7.387932618216787e+17
19167.0	7.386258791727103e+17
19168.0	7.385117474073257e+17
19169.0	7.383712158537044e+17
19170.0	7.382369661091839e+17
19171.0	7.380841062378153e+17
19172.0	7.379543284602195e+17
19173.0	7.378144233958057e+17
19174.0	7.376728288657405e+17
19175.0	7.375336863257938e+17
19176.0	7.373927983961428e+17
19177.0	7.37248089874978e+17
19178.0	7.371089747378172e+17
19179.0	7.36952586198494e+17
19180.0	7.367246642238807e+17
19181.0	7.366857877793449e+17
19182.0	7.365379730964479e+17
19183.0	7.363971582874963e+17
19184.0	7.362578265844394e+17
19185.0	7.361275670211241e+17
19186.0	7.359878077786793e+17
19187.0	7.358442724043433e+17
19188.0	7.357040220089002e+17
19189.0	7.355562638092969e+17
19190.0	7.354140577497088e+17
19191.0	7.352803855608489e+17
19192.0	7.351292663256403e+17
19193.0	7.348375154327552e+17
19194.0	7.347937997400744e+17
19195.0	7.347121104966996e+17
19196.0	7.345836439983446e+17
19197.0	7.344430724590249e+17
19198.0	7.343003584692223e+17
19199.0	7.320862996125006e+17
19200.0	7.326919178234546e+17
19201.0	7.338803932954623e+17
19202.0	7.337428149512874e+17
19203.0	7.335993055816361e+17
19204.0	7.334620239145641e+17
19205.0	7.333231608550739e+17
19206.0	7.331832650181288e+17
19207.0	7.330411600412671e+17
19208.0	7.328972262080511e+17
19209.0	7.327612734362964e+17
19210.0	7.326226249853608e+17
19211.0	7.324826126865748e+17
19212.0	7.323437475299327e+17
19213.0	7.321819424664234e+17
19214.0	7.320306129567744e+17
19215.0	7.319161020263081e+17
19216.0	7.317789233993044e+17
19217.0	7.316438701659475e+17
19218.0	7.314814581866496e+17
19219.0	7.313595908663977e+17
19220.0	7.312222974552748e+17
19221.0	7.310730067967999e+17
19222.0	7.309451498706259e+17
19223.0	7.308045879782057e+17
19224.0	7.306568599775913e+17
19225.0	7.305195548224169e+17
19226.0	7.303851605142185e+17
19227.0	7.302451996655616e+17
19228.0	7.30106463134242e+17
19229.0	7.299667013752147e+17
19230.0	7.298173002667348e+17
19231.0	7.296779952674131e+17
19232.0	7.295407558230015e+17
19233.0	7.294052294721535e+17
19234.0	7.292672972685311e+17
19235.0	7.291273371189245e+17
19236.0	7.289880918185299e+17
19237.0	7.288484547701417e+17
19238.0	7.287033303138304e+17
19239.0	7.285687939585364e+17
19240.0	7.284164938869416e+17
19241.0	7.282857476445523e+17
19242.0	7.281477230264319e+17
19243.0	7.28005077963025e+17
19244.0	7.278707455907155e+17
19245.0	7.277310615661225e+17
19246.0	7.275911929921533e+17
19247.0	7.274508655613267e+17
19248.0	7.273113494487039e+17
19249.0	7.271712029321897e+17
19250.0	7.270315563767126e+17
19251.0	7.26889881735441e+17
19252.0	7.267404614729727e+17
19253.0	7.2661238560413e+17
19254.0	7.26471118229777e+17
19255.0	7.263272994603007e+17
19256.0	7.261863739217235e+17
19257.0	7.260536626479101e+17
19258.0	7.259137841474217e+17
19259.0	7.257720453332992e+17
19260.0	7.256191193317375e+17
19261.0	7.254944293847037e+17
19262.0	7.253532071690239e+17
19263.0	7.252137858476713e+17
19264.0	7.250604734109011e+17
19265.0	7.249303400961363e+17
19266.0	7.247922592743424e+17
19267.0	7.246555613145769e+17
19268.0	7.245143199449087e+17
19269.0	7.243756106765651e+17
19270.0	7.242334520126121e+17
19271.0	7.24084753310242e+17
19272.0	7.239544881545215e+17
19273.0	7.234780985469605e+17
19274.0	7.235094421613222e+17
19275.0	7.235350756502186e+17
19276.0	7.233943320046249e+17
19277.0	7.232537484416339e+17
19278.0	7.231135489370793e+17
19279.0	7.229637151162365e+17
19280.0	7.228311338658474e+17
19281.0	7.22692706734353e+17
19282.0	7.225525712628394e+17
19283.0	7.223769873514496e+17
19284.0	7.221863827985747e+17
19285.0	7.221233345800874e+17
19286.0	7.219894480622932e+17
19287.0	7.218497109098496e+17
19288.0	7.21271468082244e+17
19289.0	7.202405294101818e+17
19290.0	7.214272065044479e+17
19291.0	7.212784276908713e+17
19292.0	7.211451854181716e+17
19293.0	7.210038649159679e+17
19294.0	7.208622726228649e+17
19295.0	7.207214379608745e+17
19296.0	7.205800662881619e+17
19297.0	7.204374296133632e+17
19298.0	7.202964471720616e+17
19299.0	7.201550613785258e+17
19300.0	7.200132934838953e+17
19301.0	7.19871065194496e+17
19302.0	7.197285635762858e+17
19303.0	7.195836565247318e+17
19304.0	7.194428165499561e+17
19305.0	7.19302304150323e+17
19306.0	7.191584421795156e+17
19307.0	7.190132448821247e+17
19308.0	7.188723064810153e+17
19309.0	7.18673195180578e+17
19310.0	7.184902371235155e+17
19311.0	7.184400717097641e+17
19312.0	7.183013204983807e+17
19313.0	7.18144815497216e+17
19314.0	7.176359604387831e+17
19315.0	7.175145835724808e+17
19316.0	7.177257512599551e+17
19317.0	7.175842610282496e+17
19318.0	7.174397609639935e+17
19319.0	7.172958824955904e+17
19320.0	7.171475105295017e+17
19321.0	7.170062193874259e+17
19322.0	7.168533609141587e+17
19323.0	7.166797637047638e+17
19324.0	7.16569042887202e+17
19325.0	7.163888839688191e+17
19326.0	7.162777297398441e+17
19327.0	7.161304289989972e+17
19328.0	7.159850108015955e+17
19329.0	7.158380376358911e+17
19330.0	7.156895708785321e+17
19331.0	7.15541898801971e+17
19332.0	7.153943332607316e+17
19333.0	7.15245717885201e+17
19334.0	7.150936582870356e+17
19335.0	7.149492646182911e+17
19336.0	7.147989267819177e+17
19337.0	7.146495509790717e+17
19338.0	7.144937908862973e+17
19339.0	7.143486419632127e+17
19340.0	7.141966121446058e+17
19341.0	7.140462364196863e+17
19342.0	7.138790360831316e+17
19343.0	7.13740692697907e+17
19344.0	7.135869658639017e+17
19345.0	7.133770668135761e+17
19346.0	7.132641825740118e+17
19347.0	7.131211956748288e+17
19348.0	7.129685501323944e+17
19349.0	7.128104447246336e+17
19350.0	7.126530489931092e+17
19351.0	7.124965210630825e+17
19352.0	7.123371445015891e+17
19353.0	7.121801610701481e+17
19354.0	7.120194686156799e+17
19355.0	7.118558756601853e+17
19356.0	7.116966864442708e+17
19357.0	7.115337005443753e+17
19358.0	7.113665132101632e+17
19359.0	7.111867478573055e+17
19360.0	7.11037357654016e+17
19361.0	7.108687470526463e+17
19362.0	7.107033441151658e+17
19363.0	7.105336319497556e+17
19364.0	7.103623332189523e+17
19365.0	7.101892583402153e+17
19366.0	7.100157057302527e+17
19367.0	7.098398821842943e+17
19368.0	7.096634125757097e+17
19369.0	7.094772419614036e+17
19370.0	7.09261410767121e+17
19371.0	7.09120202252834e+17
19372.0	7.089374307024893e+17
19373.0	7.087498316480511e+17
19374.0	7.08561997013538e+17
19375.0	7.083696144951977e+17
19376.0	7.081757544633684e+17
19377.0	7.079813304374612e+17
19378.0	7.077825585960275e+17
19379.0	7.075807057586857e+17
19380.0	7.073756837052416e+17
19381.0	7.071671006877011e+17
19382.0	7.069529459567272e+17
19383.0	7.06737111966242e+17
19384.0	7.065210498056191e+17
19385.0	7.062975147933696e+17
19386.0	7.060687777256787e+17
19387.0	7.058360464222889e+17
19388.0	7.055988502822911e+17
19389.0	7.053556034393427e+17
19390.0	7.051002488990377e+17
19391.0	7.031685335307578e+17
19392.0	7.045868291795625e+17
19393.0	7.043233523695615e+17
19394.0	7.04047356121361e+17
19395.0	7.037626340431187e+17
19396.0	7.034681862127615e+17
19397.0	7.031734669410303e+17
19398.0	7.028623932391423e+17
19399.0	7.025251974119423e+17
19400.0	7.022108908104361e+17
19401.0	7.018693790444202e+17
19402.0	7.015107996068521e+17
19403.0	7.011421073528148e+17
19404.0	7.007596475755178e+17
19405.0	7.003603384401919e+17
19406.0	6.999415136277844e+17
19407.0	6.995077723324415e+17
19408.0	6.990323545451178e+17
19409.0	6.985689676993876e+17
19410.0	6.98074606477858e+17
19411.0	6.975484761298259e+17
19412.0	6.969924495518378e+17
19413.0	6.964114673543849e+17
19414.0	6.957980738824873e+17
19415.0	6.951459512560298e+17
19416.0	6.944441865251498e+17
19417.0	6.936888932477608e+17
19418.0	6.929526783912617e+17
19419.0	6.921198690631679e+17
19420.0	6.912570620728659e+17
19421.0	6.903155201671168e+17
19422.0	6.89310701663027e+17
19423.0	6.88235347129139e+17
19424.0	6.870793638816425e+17
19425.0	6.858373428062889e+17
19426.0	6.845061558610602e+17
19427.0	6.830819958762154e+17
19428.0	6.815596103947604e+17
19429.0	6.798935471423485e+17
19430.0	6.780372767473664e+17
19431.0	6.757662450515974e+17
19432.0	6.73946905293619e+17
19433.0	6.71592824770833e+17
19434.0	6.691642515914751e+17
19435.0	6.664966974559571e+17
19436.0	6.634640455150249e+17
19437.0	6.60373195928371e+17
19438.0	6.550346664334676e+17
19439.0	6.526696574418947e+17
19440.0	6.485344009235114e+17
19441.0	6.440454838375762e+17
19442.0	6.389364839940097e+17
19443.0	6.330495372973395e+17
19444.0	6.267215635196582e+17
19445.0	6.198743703486467e+17
19446.0	6.118697514390867e+17
19447.0	6.030093456157349e+17
19448.0	5.925749407438171e+17
19449.0	5.783600867136854e+17
19450.0	5.452797295547703e+17
19451.0	5.321346680619007e+17
19452.0	5.644565234406747e+17
19453.0	5.862921293441711e+17
19454.0	5.975236778393594e+17
19455.0	6.068104278835199e+17
19456.0	6.150522746699777e+17
19457.0	6.221884674102609e+17
19458.0	6.280391990181892e+17
19459.0	6.34378925235678e+17
19460.0	6.395904295348904e+17
19461.0	6.44114951578146e+17
19462.0	6.481292455575553e+17
19463.0	6.51992485732898e+17
19464.0	6.555974862460244e+17
19465.0	6.58748717592303e+17
19466.0	6.614734526043474e+17
19467.0	6.640596963120467e+17
19468.0	6.663197596931412e+17
19469.0	6.683908779278333e+17
19470.0	6.704474730354003e+17
19471.0	6.722344335354538e+17
19472.0	6.738598007843497e+17
19473.0	6.753206726033407e+17
19474.0	6.766436690515284e+17
19475.0	6.778272044023805e+17
19476.0	6.789387911517523e+17
19477.0	6.799682349738665e+17
19478.0	6.808853944117929e+17
19479.0	6.817326612960596e+17
19480.0	6.824977191927807e+17
19481.0	6.832012788061523e+17
19482.0	6.838395337353897e+17
19483.0	6.844168173256704e+17
19484.0	6.849409324504404e+17
19485.0	6.854271902067369e+17
19486.0	6.858637968408575e+17
19487.0	6.86264852484369e+17
19488.0	6.866268070783657e+17
19489.0	6.869541282556586e+17
19490.0	6.872176700074665e+17
19491.0	6.875237299781631e+17
19492.0	6.877682173564244e+17
19493.0	6.879861940071082e+17
19494.0	6.881845736811178e+17
19495.0	6.883554903108266e+17
19496.0	6.885053003639466e+17
19497.0	6.88659401679394e+17
19498.0	6.887011843571713e+17
19499.0	6.861468514036364e+17
19500.0	6.889839728612692e+17
19501.0	6.890639658582015e+17
19502.0	6.891363143865684e+17
19503.0	6.891950621851647e+17
19504.0	6.892393962580649e+17
19505.0	6.892822796610217e+17
19506.0	6.893117891062442e+17
19507.0	6.893318378793642e+17
19508.0	6.893455840116736e+17
19509.0	6.893503193109844e+17
19510.0	6.893426342275753e+17
19511.0	6.877328832812364e+17
19512.0	6.889885295531334e+17
19513.0	6.885551837107526e+17
19514.0	6.887651772028238e+17
19515.0	6.892025666338816e+17
19516.0	6.892129209723562e+17
19517.0	6.891695281012735e+17
19518.0	6.891288686581076e+17
19519.0	6.890812510743209e+17
19520.0	6.890296073781247e+17
19521.0	6.889750805173588e+17
19522.0	6.889152023538345e+17
19523.0	6.8885484156573e+17
19524.0	6.887900931861161e+17
19525.0	6.887203384852479e+17
19526.0	6.886521308534099e+17
19527.0	6.88579907035682e+17
19528.0	6.885051957859667e+17
19529.0	6.884283505442816e+17
19530.0	6.883492744222035e+17
19531.0	6.882680568982186e+17
19532.0	6.881848765797716e+17
19533.0	6.881000478299476e+17
19534.0	6.880139798730068e+17
19535.0	6.879255168985768e+17
19536.0	6.878350433146195e+17
19537.0	6.877449656729599e+17
19538.0	6.876513906109097e+17
19539.0	6.875431363936256e+17
19540.0	6.874622336521556e+17
19541.0	6.873666010043732e+17
19542.0	6.872688332461396e+17
19543.0	6.87170249695778e+17
19544.0	6.870705710825471e+17
19545.0	6.869607658815487e+17
19546.0	6.868430636449791e+17
19547.0	6.867633929104041e+17
19548.0	6.866619563944617e+17
19549.0	6.865552228919977e+17
19550.0	6.86453964214545e+17
19551.0	6.863482805463722e+17
19552.0	6.862417586465449e+17
19553.0	6.861340821946365e+17
19554.0	6.860257372405759e+17
19555.0	6.859178779869183e+17
19556.0	6.8580911625885e+17
19557.0	6.856987161657343e+17
19558.0	6.855892730030761e+17
19559.0	6.854770990688937e+17
19560.0	6.853664666812415e+17
19561.0	6.852547389510996e+17
19562.0	6.851432618306217e+17
19563.0	6.850297423637161e+17
19564.0	6.849179528374953e+17
19565.0	6.848047109636095e+17
19566.0	6.846900507159209e+17
19567.0	6.845759495689556e+17
19568.0	6.844609871915689e+17
19569.0	6.843458197127165e+17
19570.0	6.842317375100243e+17
19571.0	6.841160428770644e+17
19572.0	6.839991539160403e+17
19573.0	6.838834353755476e+17
19574.0	6.837635315488084e+17
19575.0	6.836500915639635e+17
19576.0	6.835323660490068e+17
19577.0	6.834108700644692e+17
19578.0	6.832973222161065e+17
19579.0	6.831797853749247e+17
19580.0	6.830617085870079e+17
19581.0	6.829439265887572e+17
19582.0	6.828259025791657e+17
19583.0	6.827071648388436e+17
19584.0	6.825873911753386e+17
19585.0	6.824642884927487e+17
19586.0	6.823215645764265e+17
19587.0	6.821843561698644e+17
19588.0	6.820925829808127e+17
19589.0	6.819347207727785e+17
19590.0	6.818658641423017e+17
19591.0	6.817507588090538e+17
19592.0	6.816304434511872e+17
19593.0	6.815077399964329e+17
19594.0	6.81378577523234e+17
19595.0	6.812691400927914e+17
19596.0	6.805962934801752e+17
19597.0	6.810257265262591e+17
19598.0	6.809011058551466e+17
19599.0	6.807863898232148e+17
19600.0	6.806654964203519e+17
19601.0	6.805423887045972e+17
19602.0	6.804217930274132e+17
19603.0	6.802574165759314e+17
19604.0	6.801769059319807e+17
19605.0	6.800496962568191e+17
19606.0	6.799353985368063e+17
19607.0	6.798149297373183e+17
19608.0	6.796921653952511e+17
19609.0	6.795686372704255e+17
19610.0	6.794491614025044e+17
19611.0	6.793269572796415e+17
19612.0	6.79204963291409e+17
19613.0	6.790821962929491e+17
19614.0	6.789592501977087e+17
19615.0	6.78838102200593e+17
19616.0	6.787012568809472e+17
19617.0	6.785924989277523e+17
19618.0	6.784579732679337e+17
19619.0	6.783303954027859e+17
19620.0	6.7820895876765e+17
19621.0	6.781030320395603e+17
19622.0	6.779805464788992e+17
19623.0	6.778578791650644e+17
19624.0	6.777357122316969e+17
19625.0	6.776128774952276e+17
19626.0	6.774905144082431e+17
19627.0	6.773676895283881e+17
19628.0	6.771975304598871e+17
19629.0	6.771191175970815e+17
19630.0	6.769663271414444e+17
19631.0	6.747387358522015e+17
19632.0	6.767514898573993e+17
19633.0	6.766280093379242e+17
19634.0	6.76506854629922e+17
19635.0	6.763826326274045e+17
19636.0	6.76260396208401e+17
19637.0	6.761254883775828e+17
19638.0	6.760143836413951e+17
19639.0	6.75889325084945e+17
19640.0	6.75766357598754e+17
19641.0	6.756318551474175e+17
19642.0	6.755216175835817e+17
19643.0	6.753972404617215e+17
19644.0	6.752737742727849e+17
19645.0	6.751453174912339e+17
19646.0	6.750290522232148e+17
19647.0	6.749057959591935e+17
19648.0	6.747825296288425e+17
19649.0	6.74659169346082e+17
19650.0	6.745359778840575e+17
19651.0	6.744124712200874e+17
19652.0	6.742891201647956e+17
19653.0	6.741652630667261e+17
19654.0	6.740424918739626e+17
19655.0	6.739190433710077e+17
19656.0	6.737950568786601e+17
19657.0	6.736728003269971e+17
19658.0	6.735484035618132e+17
19659.0	6.734261920989183e+17
19660.0	6.733029224131241e+17
19661.0	6.731796091065684e+17
19662.0	6.730562960097279e+17
19663.0	6.72931388657937e+17
19664.0	6.727994686395732e+17
19665.0	6.726863699312637e+17
