# Flux units: erg / (cm m2 s)
# Wavelength units: Angstrom
wave	flux
19000.0	5.133450751246336e+17
19001.0	5.132290584390313e+17
19002.0	5.1316046905562445e+17
19003.0	5.130666366730239e+17
19004.0	5.129718416277503e+17
19005.0	5.128709612066132e+17
19006.0	5.1278255066098336e+17
19007.0	5.126984976476843e+17
19008.0	5.126006174121983e+17
19009.0	5.124795651151188e+17
19010.0	5.123707162853374e+17
19011.0	5.123160551369385e+17
19012.0	5.1211090781361466e+17
19013.0	5.121509391597566e+17
19014.0	5.120527071619753e+17
19015.0	5.1195956725896525e+17
19016.0	5.118699633639423e+17
19017.0	5.1178462975972685e+17
19018.0	5.1169082114484915e+17
19019.0	5.1160271657369594e+17
19020.0	5.1150960784834554e+17
19021.0	5.114204853895166e+17
19022.0	5.1132889835765754e+17
19023.0	5.1121711512289274e+17
19024.0	5.111097396822015e+17
19025.0	5.110398859957588e+17
19026.0	5.1093373983566496e+17
19027.0	5.1077919832801274e+17
19028.0	5.107692365763924e+17
19029.0	5.1067862492992845e+17
19030.0	5.105890786366804e+17
19031.0	5.1049979420781216e+17
19032.0	5.104038645334015e+17
19033.0	5.102871428552019e+17
19034.0	5.101747952768341e+17
19035.0	5.098226841550847e+17
19036.0	5.0410750881737274e+17
19037.0	5.0970982410267296e+17
19038.0	5.098108864866987e+17
19039.0	5.09751938060561e+17
19040.0	5.0966692119620256e+17
19041.0	5.0958011636995405e+17
19042.0	5.083542392406e+17
19043.0	5.094103412200788e+17
19044.0	5.09318711476224e+17
19045.0	5.0921737841978016e+17
19046.0	5.0912946573803514e+17
19047.0	5.0903809464292685e+17
19048.0	5.087698388429481e+17
19049.0	5.0648921764003546e+17
19050.0	5.087122121818111e+17
19051.0	5.078162815844347e+17
19052.0	5.082249673659731e+17
19053.0	5.084722798875989e+17
19054.0	5.084019168728405e+17
19055.0	5.079459810683562e+17
19056.0	5.0812172401377235e+17
19057.0	5.081402642355541e+17
19058.0	5.068464706289644e+17
19059.0	5.074911883515217e+17
19060.0	5.078676297919145e+17
19061.0	5.077745378437802e+17
19062.0	5.07685923454976e+17
19063.0	5.075981678499156e+17
19064.0	5.074949422536021e+17
19065.0	5.0739592025866234e+17
19066.0	5.068782880598704e+17
19067.0	5.072282972760746e+17
19068.0	5.071473138641578e+17
19069.0	5.070560154004138e+17
19070.0	5.069586779078656e+17
19071.0	5.068675963595434e+17
19072.0	5.06325756315784e+17
19073.0	5.06694503305489e+17
19074.0	5.0660006023222605e+17
19075.0	5.0651350370877446e+17
19076.0	5.0642005398650874e+17
19077.0	5.0632869484516685e+17
19078.0	5.062330904390313e+17
19079.0	5.0614910865899514e+17
19080.0	5.0605919487481165e+17
19081.0	5.059611231693481e+17
19082.0	5.0587677613533843e+17
19083.0	5.057757454183081e+17
19084.0	5.056700009327274e+17
19085.0	5.0559772314828794e+17
19086.0	5.048368423589202e+17
19087.0	5.0433892702399014e+17
19088.0	5.046739142705143e+17
19089.0	5.0516679965627725e+17
19090.0	5.051292406426283e+17
19091.0	5.0497521139930496e+17
19092.0	5.040188659772099e+17
19093.0	5.048798036361215e+17
19094.0	5.047953870465706e+17
19095.0	5.047051514194602e+17
19096.0	5.0461641294916256e+17
19097.0	5.045272997178026e+17
19098.0	5.0395010938088064e+17
19099.0	5.03757919451e+17
19100.0	5.0424333310361594e+17
19101.0	5.0415912385249274e+17
19102.0	5.040604027289598e+17
19103.0	5.0398336364052474e+17
19104.0	5.038971102254421e+17
19105.0	5.027355389766345e+17
19106.0	5.036888559015253e+17
19107.0	5.0335241281208275e+17
19108.0	5.030977089481388e+17
19109.0	5.032172683526143e+17
19110.0	5.0327575610436256e+17
19111.0	5.029490077291856e+17
19112.0	5.028063082097315e+17
19113.0	5.0308526060339194e+17
19114.0	5.027862270006609e+17
19115.0	5.0285130596133536e+17
19116.0	5.0281221364995405e+17
19117.0	5.027173100421119e+17
19118.0	5.025848058271061e+17
19119.0	5.0107258698901984e+17
19120.0	5.023882150936575e+17
19121.0	5.023210954642772e+17
19122.0	5.022805022212094e+17
19123.0	5.02194904305937e+17
19124.0	5.020684837191679e+17
19125.0	5.020122415278761e+17
19126.0	5.019118828082515e+17
19127.0	5.016276952241492e+17
19128.0	5.0171969280846496e+17
19129.0	5.016457341566975e+17
19130.0	5.015681069569364e+17
19131.0	5.014803957415935e+17
19132.0	5.013883471964842e+17
19133.0	5.012948198795946e+17
19134.0	5.0120685924297376e+17
19135.0	5.011214137207466e+17
19136.0	5.0103234166347085e+17
19137.0	5.0092445060300794e+17
19138.0	5.0085220630309536e+17
19139.0	5.007670926202198e+17
19140.0	5.006783431049215e+17
19141.0	5.0058772943121056e+17
19142.0	5.0049399142045e+17
19143.0	5.0040318243198285e+17
19144.0	5.0031390939764045e+17
19145.0	5.002298333156693e+17
19146.0	5.000566788150613e+17
19147.0	5.000433998583124e+17
19148.0	4.9957330520200595e+17
19149.0	4.994130507726848e+17
19150.0	4.9978625393076896e+17
19151.0	4.996952078942208e+17
19152.0	4.9959949101083296e+17
19153.0	4.986899508057416e+17
19154.0	4.9934475086615904e+17
19155.0	4.993319267816788e+17
19156.0	4.9923819918677325e+17
19157.0	4.988535634744669e+17
19158.0	4.9836505407597306e+17
19159.0	4.989395702644735e+17
19160.0	4.9886779572660896e+17
19161.0	4.9875190556917754e+17
19162.0	4.983534491358549e+17
19163.0	4.9850180397520205e+17
19164.0	4.985103337215315e+17
19165.0	4.975415080080711e+17
19166.0	4.983239863173119e+17
19167.0	4.9823204724353696e+17
19168.0	4.9816732039468365e+17
19169.0	4.98084249477666e+17
19170.0	4.9799858780897274e+17
19171.0	4.9789624749042336e+17
19172.0	4.978149893515946e+17
19173.0	4.977372151414783e+17
19174.0	4.9764564691408205e+17
19175.0	4.9756223304280736e+17
19176.0	4.9747492783609165e+17
19177.0	4.9736037202657274e+17
19178.0	4.972682973369683e+17
19179.0	4.9717788072564045e+17
19180.0	4.9711267670480205e+17
19181.0	4.970122460528639e+17
19182.0	4.969297658336596e+17
19183.0	4.9685349171636896e+17
19184.0	4.967685135095125e+17
19185.0	4.9667431727104e+17
19186.0	4.965895506668202e+17
19187.0	4.964914291190442e+17
19188.0	4.964108962452821e+17
19189.0	4.963185299816447e+17
19190.0	4.9622708310944416e+17
19191.0	4.9613162312717645e+17
19192.0	4.9604312233410554e+17
19193.0	4.95843851230686e+17
19194.0	4.9568212837553504e+17
19195.0	4.9574265518817274e+17
19196.0	4.9561471185933645e+17
19197.0	4.954362975617023e+17
19198.0	4.950031365483177e+17
19199.0	4.924608835398312e+17
19200.0	4.92737695230635e+17
19201.0	4.9478378745146016e+17
19202.0	4.950103703246164e+17
19203.0	4.9499181954717e+17
19204.0	4.949512979567956e+17
19205.0	4.9488439747979936e+17
19206.0	4.948058713707861e+17
19207.0	4.9470386072453114e+17
19208.0	4.946140921331711e+17
19209.0	4.945558895940949e+17
19210.0	4.944654938843817e+17
19211.0	4.943845742957909e+17
19212.0	4.9429355566202874e+17
19213.0	4.941750955846313e+17
19214.0	4.9407497370337274e+17
19215.0	4.940188210604714e+17
19216.0	4.9394641108555085e+17
19217.0	4.9385532429434874e+17
19218.0	4.936846763797161e+17
19219.0	4.936577993495891e+17
19220.0	4.9359221001202336e+17
19221.0	4.93483431297024e+17
19222.0	4.934155130721621e+17
19223.0	4.9333555474814285e+17
19224.0	4.932433424154623e+17
19225.0	4.9315075259542176e+17
19226.0	4.930758239409494e+17
19227.0	4.929886790964564e+17
19228.0	4.9290468459369805e+17
19229.0	4.9281260543016954e+17
19230.0	4.927279817818111e+17
19231.0	4.926415034122239e+17
19232.0	4.9255363903488e+17
19233.0	4.9245758492945056e+17
19234.0	4.923760437450068e+17
19235.0	4.9228778692061856e+17
19236.0	4.9220497269500576e+17
19237.0	4.92113316876561e+17
19238.0	4.920150274168148e+17
19239.0	4.919426781893973e+17
19240.0	4.918542960252244e+17
19241.0	4.9176620522536954e+17
19242.0	4.9167633317451085e+17
19243.0	4.915750656191146e+17
19244.0	4.915060577140734e+17
19245.0	4.914195794842964e+17
19246.0	4.9133190294186656e+17
19247.0	4.912449954949801e+17
19248.0	4.9115653231083514e+17
19249.0	4.910446844138837e+17
19250.0	4.908130947301375e+17
19251.0	4.9071793680766246e+17
19252.0	4.9077304297171616e+17
19253.0	4.9071869702526285e+17
19254.0	4.90635902582784e+17
19255.0	4.905234772699817e+17
19256.0	4.904580696855893e+17
19257.0	4.9037375599629645e+17
19258.0	4.9028517690955085e+17
19259.0	4.9018411186913274e+17
19260.0	4.8991609528429203e+17
19261.0	4.9001868173858125e+17
19262.0	4.899176838769321e+17
19263.0	4.898242073810259e+17
19264.0	4.896970931961854e+17
19265.0	4.896467111466324e+17
19266.0	4.8954224606358176e+17
19267.0	4.8950336479559674e+17
19268.0	4.8941518955042125e+17
19269.0	4.893299315834879e+17
19270.0	4.8923887478155936e+17
19271.0	4.8911509087409485e+17
19272.0	4.890639885926398e+17
19273.0	4.889560883047083e+17
19274.0	4.8884294653487763e+17
19275.0	4.888106530504703e+17
19276.0	4.8872076631954765e+17
19277.0	4.886357303711061e+17
19278.0	4.8852845007121056e+17
19279.0	4.884551056752638e+17
19280.0	4.883652161481387e+17
19281.0	4.882814254885545e+17
19282.0	4.881926599649962e+17
19283.0	4.8808913999844685e+17
19284.0	4.880003312036521e+17
19285.0	4.879116134252543e+17
19286.0	4.878186794625706e+17
19287.0	4.876793272074239e+17
19288.0	4.856189619098952e+17
19289.0	4.8370442773899514e+17
19290.0	4.8740403658096634e+17
19291.0	4.873574847698262e+17
19292.0	4.873222477228714e+17
19293.0	4.872415523198292e+17
19294.0	4.871519440207871e+17
19295.0	4.8707442964780365e+17
19296.0	4.864672096321551e+17
19297.0	4.868139209370286e+17
19298.0	4.8681327690164896e+17
19299.0	4.861429664448517e+17
19300.0	4.866365552153941e+17
19301.0	4.865575336192681e+17
19302.0	4.86469818069811e+17
19303.0	4.8637150078784845e+17
19304.0	4.862942668739925e+17
19305.0	4.8620587254633805e+17
19306.0	4.861175608464723e+17
19307.0	4.860136913545898e+17
19308.0	4.8592234885065376e+17
19309.0	4.857416523623082e+17
19310.0	4.856223759335423e+17
19311.0	4.856195025556821e+17
19312.0	4.855325900057258e+17
19313.0	4.853159181331113e+17
19314.0	4.6997146372669357e+17
19315.0	4.7112651688729766e+17
19316.0	4.8437554252349555e+17
19317.0	4.851048286694058e+17
19318.0	4.850571241936212e+17
19319.0	4.849849540629844e+17
19320.0	4.847029965903183e+17
19321.0	4.843545531077973e+17
19322.0	4.8471845434818554e+17
19323.0	4.8462158011651405e+17
19324.0	4.845386416695977e+17
19325.0	4.844138113531904e+17
19326.0	4.8437568855517856e+17
19327.0	4.843053425972566e+17
19328.0	4.8326751275363085e+17
19329.0	4.8414571088226976e+17
19330.0	4.8405812186098336e+17
19331.0	4.839699019464703e+17
19332.0	4.838897098599082e+17
19333.0	4.8380062899459405e+17
19334.0	4.8369598796049075e+17
19335.0	4.816783466124655e+17
19336.0	4.835309160235008e+17
19337.0	4.83461461774609e+17
19338.0	4.8334735741201056e+17
19339.0	4.832850069858985e+17
19340.0	4.8316468086265165e+17
19341.0	4.823905097919162e+17
19342.0	4.827817533505543e+17
19343.0	4.8293994516097696e+17
19344.0	4.8213698997999046e+17
19345.0	4.822214505398278e+17
19346.0	4.825311026522793e+17
19347.0	4.816885916194134e+17
19348.0	4.825133518684159e+17
19349.0	4.824225439285247e+17
19350.0	4.819983414591488e+17
19351.0	4.822428849012734e+17
19352.0	4.811966483442331e+17
19353.0	4.8208392546331296e+17
19354.0	4.8200003812502176e+17
19355.0	4.819014298981717e+17
19356.0	4.8182591299256314e+17
19357.0	4.817412829129385e+17
19358.0	4.816523376634538e+17
19359.0	4.813562788009293e+17
19360.0	4.807213277249533e+17
19361.0	4.813912652382207e+17
19362.0	4.8130952272718496e+17
19363.0	4.8122413284939085e+17
19364.0	4.811381274574847e+17
19365.0	4.8104903890261325e+17
19366.0	4.809621292886698e+17
19367.0	4.8087522582637216e+17
19368.0	4.807918452299092e+17
19369.0	4.806956082528255e+17
19370.0	4.806128514192724e+17
19371.0	4.805233032385877e+17
19372.0	4.8044168313132365e+17
19373.0	4.8035125135059616e+17
19374.0	4.8026810724297376e+17
19375.0	4.801829565803177e+17
19376.0	4.800973541911211e+17
19377.0	4.8000894070947834e+17
19378.0	4.7992232847168845e+17
19379.0	4.7983482158885536e+17
19380.0	4.7974007030415354e+17
19381.0	4.7965530985157965e+17
19382.0	4.79558889513506e+17
19383.0	4.794690763227134e+17
19384.0	4.793828901563049e+17
19385.0	4.793021966406996e+17
19386.0	4.792116496564223e+17
19387.0	4.7911768074922656e+17
19388.0	4.7902017045135354e+17
19389.0	4.7891071114062496e+17
19390.0	4.787044015756628e+17
19391.0	4.73402908903555e+17
19392.0	4.780679731959121e+17
19393.0	4.785218805650771e+17
19394.0	4.7846768659223885e+17
19395.0	4.781056709012145e+17
19396.0	4.7823672773181466e+17
19397.0	4.7821865370692256e+17
19398.0	4.778752394046124e+17
19399.0	4.7762100250651296e+17
19400.0	4.7771158493265946e+17
19401.0	4.778473651088042e+17
19402.0	4.777568678270292e+17
19403.0	4.776618189564587e+17
19404.0	4.775659408719871e+17
19405.0	4.774646527645013e+17
19406.0	4.773701098668032e+17
19407.0	4.7692988368814016e+17
19408.0	4.77077717385216e+17
19409.0	4.770551424527017e+17
19410.0	4.769676312357545e+17
19411.0	4.7686572369947283e+17
19412.0	4.7675707367970125e+17
19413.0	4.763002653201749e+17
19414.0	4.7653934505219405e+17
19415.0	4.764244883712682e+17
19416.0	4.76259813495057e+17
19417.0	4.7614405133380256e+17
19418.0	4.760712430398123e+17
19419.0	4.7595230495156896e+17
19420.0	4.7582752377842336e+17
19421.0	4.756925419880447e+17
19422.0	4.7554776516962976e+17
19423.0	4.7540693917586765e+17
19424.0	4.7525250755898016e+17
19425.0	4.750856096317439e+17
19426.0	4.749083402392917e+17
19427.0	4.74720427450914e+17
19428.0	4.7451362484551674e+17
19429.0	4.742682524691113e+17
19430.0	4.7370546635079686e+17
19431.0	4.7284306886437594e+17
19432.0	4.734606713902421e+17
19433.0	4.732005326170793e+17
19434.0	4.72858099781905e+17
19435.0	4.7221743096081056e+17
19436.0	4.715320971362301e+17
19437.0	4.7123399250193056e+17
19438.0	4.602442829616484e+17
19439.0	4.687128697678504e+17
19440.0	4.6937750805763405e+17
19441.0	4.685330269601791e+17
19442.0	4.673880499858089e+17
19443.0	4.6603937391138125e+17
19444.0	4.643603796197375e+17
19445.0	4.621613623760213e+17
19446.0	4.59282920452915e+17
19447.0	4.553512585964201e+17
19448.0	4.496923615210156e+17
19449.0	4.403657605556904e+17
19450.0	4.185673393941143e+17
19451.0	3.997691519784297e+17
19452.0	4.3230702324067034e+17
19453.0	4.455314524995586e+17
19454.0	4.523760956735484e+17
19455.0	4.568333363970047e+17
19456.0	4.5988904960000006e+17
19457.0	4.6185357987457696e+17
19458.0	4.234630132313325e+17
19459.0	4.617483238157067e+17
19460.0	4.662643859477844e+17
19461.0	4.673458869545643e+17
19462.0	4.681172145668095e+17
19463.0	4.687032261541888e+17
19464.0	4.691751883243519e+17
19465.0	4.695467275321343e+17
19466.0	4.698368601926314e+17
19467.0	4.7006480817192954e+17
19468.0	4.70245641953826e+17
19469.0	4.69686721585697e+17
19470.0	4.7050286610513914e+17
19471.0	4.706044956289707e+17
19472.0	4.706806002264746e+17
19473.0	4.7073398693560314e+17
19474.0	4.700704817370443e+17
19475.0	4.7068764917377696e+17
19476.0	4.708007494199977e+17
19477.0	4.7081572035898016e+17
19478.0	4.708104887336959e+17
19479.0	4.7011869036816954e+17
19480.0	4.70763470725666e+17
19481.0	4.70724570723123e+17
19482.0	4.706973189319338e+17
19483.0	4.706590411543891e+17
19484.0	4.7060954249516365e+17
19485.0	4.7055551741296634e+17
19486.0	4.697938979367614e+17
19487.0	4.704544448927061e+17
19488.0	4.7039777502221645e+17
19489.0	4.7029466686641485e+17
19490.0	4.7010117621295763e+17
19491.0	4.7020188872212474e+17
19492.0	4.701468172309845e+17
19493.0	4.7007941525504e+17
19494.0	4.7000561137309005e+17
19495.0	4.6992122610100896e+17
19496.0	4.6976483525481805e+17
19497.0	4.69670506266624e+17
19498.0	4.681014115478184e+17
19499.0	4.613643234705384e+17
19500.0	4.6935666921745056e+17
19501.0	4.694565153232213e+17
19502.0	4.69416686072627e+17
19503.0	4.693593151242239e+17
19504.0	4.692881507876864e+17
19505.0	4.691978175031978e+17
19506.0	4.6913609447505914e+17
19507.0	4.690492056229205e+17
19508.0	4.6895565425868794e+17
19509.0	4.6882044269035514e+17
19510.0	4.6830983818772454e+17
19511.0	4.4350582673460736e+17
19512.0	4.664342511353842e+17
19513.0	4.658958642621071e+17
19514.0	4.6638452975861574e+17
19515.0	4.682794287846741e+17
19516.0	4.6824093842582163e+17
19517.0	4.6826137335453005e+17
19518.0	4.6800869561903744e+17
19519.0	4.679241989881852e+17
19520.0	4.673745204193952e+17
19521.0	4.6798932464544416e+17
19522.0	4.678068432710312e+17
19523.0	4.6766174964285504e+17
19524.0	4.6722863232013786e+17
19525.0	4.67661368660241e+17
19526.0	4.675974147517098e+17
19527.0	4.6751757205067085e+17
19528.0	4.67387294102323e+17
19529.0	4.6727928888688646e+17
19530.0	4.6728062491252045e+17
19531.0	4.67200399970577e+17
19532.0	4.6711970463743994e+17
19533.0	4.6703827774778016e+17
19534.0	4.669600926356821e+17
19535.0	4.668781678821375e+17
19536.0	4.667943192013481e+17
19537.0	4.667096291431764e+17
19538.0	4.659692886294536e+17
19539.0	4.664950030423381e+17
19540.0	4.664708343442089e+17
19541.0	4.662477538547027e+17
19542.0	4.662523417242281e+17
19543.0	4.655459470409732e+17
19544.0	4.661087268678313e+17
19545.0	4.659870669559124e+17
19546.0	4.6588490321756154e+17
19547.0	4.65910496371234e+17
19548.0	4.6583318255588685e+17
19549.0	4.6573894052959565e+17
19550.0	4.656700405579775e+17
19551.0	4.6559269479601485e+17
19552.0	4.655096523303594e+17
19553.0	4.6542713590033056e+17
19554.0	4.6534124354491725e+17
19555.0	4.6518884441784326e+17
19556.0	4.651292675451561e+17
19557.0	4.650979489568085e+17
19558.0	4.650240795738111e+17
19559.0	4.6494554186055674e+17
19560.0	4.646182711547217e+17
19561.0	4.6477998771841696e+17
19562.0	4.6446110520115174e+17
19563.0	4.646237905791657e+17
19564.0	4.6453763167573325e+17
19565.0	4.6446000915961165e+17
19566.0	4.6437479432410445e+17
19567.0	4.6429996500473165e+17
19568.0	4.6421651911693645e+17
19569.0	4.6413586964152314e+17
19570.0	4.640512357870249e+17
19571.0	4.6397288905441274e+17
19572.0	4.638916208492544e+17
19573.0	4.6373176543805414e+17
19574.0	4.6369377105565e+17
19575.0	4.636541800415232e+17
19576.0	4.635316091267755e+17
19577.0	4.6337218551917216e+17
19578.0	4.634067564407465e+17
19579.0	4.63328132534545e+17
19580.0	4.632457784939861e+17
19581.0	4.631647318179838e+17
19582.0	4.630886277098153e+17
19583.0	4.630088860915029e+17
19584.0	4.6292300666852685e+17
19585.0	4.628301873501524e+17
19586.0	4.6274069879848954e+17
19587.0	4.626675880951808e+17
19588.0	4.625452989677568e+17
19589.0	4.625164129359189e+17
19590.0	4.624197474407764e+17
19591.0	4.6235976197297485e+17
19592.0	4.622805309412694e+17
19593.0	4.6213604171229843e+17
19594.0	4.620292160749566e+17
19595.0	4.6203691066545485e+17
19596.0	4.6193874263080954e+17
19597.0	4.618761320180393e+17
19598.0	4.617139298238463e+17
19599.0	4.617142950778196e+17
19600.0	4.6163440547048096e+17
19601.0	4.6154613885938336e+17
19602.0	4.6145765127837e+17
19603.0	4.613117166223359e+17
19604.0	4.612895727244629e+17
19605.0	4.611937357441706e+17
19606.0	4.611500062801919e+17
19607.0	4.6107306135388154e+17
19608.0	4.609874430263295e+17
19609.0	4.609055693733886e+17
19610.0	4.605048316581211e+17
19611.0	4.6026749850419245e+17
19612.0	4.6067134902217376e+17
19613.0	4.6058683785106765e+17
19614.0	4.60504443195665e+17
19615.0	4.604235872206847e+17
19616.0	4.599786674061318e+17
19617.0	4.5977610545179354e+17
19618.0	4.600730018469204e+17
19619.0	4.599258692277589e+17
19620.0	4.597694433591288e+17
19621.0	4.5924285590186624e+17
19622.0	4.598624171677013e+17
19623.0	4.597481941062996e+17
19624.0	4.5960144002307424e+17
19625.0	4.596160089380181e+17
19626.0	4.5952640546242554e+17
19627.0	4.5942653873466016e+17
19628.0	4.5926508452468064e+17
19629.0	4.5748862250734835e+17
19630.0	4.58272978326869e+17
19631.0	4.564927893908141e+17
19632.0	4.588073046245375e+17
19633.0	4.5888688832730445e+17
19634.0	4.588716295192574e+17
19635.0	4.587290459723088e+17
19636.0	4.579448882637474e+17
19637.0	4.5785738935009197e+17
19638.0	4.5852581439733715e+17
19639.0	4.584980193738751e+17
19640.0	4.5839472792698874e+17
19641.0	4.581440890426714e+17
19642.0	4.582094318250667e+17
19643.0	4.581308690158932e+17
19644.0	4.5809347064408736e+17
19645.0	4.5799451645706234e+17
19646.0	4.571071187517427e+17
19647.0	4.578529340205737e+17
19648.0	4.577880213640532e+17
19649.0	4.577066076165461e+17
19650.0	4.576280026546176e+17
19651.0	4.5754835142355616e+17
19652.0	4.574686651001514e+17
19653.0	4.573851128168447e+17
19654.0	4.573094456153428e+17
19655.0	4.5722760076328954e+17
19656.0	4.571505582495061e+17
