# Flux units: erg / (cm m2 s)
# Wavelength units: Angstrom
wave	flux
19000.0	7.25336827433233e+17
19001.0	7.251986592301053e+17
19002.0	7.250732727489875e+17
19003.0	7.249458625161897e+17
19004.0	7.248225141871958e+17
19005.0	7.246905281085439e+17
19006.0	7.245590088559272e+17
19007.0	7.244280322064383e+17
19008.0	7.242938568409087e+17
19009.0	7.241541651267583e+17
19010.0	7.240152802568874e+17
19011.0	7.238962540183551e+17
19012.0	7.237585559967062e+17
19013.0	7.236347061687636e+17
19014.0	7.234990134438569e+17
19015.0	7.233680447635455e+17
19016.0	7.232372326705833e+17
19017.0	7.231061693388116e+17
19018.0	7.229730986131455e+17
19019.0	7.228410293474642e+17
19020.0	7.227077262573565e+17
19021.0	7.225765710703272e+17
19022.0	7.224441708740607e+17
19023.0	7.223086805942271e+17
19024.0	7.22177793143603e+17
19025.0	7.220456111909545e+17
19026.0	7.219116339363841e+17
19027.0	7.21777221313058e+17
19028.0	7.216473811801427e+17
19029.0	7.215151023390717e+17
19030.0	7.213834929089194e+17
19031.0	7.212505138987008e+17
19032.0	7.211171309770068e+17
19033.0	7.209770157779625e+17
19034.0	7.20844232921361e+17
19035.0	7.206757530424659e+17
19036.0	7.202720842776575e+17
19037.0	7.204202560356352e+17
19038.0	7.203134441695913e+17
19039.0	7.201867378808148e+17
19040.0	7.200554820304893e+17
19041.0	7.199228350693375e+17
19042.0	7.19782911410176e+17
19043.0	7.196582961217536e+17
19044.0	7.195247697548628e+17
19045.0	7.193923099994793e+17
19046.0	7.192575250617683e+17
19047.0	7.191230193248938e+17
19048.0	7.189863635877887e+17
19049.0	7.188500793262079e+17
19050.0	7.187189304306345e+17
19051.0	7.18549092016674e+17
19052.0	7.184362985138858e+17
19053.0	7.183254615141033e+17
19054.0	7.181958562622122e+17
19055.0	7.180469700744532e+17
19056.0	7.179298892939263e+17
19057.0	7.177982966409897e+17
19058.0	7.176631349149693e+17
19059.0	7.175322017464319e+17
19060.0	7.173998039269375e+17
19061.0	7.172673919866198e+17
19062.0	7.171343074197504e+17
19063.0	7.170009737112233e+17
19064.0	7.168637653046611e+17
19065.0	7.167251446759423e+17
19066.0	7.1659774045498e+17
19067.0	7.164700827582463e+17
19068.0	7.163372999016447e+17
19069.0	7.162044188983293e+17
19070.0	7.160703724377427e+17
19071.0	7.159386345220777e+17
19072.0	7.158049856815104e+17
19073.0	7.156727631839232e+17
19074.0	7.15539934609408e+17
19075.0	7.154069411987453e+17
19076.0	7.152734756492627e+17
19077.0	7.151400586138964e+17
19078.0	7.150071696414036e+17
19079.0	7.14875106107938e+17
19080.0	7.147413175970474e+17
19081.0	7.146062699560957e+17
19082.0	7.14475079536913e+17
19083.0	7.143358322791763e+17
19084.0	7.141944329240575e+17
19085.0	7.14076668751599e+17
19086.0	7.139170697521833e+17
19087.0	7.138061657833471e+17
19088.0	7.136703995183104e+17
19089.0	7.135310472631636e+17
19090.0	7.134092741749416e+17
19091.0	7.132776502045353e+17
19092.0	7.131412875094697e+17
19093.0	7.130139320822441e+17
19094.0	7.128814110900224e+17
19095.0	7.127486684987391e+17
19096.0	7.12615485505536e+17
19097.0	7.12482874335778e+17
19098.0	7.123493735541417e+17
19099.0	7.122163639255039e+17
19100.0	7.12083340735283e+17
19101.0	7.119505246038697e+17
19102.0	7.118148060140883e+17
19103.0	7.116855878964564e+17
19104.0	7.115527528906751e+17
19105.0	7.114175296481961e+17
19106.0	7.112858978484224e+17
19107.0	7.111515754026323e+17
19108.0	7.110162320632489e+17
19109.0	7.10875903094511e+17
19110.0	7.107485178877268e+17
19111.0	7.106199834416467e+17
19112.0	7.104885019377663e+17
19113.0	7.103568880336893e+17
19114.0	7.102239252414463e+17
19115.0	7.100886084659881e+17
19116.0	7.099563981318826e+17
19117.0	7.098229399923369e+17
19118.0	7.096772031676415e+17
19119.0	7.093587107905533e+17
19120.0	7.094174402740224e+17
19121.0	7.092907776060072e+17
19122.0	7.091610522572116e+17
19123.0	7.090286060634111e+17
19124.0	7.088922971952467e+17
19125.0	7.087607011868671e+17
19126.0	7.086185191746217e+17
19127.0	7.08434372591616e+17
19128.0	7.08349647650816e+17
19129.0	7.082239993053183e+17
19130.0	7.080979052451156e+17
19131.0	7.079667268496041e+17
19132.0	7.078340489904127e+17
19133.0	7.076985171869693e+17
19134.0	7.075674976157696e+17
19135.0	7.074358463823871e+17
19136.0	7.073026267589289e+17
19137.0	7.07165863088401e+17
19138.0	7.070362997795497e+17
19139.0	7.069051831801172e+17
19140.0	7.067727994814463e+17
19141.0	7.066401163094698e+17
19142.0	7.065056550322175e+17
19143.0	7.063728170904233e+17
19144.0	7.062388672386387e+17
19145.0	7.061087954403327e+17
19146.0	7.0593749726877e+17
19147.0	7.05840885810244e+17
19148.0	7.057096963697321e+17
19149.0	7.055770186503508e+17
19150.0	7.054450136973311e+17
19151.0	7.053121916938921e+17
19152.0	7.051785594907305e+17
19153.0	7.050427445717674e+17
19154.0	7.049093862566569e+17
19155.0	7.047789373904211e+17
19156.0	7.046460998680573e+17
19157.0	7.045110325138772e+17
19158.0	7.043731777650688e+17
19159.0	7.042425103755945e+17
19160.0	7.041096327277225e+17
19161.0	7.039738815621802e+17
19162.0	7.038278719679145e+17
19163.0	7.03704165724979e+17
19164.0	7.035788446050985e+17
19165.0	7.034461207483732e+17
19166.0	7.033111500729002e+17
19167.0	7.031814110926166e+17
19168.0	7.030502938640381e+17
19169.0	7.029181857311401e+17
19170.0	7.027857496735743e+17
19171.0	7.026527681467732e+17
19172.0	7.025202528168618e+17
19173.0	7.023873630754132e+17
19174.0	7.022529856143359e+17
19175.0	7.021215754136234e+17
19176.0	7.019890368053247e+17
19177.0	7.018464438211923e+17
19178.0	7.017224212578301e+17
19179.0	7.015891485065215e+17
19180.0	7.014560789692415e+17
19181.0	7.013195918431572e+17
19182.0	7.011894070083583e+17
19183.0	7.010581765335722e+17
19184.0	7.009251201384447e+17
19185.0	7.007919839816361e+17
19186.0	7.006588507608404e+17
19187.0	7.00520882835729e+17
19188.0	7.003920930264404e+17
19189.0	7.002587597373439e+17
19190.0	7.001249880735743e+17
19191.0	6.999890473254912e+17
19192.0	6.998569135374336e+17
19193.0	6.997220741436756e+17
19194.0	6.995854423840084e+17
19195.0	6.994488007677268e+17
19196.0	6.993078222411091e+17
19197.0	6.991595846325587e+17
19198.0	6.989907911595348e+17
19199.0	6.987582242728618e+17
19200.0	6.986375967888723e+17
19201.0	6.985950810865663e+17
19202.0	6.984949411698004e+17
19203.0	6.983747763175421e+17
19204.0	6.982488503790249e+17
19205.0	6.981190442898772e+17
19206.0	6.979885133550931e+17
19207.0	6.978486190560595e+17
19208.0	6.977169605525503e+17
19209.0	6.975907097651882e+17
19210.0	6.974583736718676e+17
19211.0	6.973256982593533e+17
19212.0	6.971919322578943e+17
19213.0	6.970519811260415e+17
19214.0	6.969202002886655e+17
19215.0	6.967898471923711e+17
19216.0	6.966560501530624e+17
19217.0	6.965180118335487e+17
19218.0	6.963645602856959e+17
19219.0	6.962383809413119e+17
19220.0	6.961176992808959e+17
19221.0	6.959788409050452e+17
19222.0	6.958501453277865e+17
19223.0	6.957182037786623e+17
19224.0	6.95582108750097e+17
19225.0	6.954483677746516e+17
19226.0	6.953160383223126e+17
19227.0	6.951822364595539e+17
19228.0	6.950500145911124e+17
19229.0	6.94915593928704e+17
19230.0	6.947810846266707e+17
19231.0	6.946444282604202e+17
19232.0	6.945074454375081e+17
19233.0	6.94369057243136e+17
19234.0	6.942377570030932e+17
19235.0	6.941013861291348e+17
19236.0	6.939684443783167e+17
19237.0	6.938329118059178e+17
19238.0	6.936932882492074e+17
19239.0	6.93563285447202e+17
19240.0	6.934280999534591e+17
19241.0	6.932914425386324e+17
19242.0	6.931564062922068e+17
19243.0	6.930110107440468e+17
19244.0	6.928865678415187e+17
19245.0	6.927504017894057e+17
19246.0	6.926145985445887e+17
19247.0	6.924791066569386e+17
19248.0	6.923433147367423e+17
19249.0	6.922072227140947e+17
19250.0	6.920699019700906e+17
19251.0	6.919288398370131e+17
19252.0	6.917766678315007e+17
19253.0	6.916593102968148e+17
19254.0	6.915241262011732e+17
19255.0	6.913743140509012e+17
19256.0	6.912496800279209e+17
19257.0	6.911139908681727e+17
19258.0	6.90976915071522e+17
19259.0	6.908340583355731e+17
19260.0	6.906949897551871e+17
19261.0	6.905635181079208e+17
19262.0	6.904226982658047e+17
19263.0	6.902816806622548e+17
19264.0	6.901302785911465e+17
19265.0	6.900023021273088e+17
19266.0	6.898603798123859e+17
19267.0	6.897314797628073e+17
19268.0	6.895935511942484e+17
19269.0	6.894547510493183e+17
19270.0	6.893131694516905e+17
19271.0	6.891656390726996e+17
19272.0	6.890351249151316e+17
19273.0	6.88881456521762e+17
19274.0	6.887320902260052e+17
19275.0	6.886204797266602e+17
19276.0	6.884803693510655e+17
19277.0	6.883409829123412e+17
19278.0	6.882010563171668e+17
19279.0	6.880592821310803e+17
19280.0	6.879177087123455e+17
19281.0	6.877779088550569e+17
19282.0	6.876378923619668e+17
19283.0	6.874955190894592e+17
19284.0	6.873513600920234e+17
19285.0	6.872077545330004e+17
19286.0	6.870647193294163e+17
19287.0	6.869171365216255e+17
19288.0	6.866410557581993e+17
19289.0	6.864314876384595e+17
19290.0	6.864777195640148e+17
19291.0	6.863282635101524e+17
19292.0	6.862037573435391e+17
19293.0	6.860605215823188e+17
19294.0	6.859158295587497e+17
19295.0	6.857720765000362e+17
19296.0	6.856261117848233e+17
19297.0	6.85480877297937e+17
19298.0	6.853342523992746e+17
19299.0	6.851888371378857e+17
19300.0	6.850433965009578e+17
19301.0	6.848964508778493e+17
19302.0	6.847482166247423e+17
19303.0	6.845976174133247e+17
19304.0	6.8445272553117e+17
19305.0	6.84295965446417e+17
19306.0	6.841429737340928e+17
19307.0	6.839913425141759e+17
19308.0	6.838375332620969e+17
19309.0	6.836846008292692e+17
19310.0	6.835314184159231e+17
19311.0	6.833842803441663e+17
19312.0	6.832354052014079e+17
19313.0	6.830796283314175e+17
19314.0	6.825748233628329e+17
19315.0	6.82446334704572e+17
19316.0	6.826207890898943e+17
19317.0	6.82474484076817e+17
19318.0	6.823181647435091e+17
19319.0	6.821532340846591e+17
19320.0	6.819979884931753e+17
19321.0	6.81841485029922e+17
19322.0	6.816842648300201e+17
19323.0	6.815282089689087e+17
19324.0	6.813710640567636e+17
19325.0	6.812114600241833e+17
19326.0	6.810529229526355e+17
19327.0	6.808928157433855e+17
19328.0	6.807304766051668e+17
19329.0	6.805705440187734e+17
19330.0	6.80400804520482e+17
19331.0	6.802314028034729e+17
19332.0	6.800700399594153e+17
19333.0	6.799042823236266e+17
19334.0	6.79730176135441e+17
19335.0	6.795582767803049e+17
19336.0	6.793932260944554e+17
19337.0	6.792235546137939e+17
19338.0	6.790397911804585e+17
19339.0	6.788794260914175e+17
19340.0	6.787016798765055e+17
19341.0	6.78524502479121e+17
19342.0	6.783425131664723e+17
19343.0	6.781741094841002e+17
19344.0	6.779896070143999e+17
19345.0	6.777466544018772e+17
19346.0	6.775819645659818e+17
19347.0	6.774477571140265e+17
19348.0	6.772732897962665e+17
19349.0	6.770888821178367e+17
19350.0	6.769035495254697e+17
19351.0	6.76708715995682e+17
19352.0	6.765108016097961e+17
19353.0	6.763264046268415e+17
19354.0	6.761351977719124e+17
19355.0	6.759361769985363e+17
19356.0	6.75747727548962e+17
19357.0	6.755516675347798e+17
19358.0	6.753537217615188e+17
19359.0	6.751525163149993e+17
19360.0	6.749498120339455e+17
19361.0	6.747467291470505e+17
19362.0	6.745391792564906e+17
19363.0	6.743283060091562e+17
19364.0	6.741138523641172e+17
19365.0	6.738815060279295e+17
19366.0	6.736628706618028e+17
19367.0	6.734414520953513e+17
19368.0	6.732135533292202e+17
19369.0	6.729818429893289e+17
19370.0	6.727518417584127e+17
19371.0	6.725168675509588e+17
19372.0	6.722833839991465e+17
19373.0	6.720406358589437e+17
19374.0	6.717951584152233e+17
19375.0	6.7154490177181e+17
19376.0	6.712781767529811e+17
19377.0	6.710120690657962e+17
19378.0	6.707513089064959e+17
19379.0	6.704865889746941e+17
19380.0	6.702171007483904e+17
19381.0	6.699427662135295e+17
19382.0	6.696597732371114e+17
19383.0	6.693787635373396e+17
19384.0	6.690956998868991e+17
19385.0	6.688055233959252e+17
19386.0	6.685025071617364e+17
19387.0	6.681926070261076e+17
19388.0	6.678663043656362e+17
19389.0	6.675481692733439e+17
19390.0	6.672100500002131e+17
19391.0	6.66646555603763e+17
19392.0	6.665015173403988e+17
19393.0	6.662092680243882e+17
19394.0	6.658633288209748e+17
19395.0	6.655033688981504e+17
19396.0	6.651325675383465e+17
19397.0	6.647520957912403e+17
19398.0	6.643582042286761e+17
19399.0	6.639369068740607e+17
19400.0	6.635211232116736e+17
19401.0	6.631093383987199e+17
19402.0	6.62658979410739e+17
19403.0	6.622040377961129e+17
19404.0	6.617413198719657e+17
19405.0	6.612635204889257e+17
19406.0	6.607724646585684e+17
19407.0	6.602630447671978e+17
19408.0	6.597191393083391e+17
19409.0	6.591891124518911e+17
19410.0	6.586458555722409e+17
19411.0	6.58084670349858e+17
19412.0	6.57512362742033e+17
19413.0	6.568999145963519e+17
19414.0	6.562560834098516e+17
19415.0	6.555790320773802e+17
19416.0	6.548827565719551e+17
19417.0	6.541752552215891e+17
19418.0	6.534345326766761e+17
19419.0	6.526631697623721e+17
19420.0	6.518553803664041e+17
19421.0	6.509980022035796e+17
19422.0	6.501057928626175e+17
19423.0	6.491757875997353e+17
19424.0	6.4819766507165e+17
19425.0	6.471745843582291e+17
19426.0	6.461257560708435e+17
19427.0	6.450201175435946e+17
19428.0	6.438122730553343e+17
19429.0	6.42546440217122e+17
19430.0	6.41199647035665e+17
19431.0	6.397779493868884e+17
19432.0	6.383030576873471e+17
19433.0	6.367049233552726e+17
19434.0	6.350119617516884e+17
19435.0	6.331894246757715e+17
19436.0	6.312313893508438e+17
19437.0	6.290972149983913e+17
19438.0	6.264637844619263e+17
19439.0	6.242700902094166e+17
19440.0	6.216326406908585e+17
19441.0	6.186804438892541e+17
19442.0	6.153649171813718e+17
19443.0	6.116680837103613e+17
19444.0	6.074850207247016e+17
19445.0	6.0268176984419e+17
19446.0	5.970798186943828e+17
19447.0	5.903906167062523e+17
19448.0	5.821775085218478e+17
19449.0	5.715875464216575e+17
19450.0	5.562797215012172e+17
19451.0	5.460535592091648e+17
19452.0	5.6483741447837005e+17
19453.0	5.770013565430446e+17
19454.0	5.860032063209467e+17
19455.0	5.931386534537898e+17
19456.0	5.990025593705814e+17
19457.0	6.039296019180198e+17
19458.0	6.07427188892195e+17
19459.0	6.117837171064835e+17
19460.0	6.151334593385812e+17
19461.0	6.180345226810708e+17
19462.0	6.206302071379286e+17
19463.0	6.230052751190697e+17
19464.0	6.251301739080361e+17
19465.0	6.270937079655082e+17
19466.0	6.288961206310227e+17
19467.0	6.305264257641129e+17
19468.0	6.320343278944256e+17
19469.0	6.334307971541674e+17
19470.0	6.347520247944531e+17
19471.0	6.359620190732287e+17
19472.0	6.370851170899284e+17
19473.0	6.381338240920234e+17
19474.0	6.391248759816192e+17
19475.0	6.400128418753193e+17
19476.0	6.408623645960874e+17
19477.0	6.416548846283434e+17
19478.0	6.424191027554984e+17
19479.0	6.431249289008467e+17
19480.0	6.437866968186879e+17
19481.0	6.444181466294953e+17
19482.0	6.450056653701119e+17
19483.0	6.455478126466388e+17
19484.0	6.460578744762367e+17
19485.0	6.465377023645012e+17
19486.0	6.469912994949802e+17
19487.0	6.474249960510804e+17
19488.0	6.478412319293439e+17
19489.0	6.482044490787497e+17
19490.0	6.485215794954237e+17
19491.0	6.488791097278463e+17
19492.0	6.491928143069183e+17
19493.0	6.494956274668884e+17
19494.0	6.497813437349887e+17
19495.0	6.500463680334506e+17
19496.0	6.502807291035647e+17
19497.0	6.50516872962594e+17
19498.0	6.506218231868074e+17
19499.0	6.505737535968598e+17
19500.0	6.511425891598335e+17
19501.0	6.513546758892201e+17
19502.0	6.515322469220351e+17
19503.0	6.517044721745919e+17
19504.0	6.518517650161663e+17
19505.0	6.519896016595626e+17
19506.0	6.521173245777236e+17
19507.0	6.522347360092159e+17
19508.0	6.523402967842815e+17
19509.0	6.524354957410303e+17
19510.0	6.525024026492927e+17
19511.0	6.520098303683238e+17
19512.0	6.525601679321769e+17
19513.0	6.526177534192297e+17
19514.0	6.527099774260564e+17
19515.0	6.528837362559657e+17
19516.0	6.529599571755007e+17
19517.0	6.530117589969578e+17
19518.0	6.530553189411498e+17
19519.0	6.530919322790569e+17
19520.0	6.531223393053353e+17
19521.0	6.531522769889961e+17
19522.0	6.531739286153897e+17
19523.0	6.531944089823913e+17
19524.0	6.53207945609216e+17
19525.0	6.532193280415059e+17
19526.0	6.532400578297855e+17
19527.0	6.532507713404927e+17
19528.0	6.532500941701121e+17
19529.0	6.532464277192704e+17
19530.0	6.532377729826815e+17
19531.0	6.532242021023743e+17
19532.0	6.532078253025961e+17
19533.0	6.531882907511465e+17
19534.0	6.531673536244394e+17
19535.0	6.531448868350634e+17
19536.0	6.531149176941225e+17
19537.0	6.530858870287017e+17
19538.0	6.530568148396714e+17
19539.0	6.530148404122964e+17
19540.0	6.529911416160255e+17
19541.0	6.529533684132522e+17
19542.0	6.529083766734847e+17
19543.0	6.528589242914134e+17
19544.0	6.528081840482986e+17
19545.0	6.527333984195923e+17
19546.0	6.526747184988159e+17
19547.0	6.526504874453674e+17
19548.0	6.525981198123007e+17
19549.0	6.525355807823187e+17
19550.0	6.524842882891775e+17
19551.0	6.524279898942121e+17
19552.0	6.523748149974356e+17
19553.0	6.523112984150016e+17
19554.0	6.522472521618771e+17
19555.0	6.521824681306793e+17
19556.0	6.521170515285331e+17
19557.0	6.520492057952255e+17
19558.0	6.51980257169681e+17
19559.0	6.519101964244308e+17
19560.0	6.518363499003903e+17
19561.0	6.517642838583978e+17
19562.0	6.516919381961385e+17
19563.0	6.516177011823956e+17
19564.0	6.515418285998079e+17
19565.0	6.514643069566975e+17
19566.0	6.51384330527266e+17
19567.0	6.513056660761258e+17
19568.0	6.512233857854121e+17
19569.0	6.511448800886783e+17
19570.0	6.510681510991188e+17
19571.0	6.509857567233363e+17
19572.0	6.509018735793492e+17
19573.0	6.508247835301203e+17
19574.0	6.507331846143999e+17
19575.0	6.506530858511017e+17
19576.0	6.505658076976467e+17
19577.0	6.504768815322452e+17
19578.0	6.503876232478719e+17
19579.0	6.502967675628201e+17
19580.0	6.502061289330003e+17
19581.0	6.501160786242217e+17
19582.0	6.500245710045183e+17
19583.0	6.499320408834047e+17
19584.0	6.498447767109631e+17
19585.0	6.497518470823933e+17
19586.0	6.496559394979837e+17
19587.0	6.495673512536746e+17
19588.0	6.494593222006102e+17
19589.0	6.493755098005503e+17
19590.0	6.492791639113727e+17
19591.0	6.491878826442751e+17
19592.0	6.490914067316735e+17
19593.0	6.489929371964756e+17
19594.0	6.488812897872553e+17
19595.0	6.487973437287082e+17
19596.0	6.486940594121385e+17
19597.0	6.486019516574378e+17
19598.0	6.484944429077844e+17
19599.0	6.484157093205332e+17
19600.0	6.483170553058644e+17
19601.0	6.482132445342378e+17
19602.0	6.481097434420564e+17
19603.0	6.480006255476735e+17
19604.0	6.479080750142804e+17
19605.0	6.47797480235554e+17
19606.0	6.477117859910995e+17
19607.0	6.476292713786025e+17
19608.0	6.475261379870719e+17
19609.0	6.474221049173332e+17
19610.0	6.473208346356394e+17
19611.0	6.472171947819007e+17
19612.0	6.471146817279316e+17
19613.0	6.470099013730303e+17
19614.0	6.469034407100415e+17
19615.0	6.468067575988223e+17
19616.0	6.46700381381154e+17
19617.0	6.465939969146877e+17
19618.0	6.464635834903208e+17
19619.0	6.463499075758761e+17
19620.0	6.462554011686228e+17
19621.0	6.461708568625151e+17
19622.0	6.460691795236179e+17
19623.0	6.459633958212948e+17
19624.0	6.458560432395604e+17
19625.0	6.457492320725673e+17
19626.0	6.456407587728041e+17
19627.0	6.455301405059753e+17
19628.0	6.454154770426538e+17
19629.0	6.452867288967849e+17
19630.0	6.451238355511978e+17
19631.0	6.449468998855338e+17
19632.0	6.449569602732031e+17
19633.0	6.448727954117971e+17
19634.0	6.44775079243503e+17
19635.0	6.446671716854442e+17
19636.0	6.445615747694591e+17
19637.0	6.44428945284574e+17
19638.0	6.44348324749858e+17
19639.0	6.44241968594944e+17
19640.0	6.441224065340755e+17
19641.0	6.439902157733887e+17
19642.0	6.439142278474409e+17
19643.0	6.438052159990442e+17
19644.0	6.436911653235369e+17
19645.0	6.435780883557033e+17
19646.0	6.434751788701012e+17
19647.0	6.433679891671721e+17
19648.0	6.43258307837952e+17
19649.0	6.431482949490004e+17
19650.0	6.430382264156159e+17
19651.0	6.429275343989418e+17
19652.0	6.428175099057492e+17
19653.0	6.427072020873215e+17
19654.0	6.425961248238249e+17
19655.0	6.424859626875561e+17
19656.0	6.42375251726609e+17
19657.0	6.422647060212393e+17
19658.0	6.421538697205076e+17
19659.0	6.4204291192477e+17
19660.0	6.419319266563412e+17
19661.0	6.418207750138538e+17
19662.0	6.417099653469523e+17
19663.0	6.415980385271808e+17
19664.0	6.414871600736937e+17
19665.0	6.413768252719101e+17
