# Flux units: erg / (cm m2 s)
# Wavelength units: Angstrom
wave	flux
19000.0	5.499371898535935e+17
19001.0	5.498295433909588e+17
19002.0	5.497325711523838e+17
19003.0	5.496291935824554e+17
19004.0	5.4952639098170016e+17
19005.0	5.4942516019636896e+17
19006.0	5.493230723050153e+17
19007.0	5.491917340366165e+17
19008.0	5.4911507397345274e+17
19009.0	5.49015258206481e+17
19010.0	5.4888473845650765e+17
19011.0	5.4880982595010554e+17
19012.0	5.486322463189673e+17
19013.0	5.486067716543828e+17
19014.0	5.4850202003046394e+17
19015.0	5.4840061609028256e+17
19016.0	5.482978022348117e+17
19017.0	5.481976141534549e+17
19018.0	5.48091441848866e+17
19019.0	5.479938295595006e+17
19020.0	5.478905002939733e+17
19021.0	5.477895198386858e+17
19022.0	5.4768767605582496e+17
19023.0	5.4758387898559136e+17
19024.0	5.4748253600262816e+17
19025.0	5.473754378054315e+17
19026.0	5.4727089058392723e+17
19027.0	5.4711389946292896e+17
19028.0	5.470758913791315e+17
19029.0	5.469721665208319e+17
19030.0	5.4687218256226976e+17
19031.0	5.467707138200917e+17
19032.0	5.466683063926783e+17
19033.0	5.4656188564548256e+17
19034.0	5.464639667524949e+17
19035.0	5.463606557321898e+17
19036.0	5.419307800461267e+17
19037.0	5.4615808538924365e+17
19038.0	5.4605630361217696e+17
19039.0	5.459555943186431e+17
19040.0	5.45854101529122e+17
19041.0	5.457516244063572e+17
19042.0	5.456435556472147e+17
19043.0	5.4554906343069005e+17
19044.0	5.454462936154111e+17
19045.0	5.453429921721002e+17
19046.0	5.452404638089215e+17
19047.0	5.4514218210863776e+17
19048.0	5.4502779847529805e+17
19049.0	5.4493174367081805e+17
19050.0	5.448346716078079e+17
19051.0	5.44039619753846e+17
19052.0	5.4460048739751264e+17
19053.0	5.4452558978088954e+17
19054.0	5.4443120312101536e+17
19055.0	5.443155249856511e+17
19056.0	5.442263951867903e+17
19057.0	5.4412589358120954e+17
19058.0	5.440156192473087e+17
19059.0	5.439227384124757e+17
19060.0	5.4382031490689696e+17
19061.0	5.437209840014676e+17
19062.0	5.4361931602984954e+17
19063.0	5.435181148842666e+17
19064.0	5.4340937524619936e+17
19065.0	5.4330617299817805e+17
19066.0	5.432103369965567e+17
19067.0	5.4311215183517005e+17
19068.0	5.4301154977600845e+17
19069.0	5.42910208680482e+17
19070.0	5.428074397040639e+17
19071.0	5.427046902311595e+17
19072.0	5.426056864814421e+17
19073.0	5.425052625403903e+17
19074.0	5.424043896690004e+17
19075.0	5.423032364083883e+17
19076.0	5.4220083729967776e+17
19077.0	5.4210004467930445e+17
19078.0	5.419973944016896e+17
19079.0	5.418987076714494e+17
19080.0	5.4179707639999136e+17
19081.0	5.41694192919074e+17
19082.0	5.415928282655402e+17
19083.0	5.4148937373013325e+17
19084.0	5.4138164813496314e+17
19085.0	5.412919046395221e+17
19086.0	5.411674230095871e+17
19087.0	5.409623648152234e+17
19088.0	5.4098419742583456e+17
19089.0	5.4081269764805965e+17
19090.0	5.4078618405437446e+17
19091.0	5.406860183426389e+17
19092.0	5.405518498278057e+17
19093.0	5.4048562568232954e+17
19094.0	5.403847042269183e+17
19095.0	5.402838490415103e+17
19096.0	5.4018084343644154e+17
19097.0	5.400824404508671e+17
19098.0	5.3998089131786234e+17
19099.0	5.3987980964003834e+17
19100.0	5.397732921442303e+17
19101.0	5.3967728501500576e+17
19102.0	5.395730742465876e+17
19103.0	5.394781846896639e+17
19104.0	5.3937805344112634e+17
19105.0	5.392755037569023e+17
19106.0	5.391530603489962e+17
19107.0	5.390747598935381e+17
19108.0	5.389749655175167e+17
19109.0	5.385086130192379e+17
19110.0	5.3877338943433376e+17
19111.0	5.386722023396692e+17
19112.0	5.3857325521305594e+17
19113.0	5.384733508064596e+17
19114.0	5.38372495970577e+17
19115.0	5.382604998049792e+17
19116.0	5.381711632968362e+17
19117.0	5.3807099772491085e+17
19118.0	5.379457785965226e+17
19119.0	5.3759773007762714e+17
19120.0	5.377314091171839e+17
19121.0	5.3764750835712e+17
19122.0	5.375705068776106e+17
19123.0	5.374701739529555e+17
19124.0	5.373473231383209e+17
19125.0	5.372686924513279e+17
19126.0	5.371666569188694e+17
19127.0	5.369733770990931e+17
19128.0	5.367882765915474e+17
19129.0	5.368645271508309e+17
19130.0	5.367684392113492e+17
19131.0	5.366627651900757e+17
19132.0	5.365687557379413e+17
19133.0	5.364395785147733e+17
19134.0	5.3627857589152435e+17
19135.0	5.3626699388026874e+17
19136.0	5.3616889735850656e+17
19137.0	5.360598550315007e+17
19138.0	5.359589305701717e+17
19139.0	5.358689185693696e+17
19140.0	5.3576912062818976e+17
19141.0	5.3566923880093005e+17
19142.0	5.3556664353860256e+17
19143.0	5.354659304701951e+17
19144.0	5.3536768679826765e+17
19145.0	5.352689616202409e+17
19146.0	5.351322064781311e+17
19147.0	5.350650027529556e+17
19148.0	5.3496739479770445e+17
19149.0	5.3486810492654925e+17
19150.0	5.347703182939477e+17
19151.0	5.346709467037696e+17
19152.0	5.3456683890551456e+17
19153.0	5.3446937215849805e+17
19154.0	5.343651527917566e+17
19155.0	5.3427118807886496e+17
19156.0	5.341726662546772e+17
19157.0	5.3406986714917536e+17
19158.0	5.337264135602171e+17
19159.0	5.3387243461891405e+17
19160.0	5.337686504811177e+17
19161.0	5.336584759716522e+17
19162.0	5.330126693378734e+17
19163.0	5.3347390331726496e+17
19164.0	5.333764265039189e+17
19165.0	5.3326426878771194e+17
19166.0	5.3315681624173216e+17
19167.0	5.330243976604329e+17
19168.0	5.329760503376554e+17
19169.0	5.3286727861316256e+17
19170.0	5.32779597247283e+17
19171.0	5.326447645644117e+17
19172.0	5.3257843003883514e+17
19173.0	5.3248010345949856e+17
19174.0	5.323793764799828e+17
19175.0	5.322829489416873e+17
19176.0	5.321838833958911e+17
19177.0	5.320767761110356e+17
19178.0	5.319801655612758e+17
19179.0	5.3183133480823475e+17
19180.0	5.3176990852710394e+17
19181.0	5.316805281884842e+17
19182.0	5.3158646225305594e+17
19183.0	5.3148765067236685e+17
19184.0	5.313857260093439e+17
19185.0	5.31290709365009e+17
19186.0	5.311922196272468e+17
19187.0	5.310881348277588e+17
19188.0	5.3099135979137696e+17
19189.0	5.3088731225128954e+17
19190.0	5.307857277463209e+17
19191.0	5.306879604774228e+17
19192.0	5.30597253690163e+17
19193.0	5.3049162398870176e+17
19194.0	5.3039540253054285e+17
19195.0	5.302992152559615e+17
19196.0	5.302006114331306e+17
19197.0	5.3010154162312525e+17
19198.0	5.300008073035775e+17
19199.0	5.266929431696716e+17
19200.0	5.278038732308494e+17
19201.0	5.2970455592250016e+17
19202.0	5.296078263244117e+17
19203.0	5.2950090484722336e+17
19204.0	5.294077727735807e+17
19205.0	5.2931153957137056e+17
19206.0	5.292125379887103e+17
19207.0	5.291099446138196e+17
19208.0	5.2900244054780576e+17
19209.0	5.289147308703743e+17
19210.0	5.288176091747668e+17
19211.0	5.2871961464449696e+17
19212.0	5.286207101599743e+17
19213.0	5.2848782300501325e+17
19214.0	5.2837551995617286e+17
19215.0	5.2831331940652365e+17
19216.0	5.282257500285609e+17
19217.0	5.281267782953643e+17
19218.0	5.2798268591745696e+17
19219.0	5.2792203061930656e+17
19220.0	5.2782785542225914e+17
19221.0	5.277125841343827e+17
19222.0	5.276338664155817e+17
19223.0	5.275344600825855e+17
19224.0	5.27434285982242e+17
19225.0	5.2733025291250336e+17
19226.0	5.2723850279212365e+17
19227.0	5.271400562556926e+17
19228.0	5.2704296238230176e+17
19229.0	5.269444000830804e+17
19230.0	5.26839244268066e+17
19231.0	5.267419454330196e+17
19232.0	5.2664770284748794e+17
19233.0	5.265456915021823e+17
19234.0	5.2645034847109114e+17
19235.0	5.2635140714659834e+17
19236.0	5.262547691241471e+17
19237.0	5.261552433233919e+17
19238.0	5.2604765180613965e+17
19239.0	5.2595900351337805e+17
19240.0	5.2585597756593485e+17
19241.0	5.257599003219285e+17
19242.0	5.2566341664986445e+17
19243.0	5.255576337864019e+17
19244.0	5.254681455842645e+17
19245.0	5.2536944018937165e+17
19246.0	5.252703921198421e+17
19247.0	5.251724614128981e+17
19248.0	5.25073622709043e+17
19249.0	5.249742662183594e+17
19250.0	5.2487625833622176e+17
19251.0	5.247747015136596e+17
19252.0	5.246637146374142e+17
19253.0	5.24581078180386e+17
19254.0	5.244829478944766e+17
19255.0	5.2437463740361376e+17
19256.0	5.24281882607616e+17
19257.0	5.2418850460794874e+17
19258.0	5.240903507640319e+17
19259.0	5.239878646235135e+17
19260.0	5.2381154006794214e+17
19261.0	5.2379446736322554e+17
19262.0	5.236935614966443e+17
19263.0	5.235954389002922e+17
19264.0	5.23470756712721e+17
19265.0	5.233900806733824e+17
19266.0	5.2329091649153696e+17
19267.0	5.232045841536341e+17
19268.0	5.2310559913847443e+17
19269.0	5.2300745431231136e+17
19270.0	5.229089393388202e+17
19271.0	5.227918087858858e+17
19272.0	5.2271029094973434e+17
19273.0	5.2246514115106106e+17
19274.0	5.224316046147582e+17
19275.0	5.224166419245738e+17
19276.0	5.2231701175555405e+17
19277.0	5.2221840073250125e+17
19278.0	5.219147923324924e+17
19279.0	5.2177202437597856e+17
19280.0	5.2167560592534176e+17
19281.0	5.215813525744298e+17
19282.0	5.2148347702258336e+17
19283.0	5.2133286334081696e+17
19284.0	5.2122706321080294e+17
19285.0	5.2117614282233165e+17
19286.0	5.2108694290868896e+17
19287.0	5.2098983484456954e+17
19288.0	5.1998516223235437e+17
19289.0	5.176867952088338e+17
19290.0	5.2069342855386445e+17
19291.0	5.2058107090916685e+17
19292.0	5.2049580930717005e+17
19293.0	5.203964223378772e+17
19294.0	5.202972715078998e+17
19295.0	5.201988483197609e+17
19296.0	5.200985454542847e+17
19297.0	5.199971503920469e+17
19298.0	5.1989976864959136e+17
19299.0	5.198012984852479e+17
19300.0	5.197028163671381e+17
19301.0	5.196032515593557e+17
19302.0	5.1950395644532045e+17
19303.0	5.193987979040085e+17
19304.0	5.193030138418517e+17
19305.0	5.19204698657041e+17
19306.0	5.191028738883583e+17
19307.0	5.1899903200897696e+17
19308.0	5.189023634380117e+17
19309.0	5.18690851468083e+17
19310.0	5.185425746427901e+17
19311.0	5.1859817601433594e+17
19312.0	5.1850623204720634e+17
19313.0	5.184058627020117e+17
19314.0	5.141719866321478e+17
19315.0	5.145160140718177e+17
19316.0	5.18096071828002e+17
19317.0	5.18005071089937e+17
19318.0	5.1790443351900154e+17
19319.0	5.178046719983616e+17
19320.0	5.177034756762281e+17
19321.0	5.176024376890708e+17
19322.0	5.174951944388607e+17
19323.0	5.1734419858609504e+17
19324.0	5.1729719316097696e+17
19325.0	5.170860818868906e+17
19326.0	5.170962086144683e+17
19327.0	5.1699415092210336e+17
19328.0	5.1689216900683085e+17
19329.0	5.167917972848639e+17
19330.0	5.1668716247231136e+17
19331.0	5.1658506192814074e+17
19332.0	5.163837717566805e+17
19333.0	5.161054831815338e+17
19334.0	5.160048024791722e+17
19335.0	5.1589891818345805e+17
19336.0	5.157965919158272e+17
19337.0	5.156945997245097e+17
19338.0	5.1557980861453645e+17
19339.0	5.154858776657919e+17
19340.0	5.1537584408494074e+17
19341.0	5.152762576764927e+17
19342.0	5.151462659194878e+17
19343.0	5.1506791422361594e+17
19344.0	5.1496096513392634e+17
19345.0	5.1473020648161235e+17
19346.0	5.1472309944320006e+17
19347.0	5.146388646068223e+17
19348.0	5.145378208874496e+17
19349.0	5.14427722993937e+17
19350.0	5.143197276351145e+17
19351.0	5.14213248307473e+17
19352.0	5.141021436411904e+17
19353.0	5.1399902164418554e+17
19354.0	5.137431770693632e+17
19355.0	5.13619674599697e+17
19356.0	5.135139849895935e+17
19357.0	5.1340365857641805e+17
19358.0	5.1329005466419194e+17
19359.0	5.1317217829410125e+17
19360.0	5.130646572411562e+17
19361.0	5.1295173700048205e+17
19362.0	5.1284116557004794e+17
19363.0	5.1272682178259616e+17
19364.0	5.126111932099242e+17
19365.0	5.1244426081949e+17
19366.0	5.123204465033215e+17
19367.0	5.122022935188821e+17
19368.0	5.120847889039359e+17
19369.0	5.1195957348051616e+17
19370.0	5.1182716426649594e+17
19371.0	5.117213580547413e+17
19372.0	5.116021908875945e+17
19373.0	5.1147692827825485e+17
19374.0	5.1135428319423136e+17
19375.0	5.112283864760319e+17
19376.0	5.111022963305129e+17
19377.0	5.10973567967778e+17
19378.0	5.108443062992896e+17
19379.0	5.1071344771945805e+17
19380.0	5.105810577992362e+17
19381.0	5.104466116214783e+17
19382.0	5.1030656681683616e+17
19383.0	5.101677380807338e+17
19384.0	5.10033377956113e+17
19385.0	5.0989223990613325e+17
19386.0	5.0974880917968205e+17
19387.0	5.096023669429588e+17
19388.0	5.094546371248127e+17
19389.0	5.0930384504531616e+17
19390.0	5.0914931563124045e+17
19391.0	5.049996377675028e+17
19392.0	5.08830441222963e+17
19393.0	5.0867289883060896e+17
19394.0	5.085052992662185e+17
19395.0	5.0832836311121914e+17
19396.0	5.081561128326485e+17
19397.0	5.0798906670667085e+17
19398.0	5.078045585746602e+17
19399.0	5.075810551595006e+17
19400.0	5.0743002938736634e+17
19401.0	5.07237741170961e+17
19402.0	5.0703750789420365e+17
19403.0	5.0683127354709325e+17
19404.0	5.066206624437588e+17
19405.0	5.0640165308552525e+17
19406.0	5.061345600165204e+17
19407.0	5.05848963076369e+17
19408.0	5.0556676834590726e+17
19409.0	5.05360190275584e+17
19410.0	5.0510622768496634e+17
19411.0	5.048414110744575e+17
19412.0	5.045656585153194e+17
19413.0	5.042800231972862e+17
19414.0	5.039819930817876e+17
19415.0	5.035634131468287e+17
19416.0	5.031869889030825e+17
19417.0	5.028122769839444e+17
19418.0	5.0252831344558074e+17
19419.0	5.0206108818254515e+17
19420.0	5.0159693231117645e+17
19421.0	5.0119455930668365e+17
19422.0	5.005886528072362e+17
19423.0	5.000905671835647e+17
19424.0	4.9936237337422515e+17
19425.0	4.986871176932009e+17
19426.0	4.978647021300394e+17
19427.0	4.968516142759933e+17
19428.0	4.9565354160728774e+17
19429.0	4.941526590641492e+17
19430.0	4.921586468869459e+17
19431.0	4.8982782440898765e+17
19432.0	4.895109813021353e+17
19433.0	4.883457183667541e+17
19434.0	4.87086005367603e+17
19435.0	4.8567302998370976e+17
19436.0	4.839080021983225e+17
19437.0	4.826429024545451e+17
19438.0	4.7459850511537344e+17
19439.0	4.790661635812014e+17
19440.0	4.7700844349139616e+17
19441.0	4.7455512965065414e+17
19442.0	4.7113311277984416e+17
19443.0	4.652357478514687e+17
19444.0	4.59236448752981e+17
19445.0	4.5440237176531654e+17
19446.0	4.4870401083310086e+17
19447.0	4.409163850798425e+17
19448.0	4.273087526032732e+17
19449.0	4.0990897298473e+17
19450.0	3.633730262051498e+17
19451.0	3.490053281021945e+17
19452.0	3.8977659375452314e+17
19453.0	4.2034808582307904e+17
19454.0	4.342340116283402e+17
19455.0	4.4480810842412384e+17
19456.0	4.509744654625452e+17
19457.0	4.5601113355496083e+17
19458.0	4.522364078041937e+17
19459.0	4.674199199853224e+17
19460.0	4.715589881473702e+17
19461.0	4.7421398369785184e+17
19462.0	4.7626098636226566e+17
19463.0	4.780461126232744e+17
19464.0	4.796133364727808e+17
19465.0	4.810986795390293e+17
19466.0	4.823599616273063e+17
19467.0	4.8367006946863763e+17
19468.0	4.8479219216984736e+17
19469.0	4.85788430246434e+17
19470.0	4.867488035984725e+17
19471.0	4.8777049872356646e+17
19472.0	4.895694875787267e+17
19473.0	4.910361141226159e+17
19474.0	4.922179174356312e+17
19475.0	4.930434325894483e+17
19476.0	4.9376695030906906e+17
19477.0	4.944025732426411e+17
19478.0	4.9488105482922656e+17
19479.0	4.952654554507945e+17
19480.0	4.956678173403817e+17
19481.0	4.959669753741311e+17
19482.0	4.9617489450325325e+17
19483.0	4.965271423593131e+17
19484.0	4.96710657979187e+17
19485.0	4.968638060691455e+17
19486.0	4.9700610517237754e+17
19487.0	4.9720495789397344e+17
19488.0	4.9738692952063994e+17
19489.0	4.9748940419672736e+17
19490.0	4.975002605933907e+17
19491.0	4.9766340748465485e+17
19492.0	4.977388793714005e+17
19493.0	4.9780084636822176e+17
19494.0	4.97856972656913e+17
19495.0	4.979045278853802e+17
19496.0	4.979613148468566e+17
19497.0	4.9807106314513056e+17
19498.0	4.9798012385361984e+17
19499.0	4.9167894769390125e+17
19500.0	4.981349189768532e+17
19501.0	4.9814442243085645e+17
19502.0	4.981464471612074e+17
19503.0	4.9814942735400954e+17
19504.0	4.9814331890947405e+17
19505.0	4.98137385926656e+17
19506.0	4.981241717019988e+17
19507.0	4.9810709032905376e+17
19508.0	4.980883048802987e+17
19509.0	4.980646938847914e+17
19510.0	4.9802683064429216e+17
19511.0	4.8969665845656736e+17
19512.0	4.972556870221782e+17
19513.0	4.961254290489308e+17
19514.0	4.96703155767431e+17
19515.0	4.9778046072258566e+17
19516.0	4.9782044047878816e+17
19517.0	4.977724082181461e+17
19518.0	4.9772979248168954e+17
19519.0	4.976786272856746e+17
19520.0	4.9762867347455994e+17
19521.0	4.9757965198731936e+17
19522.0	4.9752385061737805e+17
19523.0	4.974706681009493e+17
19524.0	4.974131825781419e+17
19525.0	4.9735496892415994e+17
19526.0	4.9729696645338445e+17
19527.0	4.972361679896575e+17
19528.0	4.971740634196649e+17
19529.0	4.971110161798485e+17
19530.0	4.9704796348743674e+17
19531.0	4.9698296799341216e+17
19532.0	4.969169881661439e+17
19533.0	4.968498987357525e+17
19534.0	4.96782201131281e+17
19535.0	4.967124345465515e+17
19536.0	4.9664201022504954e+17
19537.0	4.965739835774292e+17
19538.0	4.9650051712723616e+17
19539.0	4.963972502170284e+17
19540.0	4.9635753246501536e+17
19541.0	4.962856391584426e+17
19542.0	4.962119030145023e+17
19543.0	4.961368639100244e+17
19544.0	4.960631578951679e+17
19545.0	4.959701930344446e+17
19546.0	4.9585634116894726e+17
19547.0	4.958363784489642e+17
19548.0	4.957596234547198e+17
19549.0	4.956772275410259e+17
19550.0	4.9560508418402976e+17
19551.0	4.955272516730879e+17
19552.0	4.954488441230677e+17
19553.0	4.953691738778281e+17
19554.0	4.9528849797829965e+17
19555.0	4.952107415240703e+17
19556.0	4.95131818074658e+17
19557.0	4.951934764406099e+17
19558.0	4.951135527195989e+17
19559.0	4.950325641347072e+17
19560.0	4.9498261472761165e+17
19561.0	4.949227520830122e+17
19562.0	4.948417664341332e+17
19563.0	4.9476061958417056e+17
19564.0	4.9467846400409594e+17
19565.0	4.945958767602345e+17
19566.0	4.9451171259787936e+17
19567.0	4.944305196804777e+17
19568.0	4.94346167263778e+17
19569.0	4.942630883076778e+17
19570.0	4.941809276944383e+17
19571.0	4.940972337135615e+17
19572.0	4.9401162643101005e+17
19573.0	4.9392879389026976e+17
19574.0	4.9384030784716794e+17
19575.0	4.9376146478858234e+17
19576.0	4.9367680024576e+17
19577.0	4.935895570448383e+17
19578.0	4.935056012694868e+17
19579.0	4.9342169414806163e+17
19580.0	4.933370310033407e+17
19581.0	4.9325245258356045e+17
19582.0	4.9316842235931296e+17
19583.0	4.930832279360851e+17
19584.0	4.92996364739106e+17
19585.0	4.929063723816276e+17
19586.0	4.9281842334924794e+17
19587.0	4.9271970648992416e+17
19588.0	4.9262961374877005e+17
19589.0	4.925665162472106e+17
19590.0	4.924767509413887e+17
19591.0	4.923976918062419e+17
19592.0	4.9231203300365645e+17
19593.0	4.9222497533078163e+17
19594.0	4.92122457453363e+17
19595.0	4.9205268241012045e+17
19596.0	4.9163875116209485e+17
19597.0	4.918797040702804e+17
19598.0	4.917739682529279e+17
19599.0	4.918859457538731e+17
19600.0	4.918672752989525e+17
19601.0	4.9177687189968205e+17
19602.0	4.916911734609236e+17
19603.0	4.915271252137299e+17
19604.0	4.915161706703531e+17
19605.0	4.914163842635093e+17
19606.0	4.9134554505543674e+17
19607.0	4.9125908255429965e+17
19608.0	4.911708115391828e+17
19609.0	4.9108118807074125e+17
19610.0	4.909972815085568e+17
19611.0	4.909092173425321e+17
19612.0	4.9082350848791885e+17
19613.0	4.907356046142122e+17
19614.0	4.90646889771827e+17
19615.0	4.9056167109154125e+17
19616.0	4.90437050630144e+17
19617.0	4.9038588242821114e+17
19618.0	4.902713145950206e+17
19619.0	4.901714735923198e+17
19620.0	4.900880123953151e+17
19621.0	4.9003584993361914e+17
19622.0	4.8995024817356794e+17
19623.0	4.8986268040342176e+17
19624.0	4.8977488404370765e+17
19625.0	4.896873887651158e+17
19626.0	4.8959995045915296e+17
19627.0	4.895125232680959e+17
19628.0	4.893444900825773e+17
19629.0	4.8932962840521376e+17
19630.0	4.892195465898668e+17
19631.0	4.8560122622552486e+17
19632.0	4.890734534590464e+17
19633.0	4.889809486435669e+17
19634.0	4.888999370599081e+17
19635.0	4.8881030534266874e+17
19636.0	4.8872264033457485e+17
19637.0	4.8861694597092685e+17
19638.0	4.885490003432789e+17
19639.0	4.8846011003917645e+17
19640.0	4.883712834185898e+17
19641.0	4.882351448391682e+17
19642.0	4.8819856918009165e+17
19643.0	4.8810965028481696e+17
19644.0	4.880205847287124e+17
19645.0	4.879211447713791e+17
19646.0	4.878472995056298e+17
19647.0	4.877609992541525e+17
19648.0	4.8767314522275834e+17
19649.0	4.8758533124696723e+17
19650.0	4.8749801897983994e+17
19651.0	4.874100605801813e+17
19652.0	4.8732228603084794e+17
19653.0	4.872332828999679e+17
19654.0	4.8714695678361594e+17
19655.0	4.8705900257826125e+17
19656.0	4.8697173665819296e+17
