# Flux units: erg / (cm m2 s)
# Wavelength units: Angstrom
wave	flux
19000.0	7.964058548436992e+17
19001.0	7.962137888555005e+17
19002.0	7.961255784480767e+17
19003.0	7.959818270670847e+17
19004.0	7.95840086016e+17
19005.0	7.956971354674514e+17
19006.0	7.95555455373585e+17
19007.0	7.954039007696212e+17
19008.0	7.952477261398016e+17
19009.0	7.950487356353192e+17
19010.0	7.948255098830847e+17
19011.0	7.948159992987647e+17
19012.0	7.946001729978367e+17
19013.0	7.945557346265769e+17
19014.0	7.943828767331667e+17
19015.0	7.942535011893247e+17
19016.0	7.941193607763283e+17
19017.0	7.939805144940543e+17
19018.0	7.938383324818089e+17
19019.0	7.936967130655402e+17
19020.0	7.93549543047168e+17
19021.0	7.93416776688162e+17
19022.0	7.932715494714024e+17
19023.0	7.931062632753833e+17
19024.0	7.9297455877434e+17
19025.0	7.928258191076009e+17
19026.0	7.926709816218963e+17
19027.0	7.924892125102076e+17
19028.0	7.923981537509375e+17
19029.0	7.922502365872125e+17
19030.0	7.921212063743997e+17
19031.0	7.920097860867411e+17
19032.0	7.918621626641066e+17
19033.0	7.916555711021055e+17
19034.0	7.915128929036969e+17
19035.0	7.910619656574291e+17
19036.0	7.866968614895612e+17
19037.0	7.908637126514003e+17
19038.0	7.909366493609983e+17
19039.0	7.90836047581457e+17
19040.0	7.907049355957587e+17
19041.0	7.905615972139007e+17
19042.0	7.903672388987562e+17
19043.0	7.902776330463913e+17
19044.0	7.901281906939219e+17
19045.0	7.899832878366719e+17
19046.0	7.898147556687872e+17
19047.0	7.896673310561619e+17
19048.0	7.894731240155816e+17
19049.0	7.893337101041661e+17
19050.0	7.891754952250708e+17
19051.0	7.884271136713382e+17
19052.0	7.886289321153875e+17
19053.0	7.887824159593812e+17
19054.0	7.886618158781778e+17
19055.0	7.883894938402819e+17
19056.0	7.883701969660586e+17
19057.0	7.882362336925011e+17
19058.0	7.880783389786111e+17
19059.0	7.879436344317267e+17
19060.0	7.8779674291514e+17
19061.0	7.876574907640489e+17
19062.0	7.875090309971965e+17
19063.0	7.873608933528913e+17
19064.0	7.871663068676093e+17
19065.0	7.869764152066045e+17
19066.0	7.868857762971647e+17
19067.0	7.86771446281011e+17
19068.0	7.866318640381951e+17
19069.0	7.864859827896317e+17
19070.0	7.863263328993279e+17
19071.0	7.861858821559636e+17
19072.0	7.860425797053096e+17
19073.0	7.858967022316202e+17
19074.0	7.857531844733609e+17
19075.0	7.856055953042088e+17
19076.0	7.854525215233364e+17
19077.0	7.853026653328723e+17
19078.0	7.851448865215828e+17
19079.0	7.85013999070959e+17
19080.0	7.848597157926227e+17
19081.0	7.846927409698131e+17
19082.0	7.845583828724393e+17
19083.0	7.843545595510783e+17
19084.0	7.841365338969428e+17
19085.0	7.841098561661609e+17
19086.0	7.837346423985491e+17
19087.0	7.83760980390707e+17
19088.0	7.835939088192851e+17
19089.0	7.833889865902766e+17
19090.0	7.833464535515135e+17
19091.0	7.832125860478975e+17
19092.0	7.830372816169641e+17
19093.0	7.829366634796374e+17
19094.0	7.827947257156947e+17
19095.0	7.826511121874944e+17
19096.0	7.824997161282217e+17
19097.0	7.823549508441428e+17
19098.0	7.822035875004415e+17
19099.0	7.820547759712938e+17
19100.0	7.819010729050111e+17
19101.0	7.817545938283177e+17
19102.0	7.815790159287636e+17
19103.0	7.814618042859517e+17
19104.0	7.81316359524625e+17
19105.0	7.811536086455636e+17
19106.0	7.810015728151209e+17
19107.0	7.808417968160765e+17
19108.0	7.806634673132884e+17
19109.0	7.80324355458116e+17
19110.0	7.803128797025619e+17
19111.0	7.802456561942528e+17
19112.0	7.801172075915945e+17
19113.0	7.799761738399744e+17
19114.0	7.798244244804948e+17
19115.0	7.796515869993642e+17
19116.0	7.795173488590845e+17
19117.0	7.793639003870547e+17
19118.0	7.791514923040767e+17
19119.0	7.777751529772356e+17
19120.0	7.788642398022314e+17
19121.0	7.78748617381205e+17
19122.0	7.786375618581844e+17
19123.0	7.784897436800339e+17
19124.0	7.782984544769364e+17
19125.0	7.781774502046377e+17
19126.0	7.77975497962291e+17
19127.0	7.772637455450111e+17
19128.0	7.775926834167805e+17
19129.0	7.77535500792627e+17
19130.0	7.774359145938943e+17
19131.0	7.77295513203507e+17
19132.0	7.771469404700672e+17
19133.0	7.769620226943657e+17
19134.0	7.768138847704404e+17
19135.0	7.76698809286656e+17
19136.0	7.765468829275476e+17
19137.0	7.763513792877908e+17
19138.0	7.762392055633236e+17
19139.0	7.761023827531092e+17
19140.0	7.759546775415466e+17
19141.0	7.758057484320765e+17
19142.0	7.756388794455382e+17
19143.0	7.7548457323834e+17
19144.0	7.753281333886975e+17
19145.0	7.75200732103748e+17
19146.0	7.74732028558268e+17
19147.0	7.748742388121597e+17
19148.0	7.747456706718377e+17
19149.0	7.745938105827328e+17
19150.0	7.744481928762706e+17
19151.0	7.742951821497684e+17
19152.0	7.741382284978857e+17
19153.0	7.739720545075199e+17
19154.0	7.73798076035891e+17
19155.0	7.736728223743999e+17
19156.0	7.735162360037373e+17
19157.0	7.733270331872596e+17
19158.0	7.731093124590249e+17
19159.0	7.730242160427005e+17
19160.0	7.728798713075025e+17
19161.0	7.726788303476051e+17
19162.0	7.722306001786196e+17
19163.0	7.723010949644287e+17
19164.0	7.72281767891217e+17
19165.0	7.721424744961364e+17
19166.0	7.719637701623805e+17
19167.0	7.718275728627028e+17
19168.0	7.717007393467049e+17
19169.0	7.715608312064681e+17
19170.0	7.714156593545216e+17
19171.0	7.712565443777875e+17
19172.0	7.711074024772946e+17
19173.0	7.709639997827753e+17
19174.0	7.707954128093184e+17
19175.0	7.70660818293009e+17
19176.0	7.705051822118227e+17
19177.0	7.702743099637757e+17
19178.0	7.701899302141948e+17
19179.0	7.700320552135338e+17
19180.0	7.698862778438995e+17
19181.0	7.697041962565632e+17
19182.0	7.695775049274708e+17
19183.0	7.694393551792808e+17
19184.0	7.692833646794068e+17
19185.0	7.691257567161002e+17
19186.0	7.689773988708351e+17
19187.0	7.687764090814461e+17
19188.0	7.686627911183017e+17
19189.0	7.685042399958355e+17
19190.0	7.683431541156521e+17
19191.0	7.681667780400468e+17
19192.0	7.680211793477632e+17
19193.0	7.678459420256936e+17
19194.0	7.67658189319919e+17
19195.0	7.67469211877376e+17
19196.0	7.67227423813359e+17
19197.0	7.668978524618752e+17
19198.0	7.662512168938153e+17
19199.0	7.640859180793853e+17
19200.0	7.642072792869548e+17
19201.0	7.65850746705237e+17
19202.0	7.661422895606442e+17
19203.0	7.661393850051241e+17
19204.0	7.660641580657321e+17
19205.0	7.659529353297919e+17
19206.0	7.658238269631144e+17
19207.0	7.656228831712595e+17
19208.0	7.65476905034274e+17
19209.0	7.653894616252416e+17
19210.0	7.652425903811241e+17
19211.0	7.650974786475347e+17
19212.0	7.64937448333858e+17
19213.0	7.647220251055441e+17
19214.0	7.645655261162153e+17
19215.0	7.644603908532908e+17
19216.0	7.643129019280041e+17
19217.0	7.641260814761981e+17
19218.0	7.637418116470099e+17
19219.0	7.637181890472616e+17
19220.0	7.636686618667689e+17
19221.0	7.634413825993386e+17
19222.0	7.633528907541161e+17
19223.0	7.632129148059645e+17
19224.0	7.630388570619901e+17
19225.0	7.628688321413119e+17
19226.0	7.627395529266518e+17
19227.0	7.625853339609769e+17
19228.0	7.624427722244096e+17
19229.0	7.622840097090216e+17
19230.0	7.62120963550959e+17
19231.0	7.619579949875199e+17
19232.0	7.618033364587858e+17
19233.0	7.616102034396499e+17
19234.0	7.614801808545106e+17
19235.0	7.612928667331241e+17
19236.0	7.611513198783144e+17
19237.0	7.609837695969961e+17
19238.0	7.607843858066088e+17
19239.0	7.606695077347327e+17
19240.0	7.605052228588883e+17
19241.0	7.603345434869757e+17
19242.0	7.601775986431315e+17
19243.0	7.599281035455144e+17
19244.0	7.598631639755434e+17
19245.0	7.596973824322216e+17
19246.0	7.595328457583272e+17
19247.0	7.593677144719357e+17
19248.0	7.592099815183702e+17
19249.0	7.590454760221353e+17
19250.0	7.588724264490323e+17
19251.0	7.58662946130056e+17
19252.0	7.583880631899476e+17
19253.0	7.583785001768276e+17
19254.0	7.582216347451391e+17
19255.0	7.57948187375479e+17
19256.0	7.578770865127424e+17
19257.0	7.577225771614207e+17
19258.0	7.575563959009279e+17
19259.0	7.573300831409492e+17
19260.0	7.571014380683261e+17
19261.0	7.570173593299625e+17
19262.0	7.568238630841e+17
19263.0	7.566332125336915e+17
19264.0	7.563191710121981e+17
19265.0	7.562621779705855e+17
19266.0	7.561137679761407e+17
19267.0	7.560103368589311e+17
19268.0	7.558291434853715e+17
19269.0	7.556558602895357e+17
19270.0	7.554666584517289e+17
19271.0	7.551937385857024e+17
19272.0	7.551096346815144e+17
19273.0	7.547273023411538e+17
19274.0	7.545088383822501e+17
19275.0	7.54613423911731e+17
19276.0	7.544362201601364e+17
19277.0	7.542627623414442e+17
19278.0	7.540599663449428e+17
19279.0	7.538611184467965e+17
19280.0	7.536722627788799e+17
19281.0	7.53514193162513e+17
19282.0	7.533399826060627e+17
19283.0	7.531463135548756e+17
19284.0	7.52930313469952e+17
19285.0	7.527502778641064e+17
19286.0	7.525722971876009e+17
19287.0	7.523538705580032e+17
19288.0	7.505449034536264e+17
19289.0	7.492114401198057e+17
19290.0	7.517906538244777e+17
19291.0	7.515497529955674e+17
19292.0	7.515229627176275e+17
19293.0	7.513131366481919e+17
19294.0	7.511198030015145e+17
19295.0	7.509420732841983e+17
19296.0	7.507489763360769e+17
19297.0	7.505501176725503e+17
19298.0	7.503631302874451e+17
19299.0	7.501848834124457e+17
19300.0	7.499982806450173e+17
19301.0	7.498069687926781e+17
19302.0	7.495939898649257e+17
19303.0	7.493698377307476e+17
19304.0	7.492010105634815e+17
19305.0	7.489833584820224e+17
19306.0	7.487621366284288e+17
19307.0	7.485431267109544e+17
19308.0	7.483387642817193e+17
19309.0	7.480699639212713e+17
19310.0	7.478238529279315e+17
19311.0	7.477132664679081e+17
19312.0	7.475494584844288e+17
19313.0	7.473309388810922e+17
19314.0	7.44047066026257e+17
19315.0	7.44065210165934e+17
19316.0	7.466939435013459e+17
19317.0	7.465047882203135e+17
19318.0	7.463043938822825e+17
19319.0	7.461060016253609e+17
19320.0	7.458936366039037e+17
19321.0	7.456715286336851e+17
19322.0	7.454285808446121e+17
19323.0	7.451930931844436e+17
19324.0	7.449760919191548e+17
19325.0	7.44742729373013e+17
19326.0	7.445456180565332e+17
19327.0	7.443322466817363e+17
19328.0	7.441110340556115e+17
19329.0	7.438935349264383e+17
19330.0	7.436557106195112e+17
19331.0	7.434119473179306e+17
19332.0	7.432006805050708e+17
19333.0	7.429556646445055e+17
19334.0	7.427236089036799e+17
19335.0	7.424607267061757e+17
19336.0	7.422265448726527e+17
19337.0	7.419835923300351e+17
19338.0	7.416349711488339e+17
19339.0	7.4144375926074e+17
19340.0	7.41164044062993e+17
19341.0	7.40899158106658e+17
19342.0	7.405539965272063e+17
19343.0	7.404042414194688e+17
19344.0	7.401110121742336e+17
19345.0	7.392375810818044e+17
19346.0	7.391762937719462e+17
19347.0	7.393176995583316e+17
19348.0	7.390972920987647e+17
19349.0	7.388158851984042e+17
19350.0	7.385493306081279e+17
19351.0	7.382614177830227e+17
19352.0	7.379196615589888e+17
19353.0	7.376821206472019e+17
19354.0	7.374013821790888e+17
19355.0	7.370662810572118e+17
19356.0	7.368193170822483e+17
19357.0	7.365173943031123e+17
19358.0	7.362063078085972e+17
19359.0	7.358852915789824e+17
19360.0	7.355505637501609e+17
19361.0	7.352264177309011e+17
19362.0	7.349056376406012e+17
19363.0	7.345271045008042e+17
19364.0	7.341974643627347e+17
19365.0	7.338594458228054e+17
19366.0	7.335214142805331e+17
19367.0	7.331747631639208e+17
19368.0	7.328244856520701e+17
19369.0	7.324445112096083e+17
19370.0	7.320841349322068e+17
19371.0	7.317120619992403e+17
19372.0	7.313666040223059e+17
19373.0	7.309600944553983e+17
19374.0	7.305224768542036e+17
19375.0	7.301315993184938e+17
19376.0	7.296965318541311e+17
19377.0	7.292566107411795e+17
19378.0	7.288411164158633e+17
19379.0	7.284174912924329e+17
19380.0	7.279818019525972e+17
19381.0	7.275316959510525e+17
19382.0	7.270384582437545e+17
19383.0	7.265755846410237e+17
19384.0	7.261262578013523e+17
19385.0	7.255924299967145e+17
19386.0	7.250869657534463e+17
19387.0	7.245849290954067e+17
19388.0	7.240558888091647e+17
19389.0	7.234508399050752e+17
19390.0	7.228252795961343e+17
19391.0	7.190437029390988e+17
19392.0	7.213666634039292e+17
19393.0	7.212679292081492e+17
19394.0	7.207284109912745e+17
19395.0	7.201376125146451e+17
19396.0	7.195317845884927e+17
19397.0	7.189102186550611e+17
19398.0	7.182457104586067e+17
19399.0	7.174014461367635e+17
19400.0	7.167860224819199e+17
19401.0	7.160887922829994e+17
19402.0	7.153866564261204e+17
19403.0	7.146471700125012e+17
19404.0	7.138935247470591e+17
19405.0	7.130951635872425e+17
19406.0	7.12280263168273e+17
19407.0	7.114311052121427e+17
19408.0	7.103657283682304e+17
19409.0	7.096471807590399e+17
19410.0	7.087716473416361e+17
19411.0	7.078369255839059e+17
19412.0	7.06861605200418e+17
19413.0	7.058300485675689e+17
19414.0	7.04789393650483e+17
19415.0	7.037087963764052e+17
19416.0	7.025174753487528e+17
19417.0	7.013849930661887e+17
19418.0	7.001948649684991e+17
19419.0	6.989347422557524e+17
19420.0	6.976255357004457e+17
19421.0	6.962633068511232e+17
19422.0	6.948295532347391e+17
19423.0	6.933546528669695e+17
19424.0	6.91812662579473e+17
19425.0	6.902187539387732e+17
19426.0	6.885309901963261e+17
19427.0	6.86758726537489e+17
19428.0	6.84910222385698e+17
19429.0	6.829206306553853e+17
19430.0	6.806749165475158e+17
19431.0	6.782325641707521e+17
19432.0	6.764351778892457e+17
19433.0	6.74047158456593e+17
19434.0	6.714680446462634e+17
19435.0	6.686487240944297e+17
19436.0	6.656728003947178e+17
19437.0	6.626827102235306e+17
19438.0	6.556710840478385e+17
19439.0	6.553870817820672e+17
19440.0	6.52156603535633e+17
19441.0	6.480782815483218e+17
19442.0	6.43579206627055e+17
19443.0	6.386422078504959e+17
19444.0	6.331665094453926e+17
19445.0	6.270656012353537e+17
19446.0	6.20182933410065e+17
19447.0	6.123300102427985e+17
19448.0	6.03234793859755e+17
19449.0	5.924822411029162e+17
19450.0	5.78994447441373e+17
19451.0	5.7094171021803494e+17
19452.0	5.862110400959827e+17
19453.0	5.978380449786542e+17
19454.0	6.074449900776102e+17
19455.0	6.156303481875113e+17
19456.0	6.227143439329965e+17
19457.0	6.289218315048275e+17
19458.0	6.302647292264508e+17
19459.0	6.39132023984402e+17
19460.0	6.43888741438805e+17
19461.0	6.479704759817556e+17
19462.0	6.51694107979503e+17
19463.0	6.551049180894546e+17
19464.0	6.582533095423999e+17
19465.0	6.611906654284458e+17
19466.0	6.63876845000021e+17
19467.0	6.664047424438272e+17
19468.0	6.687766080039594e+17
19469.0	6.709617167258963e+17
19470.0	6.730706087925076e+17
19471.0	6.75022758879778e+17
19472.0	6.768614784892927e+17
19473.0	6.786017062638932e+17
19474.0	6.802390204983978e+17
19475.0	6.815678501748733e+17
19476.0	6.832094642001235e+17
19477.0	6.846164052388522e+17
19478.0	6.859203753454249e+17
19479.0	6.871654169488041e+17
19480.0	6.88338413621521e+17
19481.0	6.894684936164691e+17
19482.0	6.905383734651561e+17
19483.0	6.915641499975679e+17
19484.0	6.925254709127849e+17
19485.0	6.934398089123156e+17
19486.0	6.943197794140159e+17
19487.0	6.951535486784851e+17
19488.0	6.959355839294121e+17
19489.0	6.965812107673597e+17
19490.0	6.970648305161555e+17
19491.0	6.980750808536403e+17
19492.0	6.987612289324372e+17
19493.0	6.993895614666067e+17
19494.0	6.999885541452457e+17
19495.0	7.005549625343999e+17
19496.0	7.009770414975657e+17
19497.0	7.015312369123327e+17
19498.0	7.009056006165841e+17
19499.0	6.97530526186427e+17
19500.0	7.028802571294036e+17
19501.0	7.034641549972819e+17
19502.0	7.04017423750485e+17
19503.0	7.044330817934675e+17
19504.0	7.048144245577044e+17
19505.0	7.051779335607635e+17
19506.0	7.055271464184489e+17
19507.0	7.058455089119232e+17
19508.0	7.061541052481535e+17
19509.0	7.064090202253994e+17
19510.0	7.065195857139028e+17
19511.0	7.01153087062013e+17
19512.0	7.058459324667218e+17
19513.0	7.057130457311901e+17
19514.0	7.063613862838262e+17
19515.0	7.078031768158208e+17
19516.0	7.082061756104701e+17
19517.0	7.084920033072467e+17
19518.0	7.087299823839913e+17
19519.0	7.089304635441152e+17
19520.0	7.091067527976276e+17
19521.0	7.092974219427839e+17
19522.0	7.094456879327913e+17
19523.0	7.096174438427305e+17
19524.0	7.097582752890879e+17
19525.0	7.098951091443028e+17
19526.0	7.100801256259583e+17
19527.0	7.102015122789716e+17
19528.0	7.103426650090153e+17
19529.0	7.104893606516051e+17
19530.0	7.105948873829034e+17
19531.0	7.106920204730368e+17
19532.0	7.107789180633087e+17
19533.0	7.108626984468479e+17
19534.0	7.10938337686323e+17
19535.0	7.109979773337599e+17
19536.0	7.110558139897172e+17
19537.0	7.111273756666538e+17
19538.0	7.111050040879786e+17
19539.0	7.110965313142785e+17
19540.0	7.113261687592276e+17
19541.0	7.113896129200127e+17
19542.0	7.114524293332991e+17
19543.0	7.114835858817023e+17
19544.0	7.115071409531561e+17
19545.0	7.113232839169364e+17
19546.0	7.112732847374335e+17
19547.0	7.115717381281106e+17
19548.0	7.115949102596093e+17
19549.0	7.115491028675241e+17
19550.0	7.116236714409983e+17
19551.0	7.116592163498666e+17
19552.0	7.116565926729046e+17
19553.0	7.116432247270058e+17
19554.0	7.116322130012841e+17
19555.0	7.116294258862762e+17
19556.0	7.116257582470484e+17
19557.0	7.116129176649727e+17
19558.0	7.115961122073257e+17
19559.0	7.1157850060445e+17
19560.0	7.115435807866879e+17
19561.0	7.115226657499817e+17
19562.0	7.115070572068863e+17
19563.0	7.114997048715944e+17
19564.0	7.114927191184723e+17
19565.0	7.114617425057106e+17
19566.0	7.114176957426345e+17
19567.0	7.113942224601088e+17
19568.0	7.113446580901203e+17
19569.0	7.113209282559999e+17
19570.0	7.11290704380996e+17
19571.0	7.112473175217492e+17
19572.0	7.111806437468842e+17
19573.0	7.111473931223039e+17
19574.0	7.110506745692159e+17
19575.0	7.110494459177641e+17
19576.0	7.109948334232916e+17
19577.0	7.109291928453119e+17
19578.0	7.108687072067583e+17
19579.0	7.108214826991615e+17
19580.0	7.107747476668415e+17
19581.0	7.107235610798761e+17
19582.0	7.106652630504787e+17
19583.0	7.106004286177279e+17
19584.0	7.105304108640936e+17
19585.0	7.104205296063827e+17
19586.0	7.103445084056237e+17
19587.0	7.103259151958015e+17
19588.0	7.10119027515938e+17
19589.0	7.101766913665705e+17
19590.0	7.100930537291775e+17
19591.0	7.100551147115859e+17
19592.0	7.099835134683817e+17
19593.0	7.098939399121577e+17
19594.0	7.096988829657768e+17
19595.0	7.097314620822867e+17
19596.0	7.095100769304577e+17
19597.0	7.096139814447786e+17
19598.0	7.094110112448511e+17
19599.0	7.094511171796991e+17
19600.0	7.093719106846717e+17
19601.0	7.092685294796799e+17
19602.0	7.091629128504659e+17
19603.0	7.089625200503465e+17
19604.0	7.089843356041216e+17
19605.0	7.08815972187068e+17
19606.0	7.088636405918377e+17
19607.0	7.087794379816959e+17
19608.0	7.086871388269224e+17
19609.0	7.086125656397139e+17
19610.0	7.085436515472723e+17
19611.0	7.084486105759743e+17
19612.0	7.083657699961514e+17
19613.0	7.082666413959849e+17
19614.0	7.081554432666281e+17
19615.0	7.080759909853866e+17
19616.0	7.079486432477183e+17
19617.0	7.078681514781353e+17
19618.0	7.075379899880787e+17
19619.0	7.073781382119423e+17
19620.0	7.073526077631145e+17
19621.0	7.07469974315554e+17
19622.0	7.073966971682815e+17
19623.0	7.073007658860543e+17
19624.0	7.072137873457151e+17
19625.0	7.071182950673065e+17
19626.0	7.069977703437651e+17
19627.0	7.06866150847283e+17
19628.0	7.066608047139497e+17
19629.0	7.064018910270803e+17
19630.0	7.053320648654844e+17
19631.0	7.036351773933569e+17
19632.0	7.059597859400361e+17
19633.0	7.061475584988499e+17
19634.0	7.061508668260351e+17
19635.0	7.060844015080787e+17
19636.0	7.060220101175977e+17
19637.0	7.057148886384643e+17
19638.0	7.058307825707689e+17
19639.0	7.0572410156701e+17
19640.0	7.055575036723199e+17
19641.0	7.052772636273327e+17
19642.0	7.054260534859092e+17
19643.0	7.053186616874326e+17
19644.0	7.051769720864768e+17
19645.0	7.050227473885865e+17
19646.0	7.049967083104936e+17
19647.0	7.048998923097428e+17
19648.0	7.047895240933373e+17
19649.0	7.046798538091177e+17
19650.0	7.045731521134591e+17
19651.0	7.044599576352084e+17
19652.0	7.043483599284906e+17
19653.0	7.04239965970978e+17
19654.0	7.041248309280765e+17
19655.0	7.040110630884692e+17
19656.0	7.039053376869716e+17
19657.0	7.037918821832019e+17
19658.0	7.036829305230676e+17
19659.0	7.035701700154708e+17
19660.0	7.034597488809299e+17
19661.0	7.03343800492578e+17
19662.0	7.032326605242367e+17
19663.0	7.031008826927785e+17
19664.0	7.029921187277481e+17
19665.0	7.0290490523648e+17
19666.0	7.027867182781779e+17
