# Flux units: erg / (cm m2 s)
# Wavelength units: Angstrom
wave	flux
19000.0	4.2845851164344314e+17
19001.0	4.2837130535239674e+17
19002.0	4.2830104342036474e+17
19003.0	4.28223419855667e+17
19004.0	4.2814494233067514e+17
19005.0	4.2806566586067616e+17
19006.0	4.2798770157868365e+17
19007.0	4.27907848671505e+17
19008.0	4.278247560839168e+17
19009.0	4.277365560923476e+17
19010.0	4.276344392602965e+17
19011.0	4.2758964668006394e+17
19012.0	4.2750361486404256e+17
19013.0	4.274360186219178e+17
19014.0	4.2735316972339194e+17
19015.0	4.272753376318804e+17
19016.0	4.27194895634705e+17
19017.0	4.2712114725737805e+17
19018.0	4.270423218847743e+17
19019.0	4.2696368630442656e+17
19020.0	4.2688416600555514e+17
19021.0	4.2680711761974605e+17
19022.0	4.2672816648792736e+17
19023.0	4.266472869549396e+17
19024.0	4.2657009945804806e+17
19025.0	4.264925009193642e+17
19026.0	4.264120675205119e+17
19027.0	4.2633027642545485e+17
19028.0	4.2625772237619194e+17
19029.0	4.261783932676778e+17
19030.0	4.261016673539413e+17
19031.0	4.26023348932881e+17
19032.0	4.2594417613209594e+17
19033.0	4.2585865399391565e+17
19034.0	4.257871030124543e+17
19035.0	4.2570113054583456e+17
19036.0	4.250978926024021e+17
19037.0	4.2555051560577696e+17
19038.0	4.2547270909951994e+17
19039.0	4.253963156542806e+17
19040.0	4.25318009606417e+17
19041.0	4.2523831852946765e+17
19042.0	4.251524563730432e+17
19043.0	4.250830923016874e+17
19044.0	4.250039064985599e+17
19045.0	4.249266081322326e+17
19046.0	4.2484364619721376e+17
19047.0	4.247658914207061e+17
19048.0	4.246740100186112e+17
19049.0	4.246047541602986e+17
19050.0	4.2453120787851936e+17
19051.0	4.2439275998522016e+17
19052.0	4.2435708659083936e+17
19053.0	4.243010661384192e+17
19054.0	4.2422192961836365e+17
19055.0	4.2412302359592954e+17
19056.0	4.240641996008106e+17
19057.0	4.2398791157241165e+17
19058.0	4.2390800399947085e+17
19059.0	4.2383108759442765e+17
19060.0	4.2375241734116685e+17
19061.0	4.2367640956218016e+17
19062.0	4.235979196639914e+17
19063.0	4.235200266152618e+17
19064.0	4.2343090387681274e+17
19065.0	4.233500465037311e+17
19066.0	4.232816336306175e+17
19067.0	4.2320727896664736e+17
19068.0	4.2313031348824736e+17
19069.0	4.230524248435369e+17
19070.0	4.2297269566832634e+17
19071.0	4.228968095940608e+17
19072.0	4.2281827104194554e+17
19073.0	4.227406462888619e+17
19074.0	4.2266324523199136e+17
19075.0	4.225854041926315e+17
19076.0	4.225060035013291e+17
19077.0	4.224277207318527e+17
19078.0	4.2234902650115405e+17
19079.0	4.2227380892904096e+17
19080.0	4.221947241387349e+17
19081.0	4.221154646556672e+17
19082.0	4.2203737244740256e+17
19083.0	4.2195504587953485e+17
19084.0	4.2186773480079354e+17
19085.0	4.218074133692415e+17
19086.0	4.21702116905233e+17
19087.0	4.216359329551702e+17
19088.0	4.215659302311253e+17
19089.0	4.214780380315647e+17
19090.0	4.214173683329705e+17
19091.0	4.213390076193449e+17
19092.0	4.212573317977428e+17
19093.0	4.211868071624702e+17
19094.0	4.211091107566933e+17
19095.0	4.2103153311962445e+17
19096.0	4.2095283832968525e+17
19097.0	4.2087618281035085e+17
19098.0	4.2079832646178125e+17
19099.0	4.207206917821781e+17
19100.0	4.206421827999061e+17
19101.0	4.20565184745745e+17
19102.0	4.204793539067904e+17
19103.0	4.204115771697834e+17
19104.0	4.203344506301098e+17
19105.0	4.202555094248106e+17
19106.0	4.201772887310336e+17
19107.0	4.201005603706197e+17
19108.0	4.20024341827857e+17
19109.0	4.1991590487872845e+17
19110.0	4.198670773780479e+17
19111.0	4.197924687489707e+17
19112.0	4.1971512417539405e+17
19113.0	4.196380352446464e+17
19114.0	4.1956043481852576e+17
19115.0	4.1947920659906554e+17
19116.0	4.194047270147412e+17
19117.0	4.193271088327338e+17
19118.0	4.19229415313681e+17
19119.0	4.184470176748879e+17
19120.0	4.190927360884734e+17
19121.0	4.1901730880116045e+17
19122.0	4.1894347423088634e+17
19123.0	4.188663039306411e+17
19124.0	4.1878745472040954e+17
19125.0	4.187115215301289e+17
19126.0	4.186342109304149e+17
19127.0	4.18395657933073e+17
19128.0	4.184710241932628e+17
19129.0	4.183981822050304e+17
19130.0	4.183243234476031e+17
19131.0	4.182492237354325e+17
19132.0	4.181721373911723e+17
19133.0	4.180842999272789e+17
19134.0	4.180145315250176e+17
19135.0	4.1794118643002016e+17
19136.0	4.1786473678110714e+17
19137.0	4.1777408403046394e+17
19138.0	4.1770864554803194e+17
19139.0	4.1763388599391565e+17
19140.0	4.1755722383359994e+17
19141.0	4.174801502120617e+17
19142.0	4.1740147317800954e+17
19143.0	4.173218955569834e+17
19144.0	4.172460051486036e+17
19145.0	4.1717278679149216e+17
19146.0	4.170489626886144e+17
19147.0	4.170052112045397e+17
19148.0	4.1694174900824736e+17
19149.0	4.16864416108817e+17
19150.0	4.16788310462737e+17
19151.0	4.167121897870677e+17
19152.0	4.1663443256388256e+17
19153.0	4.165563391672319e+17
19154.0	4.1647068637648205e+17
19155.0	4.1640532723630074e+17
19156.0	4.163285755275946e+17
19157.0	4.162508054418774e+17
19158.0	4.1615169830256634e+17
19159.0	4.160973001370282e+17
19160.0	4.1602100567736314e+17
19161.0	4.1594462684228256e+17
19162.0	4.158190876185941e+17
19163.0	4.1578771883840845e+17
19164.0	4.157157112370517e+17
19165.0	4.156362937685332e+17
19166.0	4.1555011417320096e+17
19167.0	4.1548135289323514e+17
19168.0	4.1540781702731085e+17
19169.0	4.153310019846144e+17
19170.0	4.152566990503935e+17
19171.0	4.1517709745192954e+17
19172.0	4.151037369079123e+17
19173.0	4.1502735702425594e+17
19174.0	4.149458445707946e+17
19175.0	4.1487417055641594e+17
19176.0	4.147982103827798e+17
19177.0	4.147088118688425e+17
19178.0	4.1464362119987194e+17
19179.0	4.145646925774847e+17
19180.0	4.144913696423935e+17
19181.0	4.1440541136650234e+17
19182.0	4.1433601695634765e+17
19183.0	4.142635909032618e+17
19184.0	4.141858712190975e+17
19185.0	4.141104932847615e+17
19186.0	4.1403460825907194e+17
19187.0	4.1395352600139085e+17
19188.0	4.1388170980010656e+17
19189.0	4.1380581841305594e+17
19190.0	4.13729280753664e+17
19191.0	4.1365100448535885e+17
19192.0	4.1357728532834976e+17
19193.0	4.1350063120711674e+17
19194.0	4.1342386950198605e+17
19195.0	4.1334867646655136e+17
19196.0	4.132713092437333e+17
19197.0	4.1319578723505485e+17
19198.0	4.1312019119691085e+17
19199.0	4.1275182511991456e+17
19200.0	4.1274824982528006e+17
19201.0	4.1289199463519565e+17
19202.0	4.128160522873514e+17
19203.0	4.1273913679107405e+17
19204.0	4.126617685196799e+17
19205.0	4.1258660715124045e+17
19206.0	4.1250977624009376e+17
19207.0	4.124231474348031e+17
19208.0	4.123412832190464e+17
19209.0	4.12282755551505e+17
19210.0	4.122070589199701e+17
19211.0	4.121317598385493e+17
19212.0	4.120557674386772e+17
19213.0	4.119716410250581e+17
19214.0	4.118909844193279e+17
19215.0	4.1182657270251514e+17
19216.0	4.1175170458583034e+17
19217.0	4.116758456347307e+17
19218.0	4.115267656701268e+17
19219.0	4.115121060184063e+17
19220.0	4.1144611116154874e+17
19221.0	4.113459103574698e+17
19222.0	4.112928505943381e+17
19223.0	4.1121853983074976e+17
19224.0	4.1114011494427296e+17
19225.0	4.110553958754986e+17
19226.0	4.109911262756863e+17
19227.0	4.1091519392426656e+17
19228.0	4.108409455859029e+17
19229.0	4.10765146263825e+17
19230.0	4.106889666581845e+17
19231.0	4.106126004060159e+17
19232.0	4.105363539012266e+17
19233.0	4.104561946001408e+17
19234.0	4.1038398014969165e+17
19235.0	4.1030806667264e+17
19236.0	4.1023432123132576e+17
19237.0	4.1015709011367245e+17
19238.0	4.1007494634755405e+17
19239.0	4.100067273211902e+17
19240.0	4.0992829159942816e+17
19241.0	4.098526294310912e+17
19242.0	4.0977719081915725e+17
19243.0	4.096921126480553e+17
19244.0	4.096282272464896e+17
19245.0	4.095521250257579e+17
19246.0	4.094752405673301e+17
19247.0	4.0940042473963514e+17
19248.0	4.0932526253233485e+17
19249.0	4.092490718816938e+17
19250.0	4.091719267472725e+17
19251.0	4.090849459699711e+17
19252.0	4.0900250133244576e+17
19253.0	4.089442945990656e+17
19254.0	4.088702445813759e+17
19255.0	4.087824125001727e+17
19256.0	4.087137104297983e+17
19257.0	4.086435002974208e+17
19258.0	4.085676939149311e+17
19259.0	4.0848706051768314e+17
19260.0	4.084038314754047e+17
19261.0	4.0833917732782074e+17
19262.0	4.082599990045354e+17
19263.0	4.0817977273439565e+17
19264.0	4.080645020057599e+17
19265.0	4.080162045252948e+17
19266.0	4.0793754259073696e+17
19267.0	4.0788584122286074e+17
19268.0	4.0780949111876256e+17
19269.0	4.077338636233385e+17
19270.0	4.0765701852146336e+17
19271.0	4.0755233232868685e+17
19272.0	4.0750370356811085e+17
19273.0	4.073228720231763e+17
19274.0	4.072758155673599e+17
19275.0	4.0727922239078394e+17
19276.0	4.072016934076415e+17
19277.0	4.0712631701121696e+17
19278.0	4.0705037466337274e+17
19279.0	4.069733961127253e+17
19280.0	4.068924305965056e+17
19281.0	4.068221237155157e+17
19282.0	4.06747979256081e+17
19283.0	4.066670026249557e+17
19284.0	4.0659199637585914e+17
19285.0	4.065053867944617e+17
19286.0	4.0644099744727034e+17
19287.0	4.0636774917079034e+17
19288.0	4.061029248008189e+17
19289.0	4.05900436386611e+17
19290.0	4.061397986050048e+17
19291.0	4.0604348018851834e+17
19292.0	4.0598672531346765e+17
19293.0	4.0591071040416416e+17
19294.0	4.0583439203696634e+17
19295.0	4.057589132296191e+17
19296.0	4.056815251750912e+17
19297.0	4.0560486000885754e+17
19298.0	4.055280270005589e+17
19299.0	4.054530352218111e+17
19300.0	4.053764315720361e+17
19301.0	4.0530042540086605e+17
19302.0	4.0522213864680096e+17
19303.0	4.051419415969791e+17
19304.0	4.050680018195797e+17
19305.0	4.049929604082346e+17
19306.0	4.0491727202549754e+17
19307.0	4.0483705756931405e+17
19308.0	4.047616326587733e+17
19309.0	4.046750557230421e+17
19310.0	4.045942274304683e+17
19311.0	4.04529396842496e+17
19312.0	4.0445605517284685e+17
19313.0	4.043795355489621e+17
19314.0	4.034103484263089e+17
19315.0	4.0336931506094074e+17
19316.0	4.041461377007615e+17
19317.0	4.040706569360725e+17
19318.0	4.0399306874333843e+17
19319.0	4.039167496770901e+17
19320.0	4.038389553343146e+17
19321.0	4.037612922732543e+17
19322.0	4.036764538765311e+17
19323.0	4.036016980273834e+17
19324.0	4.0352838648681805e+17
19325.0	4.034399555988138e+17
19326.0	4.0337259689410554e+17
19327.0	4.032931906803029e+17
19328.0	4.032147619490474e+17
19329.0	4.0313801086948685e+17
19330.0	4.030564564729855e+17
19331.0	4.02977010553105e+17
19332.0	4.0290137970223776e+17
19333.0	4.0282269099403936e+17
19334.0	4.027439780986879e+17
19335.0	4.0266273184372045e+17
19336.0	4.0258549911825056e+17
19337.0	4.0250584725804365e+17
19338.0	4.0240876268202656e+17
19339.0	4.023466244177919e+17
19340.0	4.022529067494059e+17
19341.0	4.0217703360757754e+17
19342.0	4.0207407008535885e+17
19343.0	4.0202557008991565e+17
19344.0	4.019442769286485e+17
19345.0	4.017002208646484e+17
19346.0	4.016795061758633e+17
19347.0	4.016947456202069e+17
19348.0	4.0162072650055674e+17
19349.0	4.0153626258527565e+17
19350.0	4.014538849867093e+17
19351.0	4.0137096087033165e+17
19352.0	4.012839618478078e+17
19353.0	4.012082802458624e+17
19354.0	4.0112531439615974e+17
19355.0	4.0103380999208954e+17
19356.0	4.0095774901534714e+17
19357.0	4.008736230211583e+17
19358.0	4.00787541922065e+17
19359.0	4.0069702255028896e+17
19360.0	4.006134996970154e+17
19361.0	4.0052957544884896e+17
19362.0	4.004464634975574e+17
19363.0	4.0035938310553594e+17
19364.0	4.002718920212479e+17
19365.0	4.001845636060501e+17
19366.0	4.000962753243818e+17
19367.0	4.0000746499167565e+17
19368.0	3.9991816665169914e+17
19369.0	3.9982213330807456e+17
19370.0	3.997258453002922e+17
19371.0	3.9964201297728845e+17
19372.0	3.995538108186624e+17
19373.0	3.9945951943939405e+17
19374.0	3.993672001519615e+17
19375.0	3.992731651844779e+17
19376.0	3.9917830037394765e+17
19377.0	3.990812924837887e+17
19378.0	3.9898457400060576e+17
19379.0	3.988871900211882e+17
19380.0	3.9878800472801274e+17
19381.0	3.9868749634164045e+17
19382.0	3.9858105350444365e+17
19383.0	3.9847443219961165e+17
19384.0	3.9837890294142285e+17
19385.0	3.9827499765814605e+17
19386.0	3.9816899249657165e+17
19387.0	3.9806104725968205e+17
19388.0	3.979515618044587e+17
19389.0	3.9784037989307725e+17
19390.0	3.9772746678272e+17
19391.0	3.97156796351556e+17
19392.0	3.974507631651497e+17
19393.0	3.9737782715460256e+17
19394.0	3.9725618185284256e+17
19395.0	3.9713272726814714e+17
19396.0	3.970080332666196e+17
19397.0	3.968810702165334e+17
19398.0	3.967487556539732e+17
19399.0	3.9655583633462605e+17
19400.0	3.964679446943061e+17
19401.0	3.963422929933653e+17
19402.0	3.9620159171024205e+17
19403.0	3.9605474982625274e+17
19404.0	3.9590734282970445e+17
19405.0	3.95753915748625e+17
19406.0	3.955986636559701e+17
19407.0	3.954387213527722e+17
19408.0	3.952061917954048e+17
19409.0	3.951044834885631e+17
19410.0	3.949373682963796e+17
19411.0	3.947600674466474e+17
19412.0	3.94577842414114e+17
19413.0	3.943902266523648e+17
19414.0	3.941947207756459e+17
19415.0	3.939987621937151e+17
19416.0	3.937822717247487e+17
19417.0	3.935822592081919e+17
19418.0	3.9337394294838605e+17
19419.0	3.931262019087019e+17
19420.0	3.928633397739519e+17
19421.0	3.92630084112657e+17
19422.0	3.923866588719785e+17
19423.0	3.921427338799785e+17
19424.0	3.9189039043051526e+17
19425.0	3.916312575912619e+17
19426.0	3.913634417038675e+17
19427.0	3.9108392916090886e+17
19428.0	3.9069697868212896e+17
19429.0	3.9040071618614605e+17
19430.0	3.9007686313902074e+17
19431.0	3.895781873767764e+17
19432.0	3.892919956843179e+17
19433.0	3.8874083058428576e+17
19434.0	3.8817350280369485e+17
19435.0	3.874032436903932e+17
19436.0	3.8631695404673683e+17
19437.0	3.8471922062021946e+17
19438.0	3.814239997263875e+17
19439.0	3.804521666969599e+17
19440.0	3.7929212504091296e+17
19441.0	3.778448121484627e+17
19442.0	3.761727198636714e+17
19443.0	3.743765597170347e+17
19444.0	3.722299910564517e+17
19445.0	3.687494005205682e+17
19446.0	3.6096309918870246e+17
19447.0	3.54772982187076e+17
19448.0	3.48314485234074e+17
19449.0	3.3341557992762074e+17
19450.0	2.8653953989563568e+17
19451.0	2.7000267670377702e+17
19452.0	3.135132997255197e+17
19453.0	3.4361440528411514e+17
19454.0	3.51369908156279e+17
19455.0	3.5727362217738234e+17
19456.0	3.646671117702496e+17
19457.0	3.700922467221501e+17
19458.0	3.699811183580515e+17
19459.0	3.7385867075693306e+17
19460.0	3.7584265596108774e+17
19461.0	3.7727549459005434e+17
19462.0	3.784900322787328e+17
19463.0	3.796148526863699e+17
19464.0	3.818268831077712e+17
19465.0	3.837161431717197e+17
19466.0	3.84874728775134e+17
19467.0	3.8559480290126496e+17
19468.0	3.8613490846050963e+17
19469.0	3.864914765195946e+17
19470.0	3.8681729613605523e+17
19471.0	3.871072712305321e+17
19472.0	3.873221248723625e+17
19473.0	3.8747773292161696e+17
19474.0	3.8767325249972883e+17
19475.0	3.8779251208137376e+17
19476.0	3.879929040426325e+17
19477.0	3.881219869638655e+17
19478.0	3.882368300133034e+17
19479.0	3.88342129692945e+17
19480.0	3.884408759823018e+17
19481.0	3.885321146073086e+17
19482.0	3.8862126642626554e+17
19483.0	3.887489861287936e+17
19484.0	3.8883829740120736e+17
19485.0	3.8890079406871885e+17
19486.0	3.889625032556544e+17
19487.0	3.89023542752051e+17
19488.0	3.8907534191711565e+17
19489.0	3.890922406980265e+17
19490.0	3.890411925230933e+17
19491.0	3.8919305268210336e+17
19492.0	3.8922679054499834e+17
19493.0	3.8925254846491296e+17
19494.0	3.8927131224309754e+17
19495.0	3.8928772490417485e+17
19496.0	3.892615205005993e+17
19497.0	3.8930710538485754e+17
19498.0	3.891644228523348e+17
19499.0	3.886104691692886e+17
19500.0	3.8931776506866336e+17
19501.0	3.893134360576e+17
19502.0	3.8930536370012166e+17
19503.0	3.892956945711104e+17
19504.0	3.8928274633523194e+17
19505.0	3.8926714611083936e+17
19506.0	3.892489115140095e+17
19507.0	3.8922660005369165e+17
19508.0	3.892059064762367e+17
19509.0	3.8918106941576525e+17
19510.0	3.891329208330922e+17
19511.0	3.876517057309353e+17
19512.0	3.889207514060117e+17
19513.0	3.888252176039935e+17
19514.0	3.888463633973246e+17
19515.0	3.889523350743722e+17
19516.0	3.8895228355433805e+17
19517.0	3.8891079447784096e+17
19518.0	3.888763661626027e+17
19519.0	3.888343633537706e+17
19520.0	3.887896827614549e+17
19521.0	3.8874940653786445e+17
19522.0	3.8870227283694925e+17
19523.0	3.886588956246016e+17
19524.0	3.886118541284693e+17
19525.0	3.88563631935761e+17
19526.0	3.885162390268586e+17
19527.0	3.884663965745151e+17
19528.0	3.8841566954345805e+17
19529.0	3.883649977374038e+17
19530.0	3.883143121600512e+17
19531.0	3.8826194865138336e+17
19532.0	3.8820892419031034e+17
19533.0	3.8815526289407994e+17
19534.0	3.881006113226751e+17
19535.0	3.880453529053866e+17
19536.0	3.879872743778986e+17
19537.0	3.8793478874507936e+17
19538.0	3.878596443635711e+17
19539.0	3.8777721999851514e+17
19540.0	3.877618197725183e+17
19541.0	3.877059228423508e+17
19542.0	3.8764755945171616e+17
19543.0	3.875882194173951e+17
19544.0	3.875300077207551e+17
19545.0	3.874175464068438e+17
19546.0	3.8733570393156256e+17
19547.0	3.873514401912149e+17
19548.0	3.872899902122666e+17
19549.0	3.8722356159447034e+17
19550.0	3.8716944025299616e+17
19551.0	3.8710843738685434e+17
19552.0	3.8704685633590605e+17
19553.0	3.8698240540235085e+17
19554.0	3.8691995368379725e+17
19555.0	3.868595859051861e+17
19556.0	3.867984960072363e+17
19557.0	3.867355320942592e+17
19558.0	3.866727720244565e+17
19559.0	3.8660951444029434e+17
19560.0	3.86544228770338e+17
19561.0	3.8648086786648736e+17
19562.0	3.8641921698037754e+17
19563.0	3.8635586048054605e+17
19564.0	3.8629193544280736e+17
19565.0	3.8622777587357e+17
19566.0	3.8616100094607354e+17
19567.0	3.860987212638889e+17
19568.0	3.860327531107669e+17
19569.0	3.85968367538449e+17
19570.0	3.859050871652351e+17
19571.0	3.8583930041576096e+17
19572.0	3.857730374729727e+17
19573.0	3.857075559290197e+17
19574.0	3.856383588608682e+17
19575.0	3.8557912179671034e+17
19576.0	3.855137090393429e+17
19577.0	3.854448249361749e+17
19578.0	3.8537841735980365e+17
19579.0	3.853147908166997e+17
19580.0	3.852486209175551e+17
19581.0	3.8518404548307616e+17
19582.0	3.8511944089818445e+17
19583.0	3.85053400043793e+17
19584.0	3.8498548132959565e+17
19585.0	3.8491231826739194e+17
19586.0	3.848432436729172e+17
19587.0	3.847864220385279e+17
19588.0	3.846789176928939e+17
19589.0	3.846532442882048e+17
19590.0	3.8457840762879994e+17
19591.0	3.845217180450815e+17
19592.0	3.844556753731583e+17
19593.0	3.843875825254399e+17
19594.0	3.843050570776576e+17
19595.0	3.842493559515818e+17
19596.0	3.8417013498620576e+17
19597.0	3.841182854195882e+17
19598.0	3.8401017220082336e+17
19599.0	3.8398723886503245e+17
19600.0	3.839214867185663e+17
19601.0	3.838487193889451e+17
19602.0	3.837792378071722e+17
19603.0	3.836826769599146e+17
19604.0	3.836463894495232e+17
19605.0	3.8356239250008736e+17
19606.0	3.8351963898074445e+17
19607.0	3.8345399714447354e+17
19608.0	3.833849726719317e+17
19609.0	3.8331532618410656e+17
19610.0	3.8325153718162765e+17
19611.0	3.8318357547581434e+17
19612.0	3.831175502801579e+17
19613.0	3.830493879468032e+17
19614.0	3.8297980339486714e+17
19615.0	3.8291510919168e+17
19616.0	3.8284382280089594e+17
19617.0	3.8277891217162234e+17
19618.0	3.8265507702374394e+17
19619.0	3.8257680508955296e+17
19620.0	3.8251859828626765e+17
19621.0	3.825101558513663e+17
19622.0	3.8244355785359354e+17
19623.0	3.8237606241457485e+17
19624.0	3.823077782366891e+17
19625.0	3.822409931030527e+17
19626.0	3.821734853607423e+17
19627.0	3.821056341049344e+17
19628.0	3.8203070894571514e+17
19629.0	3.819611868889087e+17
19630.0	3.818470521176063e+17
19631.0	3.8151042126315526e+17
19632.0	3.817675555864576e+17
19633.0	3.8169716488929274e+17
19634.0	3.816326551655766e+17
19635.0	3.815620916630868e+17
19636.0	3.814957971232085e+17
19637.0	3.8140240668043936e+17
19638.0	3.813606186199722e+17
19639.0	3.81293162467601e+17
19640.0	3.8119968324539725e+17
19641.0	3.810587656759978e+17
19642.0	3.810911095619583e+17
19643.0	3.810231145813332e+17
19644.0	3.80949529502242e+17
19645.0	3.808623632667989e+17
19646.0	3.808203096369834e+17
19647.0	3.8075360391550285e+17
19648.0	3.8068613839585274e+17
19649.0	3.80618223386624e+17
19650.0	3.8055075709801805e+17
19651.0	3.804827996564138e+17
19652.0	3.804153246995797e+17
19653.0	3.80347801997585e+17
19654.0	3.8027973361663994e+17
19655.0	3.802052178214911e+17
