# Flux units: erg / (cm m2 s)
# Wavelength units: Angstrom
wave	flux
19000.0	5.324924166777513e+17
19001.0	5.3238661990318074e+17
19002.0	5.3230283224951456e+17
19003.0	5.322074876106068e+17
19004.0	5.3211308696971936e+17
19005.0	5.3201607900965536e+17
19006.0	5.3192162454186656e+17
19007.0	5.318267561661781e+17
19008.0	5.317277597564926e+17
19009.0	5.3161842208058016e+17
19010.0	5.3151628889074323e+17
19011.0	5.3144175617856845e+17
19012.0	5.313406083006462e+17
19013.0	5.3125868634330445e+17
19014.0	5.3115966050358605e+17
19015.0	5.310649243882836e+17
19016.0	5.309735107209898e+17
19017.0	5.3088086882167456e+17
19018.0	5.3078533578861216e+17
19019.0	5.306915456985771e+17
19020.0	5.3059632255467514e+17
19021.0	5.3050333979825485e+17
19022.0	5.304082628258473e+17
19023.0	5.303094329300308e+17
19024.0	5.3021474428026874e+17
19025.0	5.3012345986744314e+17
19026.0	5.3002785986532685e+17
19027.0	5.299326759381673e+17
19028.0	5.2984028087364256e+17
19029.0	5.297447783890943e+17
19030.0	5.296528563721557e+17
19031.0	5.295582811783168e+17
19032.0	5.2946233081200634e+17
19033.0	5.293569917059072e+17
19034.0	5.292635820392447e+17
19035.0	5.291238887172777e+17
19036.0	5.287819160671572e+17
19037.0	5.2894754011436365e+17
19038.0	5.2888685405798394e+17
19039.0	5.2880059260381856e+17
19040.0	5.2870867219469645e+17
19041.0	5.2861473222819834e+17
19042.0	5.2843418596584083e+17
19043.0	5.28428436623633e+17
19044.0	5.283332473836885e+17
19045.0	5.2823850378854394e+17
19046.0	5.281409126804138e+17
19047.0	5.280448977218217e+17
19048.0	5.279343719393961e+17
19049.0	5.27688803828804e+17
19050.0	5.277547942816425e+17
19051.0	5.276291895569066e+17
19052.0	5.275531540256085e+17
19053.0	5.27482202759714e+17
19054.0	5.273923773355349e+17
19055.0	5.272512266327381e+17
19056.0	5.271968110608383e+17
19057.0	5.271126645844649e+17
19058.0	5.2693491179847654e+17
19059.0	5.2689336246381216e+17
19060.0	5.268313424090451e+17
19061.0	5.26738164687394e+17
19062.0	5.266439110568619e+17
19063.0	5.265494867181567e+17
19064.0	5.2644980635729914e+17
19065.0	5.2634827365198496e+17
19066.0	5.2623317195380045e+17
19067.0	5.2617460989296634e+17
19068.0	5.260826866177364e+17
19069.0	5.259891315485353e+17
19070.0	5.2589301452854605e+17
19071.0	5.258011296311978e+17
19072.0	5.256772216422398e+17
19073.0	5.256145811101013e+17
19074.0	5.255214735032319e+17
19075.0	5.2542783049345696e+17
19076.0	5.2533358189608954e+17
19077.0	5.2523883774170445e+17
19078.0	5.251438610131626e+17
19079.0	5.2505359155199994e+17
19080.0	5.249592171255124e+17
19081.0	5.248616764189353e+17
19082.0	5.24772082590242e+17
19083.0	5.246712533396138e+17
19084.0	5.24565444820992e+17
19085.0	5.244911761402538e+17
19086.0	5.243210811746985e+17
19087.0	5.242335261272745e+17
19088.0	5.2416224421041485e+17
19089.0	5.241008818225152e+17
19090.0	5.2402298863397536e+17
19091.0	5.2392651565738656e+17
19092.0	5.237698649740631e+17
19093.0	5.237474427142143e+17
19094.0	5.236546261221375e+17
19095.0	5.2356136402507085e+17
19096.0	5.234680304151209e+17
19097.0	5.233752202543103e+17
19098.0	5.232478648270846e+17
19099.0	5.231474619973632e+17
19100.0	5.230935424718164e+17
19101.0	5.2300010666065914e+17
19102.0	5.22902340440337e+17
19103.0	5.2281596769730554e+17
19104.0	5.22724139213346e+17
19105.0	5.225557023959724e+17
19106.0	5.225367351940436e+17
19107.0	5.224246730380628e+17
19108.0	5.223202778600788e+17
19109.0	5.222520942056787e+17
19110.0	5.221618699730943e+17
19111.0	5.2205062913174176e+17
19112.0	5.219541826491732e+17
19113.0	5.2188701443577165e+17
19114.0	5.2177872862139725e+17
19115.0	5.2169400948271763e+17
19116.0	5.2160363103955616e+17
19117.0	5.215053238938283e+17
19118.0	5.213566722375679e+17
19119.0	5.205394251055097e+17
19120.0	5.212004757274623e+17
19121.0	5.21135703929651e+17
19122.0	5.210498501618345e+17
19123.0	5.2095864404268365e+17
19124.0	5.2086251786513056e+17
19125.0	5.207691654507177e+17
19126.0	5.206584767195817e+17
19127.0	5.204948365781673e+17
19128.0	5.2046971926828365e+17
19129.0	5.2039141168250874e+17
19130.0	5.20310201778176e+17
19131.0	5.2022053769489056e+17
19132.0	5.201286109943125e+17
19133.0	5.2003306502881274e+17
19134.0	5.1994392949773645e+17
19135.0	5.198517421910697e+17
19136.0	5.1975835244735136e+17
19137.0	5.196609041552725e+17
19138.0	5.195725755383807e+17
19139.0	5.1948307160760314e+17
19140.0	5.193915374239743e+17
19141.0	5.192994470756351e+17
19142.0	5.1920438646101325e+17
19143.0	5.1911206780272634e+17
19144.0	5.1901830273870496e+17
19145.0	5.1892981431883085e+17
19146.0	5.1877407855301965e+17
19147.0	5.187418486822227e+17
19148.0	5.186269588662954e+17
19149.0	5.185298463981567e+17
19150.0	5.1847017438467405e+17
19151.0	5.183775196228266e+17
19152.0	5.1828500711778976e+17
19153.0	5.181330200111785e+17
19154.0	5.18091986506001e+17
19155.0	5.1800742024970234e+17
19156.0	5.1791622405707085e+17
19157.0	5.17805434662639e+17
19158.0	5.176891134006613e+17
19159.0	5.1763834428675405e+17
19160.0	5.1754621695863443e+17
19161.0	5.1745255395601043e+17
19162.0	5.173537556572842e+17
19163.0	5.1726669994175136e+17
19164.0	5.1717931616174074e+17
19165.0	5.170257947088212e+17
19166.0	5.1698967867555834e+17
19167.0	5.1690435723482445e+17
19168.0	5.168146024147626e+17
19169.0	5.167237902805673e+17
19170.0	5.1663248832157005e+17
19171.0	5.1653999308308474e+17
19172.0	5.164490141554005e+17
19173.0	5.163574232088575e+17
19174.0	5.16263308759313e+17
19175.0	5.1617355883260576e+17
19176.0	5.160826779118251e+17
19177.0	5.1597626003073683e+17
19178.0	5.158990844177066e+17
19179.0	5.158076699115519e+17
19180.0	5.1571502102173005e+17
19181.0	5.156160565586602e+17
19182.0	5.1552936959235405e+17
19183.0	5.154423248519167e+17
19184.0	5.1535116864498336e+17
19185.0	5.152588878053375e+17
19186.0	5.1516828993017165e+17
19187.0	5.150711021043711e+17
19188.0	5.1498498367597216e+17
19189.0	5.1489327570834765e+17
19190.0	5.1480168895610874e+17
19191.0	5.147067982107989e+17
19192.0	5.146170830269098e+17
19193.0	5.1451628893853005e+17
19194.0	5.144167718759081e+17
19195.0	5.14334990218035e+17
19196.0	5.142355984252927e+17
19197.0	5.141314623853908e+17
19198.0	5.140103006169771e+17
19199.0	5.1385386125666976e+17
19200.0	5.137712984096767e+17
19201.0	5.1373944784377165e+17
19202.0	5.1367724519697056e+17
19203.0	5.135986592492202e+17
19204.0	5.135145661803178e+17
19205.0	5.13426403238434e+17
19206.0	5.1333786022270285e+17
19207.0	5.1323372970530125e+17
19208.0	5.131464173682687e+17
19209.0	5.1306752663442765e+17
19210.0	5.129784722631338e+17
19211.0	5.1288941558497274e+17
19212.0	5.127979982127103e+17
19213.0	5.126974884282366e+17
19214.0	5.126109611950079e+17
19215.0	5.1252414770053114e+17
19216.0	5.124324369367039e+17
19217.0	5.123334648539819e+17
19218.0	5.1221872155907405e+17
19219.0	5.121359415869439e+17
19220.0	5.1206397145470285e+17
19221.0	5.119679828503209e+17
19222.0	5.1188444419850234e+17
19223.0	5.1179701952402765e+17
19224.0	5.117037891638613e+17
19225.0	5.116143508739412e+17
19226.0	5.115264412680192e+17
19227.0	5.114375134948011e+17
19228.0	5.113497569809749e+17
19229.0	5.112591117101738e+17
19230.0	5.111683500474367e+17
19231.0	5.1107699384210765e+17
19232.0	5.1098731151359994e+17
19233.0	5.108916656537598e+17
19234.0	5.108061521838079e+17
19235.0	5.107131066526378e+17
19236.0	5.106259478970368e+17
19237.0	5.105343964468564e+17
19238.0	5.104374604890111e+17
19239.0	5.1035508715465363e+17
19240.0	5.102646083278164e+17
19241.0	5.1017284429632845e+17
19242.0	5.10082931560721e+17
19243.0	5.0997875777208314e+17
19244.0	5.0990408727702176e+17
19245.0	5.098131031064575e+17
19246.0	5.0972291354678605e+17
19247.0	5.096322007476906e+17
19248.0	5.0954308786585594e+17
19249.0	5.0945085882586445e+17
19250.0	5.093488673335977e+17
19251.0	5.0925278883130003e+17
19252.0	5.091521236478634e+17
19253.0	5.0909008346043725e+17
19254.0	5.090021557491028e+17
19255.0	5.08892305039906e+17
19256.0	5.088207998462633e+17
19257.0	5.0873153925502285e+17
19258.0	5.0864149684551674e+17
19259.0	5.0854269127666336e+17
19260.0	5.084486633695913e+17
19261.0	5.083681826450089e+17
19262.0	5.082716872288938e+17
19263.0	5.081746174727508e+17
19264.0	5.080649832595455e+17
19265.0	5.0798790956810234e+17
19266.0	5.0789386551295994e+17
19267.0	5.0782931202867194e+17
19268.0	5.0774010449537696e+17
19269.0	5.076500064414378e+17
19270.0	5.0755497756371616e+17
19271.0	5.074533154641236e+17
19272.0	5.0737710447110816e+17
19273.0	5.072732202991615e+17
19274.0	5.071620737597438e+17
19275.0	5.0711303975949645e+17
19276.0	5.070215921183402e+17
19277.0	5.069325108335957e+17
19278.0	5.06841253683746e+17
19279.0	5.067504075756885e+17
19280.0	5.066594882770262e+17
19281.0	5.0657165710458874e+17
19282.0	5.0648395050298016e+17
19283.0	5.0639319254521165e+17
19284.0	5.062997830183594e+17
19285.0	5.0620751958507514e+17
19286.0	5.0611538869179725e+17
19287.0	5.0601859065664845e+17
19288.0	5.057978895258963e+17
19289.0	5.0565359673016314e+17
19290.0	5.057475345296041e+17
19291.0	5.0564808031163744e+17
19292.0	5.0558709855682554e+17
19293.0	5.054990798290943e+17
19294.0	5.0540870495109114e+17
19295.0	5.0532143504643405e+17
19296.0	5.0519447835770886e+17
19297.0	5.0513490945419936e+17
19298.0	5.0505036354027514e+17
19299.0	5.049223135363072e+17
19300.0	5.048732477292543e+17
19301.0	5.047849212794196e+17
19302.0	5.0469393564084896e+17
19303.0	5.0459965181132794e+17
19304.0	5.0451536769187834e+17
19305.0	5.0442490291595936e+17
19306.0	5.0433586231596365e+17
19307.0	5.04242268938786e+17
19308.0	5.041532692332543e+17
19309.0	5.0406189009906336e+17
19310.0	5.039694644161194e+17
19311.0	5.038790413036202e+17
19312.0	5.0378722001988256e+17
19313.0	5.036733418001748e+17
19314.0	5.0240972684001274e+17
19315.0	5.023993906768563e+17
19316.0	5.033589130046122e+17
19317.0	5.0334073328325965e+17
19318.0	5.032594290769919e+17
19319.0	5.0317440822804474e+17
19320.0	5.030720132437332e+17
19321.0	5.029639108602538e+17
19322.0	5.02906556059921e+17
19323.0	5.028180653331796e+17
19324.0	5.0272950749757434e+17
19325.0	5.026410630479872e+17
19326.0	5.025527751857491e+17
19327.0	5.024636004379306e+17
19328.0	5.023078378984789e+17
19329.0	5.0228650797520205e+17
19330.0	5.0219637930284365e+17
19331.0	5.0210375460017485e+17
19332.0	5.0201969368760314e+17
19333.0	5.0192929224567475e+17
19334.0	5.0184036538122234e+17
19335.0	5.016155956357803e+17
19336.0	5.0166213654173e+17
19337.0	5.0157313998192634e+17
19338.0	5.0146353338122234e+17
19339.0	5.0139295708610554e+17
19340.0	5.012849921359871e+17
19341.0	5.01149819994112e+17
19342.0	5.010922863067136e+17
19343.0	5.010260292359508e+17
19344.0	5.0087437333954554e+17
19345.0	5.007131676420779e+17
19346.0	5.006666102385321e+17
19347.0	5.005962833646932e+17
19348.0	5.005845137981439e+17
19349.0	5.0049625382802765e+17
19350.0	5.0038407786659834e+17
19351.0	5.003184725207722e+17
19352.0	5.001608004545193e+17
19353.0	5.001456198702421e+17
19354.0	5.00057011912704e+17
19355.0	4.999578295555413e+17
19356.0	4.9987832281825274e+17
19357.0	4.997889127000746e+17
19358.0	4.9969901541348685e+17
19359.0	4.995927235013289e+17
19360.0	4.9946337193492474e+17
19361.0	4.994290321195007e+17
19362.0	4.9934091559458125e+17
19363.0	4.992515837700778e+17
19364.0	4.991619030493866e+17
19365.0	4.99071695524113e+17
19366.0	4.989817274935977e+17
19367.0	4.9889196421502285e+17
19368.0	4.988017553615529e+17
19369.0	4.987091240878079e+17
19370.0	4.986196706983935e+17
19371.0	4.9852564838372685e+17
19372.0	4.984403695151787e+17
19373.0	4.9834897877674656e+17
19374.0	4.982591411191807e+17
19375.0	4.9816838553818445e+17
19376.0	4.980777736121002e+17
19377.0	4.9798598434488314e+17
19378.0	4.978949777347924e+17
19379.0	4.97804049977617e+17
19380.0	4.977124771364862e+17
19381.0	4.9762024620905805e+17
19382.0	4.975206769273514e+17
19383.0	4.9743121382113274e+17
19384.0	4.9734255350469965e+17
19385.0	4.9725142456074234e+17
19386.0	4.971593935618047e+17
19387.0	4.970658205270015e+17
19388.0	4.969704162590719e+17
19389.0	4.968713208638122e+17
19390.0	4.9675557492053325e+17
19391.0	4.9642366748153146e+17
19392.0	4.9651292940096845e+17
19393.0	4.9648825577854285e+17
19394.0	4.964009785338538e+17
19395.0	4.962879031039317e+17
19396.0	4.9620749626900474e+17
19397.0	4.961126358624938e+17
19398.0	4.959906978682198e+17
19399.0	4.958565106188286e+17
19400.0	4.9578266765994656e+17
19401.0	4.957166476372649e+17
19402.0	4.9561877439228576e+17
19403.0	4.9551596997399885e+17
19404.0	4.9541542635547296e+17
19405.0	4.9530963545292794e+17
19406.0	4.952045696756393e+17
19407.0	4.9507006701458765e+17
19408.0	4.949501582245888e+17
19409.0	4.948677709092181e+17
19410.0	4.9477172917698554e+17
19411.0	4.946618430958249e+17
19412.0	4.94546715812386e+17
19413.0	4.944058953411242e+17
19414.0	4.943089972019198e+17
19415.0	4.941863856723283e+17
19416.0	4.940475267372373e+17
19417.0	4.939323912050005e+17
19418.0	4.9379865148784634e+17
19419.0	4.9365828442084685e+17
19420.0	4.9351558532082336e+17
19421.0	4.933668003556009e+17
19422.0	4.9320773200554656e+17
19423.0	4.9304644193266336e+17
19424.0	4.928786126602239e+17
19425.0	4.926990024267092e+17
19426.0	4.9250522530228896e+17
19427.0	4.9229745618944e+17
19428.0	4.920751051593045e+17
19429.0	4.918312803412649e+17
19430.0	4.915549477797888e+17
19431.0	4.912662144789162e+17
19432.0	4.9099751610996045e+17
19433.0	4.906686579998719e+17
19434.0	4.903027279746387e+17
19435.0	4.898701577988778e+17
19436.0	4.893905727608148e+17
19437.0	4.88848827228706e+17
19438.0	4.8778346101036365e+17
19439.0	4.8746594338952525e+17
19440.0	4.8684014987728205e+17
19441.0	4.859350549353812e+17
19442.0	4.848599440905557e+17
19443.0	4.835830769472853e+17
19444.0	4.819832771269971e+17
19445.0	4.800444211658753e+17
19446.0	4.7757631233720314e+17
19447.0	4.743626263363582e+17
19448.0	4.699216957931521e+17
19449.0	4.631847868126548e+17
19450.0	4.496456778689179e+17
19451.0	4.376964371229362e+17
19452.0	4.5790436317812045e+17
19453.0	4.6672726122823686e+17
19454.0	4.719033396669095e+17
19455.0	4.754210505621504e+17
19456.0	4.780543979115862e+17
19457.0	4.7995800116701856e+17
19458.0	4.7779666562034726e+17
19459.0	4.823126653971123e+17
19460.0	4.8384373525490336e+17
19461.0	4.8470252060671994e+17
19462.0	4.853933190501717e+17
19463.0	4.859451487376724e+17
19464.0	4.8640134395985914e+17
19465.0	4.8677259760544416e+17
19466.0	4.8708507800698874e+17
19467.0	4.87353402593553e+17
19468.0	4.87563855012386e+17
19469.0	4.876791076356095e+17
19470.0	4.878782603897513e+17
19471.0	4.879930401051989e+17
19472.0	4.880768165041492e+17
19473.0	4.881524257543508e+17
19474.0	4.881516770710868e+17
19475.0	4.8818779303444474e+17
19476.0	4.8825871032647674e+17
19477.0	4.882838270771198e+17
19478.0	4.8828826926448634e+17
19479.0	4.8823467934132883e+17
19480.0	4.882651474646356e+17
19481.0	4.8824137317089274e+17
19482.0	4.88218353013009e+17
19483.0	4.881868706370899e+17
19484.0	4.881513059450879e+17
19485.0	4.8810609994629114e+17
19486.0	4.880107007115265e+17
19487.0	4.880110561088851e+17
19488.0	4.8795420022101325e+17
19489.0	4.8786238229271885e+17
19490.0	4.877683138407082e+17
19491.0	4.877732351574015e+17
19492.0	4.8772502324073805e+17
19493.0	4.876633583037098e+17
19494.0	4.8759708634316794e+17
19495.0	4.87525281047074e+17
19496.0	4.8742575091220474e+17
19497.0	4.8736227753110176e+17
19498.0	4.871478027048276e+17
19499.0	4.868341777476266e+17
19500.0	4.8713859515897165e+17
19501.0	4.870994898452479e+17
19502.0	4.870336420686506e+17
19503.0	4.869623155523583e+17
19504.0	4.868875803252051e+17
19505.0	4.8681099750714016e+17
19506.0	4.86736922743057e+17
19507.0	4.866572647312042e+17
19508.0	4.86579016704546e+17
19509.0	4.864872985307817e+17
19510.0	4.863301540380671e+17
19511.0	4.8461927262016755e+17
19512.0	4.86038395036194e+17
19513.0	4.8600053473170765e+17
19514.0	4.859566714694313e+17
19515.0	4.859938238453076e+17
19516.0	4.8593646869544934e+17
19517.0	4.858680923127807e+17
19518.0	4.85781102797346e+17
19519.0	4.8570122912836256e+17
19520.0	4.855861079266644e+17
19521.0	4.8555676786141856e+17
19522.0	4.8546525478911994e+17
19523.0	4.853825182280361e+17
19524.0	4.852761367674881e+17
19525.0	4.8523054398395725e+17
19526.0	4.8515081194263885e+17
19527.0	4.8506733697433594e+17
19528.0	4.8498221679028896e+17
19529.0	4.848978190052011e+17
19530.0	4.8482294305914874e+17
19531.0	4.847413830702421e+17
19532.0	4.846587710799872e+17
19533.0	4.8457607827947514e+17
19534.0	4.844934471352318e+17
19535.0	4.844084477471402e+17
19536.0	4.8432285018139296e+17
19537.0	4.8424054849972896e+17
19538.0	4.840958664026794e+17
19539.0	4.840487728971775e+17
19540.0	4.83988413227554e+17
19541.0	4.8390004406572365e+17
19542.0	4.838231372376745e+17
19543.0	4.8369410359951354e+17
19544.0	4.8365120761364474e+17
19545.0	4.835311258785108e+17
19546.0	4.8344167179004576e+17
19547.0	4.834046640477525e+17
19548.0	4.8332866976044365e+17
19549.0	4.8323740002768205e+17
19550.0	4.831647599252821e+17
19551.0	4.830820672645802e+17
19552.0	4.829988427661311e+17
19553.0	4.829140444250111e+17
19554.0	4.828299352080383e+17
19555.0	4.8274181518786554e+17
19556.0	4.8266213522582176e+17
19557.0	4.825820985382228e+17
19558.0	4.8249916987801594e+17
19559.0	4.824161029455872e+17
19560.0	4.823127976574975e+17
19561.0	4.822466767618046e+17
19562.0	4.8214787154247674e+17
19563.0	4.8208270275379194e+17
19564.0	4.8199872314081274e+17
19565.0	4.819153273050453e+17
19566.0	4.818301546921983e+17
19567.0	4.81748342346001e+17
19568.0	4.816629584800425e+17
19569.0	4.8158000199761914e+17
19570.0	4.814977847612756e+17
19571.0	4.8141427330252794e+17
19572.0	4.8132776746024954e+17
19573.0	4.8124116598784e+17
19574.0	4.811527159458474e+17
19575.0	4.8108074972829005e+17
19576.0	4.8099382641295354e+17
19577.0	4.809023694045183e+17
19578.0	4.8082811526403405e+17
19579.0	4.807437427845802e+17
19580.0	4.806606145454079e+17
19581.0	4.8057904777570976e+17
19582.0	4.8049661697938765e+17
19583.0	4.804131805986815e+17
19584.0	4.803293094084607e+17
19585.0	4.8023385124372474e+17
19586.0	4.801474322934443e+17
19587.0	4.800725285950804e+17
19588.0	4.799705850576895e+17
19589.0	4.7990326822611616e+17
19590.0	4.798166752122196e+17
19591.0	4.7974400665845766e+17
19592.0	4.796622977018538e+17
19593.0	4.7957276811591674e+17
19594.0	4.794657501697363e+17
19595.0	4.794103371923454e+17
19596.0	4.79326893052177e+17
19597.0	4.792418487850325e+17
19598.0	4.7911720029170336e+17
19599.0	4.7907384349163514e+17
19600.0	4.789943051572564e+17
19601.0	4.789053960486911e+17
19602.0	4.788166615629823e+17
19603.0	4.787234651766783e+17
19604.0	4.786519620801877e+17
19605.0	4.7855495146373114e+17
19606.0	4.784939286047402e+17
19607.0	4.7841304117248e+17
19608.0	4.7832860864457376e+17
19609.0	4.7824352222467405e+17
19610.0	4.781406195198635e+17
19611.0	4.780457166110719e+17
19612.0	4.7799776558011725e+17
19613.0	4.7791324224552954e+17
19614.0	4.7782700022497274e+17
19615.0	4.7774629216911354e+17
19616.0	4.7763695742921376e+17
19617.0	4.775359448875008e+17
19618.0	4.7744329620739405e+17
19619.0	4.7734314811173536e+17
19620.0	4.772755353720149e+17
19621.0	4.771892120518654e+17
19622.0	4.771630911149396e+17
19623.0	4.7707920818066765e+17
19624.0	4.769908654429524e+17
19625.0	4.7691588498882554e+17
19626.0	4.76830769418513e+17
19627.0	4.767459789067604e+17
19628.0	4.766562461067945e+17
19629.0	4.76436475622195e+17
19630.0	4.764369658664276e+17
19631.0	4.7631508505449805e+17
19632.0	4.7630264691589114e+17
19633.0	4.7623684653492896e+17
19634.0	4.761657616105471e+17
19635.0	4.760776715796479e+17
19636.0	4.75948610958131e+17
19637.0	4.758363529980587e+17
19638.0	4.7583557418571085e+17
19639.0	4.7575469968588794e+17
19640.0	4.7564087305611936e+17
19641.0	4.7549139917646515e+17
19642.0	4.7550056918330016e+17
19643.0	4.754203132734123e+17
19644.0	4.753345919057919e+17
19645.0	4.752479865886036e+17
19646.0	4.751186275423571e+17
19647.0	4.750960465281023e+17
19648.0	4.750150858353321e+17
19649.0	4.7493268202236576e+17
19650.0	4.748506449313792e+17
19651.0	4.747677584938324e+17
19652.0	4.7468523381500576e+17
19653.0	4.7460343160504314e+17
19654.0	4.745202024928596e+17
19655.0	4.7443730284325536e+17
