# Flux units: erg / (cm m2 s)
# Wavelength units: Angstrom
wave	flux
19000.0	6.330310646737577e+17
19001.0	6.329030410239997e+17
19002.0	6.327966143348735e+17
19003.0	6.326785862008831e+17
19004.0	6.325610093740032e+17
19005.0	6.324435614520659e+17
19006.0	6.323270643788457e+17
19007.0	6.322082238780756e+17
19008.0	6.320859448169812e+17
19009.0	6.319632450671956e+17
19010.0	6.318082087714813e+17
19011.0	6.317355826500948e+17
19012.0	6.315835315104425e+17
19013.0	6.315051884827988e+17
19014.0	6.313824081324712e+17
19015.0	6.312668413558783e+17
19016.0	6.311487979126783e+17
19017.0	6.310365839927978e+17
19018.0	6.309175826404691e+17
19019.0	6.308019542775124e+17
19020.0	6.306833896221353e+17
19021.0	6.305682479382527e+17
19022.0	6.304505880641536e+17
19023.0	6.303296986458794e+17
19024.0	6.302139831113043e+17
19025.0	6.30096873459985e+17
19026.0	6.299754757619711e+17
19027.0	6.298340397765972e+17
19028.0	6.297475054829567e+17
19029.0	6.296287500566527e+17
19030.0	6.295151649488895e+17
19031.0	6.293979448475647e+17
19032.0	6.292799330713599e+17
19033.0	6.291525300387839e+17
19034.0	6.290404967535956e+17
19035.0	6.288929483390976e+17
19036.0	6.266873407253155e+17
19037.0	6.286696384910676e+17
19038.0	6.285721527298729e+17
19039.0	6.284608878411775e+17
19040.0	6.283450141813418e+17
19041.0	6.282277113823231e+17
19042.0	6.280826771035476e+17
19043.0	6.279953356161023e+17
19044.0	6.278771967524863e+17
19045.0	6.277602878685183e+17
19046.0	6.276394698233172e+17
19047.0	6.275250819956735e+17
19048.0	6.273855025490602e+17
19049.0	6.272463625256959e+17
19050.0	6.27167583080721e+17
19051.0	6.267358168831313e+17
19052.0	6.268675766091776e+17
19053.0	6.26824348574242e+17
19054.0	6.267103922006697e+17
19055.0	6.265613370523648e+17
19056.0	6.264727833411583e+17
19057.0	6.263605680930815e+17
19058.0	6.262233189318655e+17
19059.0	6.261200460098218e+17
19060.0	6.260094817097044e+17
19061.0	6.258952750759933e+17
19062.0	6.257782297373353e+17
19063.0	6.256617869104467e+17
19064.0	6.255327676028244e+17
19065.0	6.254101419524095e+17
19066.0	6.252991422835369e+17
19067.0	6.251948914595156e+17
19068.0	6.250798566604799e+17
19069.0	6.249635641993898e+17
19070.0	6.248439791397546e+17
19071.0	6.247289715337897e+17
19072.0	6.246067562261161e+17
19073.0	6.24497647489297e+17
19074.0	6.243818237416788e+17
19075.0	6.242654924832767e+17
19076.0	6.241472179339264e+17
19077.0	6.240311191797759e+17
19078.0	6.239130014973951e+17
19079.0	6.238002720276479e+17
19080.0	6.236826264840874e+17
19081.0	6.235629316035924e+17
19082.0	6.234474661194409e+17
19083.0	6.233241228935167e+17
19084.0	6.231948644406612e+17
19085.0	6.231007399247871e+17
19086.0	6.229312130777087e+17
19087.0	6.228078082654207e+17
19088.0	6.227229935665151e+17
19089.0	6.225933082034176e+17
19090.0	6.225141243576319e+17
19091.0	6.224000544582313e+17
19092.0	6.222584570620585e+17
19093.0	6.221734523611817e+17
19094.0	6.220586586647209e+17
19095.0	6.219429578801151e+17
19096.0	6.218255086998868e+17
19097.0	6.217109364626772e+17
19098.0	6.215868469302612e+17
19099.0	6.214688439620948e+17
19100.0	6.213591993330345e+17
19101.0	6.21246058402065e+17
19102.0	6.211202211031721e+17
19103.0	6.210157678340778e+17
19104.0	6.209002436296704e+17
19105.0	6.207649070011732e+17
19106.0	6.206593050520234e+17
19107.0	6.205440936028841e+17
19108.0	6.204248585579177e+17
19109.0	6.201872802469203e+17
19110.0	6.201858341907114e+17
19111.0	6.200821756723199e+17
19112.0	6.199676893484371e+17
19113.0	6.198587171362132e+17
19114.0	6.19739462378018e+17
19115.0	6.19617842102272e+17
19116.0	6.195097741819903e+17
19117.0	6.193933990232063e+17
19118.0	6.192618436296703e+17
19119.0	6.185468965508428e+17
19120.0	6.190284380220074e+17
19121.0	6.189206088974335e+17
19122.0	6.188194841580884e+17
19123.0	6.187043391187625e+17
19124.0	6.185770509402112e+17
19125.0	6.184724300387668e+17
19126.0	6.183542575508137e+17
19127.0	6.180599735080276e+17
19128.0	6.181103807234045e+17
19129.0	6.180027364977321e+17
19130.0	6.178953881103018e+17
19131.0	6.177816531959808e+17
19132.0	6.17666228396578e+17
19133.0	6.175434857250816e+17
19134.0	6.174290180658516e+17
19135.0	6.173201349126825e+17
19136.0	6.172056377535145e+17
19137.0	6.170745676409514e+17
19138.0	6.169736434592425e+17
19139.0	6.16860486869538e+17
19140.0	6.167456701743103e+17
19141.0	6.166306162911913e+17
19142.0	6.165121660704084e+17
19143.0	6.163945912707753e+17
19144.0	6.162809918324733e+17
19145.0	6.161703878961833e+17
19146.0	6.15989061423377e+17
19147.0	6.159312045648553e+17
19148.0	6.158179463331839e+17
19149.0	6.157014242339498e+17
19150.0	6.155948027893076e+17
19151.0	6.154798334214143e+17
19152.0	6.153629663406762e+17
19153.0	6.152345177380179e+17
19154.0	6.151213122846719e+17
19155.0	6.150189082127018e+17
19156.0	6.149033680000339e+17
19157.0	6.147728718779732e+17
19158.0	6.145852707263827e+17
19159.0	6.145510252827988e+17
19160.0	6.14440346198562e+17
19161.0	6.143219115666089e+17
19162.0	6.140068454465536e+17
19163.0	6.140720827422036e+17
19164.0	6.139836995993599e+17
19165.0	6.138516738845353e+17
19166.0	6.137394253616468e+17
19167.0	6.1362258065053e+17
19168.0	6.13525196251682e+17
19169.0	6.13410046948147e+17
19170.0	6.132983698292735e+17
19171.0	6.1317388959744e+17
19172.0	6.130670804576937e+17
19173.0	6.129552877158399e+17
19174.0	6.128362050639188e+17
19175.0	6.127272034915667e+17
19176.0	6.126124384561834e+17
19177.0	6.124813965852672e+17
19178.0	6.123750795771904e+17
19179.0	6.122531526978218e+17
19180.0	6.121523548345684e+17
19181.0	6.120269220063914e+17
19182.0	6.119239317804372e+17
19183.0	6.118120487911423e+17
19184.0	6.116971745640447e+17
19185.0	6.115820449038335e+17
19186.0	6.114686265196543e+17
19187.0	6.113465846464511e+17
19188.0	6.112393386000381e+17
19189.0	6.111249215520768e+17
19190.0	6.110089351353684e+17
19191.0	6.108904359111338e+17
19192.0	6.107811094200319e+17
19193.0	6.106631688770899e+17
19194.0	6.105455527635625e+17
19195.0	6.104332137136127e+17
19196.0	6.103118472631636e+17
19197.0	6.101854454109524e+17
19198.0	6.100154615944531e+17
19199.0	6.08609418626116e+17
19200.0	6.08791242263757e+17
19201.0	6.096819085202772e+17
19202.0	6.096169978210986e+17
19203.0	6.095107221968212e+17
19204.0	6.094026423926783e+17
19205.0	6.092930481651712e+17
19206.0	6.091804768206847e+17
19207.0	6.090559353520127e+17
19208.0	6.089313199237801e+17
19209.0	6.088399097517395e+17
19210.0	6.087260172713983e+17
19211.0	6.086135440736253e+17
19212.0	6.084989073839444e+17
19213.0	6.083653361380009e+17
19214.0	6.082456747420329e+17
19215.0	6.081506508275712e+17
19216.0	6.080429125096787e+17
19217.0	6.079270380109823e+17
19218.0	6.07732972598067e+17
19219.0	6.076827820883967e+17
19220.0	6.075838354511188e+17
19221.0	6.074420531560447e+17
19222.0	6.073570418141865e+17
19223.0	6.072434559374676e+17
19224.0	6.071266521907199e+17
19225.0	6.070033336412841e+17
19226.0	6.069014780444671e+17
19227.0	6.067875832572586e+17
19228.0	6.066765099783508e+17
19229.0	6.065623877200553e+17
19230.0	6.064481003459924e+17
19231.0	6.063330041004031e+17
19232.0	6.062193601325738e+17
19233.0	6.060985723562666e+17
19234.0	6.05990199300369e+17
19235.0	6.058751814882644e+17
19236.0	6.057643073688916e+17
19237.0	6.056487199003988e+17
19238.0	6.055247910098259e+17
19239.0	6.054224072802301e+17
19240.0	6.053078055430825e+17
19241.0	6.051919755040083e+17
19242.0	6.050787494985727e+17
19243.0	6.049490883226281e+17
19244.0	6.048525513129983e+17
19245.0	6.047378092763818e+17
19246.0	6.046226977215827e+17
19247.0	6.045096724135935e+17
19248.0	6.043957949628415e+17
19249.0	6.042804346159101e+17
19250.0	6.04162670862882e+17
19251.0	6.040397119750141e+17
19252.0	6.039081218386601e+17
19253.0	6.038229219628372e+17
19254.0	6.037114177191935e+17
19255.0	6.035763985296041e+17
19256.0	6.034806516569428e+17
19257.0	6.033689404243967e+17
19258.0	6.03254586151185e+17
19259.0	6.031318122321235e+17
19260.0	6.029793613753001e+17
19261.0	6.029098197450751e+17
19262.0	6.027904620167167e+17
19263.0	6.026742658149034e+17
19264.0	6.025115510068563e+17
19265.0	6.024322887974911e+17
19266.0	6.023141553864704e+17
19267.0	6.022253829423104e+17
19268.0	6.021102109196287e+17
19269.0	6.019959870892714e+17
19270.0	6.018795453109588e+17
19271.0	6.017236045834922e+17
19272.0	6.016396838305791e+17
19273.0	6.014846343927124e+17
19274.0	6.013622209041748e+17
19275.0	6.012996843208703e+17
19276.0	6.011829764139689e+17
19277.0	6.010687485990227e+17
19278.0	6.009536484387497e+17
19279.0	6.008364744048637e+17
19280.0	6.007157733807444e+17
19281.0	6.006077488715091e+17
19282.0	6.00493173908002e+17
19283.0	6.00363933630464e+17
19284.0	6.002540182590803e+17
19285.0	6.001314748869289e+17
19286.0	6.000269874342569e+17
19287.0	5.999103272026112e+17
19288.0	5.991986669901135e+17
19289.0	5.982671619839295e+17
19290.0	5.9955734394525e+17
19291.0	5.994220250027348e+17
19292.0	5.993355188808362e+17
19293.0	5.992198571731625e+17
19294.0	5.991037888277162e+17
19295.0	5.989893001969663e+17
19296.0	5.988635309157034e+17
19297.0	5.98752491610658e+17
19298.0	5.986382059842218e+17
19299.0	5.985143852367871e+17
19300.0	5.984076546004307e+17
19301.0	5.982913815030441e+17
19302.0	5.981737553930921e+17
19303.0	5.980502723570346e+17
19304.0	5.979382361358335e+17
19305.0	5.978222330118144e+17
19306.0	5.977053792829439e+17
19307.0	5.975823648904532e+17
19308.0	5.974654567055359e+17
19309.0	5.972983961791146e+17
19310.0	5.971548074672125e+17
19311.0	5.970911057062569e+17
19312.0	5.969834371536212e+17
19313.0	5.968614869259606e+17
19314.0	5.939758235298459e+17
19315.0	5.941066129735724e+17
19316.0	5.964865113249108e+17
19317.0	5.963919112448682e+17
19318.0	5.962749303586815e+17
19319.0	5.961586893477204e+17
19320.0	5.960356911732051e+17
19321.0	5.959114758116694e+17
19322.0	5.957877097299967e+17
19323.0	5.956612462215167e+17
19324.0	5.955526196199423e+17
19325.0	5.954001927405568e+17
19326.0	5.95313922408448e+17
19327.0	5.95196382281728e+17
19328.0	5.950601284987562e+17
19329.0	5.949374416115028e+17
19330.0	5.948121578209279e+17
19331.0	5.946887170075305e+17
19332.0	5.945717119341908e+17
19333.0	5.944468817575936e+17
19334.0	5.943258575623508e+17
19335.0	5.941699927517866e+17
19336.0	5.940779520360447e+17
19337.0	5.939549119883945e+17
19338.0	5.938083936949587e+17
19339.0	5.937052879159295e+17
19340.0	5.935665729153705e+17
19341.0	5.934142374019071e+17
19342.0	5.932578325747028e+17
19343.0	5.931744175849472e+17
19344.0	5.930342591845716e+17
19345.0	5.927067741498024e+17
19346.0	5.926953029380777e+17
19347.0	5.926412933049001e+17
19348.0	5.925362157136554e+17
19349.0	5.923971056096595e+17
19350.0	5.922314412971348e+17
19351.0	5.921031937414484e+17
19352.0	5.919429973333331e+17
19353.0	5.918357017941331e+17
19354.0	5.917032953763156e+17
19355.0	5.91559308345344e+17
19356.0	5.914083720516948e+17
19357.0	5.912536837434025e+17
19358.0	5.911167531395754e+17
19359.0	5.909730028770644e+17
19360.0	5.908260397776895e+17
19361.0	5.906890195555667e+17
19362.0	5.905359807971327e+17
19363.0	5.903955092220586e+17
19364.0	5.902538927418026e+17
19365.0	5.901113228263423e+17
19366.0	5.899676638598484e+17
19367.0	5.898229036788394e+17
19368.0	5.896769408510633e+17
19369.0	5.895241150933674e+17
19370.0	5.89358783598865e+17
19371.0	5.892036701279571e+17
19372.0	5.890581871984637e+17
19373.0	5.889033193040553e+17
19374.0	5.88750108299537e+17
19375.0	5.885942490114729e+17
19376.0	5.884328510750719e+17
19377.0	5.882685968875519e+17
19378.0	5.881072241868799e+17
19379.0	5.879437049812308e+17
19380.0	5.877493413533012e+17
19381.0	5.875723637445972e+17
19382.0	5.873934772382378e+17
19383.0	5.872179181431465e+17
19384.0	5.870519356926634e+17
19385.0	5.868742464503807e+17
19386.0	5.866696178925568e+17
19387.0	5.864526807302143e+17
19388.0	5.862637583029588e+17
19389.0	5.860700526215167e+17
19390.0	5.858633481628329e+17
19391.0	5.837084227709583e+17
19392.0	5.85322444567347e+17
19393.0	5.851834949653844e+17
19394.0	5.849322562256895e+17
19395.0	5.846435070563668e+17
19396.0	5.844258666490537e+17
19397.0	5.841716181467135e+17
19398.0	5.83824709779456e+17
19399.0	5.835151084879872e+17
19400.0	5.832188159328253e+17
19401.0	5.828970061408938e+17
19402.0	5.825383804261716e+17
19403.0	5.821528648187904e+17
19404.0	5.817217620901887e+17
19405.0	5.813321735340031e+17
19406.0	5.808934185773738e+17
19407.0	5.805782320807935e+17
19408.0	5.80160262696687e+17
19409.0	5.798921547459241e+17
19410.0	5.795660866868563e+17
19411.0	5.792256327942143e+17
19412.0	5.788624073261055e+17
19413.0	5.784082637477204e+17
19414.0	5.780315229039273e+17
19415.0	5.776392676092586e+17
19416.0	5.770907950426793e+17
19417.0	5.766210642422441e+17
19418.0	5.761340370408788e+17
19419.0	5.7551293765386234e+17
19420.0	5.749002316982957e+17
19421.0	5.741985351248554e+17
19422.0	5.7332646200825146e+17
19423.0	5.724385295990782e+17
19424.0	5.713884668581207e+17
19425.0	5.701357914816514e+17
19426.0	5.686368729213606e+17
19427.0	5.66909056232107e+17
19428.0	5.652170542153728e+17
19429.0	5.640824462595411e+17
19430.0	5.6300198872569184e+17
19431.0	5.617045102133251e+17
19432.0	5.608637744196264e+17
19433.0	5.5965871369093094e+17
19434.0	5.5829191053366586e+17
19435.0	5.566446602726059e+17
19436.0	5.546646430198443e+17
19437.0	5.525184822553258e+17
19438.0	5.4664484813974163e+17
19439.0	5.456842817099103e+17
19440.0	5.413432299880447e+17
19441.0	5.3788474371386e+17
19442.0	5.3475651246271155e+17
19443.0	5.3115532527097165e+17
19444.0	5.270164566179838e+17
19445.0	5.21924539894989e+17
19446.0	5.1529896752578534e+17
19447.0	5.0653051580579795e+17
19448.0	4.944978115559432e+17
19449.0	4.766358787063808e+17
19450.0	4.422135715987454e+17
19451.0	4.196081802586827e+17
19452.0	4.627770984366078e+17
19453.0	4.865707379873119e+17
19454.0	5.006744440100171e+17
19455.0	5.106421480467112e+17
19456.0	5.180304404774915e+17
19457.0	5.23587852452932e+17
19458.0	5.213281186043335e+17
19459.0	5.314027114725389e+17
19460.0	5.3469444822794214e+17
19461.0	5.376048234146471e+17
19462.0	5.415870429222238e+17
19463.0	5.455309472530421e+17
19464.0	5.4860228864245766e+17
19465.0	5.51065126069863e+17
19466.0	5.5287057198612506e+17
19467.0	5.5436823973505715e+17
19468.0	5.5559741938947405e+17
19469.0	5.566534635574611e+17
19470.0	5.576723088627028e+17
19471.0	5.5853558239941965e+17
19472.0	5.593617502568447e+17
19473.0	5.6010716881442144e+17
19474.0	5.6142180706331296e+17
19475.0	5.6288813769905466e+17
19476.0	5.643166315883173e+17
19477.0	5.6543229583032365e+17
19478.0	5.663529358415184e+17
19479.0	5.671716965580799e+17
19480.0	5.678079012416169e+17
19481.0	5.682807982522367e+17
19482.0	5.6882996623441914e+17
19483.0	5.6914875053506554e+17
19484.0	5.695525607178239e+17
19485.0	5.697725481877503e+17
19486.0	5.7008603927674874e+17
19487.0	5.7032028765989536e+17
19488.0	5.7049198757587616e+17
19489.0	5.7066734387636896e+17
19490.0	5.707397182696104e+17
19491.0	5.710103906178389e+17
19492.0	5.71136056439603e+17
19493.0	5.712467567749803e+17
19494.0	5.713900642587989e+17
19495.0	5.714902282928128e+17
19496.0	5.7161193042739194e+17
19497.0	5.7178136213367456e+17
19498.0	5.71809335275247e+17
19499.0	5.6915005251693024e+17
19500.0	5.724029075849215e+17
19501.0	5.724600653927764e+17
19502.0	5.7265840298393594e+17
19503.0	5.727156420214783e+17
19504.0	5.7276513438924794e+17
19505.0	5.728815678488575e+17
19506.0	5.728913278544553e+17
19507.0	5.728968308512084e+17
19508.0	5.72994619580962e+17
19509.0	5.729845584243369e+17
19510.0	5.729342569054207e+17
19511.0	5.681115062162734e+17
19512.0	5.725134864951969e+17
19513.0	5.7211403118837626e+17
19514.0	5.7233084972182106e+17
19515.0	5.7287203755130886e+17
19516.0	5.729511751898452e+17
19517.0	5.729204540801022e+17
19518.0	5.728865448099838e+17
19519.0	5.72844029457203e+17
19520.0	5.7279074480947194e+17
19521.0	5.727611035931988e+17
19522.0	5.7271703439059616e+17
19523.0	5.726929397918377e+17
19524.0	5.7263464609655456e+17
19525.0	5.7258801088866963e+17
19526.0	5.725330365655721e+17
19527.0	5.724750419940692e+17
19528.0	5.724191036801022e+17
19529.0	5.7235660722230605e+17
19530.0	5.722967663181822e+17
19531.0	5.722321917225642e+17
19532.0	5.7216619805409274e+17
19533.0	5.7211626479506765e+17
19534.0	5.72049937469713e+17
19535.0	5.719784719821481e+17
19536.0	5.719048897691647e+17
19537.0	5.7183681446761805e+17
19538.0	5.717390766986582e+17
19539.0	5.7163266559836166e+17
19540.0	5.7161122879023776e+17
19541.0	5.7155053742107296e+17
19542.0	5.714865329012735e+17
19543.0	5.713973506037077e+17
19544.0	5.713296038559743e+17
19545.0	5.711986883035134e+17
19546.0	5.7108452249436154e+17
19547.0	5.7113247338550605e+17
19548.0	5.710514708196009e+17
19549.0	5.7095849791979494e+17
19550.0	5.708856822857726e+17
19551.0	5.708019993498964e+17
19552.0	5.7071729929530003e+17
19553.0	5.7064467100685645e+17
19554.0	5.7058511636398074e+17
19555.0	5.7049982337460896e+17
19556.0	5.7041529444761594e+17
19557.0	5.70328636072482e+17
19558.0	5.7024074918570656e+17
19559.0	5.7015276715813536e+17
19560.0	5.7005676520188576e+17
19561.0	5.699720983521962e+17
19562.0	5.698811304695124e+17
19563.0	5.6981611106795514e+17
19564.0	5.697295239260841e+17
19565.0	5.6963882944211616e+17
19566.0	5.695446185235795e+17
19567.0	5.694562318155775e+17
19568.0	5.6936188814731936e+17
19569.0	5.692702512731476e+17
19570.0	5.691802982023167e+17
19571.0	5.6908739730472954e+17
19572.0	5.6899066071613434e+17
19573.0	5.688980381106175e+17
19574.0	5.6879709952846496e+17
19575.0	5.687142360197802e+17
19576.0	5.6862517773380256e+17
19577.0	5.685379637531987e+17
19578.0	5.6844422049955834e+17
19579.0	5.6835050555746976e+17
19580.0	5.682593448067071e+17
19581.0	5.681678830447273e+17
19582.0	5.680743197267284e+17
19583.0	5.6797879648037536e+17
19584.0	5.678820371726335e+17
19585.0	5.677746371253587e+17
19586.0	5.676742778464939e+17
19587.0	5.6758662297463456e+17
19588.0	5.674499964578475e+17
19589.0	5.6739837638956365e+17
19590.0	5.672929233382057e+17
19591.0	5.672073548529663e+17
19592.0	5.6711117918262605e+17
19593.0	5.670107713197396e+17
19594.0	5.668886348649811e+17
19595.0	5.668167500169215e+17
19596.0	5.666909869572094e+17
19597.0	5.6662254661140474e+17
19598.0	5.664822286876671e+17
19599.0	5.664391250138453e+17
19600.0	5.6634233089338003e+17
19601.0	5.662369367719934e+17
19602.0	5.6613847660407456e+17
19603.0	5.659865438836052e+17
19604.0	5.659394252821845e+17
19605.0	5.6581893942586016e+17
19606.0	5.657516664946687e+17
19607.0	5.6565416654274554e+17
19608.0	5.655536722771967e+17
19609.0	5.6545119179898874e+17
19610.0	5.6535176050988365e+17
19611.0	5.6524926744876365e+17
19612.0	5.651601156298068e+17
19613.0	5.6505988700351123e+17
19614.0	5.649575050215423e+17
19615.0	5.6486182281106765e+17
19616.0	5.647405259860649e+17
19617.0	5.646535087882239e+17
19618.0	5.645012441584979e+17
19619.0	5.6438438476731725e+17
19620.0	5.642921463600467e+17
19621.0	5.6425294199084365e+17
19622.0	5.6416627900197536e+17
19623.0	5.640659437704532e+17
19624.0	5.6396364581437434e+17
19625.0	5.638667032854526e+17
19626.0	5.637655707866453e+17
19627.0	5.636627939109545e+17
19628.0	5.635287580759381e+17
19629.0	5.634098226440873e+17
19630.0	5.6314027583733754e+17
19631.0	5.618385641537537e+17
19632.0	5.6313136559773005e+17
19633.0	5.6305280600418976e+17
19634.0	5.629647969932628e+17
19635.0	5.628612903086762e+17
19636.0	5.6275369522626554e+17
19637.0	5.6261764689428474e+17
19638.0	5.625663631392767e+17
19639.0	5.624673165377535e+17
19640.0	5.623574936507733e+17
19641.0	5.621607982694402e+17
19642.0	5.62166035976465e+17
19643.0	5.6206534849331194e+17
19644.0	5.619603131247273e+17
19645.0	5.61839400428066e+17
19646.0	5.617529468747774e+17
19647.0	5.616672664715262e+17
19648.0	5.615674070138878e+17
19649.0	5.6146638496508576e+17
19650.0	5.6136687747945786e+17
19651.0	5.6126587220787194e+17
19652.0	5.6116536941390496e+17
19653.0	5.6106493918139725e+17
19654.0	5.6096466392842234e+17
19655.0	5.60863936389666e+17
19656.0	5.607702053694122e+17
19657.0	5.606713975635966e+17
19658.0	5.605707911004158e+17
19659.0	5.6047044433455776e+17
19660.0	5.603734695794005e+17
19661.0	5.6027371574831776e+17
