# Flux units: erg / (cm m2 s)
# Wavelength units: Angstrom
wave	flux
19000.0	4.632906976023892e+17
19001.0	4.632087684448255e+17
19002.0	4.6313830497648634e+17
19003.0	4.6305876230799354e+17
19004.0	4.629586635653119e+17
19005.0	4.628916539665065e+17
19006.0	4.628177965372757e+17
19007.0	4.627404598629717e+17
19008.0	4.62663291380258e+17
19009.0	4.6258166372324685e+17
19010.0	4.6250036294232736e+17
19011.0	4.6241086201746765e+17
19012.0	4.623101719478271e+17
19013.0	4.622708925704874e+17
19014.0	4.621694633945771e+17
19015.0	4.62090296955153e+17
19016.0	4.620249652876629e+17
19017.0	4.6195411118981114e+17
19018.0	4.61867126427921e+17
19019.0	4.617921370958506e+17
19020.0	4.6171071272277325e+17
19021.0	4.616338838388734e+17
19022.0	4.615597499351039e+17
19023.0	4.614630715774292e+17
19024.0	4.613888828680874e+17
19025.0	4.6131200728760314e+17
19026.0	4.6123603774668794e+17
19027.0	4.6115757867663354e+17
19028.0	4.6106578430634656e+17
19029.0	4.609811479352661e+17
19030.0	4.6089742655160314e+17
19031.0	4.608302851118421e+17
19032.0	4.607555041667755e+17
19033.0	4.606467957063678e+17
19034.0	4.605713587721557e+17
19035.0	4.6048030015269536e+17
19036.0	4.6037429974466554e+17
19037.0	4.6031993646175565e+17
19038.0	4.6025710648688634e+17
19039.0	4.601876226681514e+17
19040.0	4.601119904191828e+17
19041.0	4.600383820617045e+17
19042.0	4.595936239375696e+17
19043.0	4.598852399835819e+17
19044.0	4.598174811422719e+17
19045.0	4.597290208941396e+17
19046.0	4.596449604709034e+17
19047.0	4.5956539368516256e+17
19048.0	4.5944458367904416e+17
19049.0	4.586412541564234e+17
19050.0	4.593294677901311e+17
19051.0	4.592439304825514e+17
19052.0	4.591662384807934e+17
19053.0	4.590964159720106e+17
19054.0	4.590103097070931e+17
19055.0	4.588173261449898e+17
19056.0	4.58835841200947e+17
19057.0	4.5879263770269005e+17
19058.0	4.583197512477348e+17
19059.0	4.5846646191991443e+17
19060.0	4.58556259242257e+17
19061.0	4.5847237337197216e+17
19062.0	4.583823910109183e+17
19063.0	4.583233456264532e+17
19064.0	4.5824254655419725e+17
19065.0	4.581558456068778e+17
19066.0	4.5794536319877126e+17
19067.0	4.5797979228296525e+17
19068.0	4.5793291911823354e+17
19069.0	4.578515184429738e+17
19070.0	4.5775671801501005e+17
19071.0	4.5768270455767034e+17
19072.0	4.574720702458537e+17
19073.0	4.57544691753506e+17
19074.0	4.5744209411440634e+17
19075.0	4.573796749716138e+17
19076.0	4.572985874710527e+17
19077.0	4.572203548934143e+17
19078.0	4.571414623420415e+17
19079.0	4.5705837814306125e+17
19080.0	4.5698704051186336e+17
19081.0	4.569092073717759e+17
19082.0	4.5683776383440205e+17
19083.0	4.5674388398626125e+17
19084.0	4.566616410248532e+17
19085.0	4.5659385904496634e+17
19086.0	4.5628506019375763e+17
19087.0	4.56122634373256e+17
19088.0	4.5615727848543546e+17
19089.0	4.562728285547179e+17
19090.0	4.562062929821695e+17
19091.0	4.5610279007245664e+17
19092.0	4.557429029208072e+17
19093.0	4.55967009476881e+17
19094.0	4.5589265788873376e+17
19095.0	4.558032877562538e+17
19096.0	4.5573661635816083e+17
19097.0	4.5565716002242554e+17
19098.0	4.554290414747646e+17
19099.0	4.553110800302081e+17
19100.0	4.554250291336532e+17
19101.0	4.5534293150487885e+17
19102.0	4.552672664704341e+17
19103.0	4.551805422447274e+17
19104.0	4.5511598694290765e+17
19105.0	4.546870967795723e+17
19106.0	4.54955285680401e+17
19107.0	4.5479103247155174e+17
19108.0	4.54660954451695e+17
19109.0	4.547147220036266e+17
19110.0	4.5463511984592205e+17
19111.0	4.544456181153789e+17
19112.0	4.5435778142044134e+17
19113.0	4.54406371873041e+17
19114.0	4.542484324898132e+17
19115.0	4.5422968122463565e+17
19116.0	4.5413962203791354e+17
19117.0	4.5404185015528096e+17
19118.0	4.538719823811925e+17
19119.0	4.536032278784681e+17
19120.0	4.5375268386242554e+17
19121.0	4.5373235365150714e+17
19122.0	4.53691672957201e+17
19123.0	4.536256230151508e+17
19124.0	4.5354242556996256e+17
19125.0	4.534685292036095e+17
19126.0	4.5338588960085325e+17
19127.0	4.5330568094679034e+17
19128.0	4.532247209530708e+17
19129.0	4.531590915599017e+17
19130.0	4.5308876300834125e+17
19131.0	4.5301174621962234e+17
19132.0	4.529279780694698e+17
19133.0	4.528588362962261e+17
19134.0	4.5278074387824634e+17
19135.0	4.527098256075434e+17
19136.0	4.5262395597127674e+17
19137.0	4.525394741602985e+17
19138.0	4.5247350978205e+17
19139.0	4.524013165128362e+17
19140.0	4.5232547601667405e+17
19141.0	4.5224499641057274e+17
19142.0	4.521626776720725e+17
19143.0	4.5208487906508794e+17
19144.0	4.5200068267649696e+17
19145.0	4.5192910072709114e+17
19146.0	4.518128130894506e+17
19147.0	4.51776660775458e+17
19148.0	4.515782102876162e+17
19149.0	4.514659843440639e+17
19150.0	4.5155026825379834e+17
19151.0	4.514652701939028e+17
19152.0	4.513964518014975e+17
19153.0	4.51050945869687e+17
19154.0	4.512189544486229e+17
19155.0	4.511656394620927e+17
19156.0	4.5108330639305376e+17
19157.0	4.5092086812945075e+17
19158.0	4.507427930112001e+17
19159.0	4.5083815841191245e+17
19160.0	4.507653187305472e+17
19161.0	4.5069529084067834e+17
19162.0	4.506177635352575e+17
19163.0	4.505404903347541e+17
19164.0	4.5046255010010445e+17
19165.0	4.500916553471312e+17
19166.0	4.5029847787547296e+17
19167.0	4.5023854924049056e+17
19168.0	4.501541321616042e+17
19169.0	4.500789066902185e+17
19170.0	4.50004046193186e+17
19171.0	4.4991809155235834e+17
19172.0	4.4984733965571405e+17
19173.0	4.497769684620629e+17
19174.0	4.4969511242519885e+17
19175.0	4.4961379381848736e+17
19176.0	4.4954333055986336e+17
19177.0	4.4945383984114336e+17
19178.0	4.4938437992994125e+17
19179.0	4.493099222259029e+17
19180.0	4.49232425329186e+17
19181.0	4.4915717930571085e+17
19182.0	4.4906690530071885e+17
19183.0	4.4899947389474125e+17
19184.0	4.489262861560491e+17
19185.0	4.488443495885482e+17
19186.0	4.487686142995114e+17
19187.0	4.486911842320383e+17
19188.0	4.486193968316415e+17
19189.0	4.485422509981695e+17
19190.0	4.484626929505621e+17
19191.0	4.4838547895965005e+17
19192.0	4.483085231281492e+17
19193.0	4.481895960849066e+17
19194.0	4.4809573385284256e+17
19195.0	4.480767409957547e+17
19196.0	4.479951043209897e+17
19197.0	4.4790838967227725e+17
19198.0	4.478228196491264e+17
19199.0	4.4775561753176723e+17
19200.0	4.4767648884107936e+17
19201.0	4.476030857947818e+17
19202.0	4.4753391675856205e+17
19203.0	4.4745533535464096e+17
19204.0	4.4739200800522234e+17
19205.0	4.473093043694249e+17
19206.0	4.472360138702847e+17
19207.0	4.47134657815074e+17
19208.0	4.4708281223304525e+17
19209.0	4.470084507882836e+17
19210.0	4.4692437994919245e+17
19211.0	4.468573207876949e+17
19212.0	4.467811833348095e+17
19213.0	4.4670069282351776e+17
19214.0	4.466302618610346e+17
19215.0	4.465546270255785e+17
19216.0	4.464800866937514e+17
19217.0	4.464093970126164e+17
19218.0	4.463227761765034e+17
19219.0	4.462351333982207e+17
19220.0	4.461768666862934e+17
19221.0	4.4609852135178234e+17
19222.0	4.460128426961578e+17
19223.0	4.459442588352511e+17
19224.0	4.4586419635268256e+17
19225.0	4.4580123069207885e+17
19226.0	4.4572787329378976e+17
19227.0	4.4564755453924685e+17
19228.0	4.4557527207116794e+17
19229.0	4.4547447071266125e+17
19230.0	4.454178931867647e+17
19231.0	4.4535429817084576e+17
19232.0	4.4527690277628576e+17
19233.0	4.451919586831019e+17
19234.0	4.4511624080042656e+17
19235.0	4.4504246411154765e+17
19236.0	4.4496957563644576e+17
19237.0	4.4488167113359354e+17
19238.0	4.448102986896725e+17
19239.0	4.447411086120276e+17
19240.0	4.4465653676332365e+17
19241.0	4.445920645087231e+17
19242.0	4.444975025968468e+17
19243.0	4.444311178095275e+17
19244.0	4.443590883977898e+17
19245.0	4.442896271583914e+17
19246.0	4.4421621782063776e+17
19247.0	4.441408599490559e+17
19248.0	4.4406072497493325e+17
19249.0	4.439687704521385e+17
19250.0	4.438477971477845e+17
19251.0	4.437763745120253e+17
19252.0	4.4374200603552403e+17
19253.0	4.436791954942635e+17
19254.0	4.436083599212542e+17
19255.0	4.435154916693332e+17
19256.0	4.4344415879167994e+17
19257.0	4.433750191155881e+17
19258.0	4.4329592048407885e+17
19259.0	4.4322614739817805e+17
19260.0	4.4314293583216634e+17
19261.0	4.4307495084796576e+17
19262.0	4.4299040325631994e+17
19263.0	4.4290718064530765e+17
19264.0	4.428380215356074e+17
19265.0	4.4275745818323616e+17
19266.0	4.426903300254379e+17
19267.0	4.4261971870788256e+17
19268.0	4.425368833709397e+17
19269.0	4.4246750888372896e+17
19270.0	4.423910934183936e+17
19271.0	4.4230953489749325e+17
19272.0	4.42245981544994e+17
19273.0	4.421653867353429e+17
19274.0	4.420721073018196e+17
19275.0	4.420235897602047e+17
19276.0	4.4194741183228576e+17
19277.0	4.418747682346325e+17
19278.0	4.4179034311666336e+17
19279.0	4.4172069201510394e+17
19280.0	4.4164961114521594e+17
19281.0	4.415700163275434e+17
19282.0	4.4149513611728205e+17
19283.0	4.4141230476492794e+17
19284.0	4.4134136838881274e+17
19285.0	4.4125654614015994e+17
19286.0	4.4116876557899085e+17
19287.0	4.4108254501928954e+17
19288.0	4.40994096025873e+17
19289.0	4.4091423095521274e+17
19290.0	4.40861809774865e+17
19291.0	4.407824389330262e+17
19292.0	4.4073089645936634e+17
19293.0	4.406594448130047e+17
19294.0	4.405897333833727e+17
19295.0	4.405098629999274e+17
19296.0	4.402671033253891e+17
19297.0	4.4033680063419744e+17
19298.0	4.4028322965531296e+17
19299.0	4.400288608463533e+17
19300.0	4.401452026604202e+17
19301.0	4.4006532088244896e+17
19302.0	4.399908229130921e+17
19303.0	4.399047390177961e+17
19304.0	4.398342549973675e+17
19305.0	4.3975398119178234e+17
19306.0	4.3968270416827725e+17
19307.0	4.395988227020117e+17
19308.0	4.395199937642495e+17
19309.0	4.39431001608465e+17
19310.0	4.393373283997012e+17
19311.0	4.392304638252373e+17
19312.0	4.390844068353364e+17
19313.0	4.38799985278976e+17
19314.0	4.3757713252242784e+17
19315.0	4.3753620044950195e+17
19316.0	4.383638836390574e+17
19317.0	4.3871823766487034e+17
19318.0	4.3871831665759565e+17
19319.0	4.3866204538579616e+17
19320.0	4.385565183049725e+17
19321.0	4.3840077470979405e+17
19322.0	4.384853942337534e+17
19323.0	4.3841953506263034e+17
19324.0	4.383437246955519e+17
19325.0	4.3827577214730234e+17
19326.0	4.3819584409217696e+17
19327.0	4.3812953242555725e+17
19328.0	4.377382936204632e+17
19329.0	4.3798175248547834e+17
19330.0	4.3791062156356256e+17
19331.0	4.3783410172996256e+17
19332.0	4.377567923186346e+17
19333.0	4.3769040781093536e+17
19334.0	4.375880389711189e+17
19335.0	4.368994140160007e+17
19336.0	4.374522751527594e+17
19337.0	4.3738428835102714e+17
19338.0	4.372966575265108e+17
19339.0	4.372249279376042e+17
19340.0	4.3714196348600314e+17
19341.0	4.368462994472965e+17
19342.0	4.3693941404467226e+17
19343.0	4.369295224777386e+17
19344.0	4.366205222999384e+17
19345.0	4.3667512193187866e+17
19346.0	4.3668730484708685e+17
19347.0	4.3633685620763296e+17
19348.0	4.365640353710079e+17
19349.0	4.3648863234075296e+17
19350.0	4.362962173165568e+17
19351.0	4.363409260107093e+17
19352.0	4.359540788516175e+17
19353.0	4.361981765790378e+17
19354.0	4.361303619534847e+17
19355.0	4.360499716161536e+17
19356.0	4.3597842489890125e+17
19357.0	4.359086790060714e+17
19358.0	4.3583317852815354e+17
19359.0	4.356929198140071e+17
19360.0	4.354353957000531e+17
19361.0	4.3561227117745485e+17
19362.0	4.355369527323306e+17
19363.0	4.3546423181967354e+17
19364.0	4.353922983875925e+17
19365.0	4.353145900280489e+17
19366.0	4.352268654608383e+17
19367.0	4.3516394244232525e+17
19368.0	4.350950908450132e+17
19369.0	4.350252567319893e+17
19370.0	4.349528173969406e+17
19371.0	4.3486369850327034e+17
19372.0	4.3479758054359034e+17
19373.0	4.347153063346175e+17
19374.0	4.3463888730412365e+17
19375.0	4.345767960160938e+17
19376.0	4.3450570913437005e+17
19377.0	4.344327768986964e+17
19378.0	4.343588124448084e+17
19379.0	4.342848077955072e+17
19380.0	4.341892096109226e+17
19381.0	4.341197528454485e+17
19382.0	4.34051008692224e+17
19383.0	4.339765240747348e+17
19384.0	4.3388697855044256e+17
19385.0	4.338316501581824e+17
19386.0	4.337559331143679e+17
19387.0	4.336752709861374e+17
19388.0	4.3359587330075296e+17
19389.0	4.3351882708200096e+17
19390.0	4.33427663884561e+17
19391.0	4.333195562582015e+17
19392.0	4.3326537360998394e+17
19393.0	4.3321273991823366e+17
19394.0	4.331523228565504e+17
19395.0	4.329964836312407e+17
19396.0	4.329915760159402e+17
19397.0	4.3293613276965536e+17
19398.0	4.327838449314474e+17
19399.0	4.326787421743785e+17
19400.0	4.326454553389738e+17
19401.0	4.3264068529684474e+17
19402.0	4.3257454147229005e+17
19403.0	4.325007245879978e+17
19404.0	4.324175901272746e+17
19405.0	4.323402379340459e+17
19406.0	4.322742671245311e+17
19407.0	4.320889662690643e+17
19408.0	4.3212707837160096e+17
19409.0	4.320481712799743e+17
19410.0	4.3197498340147194e+17
19411.0	4.318995670892544e+17
19412.0	4.3182286004988576e+17
19413.0	4.316388914451797e+17
19414.0	4.3167849308487674e+17
19415.0	4.3159700006502394e+17
19416.0	4.315090146820095e+17
19417.0	4.3144942704394234e+17
19418.0	4.313715442712575e+17
19419.0	4.31292033339665e+17
19420.0	4.3121184335025485e+17
19421.0	4.311327460469418e+17
19422.0	4.310438604963838e+17
19423.0	4.309765231826262e+17
19424.0	4.3089532788845216e+17
19425.0	4.3080518698270714e+17
19426.0	4.3072944784889165e+17
19427.0	4.306443085108564e+17
19428.0	4.305414068546218e+17
19429.0	4.3046653908746234e+17
19430.0	4.303632545611776e+17
19431.0	4.3026190997039776e+17
19432.0	4.3017081772660045e+17
19433.0	4.3006355112809805e+17
19434.0	4.299607578946219e+17
19435.0	4.2983199961251834e+17
19436.0	4.296956854315689e+17
19437.0	4.295453394163029e+17
19438.0	4.293450381918208e+17
19439.0	4.292475741711018e+17
19440.0	4.2912175309018445e+17
19441.0	4.2894568865136634e+17
19442.0	4.287532668463786e+17
19443.0	4.2849363243827194e+17
19444.0	4.281885592474965e+17
19445.0	4.27795615387921e+17
19446.0	4.273151488469674e+17
19447.0	4.266566106131114e+17
19448.0	4.257354927308799e+17
19449.0	4.2436881260653216e+17
19450.0	4.2185187229259066e+17
19451.0	4.1973820969451526e+17
19452.0	4.2319111502779725e+17
19453.0	4.2480640203598515e+17
19454.0	4.2570809448857606e+17
19455.0	4.2624664717666976e+17
19456.0	4.2647360585946445e+17
19457.0	4.261635112479403e+17
19458.0	4.2335146131237606e+17
19459.0	4.252755481504429e+17
19460.0	4.2691568557096954e+17
19461.0	4.273403578722986e+17
19462.0	4.2750402199115085e+17
19463.0	4.275674021188949e+17
19464.0	4.275922979695274e+17
19465.0	4.275990289186815e+17
19466.0	4.27588638019857e+17
19467.0	4.275615117781674e+17
19468.0	4.2753235004074656e+17
19469.0	4.2727360482508755e+17
19470.0	4.27446190018833e+17
19471.0	4.2739543334802765e+17
19472.0	4.2734550672998394e+17
19473.0	4.272893854744574e+17
19474.0	4.2699093243330515e+17
19475.0	4.271448931696638e+17
19476.0	4.2710474948608e+17
19477.0	4.270401597210623e+17
19478.0	4.269853424047445e+17
19479.0	4.266982908100604e+17
19480.0	4.268562596932266e+17
19481.0	4.26774108377361e+17
19482.0	4.2671112146561696e+17
19483.0	4.266526264437417e+17
19484.0	4.2657576924829e+17
19485.0	4.2651610604284576e+17
19486.0	4.262045711073287e+17
19487.0	4.263655837969066e+17
19488.0	4.26298264518656e+17
19489.0	4.2622949128492365e+17
19490.0	4.2615285918378656e+17
19491.0	4.2607918469611514e+17
19492.0	4.2601414649009485e+17
19493.0	4.259358967857151e+17
19494.0	4.25863699182387e+17
19495.0	4.257953953611775e+17
19496.0	4.2570073795898016e+17
19497.0	4.2562964758200314e+17
19498.0	4.2552693760546125e+17
19499.0	4.2542679978584736e+17
19500.0	4.2540403708832416e+17
19501.0	4.253585072892586e+17
19502.0	4.252925097061034e+17
19503.0	4.252269006553087e+17
19504.0	4.2515208594609485e+17
19505.0	4.250697440690175e+17
19506.0	4.2500124535248205e+17
19507.0	4.249151892794027e+17
19508.0	4.248043654916778e+17
19509.0	4.2464793829485216e+17
19510.0	4.2424409938111123e+17
19511.0	4.231250694897663e+17
19512.0	4.240159813926912e+17
19513.0	4.242808581914623e+17
19514.0	4.2430482367556256e+17
19515.0	4.2432158089871354e+17
19516.0	4.2423869278344506e+17
19517.0	4.242215519212885e+17
19518.0	4.240948202569726e+17
19519.0	4.2402983482927763e+17
19520.0	4.238049034633213e+17
19521.0	4.2397385611018234e+17
19522.0	4.238621972365311e+17
19523.0	4.237835441799169e+17
19524.0	4.2358868408620416e+17
19525.0	4.236918649432746e+17
19526.0	4.236156584940884e+17
19527.0	4.235516313949525e+17
19528.0	4.234578805216596e+17
19529.0	4.233808006086656e+17
19530.0	4.2333878941122554e+17
19531.0	4.2326637852753914e+17
19532.0	4.231929275962708e+17
19533.0	4.2311535750894925e+17
19534.0	4.23056065569314e+17
19535.0	4.22985493188881e+17
19536.0	4.2290595827985056e+17
19537.0	4.2283812149439136e+17
19538.0	4.2255626377625626e+17
19539.0	4.2270298066998605e+17
19540.0	4.226286323673769e+17
19541.0	4.2250221639434234e+17
19542.0	4.224584943403008e+17
19543.0	4.2218609862246406e+17
19544.0	4.223200593095338e+17
19545.0	4.2226521507976525e+17
19546.0	4.2219721310863354e+17
19547.0	4.221330368320853e+17
19548.0	4.2206221027682976e+17
19549.0	4.219789459324927e+17
19550.0	4.2190741641188685e+17
19551.0	4.2185296260191565e+17
19552.0	4.217734488741204e+17
19553.0	4.2171154772787194e+17
19554.0	4.2163118870801056e+17
19555.0	4.215285948437845e+17
19556.0	4.214716082334378e+17
19557.0	4.214230869868543e+17
19558.0	4.2135488417846605e+17
19559.0	4.212821671804927e+17
19560.0	4.211287785471999e+17
19561.0	4.2114038460579834e+17
19562.0	4.2099964019124896e+17
19563.0	4.2100388923091616e+17
19564.0	4.209124336904874e+17
19565.0	4.2085341053583354e+17
19566.0	4.2077420536900256e+17
19567.0	4.2071952471709005e+17
19568.0	4.20646215623202e+17
19569.0	4.20578267968307e+17
19570.0	4.205074778335914e+17
19571.0	4.2043324137908896e+17
19572.0	4.203626275449514e+17
19573.0	4.2026943975697056e+17
19574.0	4.2020814923147936e+17
19575.0	4.201553987982677e+17
19576.0	4.200724917387263e+17
19577.0	4.199765011070976e+17
19578.0	4.199419025730218e+17
19579.0	4.198740805375317e+17
19580.0	4.1979382015371936e+17
19581.0	4.197164718751744e+17
19582.0	4.1965784193652045e+17
19583.0	4.195942707582293e+17
19584.0	4.1951413487534074e+17
19585.0	4.1944123416685216e+17
19586.0	4.193709474884266e+17
19587.0	4.193101448303955e+17
19588.0	4.192337748033536e+17
19589.0	4.19166911725568e+17
19590.0	4.1909290490920954e+17
19591.0	4.190227956498431e+17
19592.0	4.1895279439380474e+17
19593.0	4.188621009584127e+17
19594.0	4.187785143517182e+17
19595.0	4.187412178315946e+17
19596.0	4.186606332979882e+17
19597.0	4.1859837997001376e+17
19598.0	4.185030193927509e+17
19599.0	4.184521958227967e+17
19600.0	4.1837792777120416e+17
19601.0	4.1831348718359885e+17
19602.0	4.1824508339814394e+17
19603.0	4.1817246622460576e+17
19604.0	4.181064304033791e+17
19605.0	4.1801955091851936e+17
19606.0	4.179580169835861e+17
19607.0	4.178987765639849e+17
19608.0	4.178078583138986e+17
19609.0	4.1775364924156576e+17
19610.0	4.175818158069079e+17
19611.0	4.174505921828181e+17
19612.0	4.1754524713833805e+17
19613.0	4.174602146152447e+17
19614.0	4.173978919414442e+17
19615.0	4.1733380367537485e+17
19616.0	4.171595395017389e+17
19617.0	4.170295764757162e+17
19618.0	4.170986239470249e+17
19619.0	4.17018776981777e+17
19620.0	4.16915531252804e+17
19621.0	4.1665790556678803e+17
19622.0	4.1683763051451725e+17
19623.0	4.167620305616895e+17
19624.0	4.166712744913578e+17
19625.0	4.166319166805333e+17
19626.0	4.165513777949353e+17
19627.0	4.164898955198463e+17
19628.0	4.164178184328533e+17
19629.0	4.158024293810172e+17
19630.0	4.1627747422481056e+17
19631.0	4.161829723613866e+17
19632.0	4.1613928442101766e+17
19633.0	4.1606869358564685e+17
19634.0	4.1600079395553274e+17
19635.0	4.1590443869907603e+17
19636.0	4.155963832882513e+17
19637.0	4.155129594205521e+17
19638.0	4.1569726811340774e+17
19639.0	4.1563876624083616e+17
19640.0	4.1555444577075194e+17
19641.0	4.1548744728685216e+17
19642.0	4.1542210953762125e+17
19643.0	4.153588764901375e+17
19644.0	4.153032060523862e+17
19645.0	4.1524250895100576e+17
19646.0	4.148915447616848e+17
19647.0	4.150785838765396e+17
19648.0	4.1503408252081485e+17
19649.0	4.1495890661212154e+17
19650.0	4.148912849944575e+17
19651.0	4.1482279326842874e+17
19652.0	4.147581829513215e+17
19653.0	4.1468129101305165e+17
19654.0	4.14619508216081e+17
19655.0	4.14540277953331e+17
