# Flux units: erg / (cm m2 s)
# Wavelength units: Angstrom
wave	flux
19000.0	5.4229725148610554e+17
19001.0	5.421911627180713e+17
19002.0	5.4210630726451194e+17
19003.0	5.4200966665557325e+17
19004.0	5.4191077007032314e+17
19005.0	5.418126016861524e+17
19006.0	5.417174232115881e+17
19007.0	5.4162306640117754e+17
19008.0	5.4152512150350496e+17
19009.0	5.4142063579845965e+17
19010.0	5.4132737062557005e+17
19011.0	5.4123149442853536e+17
19012.0	5.4112270040432634e+17
19013.0	5.410474284460713e+17
19014.0	5.409467004878847e+17
19015.0	5.4085148007028045e+17
19016.0	5.407603602838868e+17
19017.0	5.4066620794579616e+17
19018.0	5.405683308560383e+17
19019.0	5.404737293778943e+17
19020.0	5.4037646095155194e+17
19021.0	5.402819739779071e+17
19022.0	5.4018616649755296e+17
19023.0	5.400816741515264e+17
19024.0	5.399820759291221e+17
19025.0	5.398920869969919e+17
19026.0	5.3979376090699085e+17
19027.0	5.397001315986089e+17
19028.0	5.3960224856692045e+17
19029.0	5.3950374470833485e+17
19030.0	5.394069277988181e+17
19031.0	5.393099604535977e+17
19032.0	5.3920678183348896e+17
19033.0	5.3908434108197536e+17
19034.0	5.3895797201524045e+17
19035.0	5.387541570824874e+17
19036.0	5.3846561049804794e+17
19037.0	5.385787805794304e+17
19038.0	5.3857913101352954e+17
19039.0	5.385208092164094e+17
19040.0	5.3843951822219936e+17
19041.0	5.383512618172414e+17
19042.0	5.3798626124977434e+17
19043.0	5.381688311240021e+17
19044.0	5.380748586516479e+17
19045.0	5.3797497724381856e+17
19046.0	5.3787905777554765e+17
19047.0	5.377819244756991e+17
19048.0	5.3764345127676576e+17
19049.0	5.370154446400163e+17
19050.0	5.374678183619241e+17
19051.0	5.3735005195250336e+17
19052.0	5.372657525238442e+17
19053.0	5.371933753344e+17
19054.0	5.3710947974731085e+17
19055.0	5.3692394317195936e+17
19056.0	5.369054719464787e+17
19057.0	5.3683857622302714e+17
19058.0	5.3645855774037274e+17
19059.0	5.365405539368958e+17
19060.0	5.365568314714793e+17
19061.0	5.36460048396015e+17
19062.0	5.363649902280703e+17
19063.0	5.3627240900635296e+17
19064.0	5.3617568185494176e+17
19065.0	5.3607356362478925e+17
19066.0	5.358820333191169e+17
19067.0	5.358874768266581e+17
19068.0	5.357995521212415e+17
19069.0	5.357042739620522e+17
19070.0	5.356048848956074e+17
19071.0	5.3551129746036045e+17
19072.0	5.3531373700382694e+17
19073.0	5.353253410351786e+17
19074.0	5.352262870936234e+17
19075.0	5.351346455358122e+17
19076.0	5.350385065656319e+17
19077.0	5.349437301850111e+17
19078.0	5.348471412359167e+17
19079.0	5.347528121079125e+17
19080.0	5.3465906465996794e+17
19081.0	5.345602406361771e+17
19082.0	5.3447066694014285e+17
19083.0	5.343680012834132e+17
19084.0	5.3426305077957965e+17
19085.0	5.341828496053589e+17
19086.0	5.339093117785427e+17
19087.0	5.337530991203665e+17
19088.0	5.3374623227576294e+17
19089.0	5.3379122024065696e+17
19090.0	5.337090287293781e+17
19091.0	5.3359737202278394e+17
19092.0	5.332933632065542e+17
19093.0	5.334275366846464e+17
19094.0	5.3333411031067296e+17
19095.0	5.3323764914804045e+17
19096.0	5.3314553622036474e+17
19097.0	5.3305095361658874e+17
19098.0	5.328397717383849e+17
19099.0	5.327197446690133e+17
19100.0	5.3276355648116045e+17
19101.0	5.3266980085432314e+17
19102.0	5.3257506187291296e+17
19103.0	5.3248061159942816e+17
19104.0	5.323896116303189e+17
19105.0	5.320368533274631e+17
19106.0	5.321969156576596e+17
19107.0	5.320395767589545e+17
19108.0	5.3190731287756794e+17
19109.0	5.3191097073008634e+17
19110.0	5.3181770793396896e+17
19111.0	5.3164828999898426e+17
19112.0	5.3154078837964774e+17
19113.0	5.315372645351424e+17
19114.0	5.313886119002111e+17
19115.0	5.313356453904382e+17
19116.0	5.3124473538914976e+17
19117.0	5.311388118766932e+17
19118.0	5.309670463897598e+17
19119.0	5.305987923006802e+17
19120.0	5.308119111084713e+17
19121.0	5.307637458184874e+17
19122.0	5.3068390095039136e+17
19123.0	5.3059430222834336e+17
19124.0	5.304893013229566e+17
19125.0	5.304025243888297e+17
19126.0	5.303014700438868e+17
19127.0	5.3019624837829965e+17
19128.0	5.3011159858544634e+17
19129.0	5.300231097461417e+17
19130.0	5.2993910070312954e+17
19131.0	5.298486094331902e+17
19132.0	5.2975452888760314e+17
19133.0	5.296603176894462e+17
19134.0	5.295688234915156e+17
19135.0	5.294759711779498e+17
19136.0	5.2938157529060685e+17
19137.0	5.2928531678276256e+17
19138.0	5.291945700098047e+17
19139.0	5.2910233530750285e+17
19140.0	5.2900893046429005e+17
19141.0	5.289147834389844e+17
19142.0	5.2881886781549216e+17
19143.0	5.2872668477303456e+17
19144.0	5.2863029505338003e+17
19145.0	5.285389810008064e+17
19146.0	5.2839728350057805e+17
19147.0	5.283514881321641e+17
19148.0	5.281683685244928e+17
19149.0	5.2805592797238605e+17
19150.0	5.280731463592617e+17
19151.0	5.279774565990398e+17
19152.0	5.278828518353577e+17
19153.0	5.2759469084726566e+17
19154.0	5.2767965884798285e+17
19155.0	5.2760204017663994e+17
19156.0	5.2750804987849376e+17
19157.0	5.27352537599181e+17
19158.0	5.271817010107735e+17
19159.0	5.272222279838379e+17
19160.0	5.2712905235933856e+17
19161.0	5.2703488135659514e+17
19162.0	5.2693853036434765e+17
19163.0	5.268478815283883e+17
19164.0	5.2675570554634234e+17
19165.0	5.264532602967378e+17
19166.0	5.26569070063343e+17
19167.0	5.264800182785364e+17
19168.0	5.2638782034629965e+17
19169.0	5.262951819422379e+17
19170.0	5.26203247202577e+17
19171.0	5.261086339803817e+17
19172.0	5.260158506631168e+17
19173.0	5.25924888023313e+17
19174.0	5.258309266658644e+17
19175.0	5.257375481069568e+17
19176.0	5.256453751308287e+17
19177.0	5.2553939492536314e+17
19178.0	5.254560974460244e+17
19179.0	5.2536447497229645e+17
19180.0	5.252694496597333e+17
19181.0	5.2517466600898554e+17
19182.0	5.25078105231633e+17
19183.0	5.2498899018274125e+17
19184.0	5.2489732045318816e+17
19185.0	5.2480112304237216e+17
19186.0	5.2470791638002336e+17
19187.0	5.246082451068245e+17
19188.0	5.2451890342570656e+17
19189.0	5.2442223828008954e+17
19190.0	5.243264973493588e+17
19191.0	5.242267350597632e+17
19192.0	5.2412923769432723e+17
19193.0	5.240018406036821e+17
19194.0	5.2388439554785274e+17
19195.0	5.238235496884907e+17
19196.0	5.237153130173779e+17
19197.0	5.236049097086291e+17
19198.0	5.234884951233876e+17
19199.0	5.233647240784554e+17
19200.0	5.2327627767152634e+17
19201.0	5.232129253659988e+17
19202.0	5.2314507292180474e+17
19203.0	5.230657435336703e+17
19204.0	5.229920770850815e+17
19205.0	5.2290981336186874e+17
19206.0	5.228258473104724e+17
19207.0	5.2272950428740256e+17
19208.0	5.226512749253972e+17
19209.0	5.225660479963135e+17
19210.0	5.2247610687924896e+17
19211.0	5.223898999510355e+17
19212.0	5.2229954471635616e+17
19213.0	5.222018855206911e+17
19214.0	5.221153085150549e+17
19215.0	5.220268604304041e+17
19216.0	5.219352928321535e+17
19217.0	5.218418972164094e+17
19218.0	5.2174457153781754e+17
19219.0	5.216453326274559e+17
19220.0	5.215665119384917e+17
19221.0	5.214769922790741e+17
19222.0	5.2138483545101645e+17
19223.0	5.212951147446272e+17
19224.0	5.2120189186430285e+17
19225.0	5.2111554890082976e+17
19226.0	5.210243169168042e+17
19227.0	5.209325386246826e+17
19228.0	5.208437422729898e+17
19229.0	5.207480917295103e+17
19230.0	5.206594170126335e+17
19231.0	5.205687642619902e+17
19232.0	5.204776714589524e+17
19233.0	5.2038163748618234e+17
19234.0	5.202931551480489e+17
19235.0	5.201993280083285e+17
19236.0	5.201108080612692e+17
19237.0	5.2001689465869645e+17
19238.0	5.1992271757421216e+17
19239.0	5.198360722014206e+17
19240.0	5.1974282646213965e+17
19241.0	5.196517815440725e+17
19242.0	5.195576846406996e+17
19243.0	5.194578130195796e+17
19244.0	5.193773353009151e+17
19245.0	5.1928666905859405e+17
19246.0	5.1919561358486176e+17
19247.0	5.191034487177215e+17
19248.0	5.190113599771988e+17
19249.0	5.18911778951441e+17
19250.0	5.187849664768683e+17
19251.0	5.186897179574269e+17
19252.0	5.1862221224236365e+17
19253.0	5.185525330389674e+17
19254.0	5.184631563354111e+17
19255.0	5.183550285763924e+17
19256.0	5.182771892147541e+17
19257.0	5.1818660119620256e+17
19258.0	5.180929949564928e+17
19259.0	5.179928223241557e+17
19260.0	5.178902957785087e+17
19261.0	5.178130042628778e+17
19262.0	5.177164315317589e+17
19263.0	5.1762408987470496e+17
19264.0	5.175329308016638e+17
19265.0	5.1744152552297805e+17
19266.0	5.1735086214676474e+17
19267.0	5.172689740933802e+17
19268.0	5.171783750997333e+17
19269.0	5.170878654447615e+17
19270.0	5.1699508331588256e+17
19271.0	5.169011760649556e+17
19272.0	5.168141035722068e+17
19273.0	5.167130579653973e+17
19274.0	5.166033715331069e+17
19275.0	5.165432935109972e+17
19276.0	5.164502906219178e+17
19277.0	5.163601072837973e+17
19278.0	5.16262322049297e+17
19279.0	5.1617437266739194e+17
19280.0	5.160835403306324e+17
19281.0	5.1599131527522976e+17
19282.0	5.1589916299100154e+17
19283.0	5.158043738177534e+17
19284.0	5.157061387441493e+17
19285.0	5.1560546719935136e+17
19286.0	5.1549111530291194e+17
19287.0	5.1534993852552525e+17
19288.0	5.150987715783338e+17
19289.0	5.149733897109502e+17
19290.0	5.1506733603880954e+17
19291.0	5.1501653483847686e+17
19292.0	5.1496875081072634e+17
19293.0	5.1488881275917645e+17
19294.0	5.1480161520626336e+17
19295.0	5.1471561841268045e+17
19296.0	5.1449757115787974e+17
19297.0	5.145148052733952e+17
19298.0	5.1444465288260256e+17
19299.0	5.1421224572900704e+17
19300.0	5.1426492478914554e+17
19301.0	5.141747994722303e+17
19302.0	5.1408311988606285e+17
19303.0	5.139864841005738e+17
19304.0	5.13899495424e+17
19305.0	5.1380543864613536e+17
19306.0	5.137131074049364e+17
19307.0	5.1361425220348576e+17
19308.0	5.135197315355988e+17
19309.0	5.1341909829877754e+17
19310.0	5.133153879108265e+17
19311.0	5.131990601476778e+17
19312.0	5.1304720369363616e+17
19313.0	5.127230612395349e+17
19314.0	5.100728961291608e+17
19315.0	5.100763843220825e+17
19316.0	5.1229440882333037e+17
19317.0	5.1259718486370976e+17
19318.0	5.125716096057343e+17
19319.0	5.1250638083850234e+17
19320.0	5.1238111871849786e+17
19321.0	5.1223184420809376e+17
19322.0	5.122616242558292e+17
19323.0	5.121743114294613e+17
19324.0	5.120849968715093e+17
19325.0	5.1199738953509536e+17
19326.0	5.1190797417403725e+17
19327.0	5.118191988637694e+17
19328.0	5.114979062295212e+17
19329.0	5.116398297328298e+17
19330.0	5.115508666575529e+17
19331.0	5.114575713555795e+17
19332.0	5.11370127806737e+17
19333.0	5.112789613936639e+17
19334.0	5.111825842569216e+17
19335.0	5.106295167604058e+17
19336.0	5.1100406992513696e+17
19337.0	5.109179285678762e+17
19338.0	5.108104474307242e+17
19339.0	5.1073172810410656e+17
19340.0	5.1063208311521274e+17
19341.0	5.10370463333308e+17
19342.0	5.1040171418364595e+17
19343.0	5.1036014122106874e+17
19344.0	5.100889182306307e+17
19345.0	5.1007505291018246e+17
19346.0	5.100582566800042e+17
19347.0	5.0977212978954234e+17
19348.0	5.0991143115380045e+17
19349.0	5.098223493098154e+17
19350.0	5.096475601491285e+17
19351.0	5.096424360378366e+17
19352.0	5.093188403811664e+17
19353.0	5.0946758347325434e+17
19354.0	5.09378941751569e+17
19355.0	5.092804630588074e+17
19356.0	5.091966912735913e+17
19357.0	5.091066051734187e+17
19358.0	5.090150686130175e+17
19359.0	5.0887294993476243e+17
19360.0	5.0864757180552506e+17
19361.0	5.087418790532437e+17
19362.0	5.086511271073108e+17
19363.0	5.0856055971075405e+17
19364.0	5.084697368810837e+17
19365.0	5.0837761220935674e+17
19366.0	5.082845318654634e+17
19367.0	5.081939728575145e+17
19368.0	5.0810358211106125e+17
19369.0	5.080101320392703e+17
19370.0	5.0791914689003514e+17
19371.0	5.078226860769279e+17
19372.0	5.0773485525401594e+17
19373.0	5.076406741150378e+17
19374.0	5.075494178040489e+17
19375.0	5.074598134196906e+17
19376.0	5.073673148257621e+17
19377.0	5.0727405580451834e+17
19378.0	5.0718150834694816e+17
19379.0	5.0708808001563296e+17
19380.0	5.06990411382784e+17
19381.0	5.0689718011385165e+17
19382.0	5.067983010747732e+17
19383.0	5.067064363799892e+17
19384.0	5.066104944022868e+17
19385.0	5.065175914075476e+17
19386.0	5.064198517511508e+17
19387.0	5.0631804928218445e+17
19388.0	5.0620981995110406e+17
19389.0	5.0608718115853645e+17
19390.0	5.059166048266922e+17
19391.0	5.056155983631699e+17
19392.0	5.056480834573651e+17
19393.0	5.05676296233506e+17
19394.0	5.056224124993535e+17
19395.0	5.0547663093541555e+17
19396.0	5.054374629168469e+17
19397.0	5.0535670390019405e+17
19398.0	5.051945665079978e+17
19399.0	5.050735095971838e+17
19400.0	5.04999268319232e+17
19401.0	5.049581303059796e+17
19402.0	5.048597981342378e+17
19403.0	5.04757533942306e+17
19404.0	5.046533290459135e+17
19405.0	5.0454537695832736e+17
19406.0	5.0444011397884576e+17
19407.0	5.042503891113299e+17
19408.0	5.0421584132833274e+17
19409.0	5.0410772741051725e+17
19410.0	5.0400126513971194e+17
19411.0	5.0388870267316896e+17
19412.0	5.0377149585380685e+17
19413.0	5.0357116680710816e+17
19414.0	5.0353314138685446e+17
19415.0	5.034086863907498e+17
19416.0	5.032717609598975e+17
19417.0	5.03154098709026e+17
19418.0	5.030217025672532e+17
19419.0	5.0288504599128736e+17
19420.0	5.027443727400959e+17
19421.0	5.02597016424721e+17
19422.0	5.024391370899455e+17
19423.0	5.0228244117804365e+17
19424.0	5.021202082955264e+17
19425.0	5.019445181284351e+17
19426.0	5.017609498001407e+17
19427.0	5.01566337519889e+17
19428.0	5.013567396904959e+17
19429.0	5.011316969657685e+17
19430.0	5.0088049737291085e+17
19431.0	5.0062605607239674e+17
19432.0	5.003836924799657e+17
19433.0	5.0009790043477325e+17
19434.0	4.997789016653823e+17
19435.0	4.9940905786518176e+17
19436.0	4.989792327215787e+17
19437.0	4.984582955510442e+17
19438.0	4.975828579035819e+17
19439.0	4.973321842065408e+17
19440.0	4.9704350494228474e+17
19441.0	4.9653029682544614e+17
19442.0	4.9583582025700685e+17
19443.0	4.950136878792702e+17
19444.0	4.940731270212265e+17
19445.0	4.9290949944497485e+17
19446.0	4.91557331472657e+17
19447.0	4.898297961512959e+17
19448.0	4.8764168423778976e+17
19449.0	4.8463180275384314e+17
19450.0	4.794650855822673e+17
19451.0	4.749344449582421e+17
19452.0	4.823929373152596e+17
19453.0	4.859213013931349e+17
19454.0	4.8825239594161485e+17
19455.0	4.89936978374383e+17
19456.0	4.911374831801686e+17
19457.0	4.915683989826219e+17
19458.0	4.854983926568304e+17
19459.0	4.909707351293961e+17
19460.0	4.9415763092220576e+17
19461.0	4.949843393555114e+17
19462.0	4.9549711336188576e+17
19463.0	4.9590088558619296e+17
19464.0	4.9622121192270496e+17
19465.0	4.9647739854301856e+17
19466.0	4.9668440324396365e+17
19467.0	4.968686915245396e+17
19468.0	4.9701533508785485e+17
19469.0	4.969739050811388e+17
19470.0	4.972326668642985e+17
19471.0	4.973008526857557e+17
19472.0	4.973604270418602e+17
19473.0	4.974053423753898e+17
19474.0	4.972653692234408e+17
19475.0	4.974324791028394e+17
19476.0	4.974577037170004e+17
19477.0	4.974634936041471e+17
19478.0	4.974574248656896e+17
19479.0	4.97282185586278e+17
19480.0	4.974206659854334e+17
19481.0	4.973927709977257e+17
19482.0	4.9736297284457805e+17
19483.0	4.973259856543742e+17
19484.0	4.9728207695380474e+17
19485.0	4.972360411818666e+17
19486.0	4.970157211735385e+17
19487.0	4.971308333574826e+17
19488.0	4.970721324651861e+17
19489.0	4.9700425695232e+17
19490.0	4.9693826426251936e+17
19491.0	4.968859372442964e+17
19492.0	4.968297462235135e+17
19493.0	4.967619458585941e+17
19494.0	4.966864804730196e+17
19495.0	4.96599958692386e+17
19496.0	4.964887916707839e+17
19497.0	4.96347522269184e+17
19498.0	4.96052730016563e+17
19499.0	4.9581953594163194e+17
19500.0	4.960764479668223e+17
19501.0	4.961183010390016e+17
19502.0	4.960870387941375e+17
19503.0	4.960312416185002e+17
19504.0	4.95961596109346e+17
19505.0	4.9588007848290976e+17
19506.0	4.958032078656853e+17
19507.0	4.957085993271296e+17
19508.0	4.9559590425067514e+17
19509.0	4.9541792678980256e+17
19510.0	4.948716290397523e+17
19511.0	4.919309987304785e+17
19512.0	4.9440413450239994e+17
19513.0	4.948252464687785e+17
19514.0	4.948801854199123e+17
19515.0	4.9499174055444474e+17
19516.0	4.9495152060443296e+17
19517.0	4.9492407895108256e+17
19518.0	4.948114211340286e+17
19519.0	4.947377395160404e+17
19520.0	4.945421633847293e+17
19521.0	4.9464078971699194e+17
19522.0	4.9453171306659834e+17
19523.0	4.944377539461121e+17
19524.0	4.942692007368024e+17
19525.0	4.9431532102396576e+17
19526.0	4.942372671935828e+17
19527.0	4.9415574684084896e+17
19528.0	4.940586643619839e+17
19529.0	4.9396890989144736e+17
19530.0	4.939086568270506e+17
19531.0	4.938248873487017e+17
19532.0	4.9374141321925965e+17
19533.0	4.9365668736969376e+17
19534.0	4.9357424762552314e+17
19535.0	4.9348911660619085e+17
19536.0	4.934021752553471e+17
19537.0	4.933172333292202e+17
19538.0	4.930707616956418e+17
19539.0	4.931461354356736e+17
19540.0	4.9306402648227834e+17
19541.0	4.9294292014858234e+17
19542.0	4.928812787695615e+17
19543.0	4.9264051649249286e+17
19544.0	4.927131057739093e+17
19545.0	4.9262861138001914e+17
19546.0	4.9254740615932576e+17
19547.0	4.9247359619563514e+17
19548.0	4.9239374629437434e+17
19549.0	4.923026070044671e+17
19550.0	4.9222609059621536e+17
19551.0	4.9214541826184525e+17
19552.0	4.9205967459450874e+17
19553.0	4.9197628588905805e+17
19554.0	4.9188984491868154e+17
19555.0	4.917847346817706e+17
19556.0	4.9170765029485216e+17
19557.0	4.9163623793513805e+17
19558.0	4.915541277933568e+17
19559.0	4.9146971022513485e+17
19560.0	4.913216672322899e+17
19561.0	4.9129820094027085e+17
19562.0	4.911552916357119e+17
19563.0	4.9113226945058125e+17
19564.0	4.910440843487914e+17
19565.0	4.9096151395205114e+17
19566.0	4.9087453918658554e+17
19567.0	4.9079291341701114e+17
19568.0	4.907065028553387e+17
19569.0	4.9062270080122874e+17
19570.0	4.9053755677955405e+17
19571.0	4.904532162467156e+17
19572.0	4.903669240343211e+17
19573.0	4.902630237143039e+17
19574.0	4.9018525719374496e+17
19575.0	4.9011573178149536e+17
19576.0	4.9001957694286496e+17
19577.0	4.8991240003256314e+17
19578.0	4.898606356802217e+17
19579.0	4.8977483308291405e+17
19580.0	4.896892047589375e+17
19581.0	4.896043706963285e+17
19582.0	4.895220987243177e+17
19583.0	4.894380769585834e+17
19584.0	4.893508343169023e+17
19585.0	4.8925821310948685e+17
19586.0	4.8917094187663354e+17
19587.0	4.890944629374975e+17
19588.0	4.890060220530687e+17
19589.0	4.889231119177045e+17
19590.0	4.888362237646164e+17
19591.0	4.887566804669781e+17
19592.0	4.886740137410559e+17
19593.0	4.8857174493538976e+17
19594.0	4.8847024662336845e+17
19595.0	4.8841893406747296e+17
19596.0	4.883309946819925e+17
19597.0	4.882462735859711e+17
19598.0	4.881434163194538e+17
19599.0	4.880751444448595e+17
19600.0	4.879931416772607e+17
19601.0	4.8790651608760314e+17
19602.0	4.878214651095721e+17
19603.0	4.877352978175318e+17
19604.0	4.876508811580756e+17
19605.0	4.875564055789568e+17
19606.0	4.874861867084458e+17
19607.0	4.874046808959658e+17
19608.0	4.873167086551039e+17
19609.0	4.8723356762330445e+17
19610.0	4.870717294247937e+17
19611.0	4.869466696100522e+17
19612.0	4.869817447568725e+17
19613.0	4.8689382592348154e+17
19614.0	4.868070824039764e+17
19615.0	4.8672364085029536e+17
19616.0	4.8655632489076064e+17
19617.0	4.864263510993579e+17
19618.0	4.864413297278975e+17
19619.0	4.8634108865850016e+17
19620.0	4.8623948737631546e+17
19621.0	4.860322521284608e+17
19622.0	4.861258097841493e+17
19623.0	4.860335202063702e+17
19624.0	4.8592916571313485e+17
19625.0	4.8586893949228365e+17
19626.0	4.8577740118425594e+17
19627.0	4.8568665497053856e+17
19628.0	4.855879876739071e+17
19629.0	4.850770322478418e+17
19630.0	4.8537977431435936e+17
19631.0	4.852742177335978e+17
19632.0	4.8522844123955194e+17
19633.0	4.8515927311209805e+17
19634.0	4.850951278733993e+17
19635.0	4.850004320933204e+17
19636.0	4.847497524543484e+17
19637.0	4.846509475845459e+17
19638.0	4.84767457030963e+17
19639.0	4.846937575172777e+17
19640.0	4.8458969774380365e+17
19641.0	4.8449380903376205e+17
19642.0	4.844301680203092e+17
19643.0	4.843523052404734e+17
19644.0	4.8428096928699725e+17
19645.0	4.8420029639338656e+17
19646.0	4.839145362249041e+17
19647.0	4.840314692960255e+17
19648.0	4.839545292630698e+17
19649.0	4.838701575525717e+17
19650.0	4.837871496899242e+17
19651.0	4.837038805221375e+17
19652.0	4.8362047622785696e+17
19653.0	4.8353588452611405e+17
19654.0	4.8345338368491514e+17
19655.0	4.8336856402274976e+17
