# Flux units: erg / (cm m2 s)
# Wavelength units: Angstrom
wave	flux
19000.0	7.560836483994964e+17
19001.0	7.559433385847466e+17
19002.0	7.55814323331618e+17
19003.0	7.556786512986111e+17
19004.0	7.555427281666047e+17
19005.0	7.554091328733183e+17
19006.0	7.552737923301375e+17
19007.0	7.551194921347754e+17
19008.0	7.549993042138451e+17
19009.0	7.548625932517373e+17
19010.0	7.547055476047871e+17
19011.0	7.545908210870952e+17
19012.0	7.543919983547731e+17
19013.0	7.543221303377919e+17
19014.0	7.541824703605417e+17
19015.0	7.540475885344083e+17
19016.0	7.539104992460799e+17
19017.0	7.537757362585599e+17
19018.0	7.536358092439551e+17
19019.0	7.535022827372543e+17
19020.0	7.533643143228072e+17
19021.0	7.53229128409634e+17
19022.0	7.530923262913193e+17
19023.0	7.529524359069696e+17
19024.0	7.528156019119446e+17
19025.0	7.5267211029818e+17
19026.0	7.525330059263999e+17
19027.0	7.523378572645715e+17
19028.0	7.522667564018345e+17
19029.0	7.521276837669545e+17
19030.0	7.519913294604969e+17
19031.0	7.518532798163624e+17
19032.0	7.517149396467711e+17
19033.0	7.515709560411476e+17
19034.0	7.514351370676905e+17
19035.0	7.512789888619859e+17
19036.0	7.470311893106676e+17
19037.0	7.51009070719522e+17
19038.0	7.508810463008084e+17
19039.0	7.507455874782547e+17
19040.0	7.506074494741161e+17
19041.0	7.504689016864765e+17
19042.0	7.503236371404115e+17
19043.0	7.501915505382739e+17
19044.0	7.500521929703424e+17
19045.0	7.499108926007977e+17
19046.0	7.497715178362195e+17
19047.0	7.49634182202436e+17
19048.0	7.494841734791165e+17
19049.0	7.493484256690175e+17
19050.0	7.492116176786772e+17
19051.0	7.484028855429791e+17
19052.0	7.488178358670676e+17
19053.0	7.487918493575849e+17
19054.0	7.48658330959872e+17
19055.0	7.485037575755091e+17
19056.0	7.483779266379777e+17
19057.0	7.482386735082152e+17
19058.0	7.4811283879581e+17
19059.0	7.479949220904957e+17
19060.0	7.478542831626922e+17
19061.0	7.477154405154815e+17
19062.0	7.475749436347731e+17
19063.0	7.474347420330666e+17
19064.0	7.472881006368084e+17
19065.0	7.471436373426177e+17
19066.0	7.470093523659433e+17
19067.0	7.468731269644288e+17
19068.0	7.467325928942249e+17
19069.0	7.465920277861715e+17
19070.0	7.464499606978557e+17
19071.0	7.463084011203241e+17
19072.0	7.461685268141395e+17
19073.0	7.460287770787839e+17
19074.0	7.45888203022882e+17
19075.0	7.4574727245114e+17
19076.0	7.456051193795923e+17
19077.0	7.454645475606527e+17
19078.0	7.453227161922217e+17
19079.0	7.451830239188308e+17
19080.0	7.450414692346538e+17
19081.0	7.448980992557055e+17
19082.0	7.4475662999552e+17
19083.0	7.446106925432832e+17
19084.0	7.444616445951999e+17
19085.0	7.443332473028608e+17
19086.0	7.441598350622717e+17
19087.0	7.439357174611968e+17
19088.0	7.438829792613715e+17
19089.0	7.436940932546557e+17
19090.0	7.436166050261674e+17
19091.0	7.434796960929108e+17
19092.0	7.433106466275327e+17
19093.0	7.432000586295977e+17
19094.0	7.430591553208319e+17
19095.0	7.429174999733586e+17
19096.0	7.427758278486696e+17
19097.0	7.426349446725632e+17
19098.0	7.424924248790356e+17
19099.0	7.423503299685033e+17
19100.0	7.422024112668671e+17
19101.0	7.420645788876799e+17
19102.0	7.419197881581568e+17
19103.0	7.417827896066047e+17
19104.0	7.416402797395968e+17
19105.0	7.414947927556096e+17
19106.0	7.413330743743828e+17
19107.0	7.412090358027603e+17
19108.0	7.410638763939156e+17
19109.0	7.405548794281979e+17
19110.0	7.407568599121919e+17
19111.0	7.406392243650557e+17
19112.0	7.404997693494612e+17
19113.0	7.403585334323884e+17
19114.0	7.402159956033536e+17
19115.0	7.400617402870441e+17
19116.0	7.399290864751955e+17
19117.0	7.397848886804479e+17
19118.0	7.39620330335983e+17
19119.0	7.393253429783206e+17
19120.0	7.393211861434365e+17
19121.0	7.391888583688191e+17
19122.0	7.390734546108415e+17
19123.0	7.389305081167871e+17
19124.0	7.387622357161299e+17
19125.0	7.386418436724051e+17
19126.0	7.385000766166355e+17
19127.0	7.382626931310591e+17
19128.0	7.380981848386216e+17
19129.0	7.380662492681558e+17
19130.0	7.379276261228541e+17
19131.0	7.377808091250688e+17
19132.0	7.376408120655872e+17
19133.0	7.374749196528297e+17
19134.0	7.373002877086378e+17
19135.0	7.372086983699113e+17
19136.0	7.3706652069178e+17
19137.0	7.369137166046548e+17
19138.0	7.367756303302655e+17
19139.0	7.366348992675837e+17
19140.0	7.364914465210368e+17
19141.0	7.363475848298492e+17
19142.0	7.362007065952253e+17
19143.0	7.360565310302888e+17
19144.0	7.35913948881442e+17
19145.0	7.357704484596394e+17
19146.0	7.35589891641617e+17
19147.0	7.354778290662058e+17
19148.0	7.353352467775488e+17
19149.0	7.351912779917993e+17
19150.0	7.35048791892514e+17
19151.0	7.349046153489066e+17
19152.0	7.347551755130195e+17
19153.0	7.346126634090493e+17
19154.0	7.344627396902911e+17
19155.0	7.343227970169513e+17
19156.0	7.341764664186195e+17
19157.0	7.340106146906111e+17
19158.0	7.336568858258088e+17
19159.0	7.337301861815636e+17
19160.0	7.335899578761215e+17
19161.0	7.334336012135081e+17
19162.0	7.327330289931608e+17
19163.0	7.33121416790016e+17
19164.0	7.330141196429994e+17
19165.0	7.328604058113364e+17
19166.0	7.327078099014996e+17
19167.0	7.32525862531891e+17
19168.0	7.324303987747497e+17
19169.0	7.322808229036032e+17
19170.0	7.321426512052223e+17
19171.0	7.319698752405501e+17
19172.0	7.318467268400467e+17
19173.0	7.317053146223955e+17
19174.0	7.315589279602004e+17
19175.0	7.314159006558889e+17
19176.0	7.312693442641919e+17
19177.0	7.311130512151891e+17
19178.0	7.309577740266156e+17
19179.0	7.30788505059328e+17
19180.0	7.30676171252258e+17
19181.0	7.305298224786089e+17
19182.0	7.303876182365523e+17
19183.0	7.302424578490368e+17
19184.0	7.300933967588008e+17
19185.0	7.299489034054313e+17
19186.0	7.298018724981417e+17
19187.0	7.296486566701738e+17
19188.0	7.295048798437375e+17
19189.0	7.293536916821331e+17
19190.0	7.292027047073108e+17
19191.0	7.290540469693098e+17
19192.0	7.289130891345919e+17
19193.0	7.287606246462803e+17
19194.0	7.286119118230868e+17
19195.0	7.284621793645908e+17
19196.0	7.28306557264418e+17
19197.0	7.281398535334569e+17
19198.0	7.279157457190911e+17
19199.0	7.244550454815395e+17
19200.0	7.251963515240458e+17
19201.0	7.27481460072994e+17
19202.0	7.27398857310208e+17
19203.0	7.272577649781417e+17
19204.0	7.27121379074594e+17
19205.0	7.269784427866794e+17
19206.0	7.268301633748991e+17
19207.0	7.266769187460436e+17
19208.0	7.265221865373693e+17
19209.0	7.263825401217024e+17
19210.0	7.262340944756735e+17
19211.0	7.260837798477823e+17
19212.0	7.259324180419926e+17
19213.0	7.257494789991081e+17
19214.0	7.255818911088637e+17
19215.0	7.254654650591913e+17
19216.0	7.253296818771284e+17
19217.0	7.251791025886547e+17
19218.0	7.249820353123667e+17
19219.0	7.24866728862242e+17
19220.0	7.24721999089937e+17
19221.0	7.245545002587475e+17
19222.0	7.244203230756863e+17
19223.0	7.242684719344297e+17
19224.0	7.241132330538323e+17
19225.0	7.239554494889983e+17
19226.0	7.238089806184447e+17
19227.0	7.236557726198442e+17
19228.0	7.2350436439709e+17
19229.0	7.233509213776553e+17
19230.0	7.231927688538793e+17
19231.0	7.23039638589713e+17
19232.0	7.228883110374058e+17
19233.0	7.227302000372393e+17
19234.0	7.225792919153321e+17
19235.0	7.224245135693139e+17
19236.0	7.222707984793599e+17
19237.0	7.221146209135272e+17
19238.0	7.219495628876458e+17
19239.0	7.218042419980969e+17
19240.0	7.216461058321064e+17
19241.0	7.214900809389398e+17
19242.0	7.213346656179539e+17
19243.0	7.211688815580502e+17
19244.0	7.210219043378516e+17
19245.0	7.208645396441769e+17
19246.0	7.207060429078527e+17
19247.0	7.205488975762772e+17
19248.0	7.203897949028351e+17
19249.0	7.202304732867241e+17
19250.0	7.200721166401535e+17
19251.0	7.199074953811283e+17
19252.0	7.197376920595113e+17
19253.0	7.195935033524224e+17
19254.0	7.194343360866985e+17
19255.0	7.192631034860884e+17
19256.0	7.19108359533363e+17
19257.0	7.189518560701097e+17
19258.0	7.18790509863458e+17
19259.0	7.186240435301034e+17
19260.0	7.183944550187007e+17
19261.0	7.183034068850004e+17
19262.0	7.181376099625641e+17
19263.0	7.1797355591325e+17
19264.0	7.177845067481087e+17
19265.0	7.17638373282065e+17
19266.0	7.174752366668458e+17
19267.0	7.173189556415145e+17
19268.0	7.171533568300372e+17
19269.0	7.169872794484735e+17
19270.0	7.168204772911786e+17
19271.0	7.166358986948608e+17
19272.0	7.164840032337919e+17
19273.0	7.162420480966653e+17
19274.0	7.160961429405693e+17
19275.0	7.159822210301951e+17
19276.0	7.158124070830079e+17
19277.0	7.156432590514858e+17
19278.0	7.154742263633236e+17
19279.0	7.152984009998335e+17
19280.0	7.151283121859241e+17
19281.0	7.149592161637716e+17
19282.0	7.147851784126463e+17
19283.0	7.145710302527487e+17
19284.0	7.143971000156157e+17
19285.0	7.142574028488701e+17
19286.0	7.14090690309871e+17
19287.0	7.139149087069523e+17
19288.0	7.126320600667465e+17
19289.0	7.10910141827204e+17
19290.0	7.133851237919402e+17
19291.0	7.131966465900544e+17
19292.0	7.130342694234793e+17
19293.0	7.128552298250239e+17
19294.0	7.126760945964371e+17
19295.0	7.124957592376662e+17
19296.0	7.123137214109012e+17
19297.0	7.121141413270867e+17
19298.0	7.119284593491968e+17
19299.0	7.117449052815359e+17
19300.0	7.115614493605887e+17
19301.0	7.11375995273216e+17
19302.0	7.111894566786387e+17
19303.0	7.109982619871913e+17
19304.0	7.108133948227581e+17
19305.0	7.106252618334207e+17
19306.0	7.104334999322623e+17
19307.0	7.102388646532436e+17
19308.0	7.100464762628777e+17
19309.0	7.097444747706365e+17
19310.0	7.095022033829884e+17
19311.0	7.094504729346047e+17
19312.0	7.092723962085375e+17
19313.0	7.090740924514304e+17
19314.0	7.063570785239041e+17
19315.0	7.063261476290595e+17
19316.0	7.084598041946794e+17
19317.0	7.08275867886114e+17
19318.0	7.080750398570493e+17
19319.0	7.078736086870698e+17
19320.0	7.076692020778323e+17
19321.0	7.074634813931517e+17
19322.0	7.072431115425108e+17
19323.0	7.070011631162708e+17
19324.0	7.068329551680851e+17
19325.0	7.06538959204079e+17
19326.0	7.064173557055488e+17
19327.0	7.062139494378153e+17
19328.0	7.0600319069498e+17
19329.0	7.057928947236863e+17
19330.0	7.055776536679763e+17
19331.0	7.053629287912787e+17
19332.0	7.051486529847293e+17
19333.0	7.049317863565993e+17
19334.0	7.047160621170687e+17
19335.0	7.044947363845462e+17
19336.0	7.042762426460841e+17
19337.0	7.040572792853844e+17
19338.0	7.03822244749858e+17
19339.0	7.036056034956627e+17
19340.0	7.033737176940543e+17
19341.0	7.031435092645204e+17
19342.0	7.028879018076841e+17
19343.0	7.0266666890909e+17
19344.0	7.023960286472873e+17
19345.0	7.020581539020797e+17
19346.0	7.018771104748884e+17
19347.0	7.016741488732842e+17
19348.0	7.014365167353855e+17
19349.0	7.011887742276948e+17
19350.0	7.009425416694442e+17
19351.0	7.006951927971839e+17
19352.0	7.004408685177513e+17
19353.0	7.001944084185087e+17
19354.0	6.999402771469652e+17
19355.0	6.996793523612329e+17
19356.0	6.994252466050387e+17
19357.0	6.991645482418175e+17
19358.0	6.988994297113257e+17
19359.0	6.986313944618323e+17
19360.0	6.983535013396479e+17
19361.0	6.980127096657236e+17
19362.0	6.977415480519337e+17
19363.0	6.974646389833725e+17
19364.0	6.971849207098025e+17
19365.0	6.969023634516649e+17
19366.0	6.966168338999978e+17
19367.0	6.963274952212479e+17
19368.0	6.96036520694033e+17
19369.0	6.957363535107412e+17
19370.0	6.953756895040852e+17
19371.0	6.950067333584211e+17
19372.0	6.947032645588308e+17
19373.0	6.943914026074111e+17
19374.0	6.940788720140287e+17
19375.0	6.93760177681203e+17
19376.0	6.934372862481748e+17
19377.0	6.929551427545769e+17
19378.0	6.92585444356915e+17
19379.0	6.922452319163731e+17
19380.0	6.918999886878036e+17
19381.0	6.915487492822356e+17
19382.0	6.909328240585385e+17
19383.0	6.905601623151956e+17
19384.0	6.901919966560255e+17
19385.0	6.897185390067713e+17
19386.0	6.890795416857257e+17
19387.0	6.886777219798355e+17
19388.0	6.881418110741161e+17
19389.0	6.8741765281437e+17
19390.0	6.869742314848255e+17
19391.0	6.828665170034638e+17
19392.0	6.854883883177297e+17
19393.0	6.845769202707113e+17
19394.0	6.839508485363028e+17
19395.0	6.827981372653567e+17
19396.0	6.820590841932454e+17
19397.0	6.807885627523072e+17
19398.0	6.799658368805549e+17
19399.0	6.791116082206035e+17
19400.0	6.785339477721087e+17
19401.0	6.779006969970687e+17
19402.0	6.772420576804861e+17
19403.0	6.765662939294377e+17
19404.0	6.75875784892962e+17
19405.0	6.751522666840063e+17
19406.0	6.744152126870868e+17
19407.0	6.736750869916329e+17
19408.0	6.728850604032e+17
19409.0	6.721405000002218e+17
19410.0	6.713456549953535e+17
19411.0	6.70528766616098e+17
19412.0	6.696445384065024e+17
19413.0	6.687595550124713e+17
19414.0	6.678700365272404e+17
19415.0	6.669551163583146e+17
19416.0	6.658812368912384e+17
19417.0	6.648746583872851e+17
19418.0	6.638637672300544e+17
19419.0	6.627182791797417e+17
19420.0	6.615751124669779e+17
19421.0	6.602947843238569e+17
19422.0	6.589656280509098e+17
19423.0	6.575095080987302e+17
19424.0	6.55858780200414e+17
19425.0	6.540062665037137e+17
19426.0	6.518943348948991e+17
19427.0	6.494899439053482e+17
19428.0	6.467759186291369e+17
19429.0	6.436298078988974e+17
19430.0	6.410072372543489e+17
19431.0	6.384494623850502e+17
19432.0	6.366955512528895e+17
19433.0	6.343637279440896e+17
19434.0	6.318916008323753e+17
19435.0	6.291318117848403e+17
19436.0	6.260296734386856e+17
19437.0	6.229609348945235e+17
19438.0	6.159241714860036e+17
19439.0	6.149704702230532e+17
19440.0	6.104069058505385e+17
19441.0	6.049261910578514e+17
19442.0	5.986947318502742e+17
19443.0	5.918887126936233e+17
19444.0	5.847759219326972e+17
19445.0	5.766077264953347e+17
19446.0	5.66833445933329e+17
19447.0	5.55051089692808e+17
19448.0	5.40584344778616e+17
19449.0	5.2231668942329146e+17
19450.0	4.983068079161332e+17
19451.0	4.876479421393585e+17
19452.0	5.110046647473497e+17
19453.0	5.31966578812519e+17
19454.0	5.478541219768996e+17
19455.0	5.606317694298794e+17
19456.0	5.7110660096109254e+17
19457.0	5.797469868086609e+17
19458.0	5.842121368010798e+17
19459.0	5.936966953249464e+17
19460.0	6.001095073595387e+17
19461.0	6.057139996983292e+17
19462.0	6.105528149213187e+17
19463.0	6.146767572347564e+17
19464.0	6.183710147739647e+17
19465.0	6.216311033386327e+17
19466.0	6.244533759814312e+17
19467.0	6.270303346185556e+17
19468.0	6.293957023629311e+17
19469.0	6.315114061889533e+17
19470.0	6.335842310160381e+17
19471.0	6.355136666402816e+17
19472.0	6.375096024651096e+17
19473.0	6.401849102609066e+17
19474.0	6.430263682793482e+17
19475.0	6.45240366528375e+17
19476.0	6.472017472301734e+17
19477.0	6.489003443006121e+17
19478.0	6.503656569088682e+17
19479.0	6.516290279702528e+17
19480.0	6.528805849355607e+17
19481.0	6.538264564815188e+17
19482.0	6.548465468659027e+17
19483.0	6.556743334450518e+17
19484.0	6.56574257369361e+17
19485.0	6.573043466545833e+17
19486.0	6.580808855497386e+17
19487.0	6.587991450102441e+17
19488.0	6.594448415435433e+17
19489.0	6.600615525001898e+17
19490.0	6.606548890899795e+17
19491.0	6.612937445736447e+17
19492.0	6.618445228190378e+17
19493.0	6.623726904104276e+17
19494.0	6.628817909754538e+17
19495.0	6.633717797748735e+17
19496.0	6.638276210677076e+17
19497.0	6.643211671262548e+17
19498.0	6.644315844859224e+17
19499.0	6.603991954401935e+17
19500.0	6.655901363251882e+17
19501.0	6.659866012330666e+17
19502.0	6.663445968934228e+17
19503.0	6.667039505995091e+17
19504.0	6.674713828218196e+17
19505.0	6.68114730125449e+17
19506.0	6.688698447254868e+17
19507.0	6.696054189020495e+17
19508.0	6.700764746831188e+17
19509.0	6.707526542994095e+17
19510.0	6.710938268860416e+17
19511.0	6.664791627486514e+17
19512.0	6.711799774707697e+17
19513.0	6.708175995316886e+17
19514.0	6.716460671959025e+17
19515.0	6.72786837003742e+17
19516.0	6.730674355918166e+17
19517.0	6.734389192250708e+17
19518.0	6.735628469971625e+17
19519.0	6.736700594192384e+17
19520.0	6.738805600026621e+17
19521.0	6.741117254325587e+17
19522.0	6.741968984648361e+17
19523.0	6.742796387308883e+17
19524.0	6.743550603558911e+17
19525.0	6.745244291476138e+17
19526.0	6.746681398438569e+17
19527.0	6.7472726701725e+17
19528.0	6.747813379571711e+17
19529.0	6.748319822905343e+17
19530.0	6.748785500400297e+17
19531.0	6.749214194619732e+17
19532.0	6.750585284635305e+17
19533.0	6.751169010117289e+17
19534.0	6.751479048874666e+17
19535.0	6.751751925399551e+17
19536.0	6.751983522283519e+17
19537.0	6.752220410281983e+17
19538.0	6.752344447735124e+17
19539.0	6.752286261553834e+17
19540.0	6.752674445787135e+17
19541.0	6.752784365213012e+17
19542.0	6.753445339987965e+17
19543.0	6.753636317833897e+17
19544.0	6.753660254726825e+17
19545.0	6.753416111980543e+17
19546.0	6.753162488010068e+17
19547.0	6.753562501578751e+17
19548.0	6.753484560924671e+17
19549.0	6.75333013504e+17
19550.0	6.75326393913617e+17
19551.0	6.753123982901247e+17
19552.0	6.752965171172691e+17
19553.0	6.752776445668009e+17
19554.0	6.752573075051859e+17
19555.0	6.752369769447423e+17
19556.0	6.752144893935615e+17
19557.0	6.751891572654077e+17
19558.0	6.751623906852863e+17
19559.0	6.751337983246336e+17
19560.0	6.751232224570025e+17
19561.0	6.751110659659092e+17
19562.0	6.750790103684435e+17
19563.0	6.750436829342378e+17
19564.0	6.750057330114559e+17
19565.0	6.749639097887402e+17
19566.0	6.749193425824425e+17
19567.0	6.748757214014121e+17
19568.0	6.748284720076116e+17
19569.0	6.747828376305664e+17
19570.0	6.74735394459921e+17
19571.0	6.746862457454592e+17
19572.0	6.746346671308799e+17
19573.0	6.745842769723391e+17
19574.0	6.745279379625299e+17
19575.0	6.744801513482922e+17
19576.0	6.744260315447295e+17
19577.0	6.743703982265684e+17
19578.0	6.743127339565055e+17
19579.0	6.742564248660649e+17
19580.0	6.741985879304873e+17
19581.0	6.741400476101289e+17
19582.0	6.740809848892074e+17
19583.0	6.740200628333225e+17
19584.0	6.739563572275881e+17
19585.0	6.738888513727145e+17
19586.0	6.738208250746196e+17
19587.0	6.737484494929919e+17
19588.0	6.736763211655849e+17
19589.0	6.736330899849215e+17
19590.0	6.735617644473001e+17
19591.0	6.734991636911444e+17
19592.0	6.734303245369343e+17
19593.0	6.733584770880852e+17
19594.0	6.73271836119313e+17
19595.0	6.732120146487978e+17
19596.0	6.728856313877846e+17
19597.0	6.730596707467261e+17
19598.0	6.729722173412691e+17
19599.0	6.72911929254434e+17
19600.0	6.728342738130259e+17
19601.0	6.727518600735401e+17
19602.0	6.726730056204287e+17
19603.0	6.725209267983699e+17
19604.0	6.725042117978794e+17
19605.0	6.724167141425152e+17
19606.0	6.723510163821907e+17
19607.0	6.722681346282836e+17
19608.0	6.72183764455697e+17
19609.0	6.720967327875071e+17
19610.0	6.720138309708457e+17
19611.0	6.719274332717055e+17
19612.0	6.718420390597972e+17
19613.0	6.717542040425812e+17
19614.0	6.716645761002154e+17
19615.0	6.715775614189567e+17
19616.0	6.714572359248553e+17
19617.0	6.71404557284147e+17
19618.0	6.71296933470754e+17
19619.0	6.711984532400809e+17
19620.0	6.711088228510378e+17
19621.0	6.710511641733802e+17
19622.0	6.709598913647956e+17
19623.0	6.708667734818815e+17
19624.0	6.707730226784938e+17
19625.0	6.706784925035178e+17
19626.0	6.705831610766676e+17
19627.0	6.704847426420735e+17
19628.0	6.703058405468844e+17
19629.0	6.702724101963775e+17
19630.0	6.698777332503894e+17
19631.0	6.66476775280913e+17
19632.0	6.69974546944273e+17
19633.0	6.698983611869866e+17
19634.0	6.698106949206015e+17
19635.0	6.697119832342527e+17
19636.0	6.696157233283071e+17
19637.0	6.694948822843391e+17
19638.0	6.694190235429546e+17
19639.0	6.693185675154771e+17
19640.0	6.692153208777385e+17
19641.0	6.690832767079766e+17
19642.0	6.690190615642111e+17
19643.0	6.689164307202047e+17
19644.0	6.688129115925161e+17
19645.0	6.687001041786195e+17
19646.0	6.686111708829012e+17
19647.0	6.685100877370707e+17
19648.0	6.684073388234068e+17
19649.0	6.683040672295593e+17
19650.0	6.682007738253311e+17
19651.0	6.680970236613972e+17
19652.0	6.679929773096959e+17
19653.0	6.678869148259668e+17
19654.0	6.677840070879913e+17
19655.0	6.676788514127872e+17
19656.0	6.675735411774804e+17
19657.0	6.674684740020906e+17
19658.0	6.673627639098025e+17
19659.0	6.672567054805673e+17
19660.0	6.67150561906961e+17
19661.0	6.670440655923881e+17
19662.0	6.669372521185279e+17
19663.0	6.66843744444962e+17
19664.0	6.667410980820308e+17
19665.0	6.66648201798178e+17
19666.0	6.665391687685459e+17
