# Flux units: erg / (cm m2 s)
# Wavelength units: Angstrom
wave	flux
19000.0	7.454265960999593e+17
19001.0	7.452848326792532e+17
19002.0	7.451454755307519e+17
19003.0	7.450048852568744e+17
19004.0	7.448642828195156e+17
19005.0	7.447237391024125e+17
19006.0	7.445831563782826e+17
19007.0	7.44429635904034e+17
19008.0	7.443011543061844e+17
19009.0	7.4416095508125e+17
19010.0	7.440151827447807e+17
19011.0	7.438796861734911e+17
19012.0	7.437257820602368e+17
19013.0	7.435990813638656e+17
19014.0	7.434578364989439e+17
19015.0	7.433179153563647e+17
19016.0	7.431766534346068e+17
19017.0	7.430344859626153e+17
19018.0	7.428951387406333e+17
19019.0	7.427556050119338e+17
19020.0	7.426141156190889e+17
19021.0	7.424740233489066e+17
19022.0	7.42333951910434e+17
19023.0	7.421933942123178e+17
19024.0	7.420526733557757e+17
19025.0	7.419111748752723e+17
19026.0	7.417699674794664e+17
19027.0	7.416199222657024e+17
19028.0	7.414907688801619e+17
19029.0	7.413502608146432e+17
19030.0	7.412097678486185e+17
19031.0	7.410692797759487e+17
19032.0	7.409287965966333e+17
19033.0	7.407872426115071e+17
19034.0	7.406478285602816e+17
19035.0	7.405068192754345e+17
19036.0	7.395051341960527e+17
19037.0	7.40226433688098e+17
19038.0	7.400861096127144e+17
19039.0	7.399457117175807e+17
19040.0	7.398053178769407e+17
19041.0	7.396649382969343e+17
19042.0	7.395235722166271e+17
19043.0	7.393842476438868e+17
19044.0	7.392438402416639e+17
19045.0	7.391030113118889e+17
19046.0	7.389624432678228e+17
19047.0	7.388228782216531e+17
19048.0	7.38680165769762e+17
19049.0	7.385415336766121e+17
19050.0	7.384015227759274e+17
19051.0	7.38139076786039e+17
19052.0	7.381106573006164e+17
19053.0	7.379780752113663e+17
19054.0	7.378411054607017e+17
19055.0	7.376978287351126e+17
19056.0	7.3756072476672e+17
19057.0	7.374203265919657e+17
19058.0	7.372771958281558e+17
19059.0	7.371402485869226e+17
19060.0	7.36999830139699e+17
19061.0	7.368600142741503e+17
19062.0	7.367198667789651e+17
19063.0	7.365798132361897e+17
19064.0	7.364383811654996e+17
19065.0	7.362974851268607e+17
19066.0	7.361588879862442e+17
19067.0	7.360196688303444e+17
19068.0	7.358796577898493e+17
19069.0	7.357396907895466e+17
19070.0	7.355995571355647e+17
19071.0	7.35459297093222e+17
19072.0	7.353197341442045e+17
19073.0	7.35179872281122e+17
19074.0	7.350400319487999e+17
19075.0	7.349001400265386e+17
19076.0	7.347600111261012e+17
19077.0	7.34620330177331e+17
19078.0	7.344799798176425e+17
19079.0	7.343408135099731e+17
19080.0	7.342009579383464e+17
19081.0	7.340606611259392e+17
19082.0	7.339208624570365e+17
19083.0	7.337804674979156e+17
19084.0	7.336389044251305e+17
19085.0	7.335022491074557e+17
19086.0	7.333568647441064e+17
19087.0	7.331976697959764e+17
19088.0	7.330816628970836e+17
19089.0	7.329281629749245e+17
19090.0	7.328037320960681e+17
19091.0	7.326639757896361e+17
19092.0	7.32518089507908e+17
19093.0	7.32385216893201e+17
19094.0	7.322443437834239e+17
19095.0	7.321044022285651e+17
19096.0	7.319651321817769e+17
19097.0	7.318268831683923e+17
19098.0	7.31687723152179e+17
19099.0	7.315482586294953e+17
19100.0	7.314075060360531e+17
19101.0	7.312685522397866e+17
19102.0	7.311286136209407e+17
19103.0	7.309902696764756e+17
19104.0	7.308509063763283e+17
19105.0	7.307115388818772e+17
19106.0	7.305676567784105e+17
19107.0	7.304327113386664e+17
19108.0	7.302935409765034e+17
19109.0	7.300616091074557e+17
19110.0	7.300142070409897e+17
19111.0	7.298755943814483e+17
19112.0	7.297367369143635e+17
19113.0	7.295975794147327e+17
19114.0	7.294584168819369e+17
19115.0	7.293174127700649e+17
19116.0	7.291801316622335e+17
19117.0	7.290407605327187e+17
19118.0	7.288965795151871e+17
19119.0	7.287349963303594e+17
19120.0	7.286172297811284e+17
19121.0	7.284806074586451e+17
19122.0	7.283459052885331e+17
19123.0	7.282067017913683e+17
19124.0	7.280632798030505e+17
19125.0	7.279277621204308e+17
19126.0	7.277874851610624e+17
19127.0	7.276312284626941e+17
19128.0	7.274335326000467e+17
19129.0	7.273721482619561e+17
19130.0	7.2723439040157e+17
19131.0	7.27093028934997e+17
19132.0	7.269566914057556e+17
19133.0	7.268019112422058e+17
19134.0	7.26641757196561e+17
19135.0	7.265400449051305e+17
19136.0	7.264015460510378e+17
19137.0	7.262607018819581e+17
19138.0	7.261142620919126e+17
19139.0	7.259851003177642e+17
19140.0	7.258466640986111e+17
19141.0	7.257080164865364e+17
19142.0	7.255693452465492e+17
19143.0	7.25429992432162e+17
19144.0	7.252917527860564e+17
19145.0	7.25153025901636e+17
19146.0	7.250052854579199e+17
19147.0	7.248753007613268e+17
19148.0	7.247371276648447e+17
19149.0	7.245987682014547e+17
19150.0	7.244601252031144e+17
19151.0	7.243221221157544e+17
19152.0	7.241824534702761e+17
19153.0	7.240448865905321e+17
19154.0	7.239051527935316e+17
19155.0	7.237679037022207e+17
19156.0	7.236296190372522e+17
19157.0	7.234898993610751e+17
19158.0	7.232887034915496e+17
19159.0	7.23213822861858e+17
19160.0	7.230744718650025e+17
19161.0	7.22929613607185e+17
19162.0	7.226557670795948e+17
19163.0	7.226561114319529e+17
19164.0	7.225191057500842e+17
19165.0	7.223786590612136e+17
19166.0	7.222385368716628e+17
19167.0	7.220907216295251e+17
19168.0	7.219640729425236e+17
19169.0	7.218247197087062e+17
19170.0	7.216894036322986e+17
19171.0	7.215440682024957e+17
19172.0	7.214123567109459e+17
19173.0	7.212744969289728e+17
19174.0	7.211360419752617e+17
19175.0	7.20998500540962e+17
19176.0	7.208602978047318e+17
19177.0	7.207202915177811e+17
19178.0	7.205818143342591e+17
19179.0	7.204352394876246e+17
19180.0	7.202903931136681e+17
19181.0	7.20167819612433e+17
19182.0	7.200301485741395e+17
19183.0	7.198912829980671e+17
19184.0	7.197521818419199e+17
19185.0	7.196169907557716e+17
19186.0	7.194790247180969e+17
19187.0	7.193401085307561e+17
19188.0	7.192020159649108e+17
19189.0	7.190611799048191e+17
19190.0	7.189224356839423e+17
19191.0	7.18786834534673e+17
19192.0	7.186490317952339e+17
19193.0	7.184983229027667e+17
19194.0	7.183680521546408e+17
19195.0	7.182348462325757e+17
19196.0	7.180979837162836e+17
19197.0	7.179595124047871e+17
19198.0	7.178196242573994e+17
19199.0	7.16831893907046e+17
19200.0	7.169933389594627e+17
19201.0	7.174059011866624e+17
19202.0	7.172696201407145e+17
19203.0	7.171302227268947e+17
19204.0	7.169935289614335e+17
19205.0	7.16856247853602e+17
19206.0	7.167181354347177e+17
19207.0	7.165796761468927e+17
19208.0	7.164399206793215e+17
19209.0	7.163038680831316e+17
19210.0	7.161662434618025e+17
19211.0	7.160281321613993e+17
19212.0	7.158901740929024e+17
19213.0	7.157440509728084e+17
19214.0	7.15601374032691e+17
19215.0	7.15472831058193e+17
19216.0	7.153375402874198e+17
19217.0	7.151999479622314e+17
19218.0	7.150520832273065e+17
19219.0	7.149217682991785e+17
19220.0	7.147848685933908e+17
19221.0	7.14643014296098e+17
19222.0	7.145095209243987e+17
19223.0	7.143713521620308e+17
19224.0	7.142321745297407e+17
19225.0	7.140932082903721e+17
19226.0	7.139569378699944e+17
19227.0	7.138187755388927e+17
19228.0	7.13680583008802e+17
19229.0	7.135423538484563e+17
19230.0	7.13400982315554e+17
19231.0	7.132636884850003e+17
19232.0	7.131268701487104e+17
19233.0	7.129884087637331e+17
19234.0	7.128506692184745e+17
19235.0	7.127126464178858e+17
19236.0	7.125742742317738e+17
19237.0	7.124356860390058e+17
19238.0	7.122950900329129e+17
19239.0	7.121590813371049e+17
19240.0	7.120171427343017e+17
19241.0	7.11881187725585e+17
19242.0	7.117436714571092e+17
19243.0	7.116029108944896e+17
19244.0	7.114664573228372e+17
19245.0	7.113278597627901e+17
19246.0	7.111889992198825e+17
19247.0	7.110503911740756e+17
19248.0	7.109117392278867e+17
19249.0	7.107726351357267e+17
19250.0	7.106340402320726e+17
19251.0	7.104940226205011e+17
19252.0	7.103522102662484e+17
19253.0	7.102172116986536e+17
19254.0	7.100777692659711e+17
19255.0	7.099367250285908e+17
19256.0	7.09797553967377e+17
19257.0	7.096607865219753e+17
19258.0	7.095216325175977e+17
19259.0	7.093814089657002e+17
19260.0	7.09231968850193e+17
19261.0	7.091036004985514e+17
19262.0	7.089637572302164e+17
19263.0	7.08823962755618e+17
19264.0	7.086792492012883e+17
19265.0	7.08543064903953e+17
19266.0	7.084038836365994e+17
19267.0	7.082656175663786e+17
19268.0	7.081256878953812e+17
19269.0	7.079856751771647e+17
19270.0	7.078453239786153e+17
19271.0	7.077014256571732e+17
19272.0	7.07564685754368e+17
19273.0	7.073311882914472e+17
19274.0	7.072365197743444e+17
19275.0	7.071437005258752e+17
19276.0	7.0700304985402e+17
19277.0	7.068622754501972e+17
19278.0	7.067213897575081e+17
19279.0	7.06578078498816e+17
19280.0	7.064383463795369e+17
19281.0	7.062979818990249e+17
19282.0	7.061564992170666e+17
19283.0	7.060017962287104e+17
19284.0	7.058451199601321e+17
19285.0	7.057292366533972e+17
19286.0	7.055894929298772e+17
19287.0	7.054389821483689e+17
19288.0	7.050898561826812e+17
19289.0	7.045634320236531e+17
19290.0	7.050091122655232e+17
19291.0	7.048632201117696e+17
19292.0	7.047236387078144e+17
19293.0	7.045805289155241e+17
19294.0	7.044374208009555e+17
19295.0	7.042940417343487e+17
19296.0	7.041504797960874e+17
19297.0	7.040063042311508e+17
19298.0	7.0386272202042e+17
19299.0	7.037185166060202e+17
19300.0	7.035740851186345e+17
19301.0	7.034293447207593e+17
19302.0	7.032844220104703e+17
19303.0	7.031382070351188e+17
19304.0	7.029932230879912e+17
19305.0	7.028483649699839e+17
19306.0	7.027020963075412e+17
19307.0	7.025545313954473e+17
19308.0	7.024085560546644e+17
19309.0	7.022361568083965e+17
19310.0	7.020761819294377e+17
19311.0	7.019656584538793e+17
19312.0	7.01820743782673e+17
19313.0	7.016703066811049e+17
19314.0	7.011899446482257e+17
19315.0	7.010619156856836e+17
19316.0	7.012131174787753e+17
19317.0	7.010656122656084e+17
19318.0	7.009157391581183e+17
19319.0	7.007654419365887e+17
19320.0	7.006143167594495e+17
19321.0	7.004634841350143e+17
19322.0	7.003090386070186e+17
19323.0	7.001468685691562e+17
19324.0	7.000091242703529e+17
19325.0	6.998345267194538e+17
19326.0	6.99702651789858e+17
19327.0	6.995485896212479e+17
19328.0	6.993927434753364e+17
19329.0	6.992231829340159e+17
19330.0	6.990667853769385e+17
19331.0	6.989102110998527e+17
19332.0	6.987535216192168e+17
19333.0	6.985952791975252e+17
19334.0	6.984366550941695e+17
19335.0	6.982778350469119e+17
19336.0	6.981173798502399e+17
19337.0	6.979568590826153e+17
19338.0	6.977928183152639e+17
19339.0	6.976328682526035e+17
19340.0	6.974689844221268e+17
19341.0	6.973051628770644e+17
19342.0	6.97134542365218e+17
19343.0	6.969738924130303e+17
19344.0	6.96806715634483e+17
19345.0	6.966149946277887e+17
19346.0	6.964618471669759e+17
19347.0	6.962922014812842e+17
19348.0	6.961067055207763e+17
19349.0	6.959334563687081e+17
19350.0	6.957590097428479e+17
19351.0	6.955838748317011e+17
19352.0	6.954064195616768e+17
19353.0	6.952290030889641e+17
19354.0	6.950491327386963e+17
19355.0	6.948667112729258e+17
19356.0	6.946845506229587e+17
19357.0	6.944997062475775e+17
19358.0	6.943120822370303e+17
19359.0	6.940966738285908e+17
19360.0	6.939083736263338e+17
19361.0	6.937157649651028e+17
19362.0	6.93521938977041e+17
19363.0	6.933142841589759e+17
19364.0	6.931074544304127e+17
19365.0	6.929060763183785e+17
19366.0	6.926997340378452e+17
19367.0	6.924635989868543e+17
19368.0	6.922543903189674e+17
19369.0	6.92040502485538e+17
19370.0	6.918157875456681e+17
19371.0	6.916081471979519e+17
19372.0	6.913783609251155e+17
19373.0	6.911231050208596e+17
19374.0	6.908945262182399e+17
19375.0	6.906620762827433e+17
19376.0	6.904256518247764e+17
19377.0	6.901552755944105e+17
19378.0	6.898934240772093e+17
19379.0	6.896222074481321e+17
19380.0	6.893615668264959e+17
19381.0	6.890760592250195e+17
19382.0	6.888088366918313e+17
19383.0	6.885382457131007e+17
19384.0	6.882632834307411e+17
19385.0	6.879806371135488e+17
19386.0	6.87691445445154e+17
19387.0	6.87388733018385e+17
19388.0	6.870522425333075e+17
19389.0	6.867408229411497e+17
19390.0	6.864204283772927e+17
19391.0	6.853553544320328e+17
19392.0	6.857524254168404e+17
19393.0	6.853787385156948e+17
19394.0	6.84998261735424e+17
19395.0	6.846283050385407e+17
19396.0	6.842477459800063e+17
19397.0	6.838276741311146e+17
19398.0	6.833734804307967e+17
19399.0	6.829421851137363e+17
19400.0	6.824907011435178e+17
19401.0	6.819826799826259e+17
19402.0	6.815159737647103e+17
19403.0	6.809536266502143e+17
19404.0	6.804283845159594e+17
19405.0	6.798207939335508e+17
19406.0	6.792418846310399e+17
19407.0	6.785438212336298e+17
19408.0	6.778761038353748e+17
19409.0	6.771454710382591e+17
19410.0	6.763073380199081e+17
19411.0	6.755466469528916e+17
19412.0	6.748307992870911e+17
19413.0	6.740979674163882e+17
19414.0	6.733254878385491e+17
19415.0	6.724836313268224e+17
19416.0	6.716340613502291e+17
19417.0	6.707382701435561e+17
19418.0	6.69766337429504e+17
19419.0	6.687676417703935e+17
19420.0	6.676870105923583e+17
19421.0	6.665471110326953e+17
19422.0	6.652973673349119e+17
19423.0	6.639949660378452e+17
19424.0	6.625583060484096e+17
19425.0	6.609954140061695e+17
19426.0	6.592860310732797e+17
19427.0	6.573957777981441e+17
19428.0	6.552657803433298e+17
19429.0	6.529002800589481e+17
19430.0	6.508165965283328e+17
19431.0	6.486470976776878e+17
19432.0	6.465289897465171e+17
19433.0	6.44133831957982e+17
19434.0	6.415167035626836e+17
19435.0	6.386438258032636e+17
19436.0	6.354430582587395e+17
19437.0	6.318907695912279e+17
19438.0	6.270311071394473e+17
19439.0	6.228990625491629e+17
19440.0	6.183670344493738e+17
19441.0	6.135989620353705e+17
19442.0	6.082330180102829e+17
19443.0	6.020954839493285e+17
19444.0	5.947827585460902e+17
19445.0	5.868958228589229e+17
19446.0	5.783208041207124e+17
19447.0	5.680649061007352e+17
19448.0	5.564489461486938e+17
19449.0	5.417187885973503e+17
19450.0	5.145207482526341e+17
19451.0	5.0371414350015155e+17
19452.0	5.298845298021721e+17
19453.0	5.4960361895362624e+17
19454.0	5.620519374159866e+17
19455.0	5.7273767777621325e+17
19456.0	5.818889353734829e+17
19457.0	5.897039458074619e+17
19458.0	5.969355663736836e+17
19459.0	6.036680756690945e+17
19460.0	6.09138316375927e+17
19461.0	6.139450799161343e+17
19462.0	6.182305503991126e+17
19463.0	6.227934428441256e+17
19464.0	6.270517572359508e+17
19465.0	6.306497527021568e+17
19466.0	6.337445469618171e+17
19467.0	6.365067595481087e+17
19468.0	6.389823925387264e+17
19469.0	6.412258495518035e+17
19470.0	6.433037134856192e+17
19471.0	6.45192962085137e+17
19472.0	6.469467645149183e+17
19473.0	6.489468605300736e+17
19474.0	6.509669256265727e+17
19475.0	6.526779227373567e+17
19476.0	6.542391297179648e+17
19477.0	6.55597070450688e+17
19478.0	6.568166031359997e+17
19479.0	6.579463050843476e+17
19480.0	6.589556617554602e+17
19481.0	6.598553889669119e+17
19482.0	6.607456564849321e+17
19483.0	6.614975413310804e+17
19484.0	6.622381140694355e+17
19485.0	6.629056080510975e+17
19486.0	6.635086441786026e+17
19487.0	6.640840890559145e+17
19488.0	6.646383608769193e+17
19489.0	6.651262903429801e+17
19490.0	6.65567230112563e+17
19491.0	6.660693870772223e+17
19492.0	6.665814279192573e+17
19493.0	6.67091318551347e+17
19494.0	6.675761325583017e+17
19495.0	6.679623642731859e+17
19496.0	6.683156812573353e+17
19497.0	6.686745743589375e+17
19498.0	6.68914972290799e+17
19499.0	6.680773354586099e+17
19500.0	6.694974324910761e+17
19501.0	6.69699160547874e+17
19502.0	6.69952788013602e+17
19503.0	6.701176541500755e+17
19504.0	6.702716979336531e+17
19505.0	6.704760080738985e+17
19506.0	6.706089877132627e+17
19507.0	6.707213831766015e+17
19508.0	6.708223525868884e+17
19509.0	6.709431003075923e+17
19510.0	6.71041629332002e+17
19511.0	6.702208431161338e+17
19512.0	6.710235997667322e+17
19513.0	6.709059824648186e+17
19514.0	6.710504778454353e+17
19515.0	6.713264396304383e+17
19516.0	6.713855959542442e+17
19517.0	6.714097895385769e+17
19518.0	6.714292448875859e+17
19519.0	6.714413325221887e+17
19520.0	6.714482609531561e+17
19521.0	6.714506643592531e+17
19522.0	6.714717051551741e+17
19523.0	6.714631619870719e+17
19524.0	6.714655868540244e+17
19525.0	6.714632832723625e+17
19526.0	6.714794761519103e+17
19527.0	6.714536418257577e+17
19528.0	6.714239871178067e+17
19529.0	6.713905756416682e+17
19530.0	6.713635653025791e+17
19531.0	6.713495480784212e+17
19532.0	6.713062566395904e+17
19533.0	6.712599236313088e+17
19534.0	6.712106902618111e+17
19535.0	6.711586899099647e+17
19536.0	6.711035602578089e+17
19537.0	6.710746053694803e+17
19538.0	6.710161726330195e+17
19539.0	6.709485162725375e+17
19540.0	6.708905374296745e+17
19541.0	6.708247789917524e+17
19542.0	6.707694359893332e+17
19543.0	6.707035009013076e+17
19544.0	6.706315322370729e+17
19545.0	6.705592237643094e+17
19546.0	6.704951378051072e+17
19547.0	6.704284811569834e+17
19548.0	6.703499040172713e+17
19549.0	6.702686307789481e+17
19550.0	6.701884698700458e+17
19551.0	6.701056004893353e+17
19552.0	6.700213524409001e+17
19553.0	6.699356344986281e+17
19554.0	6.698487082472788e+17
19555.0	6.69761249948467e+17
19556.0	6.696722336754346e+17
19557.0	6.695820734758911e+17
19558.0	6.694909525710164e+17
19559.0	6.694151886209023e+17
19560.0	6.693234261273257e+17
19561.0	6.692297860535636e+17
19562.0	6.691348830748672e+17
19563.0	6.690390560210941e+17
19564.0	6.689425551523839e+17
19565.0	6.688451996243286e+17
19566.0	6.687468359254015e+17
19567.0	6.686481148717738e+17
19568.0	6.685486113008297e+17
19569.0	6.684482571949396e+17
19570.0	6.683474257772543e+17
19571.0	6.682458420412415e+17
19572.0	6.681432963416061e+17
19573.0	6.680407273635839e+17
19574.0	6.679363635729748e+17
19575.0	6.678336937219412e+17
19576.0	6.677293266457939e+17
19577.0	6.67623655280913e+17
19578.0	6.675185091127977e+17
19579.0	6.674127902124713e+17
19580.0	6.673065036830035e+17
19581.0	6.671997733262676e+17
19582.0	6.670927499973972e+17
19583.0	6.669851075193514e+17
19584.0	6.668892590746282e+17
19585.0	6.667804940610217e+17
19586.0	6.666693700310356e+17
19587.0	6.665567010291711e+17
19588.0	6.664483511118505e+17
19589.0	6.663398501995859e+17
19590.0	6.662331452183891e+17
19591.0	6.661241226745171e+17
19592.0	6.660134156282537e+17
19593.0	6.659023944985257e+17
19594.0	6.657864607902377e+17
19595.0	6.656792675920553e+17
19596.0	6.653810917244928e+17
19597.0	6.654541469930836e+17
19598.0	6.653401502842879e+17
19599.0	6.652303627692714e+17
19600.0	6.651174991517012e+17
19601.0	6.650035917116755e+17
19602.0	6.64890574512674e+17
19603.0	6.647594356135252e+17
19604.0	6.646624350633983e+17
19605.0	6.645462462016169e+17
19606.0	6.644355904656724e+17
19607.0	6.643214319965523e+17
19608.0	6.642068868825087e+17
19609.0	6.640919642811049e+17
19610.0	6.639774312606378e+17
19611.0	6.638623669616639e+17
19612.0	6.637472737219923e+17
19613.0	6.636319273560745e+17
19614.0	6.635159805755391e+17
19615.0	6.634008346973524e+17
19616.0	6.63278655181073e+17
19617.0	6.631692666841769e+17
19618.0	6.630474687097514e+17
19619.0	6.629293664763903e+17
19620.0	6.628135537737727e+17
19621.0	6.627044930617343e+17
19622.0	6.625880045169321e+17
19623.0	6.624714130718719e+17
19624.0	6.623547033474388e+17
19625.0	6.622377198048596e+17
19626.0	6.621209234680489e+17
19627.0	6.620038953959423e+17
19628.0	6.618674645434368e+17
19629.0	6.617683495747583e+17
19630.0	6.6163329466368e+17
19631.0	6.606425582556497e+17
19632.0	6.614182435400362e+17
19633.0	6.613089522810879e+17
19634.0	6.61191855911731e+17
19635.0	6.610736780410879e+17
19636.0	6.609564615049215e+17
19637.0	6.608336757019988e+17
19638.0	6.607206531902121e+17
19639.0	6.606021619351551e+17
19640.0	6.604841276495187e+17
19641.0	6.60360148357393e+17
19642.0	6.602485202419711e+17
19643.0	6.601300924607145e+17
19644.0	6.600113171114665e+17
19645.0	6.598907050764969e+17
19646.0	6.597753773053268e+17
19647.0	6.596569639944191e+17
19648.0	6.595385016101545e+17
19649.0	6.594199603729747e+17
19650.0	6.593014394781695e+17
19651.0	6.591828437150378e+17
19652.0	6.59064208106018e+17
19653.0	6.589451738284031e+17
19654.0	6.58826814624017e+17
19655.0	6.587080117321727e+17
19656.0	6.585891864008019e+17
19657.0	6.584704399223465e+17
19658.0	6.583514643649876e+17
19659.0	6.582326941188095e+17
19660.0	6.581137974143657e+17
19661.0	6.579948528948564e+17
19662.0	6.578758781763583e+17
19663.0	6.577561723906729e+17
19664.0	6.576343509980499e+17
19665.0	6.575188055425023e+17
