# Flux units: erg / (cm m2 s)
# Wavelength units: Angstrom
wave	flux
19000.0	6.983823626250921e+17
19001.0	6.982396315085481e+17
19002.0	6.981193206945108e+17
19003.0	6.979870305288191e+17
19004.0	6.978550703150419e+17
19005.0	6.977232840949759e+17
19006.0	6.975915016497834e+17
19007.0	6.974479455136426e+17
19008.0	6.973201805126313e+17
19009.0	6.971936175991466e+17
19010.0	6.970083825243475e+17
19011.0	6.969300313178111e+17
19012.0	6.967805772212905e+17
19013.0	6.966689079317844e+17
19014.0	6.965302086598655e+17
19015.0	6.964016323406506e+17
19016.0	6.962689940477268e+17
19017.0	6.961204129256787e+17
19018.0	6.960087993505108e+17
19019.0	6.958780603782484e+17
19020.0	6.957397670450516e+17
19021.0	6.956116446893395e+17
19022.0	6.954844003412649e+17
19023.0	6.953481629160788e+17
19024.0	6.952189494820863e+17
19025.0	6.950886813903529e+17
19026.0	6.949545322392233e+17
19027.0	6.948179273231016e+17
19028.0	6.946953291453779e+17
19029.0	6.945618442321919e+17
19030.0	6.944337278184104e+17
19031.0	6.943029941589332e+17
19032.0	6.941713652252671e+17
19033.0	6.940295441328809e+17
19034.0	6.939063681897811e+17
19035.0	6.937731199052457e+17
19036.0	6.927980915851256e+17
19037.0	6.935131184955391e+17
19038.0	6.933805715685375e+17
19039.0	6.932514541142015e+17
19040.0	6.931209161889108e+17
19041.0	6.929887723345236e+17
19042.0	6.928478112142676e+17
19043.0	6.92726908723746e+17
19044.0	6.9259463505565e+17
19045.0	6.924644862219603e+17
19046.0	6.923262841148755e+17
19047.0	6.922023493522772e+17
19048.0	6.920464623818067e+17
19049.0	6.91931977945361e+17
19050.0	6.918033380125353e+17
19051.0	6.915516074207912e+17
19052.0	6.915390438724948e+17
19053.0	6.914128129381716e+17
19054.0	6.912843820914003e+17
19055.0	6.911245469526698e+17
19056.0	6.910198634162857e+17
19057.0	6.908911620369066e+17
19058.0	6.907560240087037e+17
19059.0	6.906297788836521e+17
19060.0	6.904967456970067e+17
19061.0	6.903688262057983e+17
19062.0	6.902371891631444e+17
19063.0	6.901068357872297e+17
19064.0	6.899607908210004e+17
19065.0	6.898238286899881e+17
19066.0	6.897071915270143e+17
19067.0	6.895821630297428e+17
19068.0	6.894528190829908e+17
19069.0	6.893224083150164e+17
19070.0	6.891880625209343e+17
19071.0	6.890541107817129e+17
19072.0	6.889244150027603e+17
19073.0	6.887930001883135e+17
19074.0	6.886635478188031e+17
19075.0	6.885329787158527e+17
19076.0	6.883997451812863e+17
19077.0	6.882709317440852e+17
19078.0	6.881331833907881e+17
19079.0	6.880105378174292e+17
19080.0	6.878787902548649e+17
19081.0	6.877442780168191e+17
19082.0	6.876116270710783e+17
19083.0	6.874756798218239e+17
19084.0	6.873286426230783e+17
19085.0	6.872239728579924e+17
19086.0	6.870489963517267e+17
19087.0	6.8694077617821e+17
19088.0	6.868259597626025e+17
19089.0	6.866698704868694e+17
19090.0	6.865700836605952e+17
19091.0	6.864409491494228e+17
19092.0	6.863008208781311e+17
19093.0	6.861829970766505e+17
19094.0	6.860521854031188e+17
19095.0	6.85921981763857e+17
19096.0	6.857895085867007e+17
19097.0	6.856628183760895e+17
19098.0	6.855325183377407e+17
19099.0	6.854018710110207e+17
19100.0	6.852711983087615e+17
19101.0	6.851425346781183e+17
19102.0	6.850025671884797e+17
19103.0	6.848822187655167e+17
19104.0	6.847531816321023e+17
19105.0	6.846228604125183e+17
19106.0	6.844887788595881e+17
19107.0	6.843611938641236e+17
19108.0	6.842335788793855e+17
19109.0	6.840155950284797e+17
19110.0	6.839735515348991e+17
19111.0	6.838439076954111e+17
19112.0	6.83714477765427e+17
19113.0	6.835845426315264e+17
19114.0	6.834544734896127e+17
19115.0	6.833184763980458e+17
19116.0	6.831929292051796e+17
19117.0	6.830637596016639e+17
19118.0	6.829227224946004e+17
19119.0	6.825137593297573e+17
19120.0	6.826687400509437e+17
19121.0	6.825434870185983e+17
19122.0	6.82418103333683e+17
19123.0	6.822865389223935e+17
19124.0	6.821544924457641e+17
19125.0	6.820282360659968e+17
19126.0	6.818966980089172e+17
19127.0	6.815800846101158e+17
19128.0	6.815642557961554e+17
19129.0	6.815008474267647e+17
19130.0	6.813808620208127e+17
19131.0	6.812504820809727e+17
19132.0	6.811233573404671e+17
19133.0	6.80918890962398e+17
19134.0	6.808269217595392e+17
19135.0	6.807351790490964e+17
19136.0	6.806068399177727e+17
19137.0	6.804591620390911e+17
19138.0	6.803367022034943e+17
19139.0	6.802190003863551e+17
19140.0	6.800901096341503e+17
19141.0	6.799610169262079e+17
19142.0	6.798287044608e+17
19143.0	6.796955196500649e+17
19144.0	6.795687047288148e+17
19145.0	6.794438610605396e+17
19146.0	6.792460706163372e+17
19147.0	6.791763758940159e+17
19148.0	6.790567609849172e+17
19149.0	6.789275642582356e+17
19150.0	6.787979971745108e+17
19151.0	6.786701385706153e+17
19152.0	6.785384281975466e+17
19153.0	6.784104648059561e+17
19154.0	6.782696112695977e+17
19155.0	6.781551029256191e+17
19156.0	6.780262041343316e+17
19157.0	6.778963143688191e+17
19158.0	6.777071396541778e+17
19159.0	6.776376582122153e+17
19160.0	6.775060907950079e+17
19161.0	6.773744538921642e+17
19162.0	6.771170184877398e+17
19163.0	6.771242374441642e+17
19164.0	6.769966665695232e+17
19165.0	6.768649257178452e+17
19166.0	6.76725474267409e+17
19167.0	6.765977482734249e+17
19168.0	6.764635104127657e+17
19169.0	6.763424290351785e+17
19170.0	6.762249020506111e+17
19171.0	6.760889945773395e+17
19172.0	6.759668240089087e+17
19173.0	6.758392501283497e+17
19174.0	6.757043181802836e+17
19175.0	6.755824884689577e+17
19176.0	6.754534181306368e+17
19177.0	6.753084543161683e+17
19178.0	6.751957142907562e+17
19179.0	6.750583576854528e+17
19180.0	6.749208494560595e+17
19181.0	6.748001067685203e+17
19182.0	6.74671106265361e+17
19183.0	6.745532659662848e+17
19184.0	6.744096713823572e+17
19185.0	6.742964367785983e+17
19186.0	6.741702669413033e+17
19187.0	6.74032178499857e+17
19188.0	6.739127275880447e+17
19189.0	6.737824817960275e+17
19190.0	6.736535841232212e+17
19191.0	6.735240318593705e+17
19192.0	6.733999265284095e+17
19193.0	6.732582082663764e+17
19194.0	6.731362856512169e+17
19195.0	6.730144597147647e+17
19196.0	6.728860736072361e+17
19197.0	6.727587988504576e+17
19198.0	6.726308559410515e+17
19199.0	6.716825605068114e+17
19200.0	6.718563972808705e+17
19201.0	6.722468551764649e+17
19202.0	6.72119732113681e+17
19203.0	6.71990176354577e+17
19204.0	6.718606216440489e+17
19205.0	6.717342348913321e+17
19206.0	6.716056323577172e+17
19207.0	6.714700169478143e+17
19208.0	6.71326795866658e+17
19209.0	6.71221571265058e+17
19210.0	6.71094111609378e+17
19211.0	6.709671671540393e+17
19212.0	6.70839821513523e+17
19213.0	6.706954801337686e+17
19214.0	6.705636204434772e+17
19215.0	6.704535080796159e+17
19216.0	6.703235291851433e+17
19217.0	6.701993628969642e+17
19218.0	6.699799682220028e+17
19219.0	6.699256493987155e+17
19220.0	6.698132514187946e+17
19221.0	6.69650123891234e+17
19222.0	6.695608312135679e+17
19223.0	6.694298959478783e+17
19224.0	6.692920739146409e+17
19225.0	6.691579869091156e+17
19226.0	6.690458521916755e+17
19227.0	6.68917906416162e+17
19228.0	6.687934702245204e+17
19229.0	6.686656091739476e+17
19230.0	6.685329692732073e+17
19231.0	6.684052037828605e+17
19232.0	6.682746754345642e+17
19233.0	6.681455416923475e+17
19234.0	6.680228915052543e+17
19235.0	6.67893730709777e+17
19236.0	6.677704924113578e+17
19237.0	6.676403358182058e+17
19238.0	6.675034105271636e+17
19239.0	6.673870836028755e+17
19240.0	6.672230135453012e+17
19241.0	6.671189958546771e+17
19242.0	6.669993508164948e+17
19243.0	6.668535687632212e+17
19244.0	6.66746881118481e+17
19245.0	6.666185774290259e+17
19246.0	6.664894252318717e+17
19247.0	6.663614584149332e+17
19248.0	6.662354824942931e+17
19249.0	6.661071789446484e+17
19250.0	6.659771326616916e+17
19251.0	6.658411774432595e+17
19252.0	6.656828361758036e+17
19253.0	6.655927127463252e+17
19254.0	6.654620368284329e+17
19255.0	6.653146191364095e+17
19256.0	6.652073359704061e+17
19257.0	6.650825780057427e+17
19258.0	6.649544480303785e+17
19259.0	6.648173232302761e+17
19260.0	6.646858931765247e+17
19261.0	6.645687063500116e+17
19262.0	6.644349338473811e+17
19263.0	6.643080994226175e+17
19264.0	6.641254201469608e+17
19265.0	6.640322035580927e+17
19266.0	6.639093892339028e+17
19267.0	6.637971466529449e+17
19268.0	6.636677895640403e+17
19269.0	6.635393299163817e+17
19270.0	6.634112066519039e+17
19271.0	6.632456850156204e+17
19272.0	6.631496195855699e+17
19273.0	6.620994884075506e+17
19274.0	6.62452795325371e+17
19275.0	6.62767509053986e+17
19276.0	6.626364683015507e+17
19277.0	6.625076481534633e+17
19278.0	6.623794679862612e+17
19279.0	6.622432802635775e+17
19280.0	6.621116516794367e+17
19281.0	6.619899378008061e+17
19282.0	6.618539486085119e+17
19283.0	6.617117317136383e+17
19284.0	6.61566519456563e+17
19285.0	6.614399399755773e+17
19286.0	6.613328289158484e+17
19287.0	6.612075749048319e+17
19288.0	6.608906611239593e+17
19289.0	6.603543115639452e+17
19290.0	6.608187626444116e+17
19291.0	6.606580420182016e+17
19292.0	6.605588238696447e+17
19293.0	6.604280767184895e+17
19294.0	6.602975780798463e+17
19295.0	6.601688121081855e+17
19296.0	6.600377001224874e+17
19297.0	6.599044570109267e+17
19298.0	6.597738463843668e+17
19299.0	6.596468455156393e+17
19300.0	6.595161664520191e+17
19301.0	6.593840481129812e+17
19302.0	6.592526883138217e+17
19303.0	6.591112072396799e+17
19304.0	6.589839658975232e+17
19305.0	6.588579349615955e+17
19306.0	6.587267024595626e+17
19307.0	6.585893946479955e+17
19308.0	6.584607679272275e+17
19309.0	6.583060778014035e+17
19310.0	6.581590891167743e+17
19311.0	6.580623714025471e+17
19312.0	6.579323240710143e+17
19313.0	6.577868818262698e+17
19314.0	6.573191003985229e+17
19315.0	6.572139819827208e+17
19316.0	6.574021035076266e+17
19317.0	6.572685776999764e+17
19318.0	6.571341801062399e+17
19319.0	6.570020647731199e+17
19320.0	6.568642315550719e+17
19321.0	6.567332491034621e+17
19322.0	6.565815684606634e+17
19323.0	6.564426031999658e+17
19324.0	6.563150063905449e+17
19325.0	6.561592292409343e+17
19326.0	6.560437278954836e+17
19327.0	6.559061475240617e+17
19328.0	6.557724115118762e+17
19329.0	6.556361791198548e+17
19330.0	6.554938341588991e+17
19331.0	6.553560412760746e+17
19332.0	6.552226016613716e+17
19333.0	6.550821554618365e+17
19334.0	6.54940424826607e+17
19335.0	6.548057967558655e+17
19336.0	6.546656460450473e+17
19337.0	6.54524894150656e+17
19338.0	6.543611766942377e+17
19339.0	6.542395388024148e+17
19340.0	6.540813165133823e+17
19341.0	6.539452500060841e+17
19342.0	6.537552353121619e+17
19343.0	6.536594501315241e+17
19344.0	6.535140169744383e+17
19345.0	6.53130374822843e+17
19346.0	6.53166338043631e+17
19347.0	6.530717195086505e+17
19348.0	6.529326327529471e+17
19349.0	6.527808607442259e+17
19350.0	6.526335390318591e+17
19351.0	6.52482755760401e+17
19352.0	6.523295357381289e+17
19353.0	6.521874565562365e+17
19354.0	6.520352147854676e+17
19355.0	6.518714042854057e+17
19356.0	6.517287365028521e+17
19357.0	6.515729533414057e+17
19358.0	6.514097320711508e+17
19359.0	6.512108993424042e+17
19360.0	6.510843061600255e+17
19361.0	6.509188099691859e+17
19362.0	6.507643073287508e+17
19363.0	6.506017260393811e+17
19364.0	6.504370617188351e+17
19365.0	6.502717788782591e+17
19366.0	6.501055422529535e+17
19367.0	6.499371244497577e+17
19368.0	6.49766892610082e+17
19369.0	6.495761288134655e+17
19370.0	6.493077250943657e+17
19371.0	6.492286769343145e+17
19372.0	6.490431299431082e+17
19373.0	6.488594671730687e+17
19374.0	6.486787704051027e+17
19375.0	6.484936849271465e+17
19376.0	6.483057176128169e+17
19377.0	6.481138101693097e+17
19378.0	6.47903887560977e+17
19379.0	6.476777785043625e+17
19380.0	6.474763670476116e+17
19381.0	6.472720441147391e+17
19382.0	6.470555521777663e+17
19383.0	6.468425949904896e+17
19384.0	6.466233658507264e+17
19385.0	6.463866965153107e+17
19386.0	6.461634693649748e+17
19387.0	6.45934803460642e+17
19388.0	6.456866531966976e+17
19389.0	6.454214944707924e+17
19390.0	6.451729957300906e+17
19391.0	6.44176421410132e+17
19392.0	6.445986164157097e+17
19393.0	6.443264716570623e+17
19394.0	6.440499848151039e+17
19395.0	6.437492169375743e+17
19396.0	6.434630395756541e+17
19397.0	6.431715244026538e+17
19398.0	6.428651379752959e+17
19399.0	6.424675877213523e+17
19400.0	6.421850036895743e+17
19401.0	6.418541880279039e+17
19402.0	6.415083987009535e+17
19403.0	6.411464038416383e+17
19404.0	6.407450150305791e+17
19405.0	6.403301757157375e+17
19406.0	6.399175628772692e+17
19407.0	6.394841207756116e+17
19408.0	6.389145173054807e+17
19409.0	6.385235182048596e+17
19410.0	6.380029683782996e+17
19411.0	6.374707499980116e+17
19412.0	6.368861640545619e+17
19413.0	6.362961318772735e+17
19414.0	6.356191039629993e+17
19415.0	6.349373720668842e+17
19416.0	6.341676899500031e+17
19417.0	6.333324087088467e+17
19418.0	6.324260613477718e+17
19419.0	6.314545288402262e+17
19420.0	6.305709139776851e+17
19421.0	6.297202099311956e+17
19422.0	6.287708031462058e+17
19423.0	6.278094134444031e+17
19424.0	6.267808618905599e+17
19425.0	6.256360166872404e+17
19426.0	6.244381730974377e+17
19427.0	6.23126258000418e+17
19428.0	6.217270998422867e+17
19429.0	6.201785921656147e+17
19430.0	6.184420462908758e+17
19431.0	6.163487388598275e+17
19432.0	6.143028690070184e+17
19433.0	6.117226973932202e+17
19434.0	6.0884445022563e+17
19435.0	6.064241157778089e+17
19436.0	6.038120417984512e+17
19437.0	6.010616249232042e+17
19438.0	5.970572143318354e+17
19439.0	5.943852386309464e+17
19440.0	5.903110718007976e+17
19441.0	5.854281940860919e+17
19442.0	5.795877338393263e+17
19443.0	5.74107490136883e+17
19444.0	5.680284269106513e+17
19445.0	5.6073367612730054e+17
19446.0	5.517588001980418e+17
19447.0	5.4206053014132e+17
19448.0	5.302092644220932e+17
19449.0	5.1471884879571616e+17
19450.0	4.8374296654206086e+17
19451.0	4.719823624514215e+17
19452.0	5.0129539694592045e+17
19453.0	5.23206454184073e+17
19454.0	5.36072898128554e+17
19455.0	5.464080199101099e+17
19456.0	5.555819293354671e+17
19457.0	5.6348176782021946e+17
19458.0	5.694306071347208e+17
19459.0	5.753020407786157e+17
19460.0	5.807721810318674e+17
19461.0	5.859973280737962e+17
19462.0	5.901828319346689e+17
19463.0	5.937168997067433e+17
19464.0	5.968103322157055e+17
19465.0	5.995337182696788e+17
19466.0	6.019581242682025e+17
19467.0	6.041848751587327e+17
19468.0	6.065865637582163e+17
19469.0	6.090174786174973e+17
19470.0	6.112736902993236e+17
19471.0	6.130943239301801e+17
19472.0	6.146665513746431e+17
19473.0	6.160623935160319e+17
19474.0	6.173063750090753e+17
19475.0	6.183157561469608e+17
19476.0	6.194141409749674e+17
19477.0	6.203234755193514e+17
19478.0	6.211767250190333e+17
19479.0	6.219200058796713e+17
19480.0	6.22633247973922e+17
19481.0	6.232867108902227e+17
19482.0	6.238950893027327e+17
19483.0	6.245957174471336e+17
19484.0	6.252801630579369e+17
19485.0	6.259094819525971e+17
19486.0	6.264427387027455e+17
19487.0	6.269460288984404e+17
19488.0	6.273740449688234e+17
19489.0	6.277316625825791e+17
19490.0	6.279635673284604e+17
19491.0	6.2838613751453e+17
19492.0	6.286975448033961e+17
19493.0	6.289400282830164e+17
19494.0	6.291541310745257e+17
19495.0	6.293869765328895e+17
19496.0	6.295198991297193e+17
19497.0	6.297190856480084e+17
19498.0	6.29866982539264e+17
19499.0	6.287986984834374e+17
19500.0	6.301429052473343e+17
19501.0	6.302389299227305e+17
19502.0	6.303247590839635e+17
19503.0	6.30431113351441e+17
19504.0	6.305005252378623e+17
19505.0	6.305588560527359e+17
19506.0	6.306065142513663e+17
19507.0	6.306426150453247e+17
19508.0	6.306984171143167e+17
19509.0	6.307249557340159e+17
19510.0	6.307233822408703e+17
19511.0	6.298782183806284e+17
19512.0	6.306866230110883e+17
19513.0	6.304603559690232e+17
19514.0	6.306166839705596e+17
19515.0	6.30788245474509e+17
19516.0	6.308344006443008e+17
19517.0	6.308066424608084e+17
19518.0	6.30792355123473e+17
19519.0	6.307899722694655e+17
19520.0	6.307533610287101e+17
19521.0	6.307199149495635e+17
19522.0	6.306740277258922e+17
19523.0	6.306358560642388e+17
19524.0	6.305958989572778e+17
19525.0	6.305580712984573e+17
19526.0	6.305149416898559e+17
19527.0	6.304733813101908e+17
19528.0	6.30416180580625e+17
19529.0	6.303557198282751e+17
19530.0	6.302944030883839e+17
19531.0	6.302307301982205e+17
19532.0	6.301635323450708e+17
19533.0	6.30115713294882e+17
19534.0	6.300458397554004e+17
19535.0	6.299709357075114e+17
19536.0	6.298954521466196e+17
19537.0	6.298242438397951e+17
19538.0	6.297440321099094e+17
19539.0	6.296043991160152e+17
19540.0	6.295861228557652e+17
19541.0	6.295082440676691e+17
19542.0	6.294251182751744e+17
19543.0	6.293413192968874e+17
19544.0	6.292572999079252e+17
19545.0	6.29134282090086e+17
19546.0	6.289854718192298e+17
19547.0	6.290115492052991e+17
19548.0	6.289247150888276e+17
19549.0	6.288223758887593e+17
19550.0	6.287442225834665e+17
19551.0	6.286530516964691e+17
19552.0	6.285606302777343e+17
19553.0	6.284655554024788e+17
19554.0	6.283688934724948e+17
19555.0	6.282776839279956e+17
19556.0	6.281839090772649e+17
19557.0	6.280878370761386e+17
19558.0	6.279912602905257e+17
19559.0	6.278909549783721e+17
19560.0	6.277936093768361e+17
19561.0	6.276953469004458e+17
19562.0	6.275990995774122e+17
19563.0	6.274999964925951e+17
19564.0	6.274007921153363e+17
19565.0	6.272998819146409e+17
19566.0	6.271964594656595e+17
19567.0	6.270983893680128e+17
19568.0	6.269937251254272e+17
19569.0	6.268926567994708e+17
19570.0	6.267930652879529e+17
19571.0	6.266904425529341e+17
19572.0	6.265828220949844e+17
19573.0	6.264824596703914e+17
19574.0	6.263682721207636e+17
19575.0	6.262800449361235e+17
19576.0	6.261835799287124e+17
19577.0	6.260681297537705e+17
19578.0	6.259694145022633e+17
19579.0	6.258655954119337e+17
19580.0	6.257607935262719e+17
19581.0	6.25656032535074e+17
19582.0	6.255520713976489e+17
19583.0	6.254458343609684e+17
19584.0	6.253389882414419e+17
19585.0	6.252192448468308e+17
19586.0	6.251070600773632e+17
19587.0	6.250096746299391e+17
19588.0	6.248555666735104e+17
19589.0	6.247963451282772e+17
19590.0	6.246862995237546e+17
19591.0	6.245873593876479e+17
19592.0	6.244800185499647e+17
19593.0	6.243693324053161e+17
19594.0	6.242332776420691e+17
19595.0	6.241523192561663e+17
19596.0	6.238672292675584e+17
19597.0	6.239353101615101e+17
19598.0	6.237978405896191e+17
19599.0	6.237189269968212e+17
19600.0	6.236104834067113e+17
19601.0	6.234937231409152e+17
19602.0	6.233873409813162e+17
19603.0	6.232260996322644e+17
19604.0	6.231668274058579e+17
19605.0	6.230274388000768e+17
19606.0	6.22950883594513e+17
19607.0	6.228421954065748e+17
19608.0	6.227311543539027e+17
19609.0	6.226157076043094e+17
19610.0	6.225125409379668e+17
19611.0	6.224009934929917e+17
19612.0	6.222920481942185e+17
19613.0	6.221797526252202e+17
19614.0	6.220660121184937e+17
19615.0	6.219600614828714e+17
19616.0	6.218431477754537e+17
19617.0	6.217383404371965e+17
19618.0	6.215724657104211e+17
19619.0	6.21439789249331e+17
19620.0	6.213341685656233e+17
19621.0	6.212940366959956e+17
19622.0	6.211836011610112e+17
19623.0	6.21072754024994e+17
19624.0	6.20960361287953e+17
19625.0	6.208500901696852e+17
19626.0	6.207376394114388e+17
19627.0	6.206275865367891e+17
19628.0	6.204963543143766e+17
19629.0	6.203944520209748e+17
19630.0	6.202826805302612e+17
19631.0	6.193192441479162e+17
19632.0	6.200693258627753e+17
19633.0	6.199527756617044e+17
19634.0	6.19846730584337e+17
19635.0	6.197303283023871e+17
19636.0	6.196221822981459e+17
19637.0	6.194647340679168e+17
19638.0	6.193985321522516e+17
19639.0	6.192864015592105e+17
19640.0	6.191689356017663e+17
19641.0	6.189971503316993e+17
19642.0	6.189512545796095e+17
19643.0	6.188368310304768e+17
19644.0	6.187218482408106e+17
19645.0	6.18587445404194e+17
19646.0	6.185050509585065e+17
19647.0	6.183930757644287e+17
19648.0	6.182805286770003e+17
19649.0	6.181681755761321e+17
19650.0	6.180569348046847e+17
19651.0	6.179441368978771e+17
19652.0	6.17831915917585e+17
19653.0	6.177203200983039e+17
19654.0	6.176073659536724e+17
19655.0	6.174948285830484e+17
19656.0	6.173834920416595e+17
19657.0	6.172713164297556e+17
19658.0	6.171598674111146e+17
19659.0	6.170477082968063e+17
19660.0	6.169360657110356e+17
19661.0	6.168233623857834e+17
19662.0	6.167117623022931e+17
19663.0	6.165943189241856e+17
19664.0	6.164830929726121e+17
19665.0	6.163752674131967e+17
