# Flux units: erg / (cm m2 s)
# Wavelength units: Angstrom
wave	flux
19000.0	5.91809336189474e+17
19001.0	5.916735386768724e+17
19002.0	5.915891845824512e+17
19003.0	5.914771864595114e+17
19004.0	5.913663688234324e+17
19005.0	5.912549774065663e+17
19006.0	5.911449103411882e+17
19007.0	5.910222211470676e+17
19008.0	5.90906784883234e+17
19009.0	5.908071831655766e+17
19010.0	5.905656369031848e+17
19011.0	5.905850121409876e+17
19012.0	5.90443647808307e+17
19013.0	5.903692723126271e+17
19014.0	5.902440724780371e+17
19015.0	5.901391370037929e+17
19016.0	5.900255342799529e+17
19017.0	5.899114575298559e+17
19018.0	5.898131742217556e+17
19019.0	5.89704319799569e+17
19020.0	5.895838942713174e+17
19021.0	5.894800179986432e+17
19022.0	5.893750243633833e+17
19023.0	5.892548193856169e+17
19024.0	5.891486768605865e+17
19025.0	5.89042853941521e+17
19026.0	5.889257873517225e+17
19027.0	5.88809299366161e+17
19028.0	5.887131781518676e+17
19029.0	5.885984945558868e+17
19030.0	5.884952779773268e+17
19031.0	5.883864723488767e+17
19032.0	5.882752777846783e+17
19033.0	5.881407909920767e+17
19034.0	5.880510951718911e+17
19035.0	5.879361199319721e+17
19036.0	5.865105737995593e+17
19037.0	5.877219632436563e+17
19038.0	5.876088328683519e+17
19039.0	5.875034296593065e+17
19040.0	5.873945433604095e+17
19041.0	5.87283275256081e+17
19042.0	5.871509582468435e+17
19043.0	5.870642270306304e+17
19044.0	5.86952037437713e+17
19045.0	5.868445347698004e+17
19046.0	5.867178563731455e+17
19047.0	5.866249119247017e+17
19048.0	5.864560470086995e+17
19049.0	5.863865129282218e+17
19050.0	5.862821266281812e+17
19051.0	5.859663086092283e+17
19052.0	5.860632471535615e+17
19053.0	5.859618546778112e+17
19054.0	5.858539505451007e+17
19055.0	5.85678829964493e+17
19056.0	5.856287540991316e+17
19057.0	5.855245756967593e+17
19058.0	5.854094992343039e+17
19059.0	5.853059647974058e+17
19060.0	5.851907808908628e+17
19061.0	5.850882031747071e+17
19062.0	5.849764436377599e+17
19063.0	5.848686124859391e+17
19064.0	5.847241422711468e+17
19065.0	5.846021445080404e+17
19066.0	5.845237542944768e+17
19067.0	5.844269193494527e+17
19068.0	5.843203953524735e+17
19069.0	5.842113006665727e+17
19070.0	5.840941774536703e+17
19071.0	5.839906986612052e+17
19072.0	5.838831362943657e+17
19073.0	5.837716386217983e+17
19074.0	5.836647461552128e+17
19075.0	5.835554981675007e+17
19076.0	5.834400897258836e+17
19077.0	5.833340947704489e+17
19078.0	5.832136707801087e+17
19079.0	5.831177111164244e+17
19080.0	5.830052379885567e+17
19081.0	5.828863224097449e+17
19082.0	5.827748285819561e+17
19083.0	5.826538760394068e+17
19084.0	5.825101108871168e+17
19085.0	5.824590586576895e+17
19086.0	5.822529035130195e+17
19087.0	5.822053813496489e+17
19088.0	5.821165255087444e+17
19089.0	5.819578897312426e+17
19090.0	5.819081066283008e+17
19091.0	5.818018774209876e+17
19092.0	5.816736986518868e+17
19093.0	5.815887266665812e+17
19094.0	5.814796161821353e+17
19095.0	5.813715414111572e+17
19096.0	5.812572144009213e+17
19097.0	5.811539756624553e+17
19098.0	5.810440502946473e+17
19099.0	5.809345059793578e+17
19100.0	5.808242242355199e+17
19101.0	5.807181454639104e+17
19102.0	5.805831599685631e+17
19103.0	5.804993474985983e+17
19104.0	5.803925215117311e+17
19105.0	5.802820917788671e+17
19106.0	5.801670030830249e+17
19107.0	5.800607884159657e+17
19108.0	5.799574871124649e+17
19109.0	5.797292242807465e+17
19110.0	5.797396701249535e+17
19111.0	5.796307525784916e+17
19112.0	5.795228741708457e+17
19113.0	5.794134874914813e+17
19114.0	5.793044336301396e+17
19115.0	5.791822636209492e+17
19116.0	5.790825846581929e+17
19117.0	5.789754582892543e+17
19118.0	5.788452422068906e+17
19119.0	5.77797685282951e+17
19120.0	5.786391539613695e+17
19121.0	5.785392280240128e+17
19122.0	5.78437956763648e+17
19123.0	5.783274678910976e+17
19124.0	5.782136762837674e+17
19125.0	5.781111559596713e+17
19126.0	5.780011095861929e+17
19127.0	5.774444838518776e+17
19128.0	5.777006987837437e+17
19129.0	5.776554925752317e+17
19130.0	5.775673947149652e+17
19131.0	5.774594034805418e+17
19132.0	5.773537367293951e+17
19133.0	5.771403371129516e+17
19134.0	5.770943998372524e+17
19135.0	5.770285184363178e+17
19136.0	5.769223589243562e+17
19137.0	5.767709739100841e+17
19138.0	5.766957134162601e+17
19139.0	5.76597805568273e+17
19140.0	5.764897553339732e+17
19141.0	5.7638170530938874e+17
19142.0	5.762664687643306e+17
19143.0	5.761488145525418e+17
19144.0	5.760486101133994e+17
19145.0	5.7594876722326176e+17
19146.0	5.7568463610183686e+17
19147.0	5.757096760268116e+17
19148.0	5.7562465063403514e+17
19149.0	5.75516152238353e+17
19150.0	5.7540710187226445e+17
19151.0	5.753010920270505e+17
19152.0	5.7519096708027725e+17
19153.0	5.75080873800499e+17
19154.0	5.749457126337193e+17
19155.0	5.748714297622526e+17
19156.0	5.7476303713293645e+17
19157.0	5.74654006829602e+17
19158.0	5.744645709496319e+17
19159.0	5.744352677243562e+17
19160.0	5.743261043916798e+17
19161.0	5.7421654294964896e+17
19162.0	5.7393109483738464e+17
19163.0	5.740090717022889e+17
19164.0	5.7390281166684154e+17
19165.0	5.737895674860884e+17
19166.0	5.736428202535593e+17
19167.0	5.735037013415252e+17
19168.0	5.733880208293887e+17
19169.0	5.7328975968119456e+17
19170.0	5.731988210887337e+17
19171.0	5.7307953235667616e+17
19172.0	5.7298224806188365e+17
19173.0	5.7287651825636685e+17
19174.0	5.727536318600533e+17
19175.0	5.726615375271252e+17
19176.0	5.725534015193088e+17
19177.0	5.724080049924777e+17
19178.0	5.723379764035583e+17
19179.0	5.722161690618538e+17
19180.0	5.721102877021526e+17
19181.0	5.7198655279813965e+17
19182.0	5.7189831813365754e+17
19183.0	5.718025280596649e+17
19184.0	5.716732647833599e+17
19185.0	5.715850531176447e+17
19186.0	5.7148190364794874e+17
19187.0	5.713546219705684e+17
19188.0	5.7126622337870496e+17
19189.0	5.7115742956421114e+17
19190.0	5.710499239602858e+17
19191.0	5.709366786610516e+17
19192.0	5.7083976052899834e+17
19193.0	5.7072532460666874e+17
19194.0	5.706179700675926e+17
19195.0	5.7050458600680096e+17
19196.0	5.703784368614058e+17
19197.0	5.7027404986231456e+17
19198.0	5.701686207883945e+17
19199.0	5.689793406391634e+17
19200.0	5.692802260271108e+17
19201.0	5.6984850081163936e+17
19202.0	5.697423742249641e+17
19203.0	5.696333013494442e+17
19204.0	5.69520991310097e+17
19205.0	5.694186238683817e+17
19206.0	5.6931006933893114e+17
19207.0	5.691853017273686e+17
19208.0	5.690401819546964e+17
19209.0	5.6898920109834234e+17
19210.0	5.688843345504937e+17
19211.0	5.687810079413587e+17
19212.0	5.6867373924570445e+17
19213.0	5.6853586345547085e+17
19214.0	5.6842431698916685e+17
19215.0	5.6835120565671245e+17
19216.0	5.682436720907605e+17
19217.0	5.681391735231828e+17
19218.0	5.678207969787901e+17
19219.0	5.6788747264109203e+17
19220.0	5.6781439059886074e+17
19221.0	5.6762647753086285e+17
19222.0	5.6760751291542176e+17
19223.0	5.6749469284870816e+17
19224.0	5.67376298062643e+17
19225.0	5.6724709392602426e+17
19226.0	5.6717436294703776e+17
19227.0	5.6706808983934285e+17
19228.0	5.66968209060659e+17
19229.0	5.668617153325738e+17
19230.0	5.667492970801834e+17
19231.0	5.6664262523398816e+17
19232.0	5.665352337151315e+17
19233.0	5.664167424600745e+17
19234.0	5.663219509100543e+17
19235.0	5.662131566761301e+17
19236.0	5.661166152624809e+17
19237.0	5.660051691798526e+17
19238.0	5.658791259406336e+17
19239.0	5.657979602862079e+17
19240.0	5.656415708381181e+17
19241.0	5.655667984913749e+17
19242.0	5.654722510498473e+17
19243.0	5.65325810840371e+17
19244.0	5.652648020322985e+17
19245.0	5.651575670308863e+17
19246.0	5.6504815770228045e+17
19247.0	5.6494275442333e+17
19248.0	5.648398220787711e+17
19249.0	5.6473304817117856e+17
19250.0	5.646217743346347e+17
19251.0	5.644984065021266e+17
19252.0	5.6432808071004154e+17
19253.0	5.6430164918490445e+17
19254.0	5.641940924104703e+17
19255.0	5.6404066903435936e+17
19256.0	5.63983187705856e+17
19257.0	5.638818417868798e+17
19258.0	5.6377595972812794e+17
19259.0	5.636485853566291e+17
19260.0	5.6353878351107405e+17
19261.0	5.6345375259579725e+17
19262.0	5.633347139141632e+17
19263.0	5.632309336910505e+17
19264.0	5.629992139838803e+17
19265.0	5.6297852942417894e+17
19266.0	5.6287747556857165e+17
19267.0	5.6281887415118496e+17
19268.0	5.627104208442708e+17
19269.0	5.6260405658036896e+17
19270.0	5.6249820297297914e+17
19271.0	5.62303826901948e+17
19272.0	5.622763540010324e+17
19273.0	5.6085380190262426e+17
19274.0	5.61423412503073e+17
19275.0	5.619668538621951e+17
19276.0	5.6185505832413856e+17
19277.0	5.6174894536895136e+17
19278.0	5.616434371624958e+17
19279.0	5.615273014285652e+17
19280.0	5.614064134782975e+17
19281.0	5.613226489632084e+17
19282.0	5.612195289934506e+17
19283.0	5.610962147082238e+17
19284.0	5.609733125832702e+17
19285.0	5.608444379791358e+17
19286.0	5.6078415157002234e+17
19287.0	5.6068663770699085e+17
19288.0	5.6029395850799776e+17
19289.0	5.5953155973010566e+17
19290.0	5.6036703383934285e+17
19291.0	5.6019202545636717e+17
19292.0	5.6015302346233165e+17
19293.0	5.600442510387881e+17
19294.0	5.599362189099007e+17
19295.0	5.5983216612693325e+17
19296.0	5.597232189407231e+17
19297.0	5.5960981929110176e+17
19298.0	5.595021120809641e+17
19299.0	5.594026112363177e+17
19300.0	5.59295137648913e+17
19301.0	5.5918587323351034e+17
19302.0	5.5907791527389856e+17
19303.0	5.589477086287187e+17
19304.0	5.588507700144809e+17
19305.0	5.587523903072937e+17
19306.0	5.5864638011255456e+17
19307.0	5.585264881696767e+17
19308.0	5.584256802400937e+17
19309.0	5.582862601770323e+17
19310.0	5.581580960879955e+17
19311.0	5.5809786756027725e+17
19312.0	5.5799606026786125e+17
19313.0	5.578795257954303e+17
19314.0	5.568712499265513e+17
19315.0	5.5685272137892045e+17
19316.0	5.5756679212782925e+17
19317.0	5.574567272994133e+17
19318.0	5.5734714901026125e+17
19319.0	5.5724264380170234e+17
19320.0	5.5713047867555834e+17
19321.0	5.570247541129215e+17
19322.0	5.568857552278867e+17
19323.0	5.5678583229644794e+17
19324.0	5.566954170133162e+17
19325.0	5.5655395621164365e+17
19326.0	5.564767524967764e+17
19327.0	5.563629434131796e+17
19328.0	5.5625796900181325e+17
19329.0	5.5614764230901754e+17
19330.0	5.5602587208690336e+17
19331.0	5.559151416923476e+17
19332.0	5.5581509971258016e+17
19333.0	5.557001882959871e+17
19334.0	5.555882333044736e+17
19335.0	5.55481305326114e+17
19336.0	5.553691927685802e+17
19337.0	5.552564637182635e+17
19338.0	5.550910340071423e+17
19339.0	5.550325194118484e+17
19340.0	5.5489749050545485e+17
19341.0	5.548054969057278e+17
19342.0	5.5458840084916883e+17
19343.0	5.545812016758783e+17
19344.0	5.5446344798917965e+17
19345.0	5.537707498056347e+17
19346.0	5.541036108895576e+17
19347.0	5.541068048520532e+17
19348.0	5.5400928162174285e+17
19349.0	5.538336491962366e+17
19350.0	5.5369984628490234e+17
19351.0	5.535794001346558e+17
19352.0	5.534551615646377e+17
19353.0	5.5334118142334285e+17
19354.0	5.532170766516224e+17
19355.0	5.5307291667551584e+17
19356.0	5.529800881296724e+17
19357.0	5.528596025529685e+17
19358.0	5.5273048544815776e+17
19359.0	5.5254933954013875e+17
19360.0	5.5248899252333216e+17
19361.0	5.523654757930323e+17
19362.0	5.5225674838835194e+17
19363.0	5.5213292715158176e+17
19364.0	5.5200728132266656e+17
19365.0	5.51883234152721e+17
19366.0	5.517591704152745e+17
19367.0	5.516327863189503e+17
19368.0	5.5150614846723405e+17
19369.0	5.513493810424489e+17
19370.0	5.510911341800105e+17
19371.0	5.5110454343980365e+17
19372.0	5.509881180192767e+17
19373.0	5.508483255719252e+17
19374.0	5.507201447755775e+17
19375.0	5.5053924724026016e+17
19376.0	5.5036070012299936e+17
19377.0	5.5022082546728954e+17
19378.0	5.5008268284941645e+17
19379.0	5.499413493448703e+17
19380.0	5.497994803675134e+17
19381.0	5.4965335333273594e+17
19382.0	5.494851885858815e+17
19383.0	5.4933232745622176e+17
19384.0	5.492103288542549e+17
19385.0	5.4905681802690554e+17
19386.0	5.48902725100066e+17
19387.0	5.486375705684649e+17
19388.0	5.484733733535743e+17
19389.0	5.4831078828933114e+17
19390.0	5.481441515274239e+17
19391.0	5.4677682051699866e+17
19392.0	5.477985769488383e+17
19393.0	5.476175227562666e+17
19394.0	5.4730987307444896e+17
19395.0	5.471231360193876e+17
19396.0	5.469334893756415e+17
19397.0	5.4674267370946554e+17
19398.0	5.464898272231423e+17
19399.0	5.459904204636156e+17
19400.0	5.459581006249983e+17
19401.0	5.4574995933757434e+17
19402.0	5.4538433409843194e+17
19403.0	5.4510950072101536e+17
19404.0	5.448666437386239e+17
19405.0	5.4441159419057485e+17
19406.0	5.4415354823529805e+17
19407.0	5.4369564460318694e+17
19408.0	5.431751346924207e+17
19409.0	5.42805481034001e+17
19410.0	5.424472469973674e+17
19411.0	5.4202958743251616e+17
19412.0	5.4167922498600954e+17
19413.0	5.41278445048081e+17
19414.0	5.4089850534843725e+17
19415.0	5.4051543131531936e+17
19416.0	5.4006997525899936e+17
19417.0	5.396670347651754e+17
19418.0	5.392417053562196e+17
19419.0	5.387685025808383e+17
19420.0	5.382371975801513e+17
19421.0	5.376667116983637e+17
19422.0	5.371016646404778e+17
19423.0	5.365221520572415e+17
19424.0	5.3580936469544966e+17
19425.0	5.3512161299442336e+17
19426.0	5.343348687983956e+17
19427.0	5.334773166418602e+17
19428.0	5.325469081665533e+17
19429.0	5.315098714658132e+17
19430.0	5.302771566422702e+17
19431.0	5.2864798243334925e+17
19432.0	5.272030426081962e+17
19433.0	5.2509334076129274e+17
19434.0	5.2247650414974304e+17
19435.0	5.2045976443726483e+17
19436.0	5.185935601128787e+17
19437.0	5.1674028039645856e+17
19438.0	5.128553137963003e+17
19439.0	5.1224880073058976e+17
19440.0	5.0960799031623686e+17
19441.0	5.0651079579620704e+17
19442.0	5.025613166062251e+17
19443.0	4.968772221796348e+17
19444.0	4.903752724469073e+17
19445.0	4.848308775638359e+17
19446.0	4.7804072315234976e+17
19447.0	4.68259473824152e+17
19448.0	4.557569934753798e+17
19449.0	4.378434464994643e+17
19450.0	3.995200358361756e+17
19451.0	3.879525326782455e+17
19452.0	4.204287161445043e+17
19453.0	4.484007158175067e+17
19454.0	4.6175235810699904e+17
19455.0	4.732379239983787e+17
19456.0	4.8089636239223494e+17
19457.0	4.8676713354581306e+17
19458.0	4.9063218656925216e+17
19459.0	4.9872804515239264e+17
19460.0	5.03129520576921e+17
19461.0	5.063812048049494e+17
19462.0	5.090176232237741e+17
19463.0	5.113286298522964e+17
19464.0	5.133362275199658e+17
19465.0	5.1520342862069754e+17
19466.0	5.1681268072447974e+17
19467.0	5.184137238762833e+17
19468.0	5.2067721351441043e+17
19469.0	5.2263526386892826e+17
19470.0	5.245214751632042e+17
19471.0	5.2582400837113146e+17
19472.0	5.269240052798804e+17
19473.0	5.278481705336832e+17
19474.0	5.286413451569835e+17
19475.0	5.2907586162961024e+17
19476.0	5.299437544232276e+17
19477.0	5.3043562345922554e+17
19478.0	5.309562816386387e+17
19479.0	5.313919367249919e+17
19480.0	5.3175293802359456e+17
19481.0	5.3209473919658656e+17
19482.0	5.3248065305313274e+17
19483.0	5.3277108903171405e+17
19484.0	5.3301806831588685e+17
19485.0	5.332390320100692e+17
19486.0	5.334572459185492e+17
19487.0	5.336568356492627e+17
19488.0	5.338358105156266e+17
19489.0	5.339909355208704e+17
19490.0	5.33820398615483e+17
19491.0	5.343124508726613e+17
19492.0	5.34578387152623e+17
19493.0	5.3477530525149856e+17
19494.0	5.35017210056977e+17
19495.0	5.351962944645799e+17
19496.0	5.3527745634413203e+17
19497.0	5.3546035134682445e+17
19498.0	5.356334601994241e+17
19499.0	5.337221707420988e+17
19500.0	5.3578983356934803e+17
19501.0	5.3592230346096634e+17
19502.0	5.359333081262762e+17
19503.0	5.3594004047353165e+17
19504.0	5.3603314088017914e+17
19505.0	5.360827100736171e+17
19506.0	5.360743755022335e+17
19507.0	5.3605289115866445e+17
19508.0	5.3604029545403725e+17
19509.0	5.360872749443754e+17
19510.0	5.360628229210111e+17
19511.0	5.340861588045805e+17
19512.0	5.358273414823923e+17
19513.0	5.353852668739571e+17
19514.0	5.3561141661532115e+17
19515.0	5.3578744610160704e+17
19516.0	5.358809776127999e+17
19517.0	5.359175736142505e+17
19518.0	5.358872072028159e+17
19519.0	5.3583292633797965e+17
19520.0	5.357705504664234e+17
19521.0	5.3572233910900045e+17
19522.0	5.356523903516671e+17
19523.0	5.356037913007444e+17
19524.0	5.355413466426026e+17
19525.0	5.354673808605183e+17
19526.0	5.354120704338602e+17
19527.0	5.353428116395349e+17
19528.0	5.3527669374976e+17
19529.0	5.3520706250123936e+17
19530.0	5.351667568476159e+17
19531.0	5.35152438682146e+17
19532.0	5.3507951343697914e+17
19533.0	5.350067500220415e+17
19534.0	5.349327320907775e+17
19535.0	5.3485133784678394e+17
19536.0	5.347711489758549e+17
19537.0	5.3470379740146336e+17
19538.0	5.346184015817386e+17
19539.0	5.3439021963018323e+17
19540.0	5.344615663490389e+17
19541.0	5.3438940768283296e+17
19542.0	5.343071692652543e+17
19543.0	5.342258506585428e+17
19544.0	5.3414524319607456e+17
19545.0	5.3397664140274266e+17
19546.0	5.3372095746976435e+17
19547.0	5.3389754955202554e+17
19548.0	5.338153686663167e+17
19549.0	5.337035411816447e+17
19550.0	5.3364656386867194e+17
19551.0	5.33562202923554e+17
19552.0	5.3347606673926816e+17
19553.0	5.333859296083967e+17
19554.0	5.332925705530026e+17
19555.0	5.33214067302946e+17
19556.0	5.331305213110954e+17
19557.0	5.3304301323987616e+17
19558.0	5.329553564805803e+17
19559.0	5.3286327843553274e+17
19560.0	5.3277314675725645e+17
19561.0	5.326843616602794e+17
19562.0	5.326011675006292e+17
19563.0	5.3251376519577594e+17
19564.0	5.3242479443094176e+17
19565.0	5.323346446472532e+17
19566.0	5.322379968380926e+17
19567.0	5.321560527907497e+17
19568.0	5.3205904545983136e+17
19569.0	5.319699835387904e+17
19570.0	5.318854653072724e+17
19571.0	5.317951639693994e+17
19572.0	5.3173302885089274e+17
19573.0	5.3167395012171085e+17
19574.0	5.315594798759935e+17
19575.0	5.3149340728470176e+17
19576.0	5.3140234167473485e+17
19577.0	5.3129081736833696e+17
19578.0	5.312086433333247e+17
19579.0	5.311204936734036e+17
19580.0	5.3103008398267725e+17
19581.0	5.3093947750918816e+17
19582.0	5.308523248353279e+17
19583.0	5.3075978276044794e+17
19584.0	5.3066697252973216e+17
19585.0	5.305444752250196e+17
19586.0	5.304439954997248e+17
19587.0	5.303794509632853e+17
19588.0	5.301698596350635e+17
19589.0	5.301958559312554e+17
19590.0	5.300858308788223e+17
19591.0	5.3001538978010445e+17
19592.0	5.2992338751214925e+17
19593.0	5.2982532978769914e+17
19594.0	5.296692239444648e+17
19595.0	5.2963781874373965e+17
19596.0	5.293601891636566e+17
19597.0	5.294524596573525e+17
19598.0	5.2927673439791763e+17
19599.0	5.292675141992447e+17
19600.0	5.2917587341038925e+17
19601.0	5.290648322179071e+17
19602.0	5.289780477340329e+17
19603.0	5.2877283330184506e+17
19604.0	5.287892573574485e+17
19605.0	5.2862562343758515e+17
19606.0	5.2860931067084794e+17
19607.0	5.2851698327442765e+17
19608.0	5.284204504591017e+17
19609.0	5.2831461677465594e+17
19610.0	5.2823630779077965e+17
19611.0	5.2813911283466234e+17
19612.0	5.280484685425322e+17
19613.0	5.27950457934097e+17
19614.0	5.2784898800353274e+17
19615.0	5.277650328573268e+17
19616.0	5.2766080097757856e+17
19617.0	5.275755200118782e+17
19618.0	5.273490317202771e+17
19619.0	5.2719992819766566e+17
19620.0	5.271209863632209e+17
19621.0	5.271960268658004e+17
19622.0	5.2710396825436154e+17
19623.0	5.2701012189074765e+17
19624.0	5.269128739465898e+17
19625.0	5.2682080380081485e+17
19626.0	5.267232837162325e+17
19627.0	5.2663167214769485e+17
19628.0	5.2650862224343046e+17
19629.0	5.2641891628701e+17
19630.0	5.263369672764074e+17
19631.0	5.250589848677026e+17
19632.0	5.261566614175743e+17
19633.0	5.260511636968787e+17
19634.0	5.2596890388834976e+17
19635.0	5.258641478604117e+17
19636.0	5.2577688166072314e+17
19637.0	5.255855059151532e+17
19638.0	5.255868088057855e+17
19639.0	5.2549290246362445e+17
19640.0	5.253851656137386e+17
19641.0	5.2510430544090534e+17
19642.0	5.252086033809407e+17
19643.0	5.251094742914389e+17
19644.0	5.2500595795995296e+17
19645.0	5.248566993879038e+17
19646.0	5.2483267392525645e+17
19647.0	5.247382467903487e+17
19648.0	5.2464226692410016e+17
19649.0	5.245466867051177e+17
19650.0	5.244538815774719e+17
19651.0	5.2435737770284365e+17
19652.0	5.242620679465642e+17
19653.0	5.241690113703935e+17
19654.0	5.240723252532564e+17
19655.0	5.2397573085156685e+17
19656.0	5.238833538924542e+17
19657.0	5.2378842574793376e+17
