# Flux units: erg / (cm m2 s)
# Wavelength units: Angstrom
wave	flux
19000.0	7.187814880553641e+17
19001.0	7.18612021256738e+17
19002.0	7.185148228752723e+17
19003.0	7.183790134089046e+17
19004.0	7.182447045246975e+17
19005.0	7.181104944862547e+17
19006.0	7.179760197872297e+17
19007.0	7.17804424798754e+17
19008.0	7.176851814350845e+17
19009.0	7.175304240605866e+17
19010.0	7.172857914195964e+17
19011.0	7.172877670765908e+17
19012.0	7.17085544301636e+17
19013.0	7.170346710291795e+17
19014.0	7.168781252034557e+17
19015.0	7.167534342777513e+17
19016.0	7.166151953306964e+17
19017.0	7.16481902866159e+17
19018.0	7.163559370118484e+17
19019.0	7.162251176487594e+17
19020.0	7.160811431307945e+17
19021.0	7.15956117639441e+17
19022.0	7.158247113534122e+17
19023.0	7.156765414129661e+17
19024.0	7.155502405735764e+17
19025.0	7.15414591189811e+17
19026.0	7.152735835826857e+17
19027.0	7.150922481620308e+17
19028.0	7.150189440314025e+17
19029.0	7.148785905958911e+17
19030.0	7.147538311632211e+17
19031.0	7.146219201626111e+17
19032.0	7.144865499796819e+17
19033.0	7.143183140694697e+17
19034.0	7.142114476774739e+17
19035.0	7.140617339535357e+17
19036.0	7.095477340908206e+17
19037.0	7.138059626392233e+17
19038.0	7.136568663168339e+17
19039.0	7.135301558337535e+17
19040.0	7.133976279908351e+17
19041.0	7.132593331197267e+17
19042.0	7.130956719368874e+17
19043.0	7.129950958824105e+17
19044.0	7.12855385154082e+17
19045.0	7.127236276649983e+17
19046.0	7.12568039818308e+17
19047.0	7.124460585527977e+17
19048.0	7.122497202465449e+17
19049.0	7.121615563958953e+17
19050.0	7.120351397937151e+17
19051.0	7.112780890330447e+17
19052.0	7.116225336661331e+17
19053.0	7.116404542494036e+17
19054.0	7.1151357277853e+17
19055.0	7.112872095470932e+17
19056.0	7.112375109593769e+17
19057.0	7.111088197861373e+17
19058.0	7.109645875980969e+17
19059.0	7.108421445397161e+17
19060.0	7.107014315125417e+17
19061.0	7.10576251670801e+17
19062.0	7.104391672758271e+17
19063.0	7.10306366104098e+17
19064.0	7.101229893156863e+17
19065.0	7.09970709516561e+17
19066.0	7.0988225066653e+17
19067.0	7.097632919562921e+17
19068.0	7.096346095910911e+17
19069.0	7.095003227968851e+17
19070.0	7.093556626500266e+17
19071.0	7.092287227385172e+17
19072.0	7.090977156104191e+17
19073.0	7.0896110810781e+17
19074.0	7.088302707092136e+17
19075.0	7.086961005166591e+17
19076.0	7.085545451334314e+17
19077.0	7.084220118379177e+17
19078.0	7.082771678407336e+17
19079.0	7.081569458061311e+17
19080.0	7.080173611865428e+17
19081.0	7.078756194364074e+17
19082.0	7.077390650616489e+17
19083.0	7.075772088276308e+17
19084.0	7.073967344975872e+17
19085.0	7.073479332113066e+17
19086.0	7.070749519686314e+17
19087.0	7.06942644326673e+17
19088.0	7.069093457472169e+17
19089.0	7.066790496567296e+17
19090.0	7.066694716839251e+17
19091.0	7.065356538129066e+17
19092.0	7.063618671607807e+17
19093.0	7.062793355613523e+17
19094.0	7.06144934821888e+17
19095.0	7.060114620022783e+17
19096.0	7.05871453618176e+17
19097.0	7.057427165872125e+17
19098.0	7.056088138514432e+17
19099.0	7.054740542193663e+17
19100.0	7.053340241646931e+17
19101.0	7.052038846982825e+17
19102.0	7.05040663917363e+17
19103.0	7.049379135356927e+17
19104.0	7.048066167209983e+17
19105.0	7.046709825765375e+17
19106.0	7.045121371537408e+17
19107.0	7.043967356327252e+17
19108.0	7.042695787358889e+17
19109.0	7.037224956723194e+17
19110.0	7.039797085689171e+17
19111.0	7.038672715819689e+17
19112.0	7.037347533859497e+17
19113.0	7.036005488700073e+17
19114.0	7.034150008302249e+17
19115.0	7.032513743902036e+17
19116.0	7.031343301700266e+17
19117.0	7.029978344456191e+17
19118.0	7.028210887120214e+17
19119.0	7.016406843391987e+17
19120.0	7.025655080987306e+17
19121.0	7.024450810325674e+17
19122.0	7.023405487707476e+17
19123.0	7.022056390524927e+17
19124.0	7.020502184886271e+17
19125.0	7.019322595606527e+17
19126.0	7.018009400967167e+17
19127.0	7.010434460680192e+17
19128.0	7.012928713304744e+17
19129.0	7.01374123876898e+17
19130.0	7.012605711351807e+17
19131.0	7.011268924451497e+17
19132.0	7.010004852102484e+17
19133.0	7.00730126036719e+17
19134.0	7.006291690695338e+17
19135.0	7.005983930843136e+17
19136.0	7.004685091908265e+17
19137.0	7.002767751817897e+17
19138.0	7.001824962456233e+17
19139.0	7.000665668714495e+17
19140.0	6.999342374890153e+17
19141.0	6.998004187092306e+17
19142.0	6.99656758624256e+17
19143.0	6.995128602329087e+17
19144.0	6.993839059369983e+17
19145.0	6.992620407138985e+17
19146.0	6.989169555406848e+17
19147.0	6.989556756075862e+17
19148.0	6.988618533612202e+17
19149.0	6.987274920482131e+17
19150.0	6.985946125828095e+17
19151.0	6.984621289897983e+17
19152.0	6.983230694970708e+17
19153.0	6.981908207151785e+17
19154.0	6.980169323511807e+17
19155.0	6.979289344551593e+17
19156.0	6.977952767366484e+17
19157.0	6.976513023584938e+17
19158.0	6.972395416627878e+17
19159.0	6.973866784762538e+17
19160.0	6.97250839859473e+17
19161.0	6.971051762253823e+17
19162.0	6.96352860833929e+17
19163.0	6.968268916348244e+17
19164.0	6.967278376932691e+17
19165.0	6.965801390527828e+17
19166.0	6.964081963565055e+17
19167.0	6.962668397832873e+17
19168.0	6.961683265574227e+17
19169.0	6.960360598099284e+17
19170.0	6.959264483857747e+17
19171.0	6.957554854090068e+17
19172.0	6.956554652396201e+17
19173.0	6.95525157511714e+17
19174.0	6.953722554875901e+17
19175.0	6.95260216959522e+17
19176.0	6.951253100374697e+17
19177.0	6.94937596198912e+17
19178.0	6.948413093795156e+17
19179.0	6.946753707595092e+17
19180.0	6.945655791899988e+17
19181.0	6.944235795600723e+17
19182.0	6.943091591566676e+17
19183.0	6.941884185662803e+17
19184.0	6.940347480757587e+17
19185.0	6.939188746256383e+17
19186.0	6.937910423759529e+17
19187.0	6.936283481899007e+17
19188.0	6.935203124958548e+17
19189.0	6.933801194924713e+17
19190.0	6.932438216693076e+17
19191.0	6.931058638105257e+17
19192.0	6.929871632596991e+17
19193.0	6.928403268283049e+17
19194.0	6.927096324554751e+17
19195.0	6.925849514562899e+17
19196.0	6.924465355096063e+17
19197.0	6.923126619941546e+17
19198.0	6.921668345025876e+17
19199.0	6.883609912104265e+17
19200.0	6.892317882799459e+17
19201.0	6.917688613229907e+17
19202.0	6.916487442857983e+17
19203.0	6.915090536901289e+17
19204.0	6.913754523850067e+17
19205.0	6.912473783336959e+17
19206.0	6.911097386827775e+17
19207.0	6.909417257697279e+17
19208.0	6.907838969064105e+17
19209.0	6.907099668458153e+17
19210.0	6.905790542293674e+17
19211.0	6.904498981874346e+17
19212.0	6.903154258651817e+17
19213.0	6.901238111840937e+17
19214.0	6.899599181960532e+17
19215.0	6.898984062113108e+17
19216.0	6.897774508725588e+17
19217.0	6.896446280302592e+17
19218.0	6.892103920167589e+17
19219.0	6.893196029547859e+17
19220.0	6.892331220686166e+17
19221.0	6.889922787715754e+17
19222.0	6.889698444181503e+17
19223.0	6.888328996235946e+17
19224.0	6.886851156989267e+17
19225.0	6.885161750757373e+17
19226.0	6.884296084160511e+17
19227.0	6.882948168373588e+17
19228.0	6.881697300392617e+17
19229.0	6.880363693473791e+17
19230.0	6.878884463116287e+17
19231.0	6.877555296567295e+17
19232.0	6.876240781421226e+17
19233.0	6.874707376035155e+17
19234.0	6.873534164893695e+17
19235.0	6.872146732471636e+17
19236.0	6.870936224180905e+17
19237.0	6.869520178216959e+17
19238.0	6.867865486841172e+17
19239.0	6.866891628871679e+17
19240.0	6.865123229215401e+17
19241.0	6.863953739819689e+17
19242.0	6.862744415720788e+17
19243.0	6.860846707769341e+17
19244.0	6.860142747669844e+17
19245.0	6.85877256921634e+17
19246.0	6.857370532926803e+17
19247.0	6.856047987785727e+17
19248.0	6.854723079853395e+17
19249.0	6.85334687977745e+17
19250.0	6.851944117873322e+17
19251.0	6.850097085502804e+17
19252.0	6.848295391461375e+17
19253.0	6.84786096153122e+17
19254.0	6.846516819918847e+17
19255.0	6.844584685120168e+17
19256.0	6.84359998906914e+17
19257.0	6.842479582117887e+17
19258.0	6.841129631394474e+17
19259.0	6.839521264009215e+17
19260.0	6.837596312655187e+17
19261.0	6.836977752779433e+17
19262.0	6.835452149497855e+17
19263.0	6.834038473315667e+17
19264.0	6.831041850026662e+17
19265.0	6.830869306845865e+17
19266.0	6.829640947597312e+17
19267.0	6.828820431983955e+17
19268.0	6.827418794852352e+17
19269.0	6.826053450334207e+17
19270.0	6.824671955648511e+17
19271.0	6.822099111553708e+17
19272.0	6.821784558327123e+17
19273.0	6.808576674758647e+17
19274.0	6.811851701966157e+17
19275.0	6.817778346491903e+17
19276.0	6.816323194235561e+17
19277.0	6.814945993818111e+17
19278.0	6.813560931876863e+17
19279.0	6.812033305542655e+17
19280.0	6.810490477652649e+17
19281.0	6.80936454890018e+17
19282.0	6.808028279996415e+17
19283.0	6.806015772546388e+17
19284.0	6.804318016853331e+17
19285.0	6.803070247064916e+17
19286.0	6.802300836249599e+17
19287.0	6.801024975809194e+17
19288.0	6.785757544273219e+17
19289.0	6.771480640268941e+17
19290.0	6.796801430519807e+17
19291.0	6.794415573390678e+17
19292.0	6.793965440685395e+17
19293.0	6.792523294266708e+17
19294.0	6.791089272214867e+17
19295.0	6.789704620616362e+17
19296.0	6.788252690983593e+17
19297.0	6.786737718864553e+17
19298.0	6.785300942553087e+17
19299.0	6.783970674300244e+17
19300.0	6.782524186077865e+17
19301.0	6.781064182409897e+17
19302.0	6.779559549250217e+17
19303.0	6.777900383251113e+17
19304.0	6.776562935048874e+17
19305.0	6.775197647852883e+17
19306.0	6.773753367232511e+17
19307.0	6.772121913698985e+17
19308.0	6.770717669807444e+17
19309.0	6.768005402853373e+17
19310.0	6.76606372042069e+17
19311.0	6.766084486419796e+17
19312.0	6.764136028788051e+17
19313.0	6.762605544734719e+17
19314.0	6.73623115161056e+17
19315.0	6.735523996849508e+17
19316.0	6.758082093427369e+17
19317.0	6.756681538426198e+17
19318.0	6.755152545447933e+17
19319.0	6.753683452024148e+17
19320.0	6.752153556571476e+17
19321.0	6.750640291534163e+17
19322.0	6.748636874539008e+17
19323.0	6.74699635991074e+17
19324.0	6.745996059650729e+17
19325.0	6.743305863124308e+17
19326.0	6.742905385385983e+17
19327.0	6.741327455365801e+17
19328.0	6.739810308500137e+17
19329.0	6.738239025053695e+17
19330.0	6.736517470180691e+17
19331.0	6.734893914521597e+17
19332.0	6.733415233617919e+17
19333.0	6.731757743243263e+17
19334.0	6.730185590876842e+17
19335.0	6.728593677746175e+17
19336.0	6.726930740368723e+17
19337.0	6.725285977609556e+17
19338.0	6.722876802247336e+17
19339.0	6.721963663818751e+17
19340.0	6.720079564286633e+17
19341.0	6.718505957894825e+17
19342.0	6.715466767313574e+17
19343.0	6.715188804496042e+17
19344.0	6.712796321065642e+17
19345.0	6.704337506708129e+17
19346.0	6.705519755176613e+17
19347.0	6.706937920662185e+17
19348.0	6.705415734340265e+17
19349.0	6.703491378577407e+17
19350.0	6.701717135556607e+17
19351.0	6.699882689593343e+17
19352.0	6.697916248184148e+17
19353.0	6.696355496635049e+17
19354.0	6.694500063772671e+17
19355.0	6.692260090828116e+17
19356.0	6.690717453079892e+17
19357.0	6.688791806170452e+17
19358.0	6.686698261970943e+17
19359.0	6.6837221488285e+17
19360.0	6.681346890705576e+17
19361.0	6.679385637650432e+17
19362.0	6.677514653706921e+17
19363.0	6.675467393652052e+17
19364.0	6.673394520380755e+17
19365.0	6.671290772837716e+17
19366.0	6.66918999695906e+17
19367.0	6.667051326941865e+17
19368.0	6.664819581823657e+17
19369.0	6.660417099836073e+17
19370.0	6.657250693917353e+17
19371.0	6.656161279377407e+17
19372.0	6.654040084927827e+17
19373.0	6.651610281978538e+17
19374.0	6.649304525570047e+17
19375.0	6.645727083451732e+17
19376.0	6.642204855151274e+17
19377.0	6.639659775950847e+17
19378.0	6.63712592699938e+17
19379.0	6.634541549966676e+17
19380.0	6.63016002691618e+17
19381.0	6.626440599917908e+17
19382.0	6.623427211995817e+17
19383.0	6.620464161314132e+17
19384.0	6.615292591472637e+17
19385.0	6.611589073469439e+17
19386.0	6.608419797947731e+17
19387.0	6.60285800334404e+17
19388.0	6.59832017326353e+17
19389.0	6.595020111653542e+17
19390.0	6.58727445480516e+17
19391.0	6.548452968234966e+17
19392.0	6.57674071965695e+17
19393.0	6.574097207132159e+17
19394.0	6.570314344082089e+17
19395.0	6.566409568692906e+17
19396.0	6.562451578071722e+17
19397.0	6.558489875491498e+17
19398.0	6.554244127653887e+17
19399.0	6.547798150698323e+17
19400.0	6.54467070706756e+17
19401.0	6.540354311072426e+17
19402.0	6.535707366173353e+17
19403.0	6.530818630134442e+17
19404.0	6.525891882516479e+17
19405.0	6.520697792058707e+17
19406.0	6.515084446662655e+17
19407.0	6.508868639129597e+17
19408.0	6.500775995899905e+17
19409.0	6.497119920368298e+17
19410.0	6.490838965507414e+17
19411.0	6.483365335138301e+17
19412.0	6.476783271892308e+17
19413.0	6.469125277395628e+17
19414.0	6.460723001556991e+17
19415.0	6.452585088505172e+17
19416.0	6.442333007162026e+17
19417.0	6.43241139503104e+17
19418.0	6.422395898997421e+17
19419.0	6.410064429230758e+17
19420.0	6.396115260451496e+17
19421.0	6.380286215804247e+17
19422.0	6.361729049733798e+17
19423.0	6.341050773798917e+17
19424.0	6.321110111660714e+17
19425.0	6.307077730686291e+17
19426.0	6.292396469911551e+17
19427.0	6.276674585537196e+17
19428.0	6.26085534507554e+17
19429.0	6.243903418138621e+17
19430.0	6.224882023006209e+17
19431.0	6.200711377321989e+17
19432.0	6.186499106144255e+17
19433.0	6.164742261440512e+17
19434.0	6.141513543188479e+17
19435.0	6.114906445185019e+17
19436.0	6.083397629072723e+17
19437.0	6.0507548493196e+17
19438.0	5.969301731278857e+17
19439.0	5.948956869656576e+17
19440.0	5.906934618128383e+17
19441.0	5.86216730997555e+17
19442.0	5.8125544573283e+17
19443.0	5.7548829423042534e+17
19444.0	5.683636245714255e+17
19445.0	5.5919419256558957e+17
19446.0	5.4962675536363514e+17
19447.0	5.385002085427874e+17
19448.0	5.239586805863773e+17
19449.0	5.050904332642987e+17
19450.0	4.767092412776398e+17
19451.0	4.6846050744401946e+17
19452.0	4.912821269692422e+17
19453.0	5.153471886000136e+17
19454.0	5.3135157486769446e+17
19455.0	5.438142298805587e+17
19456.0	5.53566298736777e+17
19457.0	5.629942233213605e+17
19458.0	5.6783474527655565e+17
19459.0	5.766852382818317e+17
19460.0	5.820406976653993e+17
19461.0	5.865006398701567e+17
19462.0	5.906087770674516e+17
19463.0	5.954902149474977e+17
19464.0	6.002961241079814e+17
19465.0	6.039586825655639e+17
19466.0	6.06879274657382e+17
19467.0	6.094472885917012e+17
19468.0	6.116648856234666e+17
19469.0	6.134849375043581e+17
19470.0	6.155066025181183e+17
19471.0	6.172439302111232e+17
19472.0	6.188756535782057e+17
19473.0	6.2035585414813e+17
19474.0	6.21771016372224e+17
19475.0	6.228864934084605e+17
19476.0	6.243473896243199e+17
19477.0	6.255460686495744e+17
19478.0	6.268745752947372e+17
19479.0	6.288632987342162e+17
19480.0	6.305521766236155e+17
19481.0	6.319685240182099e+17
19482.0	6.331764205158396e+17
19483.0	6.342012872338093e+17
19484.0	6.350893638571348e+17
19485.0	6.359576147744083e+17
19486.0	6.365875864425814e+17
19487.0	6.373054965175636e+17
19488.0	6.378023391592448e+17
19489.0	6.383791959091881e+17
19490.0	6.38450688869444e+17
19491.0	6.392714626422099e+17
19492.0	6.397732705009663e+17
19493.0	6.401224862946644e+17
19494.0	6.404510737323348e+17
19495.0	6.407715611301203e+17
19496.0	6.41035659396164e+17
19497.0	6.414211952760148e+17
19498.0	6.409517904429051e+17
19499.0	6.365640413675519e+17
19500.0	6.421533311718739e+17
19501.0	6.423651533105833e+17
19502.0	6.425860080926719e+17
19503.0	6.428137985059497e+17
19504.0	6.429849366648148e+17
19505.0	6.431503327515988e+17
19506.0	6.433050900561919e+17
19507.0	6.434389609851562e+17
19508.0	6.435760036468052e+17
19509.0	6.436955657076735e+17
19510.0	6.438899445050025e+17
19511.0	6.388291532226548e+17
19512.0	6.433084415847082e+17
19513.0	6.430784748868929e+17
19514.0	6.435470870664517e+17
19515.0	6.44918067121357e+17
19516.0	6.452947605695146e+17
19517.0	6.453325460056746e+17
19518.0	6.455493641196884e+17
19519.0	6.457682189877247e+17
19520.0	6.457896780256595e+17
19521.0	6.458246387378857e+17
19522.0	6.459418537361405e+17
19523.0	6.461140338999295e+17
19524.0	6.461214957065556e+17
19525.0	6.461137569360553e+17
19526.0	6.461204420973907e+17
19527.0	6.4618420006202e+17
19528.0	6.463147271520255e+17
19529.0	6.462990729609213e+17
19530.0	6.462857745705642e+17
19531.0	6.462665846510931e+17
19532.0	6.462413865309523e+17
19533.0	6.46215014355217e+17
19534.0	6.462559787941887e+17
19535.0	6.463124641852074e+17
19536.0	6.462682513975978e+17
19537.0	6.462421168990889e+17
19538.0	6.461506983384404e+17
19539.0	6.459847256746669e+17
19540.0	6.461005515194368e+17
19541.0	6.460611892346877e+17
19542.0	6.460091438639785e+17
19543.0	6.459555071743316e+17
19544.0	6.459331295838208e+17
19545.0	6.457947330008404e+17
19546.0	6.456269983099561e+17
19547.0	6.458575203336191e+17
19548.0	6.457937163015508e+17
19549.0	6.456960499755689e+17
19550.0	6.456660553891839e+17
19551.0	6.455999778346323e+17
19552.0	6.455309240019625e+17
19553.0	6.454515150618623e+17
19554.0	6.453760105294506e+17
19555.0	6.453114397087059e+17
19556.0	6.452419904929792e+17
19557.0	6.451660296901972e+17
19558.0	6.450890372983465e+17
19559.0	6.450081885235881e+17
19560.0	6.449237899695444e+17
19561.0	6.448437264384e+17
19562.0	6.448370581241855e+17
19563.0	6.447880570492246e+17
19564.0	6.447045167196842e+17
19565.0	6.446198054103721e+17
19566.0	6.445255728911699e+17
19567.0	6.444498582241279e+17
19568.0	6.443526080430079e+17
19569.0	6.442689808913748e+17
19570.0	6.441878629821098e+17
19571.0	6.440970653182634e+17
19572.0	6.439973548982271e+17
19573.0	6.439093025461588e+17
19574.0	6.437957572842836e+17
19575.0	6.437343211465386e+17
19576.0	6.436426002464767e+17
19577.0	6.435365826418004e+17
19578.0	6.434395214140756e+17
19579.0	6.433515226092884e+17
19580.0	6.43256128966929e+17
19581.0	6.431666188146004e+17
19582.0	6.430759915094015e+17
19583.0	6.429793456575828e+17
19584.0	6.428758773508778e+17
19585.0	6.427451297103871e+17
19586.0	6.42631147262225e+17
19587.0	6.425619141230592e+17
19588.0	6.423189424264534e+17
19589.0	6.423756970218836e+17
19590.0	6.422580226075305e+17
19591.0	6.421853457350655e+17
19592.0	6.420874565517311e+17
19593.0	6.41978939281681e+17
19594.0	6.418002424976723e+17
19595.0	6.417610294602409e+17
19596.0	6.411572283615917e+17
19597.0	6.41537904021777e+17
19598.0	6.413664825376768e+17
19599.0	6.413700460183551e+17
19600.0	6.412689398038528e+17
19601.0	6.411407155964586e+17
19602.0	6.410378049224701e+17
19603.0	6.407651123877203e+17
19604.0	6.408192235230548e+17
19605.0	6.406394501311146e+17
19606.0	6.406377945694208e+17
19607.0	6.405356902503763e+17
19608.0	6.404597969758889e+17
19609.0	6.403704139808767e+17
19610.0	6.402842103382015e+17
19611.0	6.401751743725565e+17
19612.0	6.400718208499711e+17
19613.0	6.399607355473919e+17
19614.0	6.39842247647778e+17
19615.0	6.39747416461585e+17
19616.0	6.396103205322751e+17
19617.0	6.395335951777791e+17
19618.0	6.392216826150907e+17
19619.0	6.390772389642236e+17
19620.0	6.389772013884756e+17
19621.0	6.390989988735657e+17
19622.0	6.389920949425492e+17
19623.0	6.388839590046378e+17
19624.0	6.387711835373567e+17
19625.0	6.386652563898365e+17
19626.0	6.385519015493631e+17
19627.0	6.384450527035391e+17
19628.0	6.382424777468586e+17
19629.0	6.381918038436521e+17
19630.0	6.377143941114537e+17
19631.0	6.34139399229714e+17
19632.0	6.378895239894356e+17
19633.0	6.377671816642559e+17
19634.0	6.376753051555156e+17
19635.0	6.375501252438698e+17
19636.0	6.374504336982013e+17
19637.0	6.371976682318505e+17
19638.0	6.372284806376105e+17
19639.0	6.371133310544553e+17
19640.0	6.369629485487444e+17
19641.0	6.366801834628439e+17
19642.0	6.367844129658196e+17
19643.0	6.366689801972394e+17
19644.0	6.365410544145748e+17
19645.0	6.363584365854717e+17
19646.0	6.363429147945641e+17
19647.0	6.362312178226516e+17
19648.0	6.361176455774207e+17
19649.0	6.360046729079465e+17
19650.0	6.35895523835904e+17
19651.0	6.357812384191827e+17
19652.0	6.3566760640512e+17
19653.0	6.355567509504e+17
19654.0	6.354429731143679e+17
19655.0	6.353284122716841e+17
19656.0	6.352190539038719e+17
19657.0	6.351064554362196e+17
19658.0	6.349958615662591e+17
19659.0	6.348830186405887e+17
19660.0	6.347719310311423e+17
19661.0	6.346582664413181e+17
19662.0	6.345464484637354e+17
19663.0	6.344134702224724e+17
19664.0	6.343025825415167e+17
19665.0	6.34207914304034e+17
