# Flux units: erg / (cm m2 s)
# Wavelength units: Angstrom
wave	flux
19000.0	8.195400986350932e+17
19001.0	8.193397788158633e+17
19002.0	8.192376380063743e+17
19003.0	8.190827622126931e+17
19004.0	8.189302789898239e+17
19005.0	8.18776257855488e+17
19006.0	8.186240964755456e+17
19007.0	8.184434799585961e+17
19008.0	8.182855248467283e+17
19009.0	8.18147486806835e+17
19010.0	8.177804316595537e+17
19011.0	8.178478201438208e+17
19012.0	8.176385556916905e+17
19013.0	8.175513812773544e+17
19014.0	8.173660562347347e+17
19015.0	8.172279506665471e+17
19016.0	8.170717567429289e+17
19017.0	8.168700958649e+17
19018.0	8.167797627202218e+17
19019.0	8.166279480694102e+17
19020.0	8.164508407868073e+17
19021.0	8.163124477689855e+17
19022.0	8.161728170120531e+17
19023.0	8.159979071253161e+17
19024.0	8.158569287385088e+17
19025.0	8.157088077316093e+17
19026.0	8.155453073304233e+17
19027.0	8.153825094751572e+17
19028.0	8.152523393903276e+17
19029.0	8.150899781621075e+17
19030.0	8.149510333136893e+17
19031.0	8.148006308850345e+17
19032.0	8.146453191633578e+17
19033.0	8.144447395769e+17
19034.0	8.143290419380224e+17
19035.0	8.141648946353489e+17
19036.0	8.11838466599593e+17
19037.0	8.138704168856233e+17
19038.0	8.137112475227476e+17
19039.0	8.135674351845375e+17
19040.0	8.134157291661992e+17
19041.0	8.132592115821224e+17
19042.0	8.1306267446586e+17
19043.0	8.129534745029289e+17
19044.0	8.127954225026387e+17
19045.0	8.126468689231871e+17
19046.0	8.124620028772351e+17
19047.0	8.123376289011027e+17
19048.0	8.120803776965288e+17
19049.0	8.119939697213439e+17
19050.0	8.118519238841683e+17
19051.0	8.113460188195492e+17
19052.0	8.11535411777809e+17
19053.0	8.114068682440703e+17
19054.0	8.112571048875348e+17
19055.0	8.10977086441609e+17
19056.0	8.109395778994175e+17
19057.0	8.107942967159466e+17
19058.0	8.106282263248896e+17
19059.0	8.104883170661715e+17
19060.0	8.103251352922792e+17
19061.0	8.101834972812628e+17
19062.0	8.100257862778879e+17
19063.0	8.098744195787434e+17
19064.0	8.096541097066496e+17
19065.0	8.094699979363667e+17
19066.0	8.093783449840297e+17
19067.0	8.09251041566174e+17
19068.0	8.091030430329514e+17
19069.0	8.089496518830761e+17
19070.0	8.087808009480873e+17
19071.0	8.086383486828543e+17
19072.0	8.084876118283604e+17
19073.0	8.083292409211561e+17
19074.0	8.081800973429417e+17
19075.0	8.080263878453928e+17
19076.0	8.078608171357523e+17
19077.0	8.077131151398227e+17
19078.0	8.075326342387028e+17
19079.0	8.074076801903273e+17
19080.0	8.072468990962345e+17
19081.0	8.070741269064362e+17
19082.0	8.069166963621885e+17
19083.0	8.067274906096978e+17
19084.0	8.06505996685585e+17
19085.0	8.064757971375442e+17
19086.0	8.061189911915177e+17
19087.0	8.061055292932096e+17
19088.0	8.059762247729148e+17
19089.0	8.05731208073489e+17
19090.0	8.056917361775958e+17
19091.0	8.055420404891645e+17
19092.0	8.05354379638647e+17
19093.0	8.052461274486102e+17
19094.0	8.050906222297088e+17
19095.0	8.049384598710952e+17
19096.0	8.047763284907347e+17
19097.0	8.046313109891752e+17
19098.0	8.044751053215058e+17
19099.0	8.043189583740925e+17
19100.0	8.041643637385897e+17
19101.0	8.040139769686696e+17
19102.0	8.038182178957992e+17
19103.0	8.037027881331369e+17
19104.0	8.035525030051839e+17
19105.0	8.03394732302882e+17
19106.0	8.032292243679913e+17
19107.0	8.030783285493757e+17
19108.0	8.029340299515219e+17
19109.0	8.025339095678972e+17
19110.0	8.026205910117033e+17
19111.0	8.024709771122003e+17
19112.0	8.023177685543592e+17
19113.0	8.021620938855763e+17
19114.0	8.020064942948352e+17
19115.0	8.018275015327743e+17
19116.0	8.016879227852115e+17
19117.0	8.015346924169897e+17
19118.0	8.013398720293548e+17
19119.0	8.002125296566255e+17
19120.0	8.010547993072979e+17
19121.0	8.009155781940564e+17
19122.0	8.0077425489565e+17
19123.0	8.006126248744276e+17
19124.0	8.004499901775871e+17
19125.0	8.003064584383148e+17
19126.0	8.001512313017683e+17
19127.0	7.991944532372127e+17
19128.0	7.996525580561061e+17
19129.0	7.996438624250538e+17
19130.0	7.9953008787456e+17
19131.0	7.993764164053673e+17
19132.0	7.9922652526237e+17
19133.0	7.988210567217156e+17
19134.0	7.988248665478486e+17
19135.0	7.987632158714538e+17
19136.0	7.986123468963837e+17
19137.0	7.983784548892672e+17
19138.0	7.982820966268927e+17
19139.0	7.981474731698858e+17
19140.0	7.97994017567539e+17
19141.0	7.978396874528083e+17
19142.0	7.976713725498706e+17
19143.0	7.975012500417196e+17
19144.0	7.973549637631997e+17
19145.0	7.972192198677844e+17
19146.0	7.967702343046487e+17
19147.0	7.968698733516115e+17
19148.0	7.967557557070504e+17
19149.0	7.965998409842685e+17
19150.0	7.964426918778196e+17
19151.0	7.962917725711018e+17
19152.0	7.961309154202964e+17
19153.0	7.959740881567743e+17
19154.0	7.957676428361725e+17
19155.0	7.956756606309715e+17
19156.0	7.955191301843625e+17
19157.0	7.953566039801855e+17
19158.0	7.950434043953148e+17
19159.0	7.950447436365824e+17
19160.0	7.948858260717567e+17
19161.0	7.947243389364906e+17
19162.0	7.942089741784408e+17
19163.0	7.944288971958953e+17
19164.0	7.942836295740072e+17
19165.0	7.941191256156841e+17
19166.0	7.939201335732904e+17
19167.0	7.937827529206441e+17
19168.0	7.936021038279336e+17
19169.0	7.934716903336616e+17
19170.0	7.933541487389352e+17
19171.0	7.931790596156073e+17
19172.0	7.930402247977642e+17
19173.0	7.928899526721535e+17
19174.0	7.927070757049686e+17
19175.0	7.925799101399039e+17
19176.0	7.924225722897748e+17
19177.0	7.921952013068968e+17
19178.0	7.921066918455977e+17
19179.0	7.919319014965245e+17
19180.0	7.917714468590932e+17
19181.0	7.916000885691732e+17
19182.0	7.914607166007978e+17
19183.0	7.913359827533821e+17
19184.0	7.911272242741245e+17
19185.0	7.910186336037545e+17
19186.0	7.908728017081683e+17
19187.0	7.906719465559378e+17
19188.0	7.905591989108735e+17
19189.0	7.903902761134761e+17
19190.0	7.902176124163414e+17
19191.0	7.900509279791786e+17
19192.0	7.899134489001981e+17
19193.0	7.897317935939583e+17
19194.0	7.895829914320897e+17
19195.0	7.894439573848063e+17
19196.0	7.892806578907817e+17
19197.0	7.891269310567763e+17
19198.0	7.889586353078271e+17
19199.0	7.865630072679077e+17
19200.0	7.871379589649757e+17
19201.0	7.884948539179005e+17
19202.0	7.883535044749992e+17
19203.0	7.88196382351906e+17
19204.0	7.880317390028799e+17
19205.0	7.878831181747539e+17
19206.0	7.877246903648256e+17
19207.0	7.875325529336489e+17
19208.0	7.873230914890406e+17
19209.0	7.872554067471016e+17
19210.0	7.871015408020138e+17
19211.0	7.869508485469526e+17
19212.0	7.867954954414761e+17
19213.0	7.865800367013884e+17
19214.0	7.864102602233172e+17
19215.0	7.863183029043199e+17
19216.0	7.861580820294313e+17
19217.0	7.860083867604308e+17
19218.0	7.854584141010253e+17
19219.0	7.856123744179539e+17
19220.0	7.85527702884625e+17
19221.0	7.852204754294102e+17
19222.0	7.852256233783292e+17
19223.0	7.850564958988969e+17
19224.0	7.848698099444394e+17
19225.0	7.846759295003304e+17
19226.0	7.845817649987581e+17
19227.0	7.844231267745791e+17
19228.0	7.842805128888317e+17
19229.0	7.8412258503994e+17
19230.0	7.839506564644863e+17
19231.0	7.837927024710996e+17
19232.0	7.836293492899839e+17
19233.0	7.834520820645885e+17
19234.0	7.833179478032381e+17
19235.0	7.831527548605779e+17
19236.0	7.830149606495574e+17
19237.0	7.828462573540691e+17
19238.0	7.826498190835711e+17
19239.0	7.825383733504681e+17
19240.0	7.822613771801939e+17
19241.0	7.821735634141184e+17
19242.0	7.820466743934975e+17
19243.0	7.818038917201917e+17
19244.0	7.817398077882367e+17
19245.0	7.815771865131689e+17
19246.0	7.814112110531923e+17
19247.0	7.81252052735317e+17
19248.0	7.810998151588522e+17
19249.0	7.809386894327807e+17
19250.0	7.807683590269608e+17
19251.0	7.805652009222139e+17
19252.0	7.8028516374173e+17
19253.0	7.802842988762451e+17
19254.0	7.801161109209087e+17
19255.0	7.798656772778666e+17
19256.0	7.797947479621632e+17
19257.0	7.796468530282493e+17
19258.0	7.794852200710144e+17
19259.0	7.79281500348962e+17
19260.0	7.791228194826921e+17
19261.0	7.789857728364544e+17
19262.0	7.787702658618708e+17
19263.0	7.786143610656083e+17
19264.0	7.782287535330641e+17
19265.0	7.782219004597587e+17
19266.0	7.780875471159297e+17
19267.0	7.779814700919466e+17
19268.0	7.777974075348306e+17
19269.0	7.776325348971858e+17
19270.0	7.774680884008275e+17
19271.0	7.771474971940184e+17
19272.0	7.771188928795987e+17
19273.0	7.74068856667064e+17
19274.0	7.753182188929005e+17
19275.0	7.76639333356885e+17
19276.0	7.764636244552361e+17
19277.0	7.762965801467905e+17
19278.0	7.761316314524328e+17
19279.0	7.75939881574946e+17
19280.0	7.757511527148202e+17
19281.0	7.756239418512722e+17
19282.0	7.754616846417919e+17
19283.0	7.752596781531136e+17
19284.0	7.750392507006973e+17
19285.0	7.748420903108605e+17
19286.0	7.747638025082196e+17
19287.0	7.746125085103442e+17
19288.0	7.73919140985787e+17
19289.0	7.727890358250125e+17
19290.0	7.740967055873364e+17
19291.0	7.737875915341827e+17
19292.0	7.737140637073407e+17
19293.0	7.735297908757844e+17
19294.0	7.733529428011689e+17
19295.0	7.731842449582761e+17
19296.0	7.730055420226217e+17
19297.0	7.728164913195689e+17
19298.0	7.726397462850217e+17
19299.0	7.724772670570493e+17
19300.0	7.722997197919572e+17
19301.0	7.721169605449044e+17
19302.0	7.71935074412134e+17
19303.0	7.717141208541864e+17
19304.0	7.71551146418722e+17
19305.0	7.713890371283626e+17
19306.0	7.71210141394534e+17
19307.0	7.710040921560404e+17
19308.0	7.708322044051455e+17
19309.0	7.705890784979625e+17
19310.0	7.703100131377152e+17
19311.0	7.702155976769535e+17
19312.0	7.700415260917757e+17
19313.0	7.69828376735471e+17
19314.0	7.688924284234399e+17
19315.0	7.687478941057038e+17
19316.0	7.692929529981612e+17
19317.0	7.691011020379476e+17
19318.0	7.689065428156415e+17
19319.0	7.687215940020905e+17
19320.0	7.685185459279187e+17
19321.0	7.683313468702717e+17
19322.0	7.680192050888705e+17
19323.0	7.678353697232212e+17
19324.0	7.67671037451742e+17
19325.0	7.674186837961385e+17
19326.0	7.672701060295338e+17
19327.0	7.670335615445674e+17
19328.0	7.6683770096954e+17
19329.0	7.66631629641045e+17
19330.0	7.664042109829119e+17
19331.0	7.661414014866774e+17
19332.0	7.659185873354752e+17
19333.0	7.656949087382186e+17
19334.0	7.65474906728038e+17
19335.0	7.65271515280179e+17
19336.0	7.650536308342783e+17
19337.0	7.648327066364585e+17
19338.0	7.644814135437993e+17
19339.0	7.643394149624489e+17
19340.0	7.640932652417021e+17
19341.0	7.638858731268778e+17
19342.0	7.634674269902161e+17
19343.0	7.634283320224425e+17
19344.0	7.631867684934995e+17
19345.0	7.620319695077353e+17
19346.0	7.624417706246145e+17
19347.0	7.624502025737555e+17
19348.0	7.622009385822889e+17
19349.0	7.619274622719315e+17
19350.0	7.616838186478249e+17
19351.0	7.614248658141181e+17
19352.0	7.611539578159103e+17
19353.0	7.609345371362644e+17
19354.0	7.606719591656105e+17
19355.0	7.603599093792768e+17
19356.0	7.601387479236607e+17
19357.0	7.59864116641792e+17
19358.0	7.595621049434111e+17
19359.0	7.591556560541014e+17
19360.0	7.58943279288593e+17
19361.0	7.586517536298323e+17
19362.0	7.583841633260883e+17
19363.0	7.580870707074387e+17
19364.0	7.577844149037738e+17
19365.0	7.574755646723411e+17
19366.0	7.57166712763187e+17
19367.0	7.568455357519187e+17
19368.0	7.564399918536019e+17
19369.0	7.560441099539795e+17
19370.0	7.554367790688936e+17
19371.0	7.55412233442645e+17
19372.0	7.550925501628416e+17
19373.0	7.546920655738195e+17
19374.0	7.542606640709632e+17
19375.0	7.538948056984233e+17
19376.0	7.535194149311828e+17
19377.0	7.531325742732627e+17
19378.0	7.526242250478931e+17
19379.0	7.521972839077203e+17
19380.0	7.517902859840169e+17
19381.0	7.513294034173951e+17
19382.0	7.50722774658799e+17
19383.0	7.502586525515773e+17
19384.0	7.498184593681066e+17
19385.0	7.491854092905129e+17
19386.0	7.487139239428096e+17
19387.0	7.480663369667922e+17
19388.0	7.474780568900948e+17
19389.0	7.468357766873088e+17
19390.0	7.461514720750248e+17
19391.0	7.438777386183311e+17
19392.0	7.448804346647891e+17
19393.0	7.443169100693503e+17
19394.0	7.43728546526003e+17
19395.0	7.430889116707498e+17
19396.0	7.424698389714262e+17
19397.0	7.418401483915263e+17
19398.0	7.411758145383081e+17
19399.0	7.402313087276369e+17
19400.0	7.397908680802303e+17
19401.0	7.390539484408489e+17
19402.0	7.382908756383059e+17
19403.0	7.375159606378496e+17
19404.0	7.367315374298451e+17
19405.0	7.35867900596497e+17
19406.0	7.349752492457984e+17
19407.0	7.34101380407842e+17
19408.0	7.328851540224687e+17
19409.0	7.320989321570986e+17
19410.0	7.311438449562964e+17
19411.0	7.299804472279037e+17
19412.0	7.288919225794557e+17
19413.0	7.276328078977706e+17
19414.0	7.263445176374611e+17
19415.0	7.249855244140543e+17
19416.0	7.234536988824918e+17
19417.0	7.2186813508922e+17
19418.0	7.201517550086822e+17
19419.0	7.182312484984147e+17
19420.0	7.162808760270845e+17
19421.0	7.145699766435841e+17
19422.0	7.128733862679892e+17
19423.0	7.111321915665065e+17
19424.0	7.093090660297386e+17
19425.0	7.073625405740372e+17
19426.0	7.053316588568573e+17
19427.0	7.031518333501439e+17
19428.0	7.009500604486996e+17
19429.0	6.985404337793704e+17
19430.0	6.95884371058142e+17
19431.0	6.928157305208836e+17
19432.0	6.89975198045525e+17
19433.0	6.864696933438808e+17
19434.0	6.825254101275986e+17
19435.0	6.785482756543826e+17
19436.0	6.748192974569471e+17
19437.0	6.710002332991487e+17
19438.0	6.656268309626877e+17
19439.0	6.620596127399937e+17
19440.0	6.569427152317097e+17
19441.0	6.512649574896978e+17
19442.0	6.448796063323478e+17
19443.0	6.38340750778914e+17
19444.0	6.313192161891665e+17
19445.0	6.23467916217549e+17
19446.0	6.147650362190506e+17
19447.0	6.052732332234063e+17
19448.0	5.946713492335278e+17
19449.0	5.818540988126548e+17
19450.0	5.5830821302435194e+17
19451.0	5.478362635392351e+17
19452.0	5.716783119291739e+17
19453.0	5.885448244516186e+17
19454.0	5.996544264241147e+17
19455.0	6.094081298006016e+17
19456.0	6.182624752041985e+17
19457.0	6.262828245712892e+17
19458.0	6.33059086259542e+17
19459.0	6.398922499730093e+17
19460.0	6.462029258817533e+17
19461.0	6.519696491457193e+17
19462.0	6.570837236077911e+17
19463.0	6.61726299510101e+17
19464.0	6.659123684835327e+17
19465.0	6.69731558120926e+17
19466.0	6.731820348822866e+17
19467.0	6.766804309377019e+17
19468.0	6.804796057758376e+17
19469.0	6.837075159897431e+17
19470.0	6.869352064221183e+17
19471.0	6.896344327957161e+17
19472.0	6.920752652266152e+17
19473.0	6.942931062270633e+17
19474.0	6.963552341109418e+17
19475.0	6.980688708370428e+17
19476.0	7.000550500117161e+17
19477.0	7.017880916153684e+17
19478.0	7.033863301758975e+17
19479.0	7.048883307107668e+17
19480.0	7.063242390809258e+17
19481.0	7.076941788785321e+17
19482.0	7.093029861064704e+17
19483.0	7.109943624029521e+17
19484.0	7.12502835028514e+17
19485.0	7.138445101105153e+17
19486.0	7.150950320614057e+17
19487.0	7.162317559737e+17
19488.0	7.173387010266451e+17
19489.0	7.182468784324608e+17
19490.0	7.186781861227169e+17
19491.0	7.19970710253295e+17
19492.0	7.207758587756543e+17
19493.0	7.21462606709828e+17
19494.0	7.222030931853311e+17
19495.0	7.227983690814803e+17
19496.0	7.232567259780433e+17
19497.0	7.2400148379293e+17
19498.0	7.244413899461975e+17
19499.0	7.223932708978661e+17
19500.0	7.254878597065385e+17
19501.0	7.259773444904275e+17
19502.0	7.264049318330365e+17
19503.0	7.268036869707092e+17
19504.0	7.271751644523177e+17
19505.0	7.275375360999423e+17
19506.0	7.278807188067667e+17
19507.0	7.282033418742442e+17
19508.0	7.285420047990783e+17
19509.0	7.288289026026152e+17
19510.0	7.290277556737363e+17
19511.0	7.274895447337628e+17
19512.0	7.294133106376691e+17
19513.0	7.293790961620294e+17
19514.0	7.29955203389849e+17
19515.0	7.306740088089267e+17
19516.0	7.311168487380308e+17
19517.0	7.313143041272488e+17
19518.0	7.31666093126451e+17
19519.0	7.318181107815764e+17
19520.0	7.319819166679039e+17
19521.0	7.322835624831657e+17
19522.0	7.32387279512098e+17
19523.0	7.325233831389864e+17
19524.0	7.326872508213929e+17
19525.0	7.328417056467625e+17
19526.0	7.329488327846569e+17
19527.0	7.330278357161299e+17
19528.0	7.331046601261055e+17
19529.0	7.332630710190079e+17
19530.0	7.333417694440105e+17
19531.0	7.333994460173651e+17
19532.0	7.334457744818175e+17
19533.0	7.334892993336659e+17
19534.0	7.335246473898666e+17
19535.0	7.336169682152106e+17
19536.0	7.336435382921897e+17
19537.0	7.336804947241641e+17
19538.0	7.336741017660076e+17
19539.0	7.334548959745375e+17
19540.0	7.336973240893439e+17
19541.0	7.337128736325632e+17
19542.0	7.337065701528916e+17
19543.0	7.337338412378794e+17
19544.0	7.337491736559616e+17
19545.0	7.33568699605537e+17
19546.0	7.333024059009708e+17
19547.0	7.336936519761919e+17
19548.0	7.336729609153193e+17
19549.0	7.335903510222164e+17
19550.0	7.336120284435795e+17
19551.0	7.335784605898066e+17
19552.0	7.33539391067477e+17
19553.0	7.334906092148051e+17
19554.0	7.334369141544276e+17
19555.0	7.334032129217875e+17
19556.0	7.333943288266751e+17
19557.0	7.333505797193727e+17
19558.0	7.332966359367679e+17
19559.0	7.332309076978345e+17
19560.0	7.331702682681343e+17
19561.0	7.331103372563795e+17
19562.0	7.330586147771735e+17
19563.0	7.329968581246973e+17
19564.0	7.329317795834536e+17
19565.0	7.328852369298774e+17
19566.0	7.32826003570688e+17
19567.0	7.327690162612905e+17
19568.0	7.326796403965952e+17
19569.0	7.326104335417343e+17
19570.0	7.325455501754368e+17
19571.0	7.324677887579476e+17
19572.0	7.32368955716403e+17
19573.0	7.323694521821866e+17
19574.0	7.322493530406911e+17
19575.0	7.322152534889812e+17
19576.0	7.321317177731753e+17
19577.0	7.320234276945917e+17
19578.0	7.319398090713769e+17
19579.0	7.318588269876563e+17
19580.0	7.31784480432674e+17
19581.0	7.317152045116074e+17
19582.0	7.316314007797757e+17
19583.0	7.315939292872701e+17
19584.0	7.315034282306217e+17
19585.0	7.313522716661075e+17
19586.0	7.312389756857004e+17
19587.0	7.311955233953108e+17
19588.0	7.30892388322509e+17
19589.0	7.310019831092564e+17
19590.0	7.308822957086036e+17
19591.0	7.308162475840851e+17
19592.0	7.307185646206975e+17
19593.0	7.306056559143594e+17
19594.0	7.303882767422802e+17
19595.0	7.303971678278996e+17
19596.0	7.298602546932397e+17
19597.0	7.302382882914303e+17
19598.0	7.300230638731263e+17
19599.0	7.300331801149439e+17
19600.0	7.29930046373888e+17
19601.0	7.297902317666304e+17
19602.0	7.296947182370815e+17
19603.0	7.293903308849147e+17
19604.0	7.294701763122516e+17
19605.0	7.292334921569623e+17
19606.0	7.292696441214294e+17
19607.0	7.291618204494506e+17
19608.0	7.290459877539837e+17
19609.0	7.289123250722131e+17
19610.0	7.288295433524564e+17
19611.0	7.28711788966707e+17
19612.0	7.286046281345705e+17
19613.0	7.284841268991316e+17
19614.0	7.283545286377471e+17
19615.0	7.282607790926505e+17
19616.0	7.281302899610964e+17
19617.0	7.280300915337897e+17
19618.0	7.276825575161852e+17
19619.0	7.275188043382776e+17
19620.0	7.27416240183705e+17
19621.0	7.275955445825535e+17
19622.0	7.27482963730978e+17
19623.0	7.273666432379561e+17
19624.0	7.272432830251007e+17
19625.0	7.271299529310207e+17
19626.0	7.270049513471999e+17
19627.0	7.268916782956543e+17
19628.0	7.267148957919914e+17
19629.0	7.266066758980947e+17
19630.0	7.26464469139456e+17
19631.0	7.240626403803127e+17
19632.0	7.262851982950399e+17
19633.0	7.261460593901565e+17
19634.0	7.260506820356778e+17
19635.0	7.259077312075091e+17
19636.0	7.258032585048063e+17
19637.0	7.25471673887403e+17
19638.0	7.255593370779645e+17
19639.0	7.254358426473812e+17
19640.0	7.252871109498195e+17
19641.0	7.249482587220658e+17
19642.0	7.250693891031039e+17
19643.0	7.249381020751187e+17
19644.0	7.247994455151955e+17
19645.0	7.245826171950418e+17
19646.0	7.245834334066004e+17
19647.0	7.244604436905983e+17
19648.0	7.243341295692458e+17
19649.0	7.242087478416723e+17
19650.0	7.240880830283775e+17
19651.0	7.239603944336041e+17
19652.0	7.238337421115391e+17
19653.0	7.237131491606527e+17
19654.0	7.235835594276863e+17
19655.0	7.234554852365651e+17
19656.0	7.233354678839978e+17
19657.0	7.232094212194301e+17
19658.0	7.230872369496063e+17
19659.0	7.229607828783101e+17
19660.0	7.228382710333439e+17
19661.0	7.227099425275904e+17
19662.0	7.225865381347328e+17
19663.0	7.224374218194943e+17
19664.0	7.223435390353407e+17
19665.0	7.222342034565802e+17
19666.0	7.220992092230995e+17
