# Flux units: erg / (cm m2 s)
# Wavelength units: Angstrom
wave	flux
19000.0	7.508164305311058e+17
19001.0	7.50673353314577e+17
19002.0	7.505435112243199e+17
19003.0	7.50406754823919e+17
19004.0	7.502699770325672e+17
19005.0	7.501697073020927e+17
19006.0	7.500565350536532e+17
19007.0	7.4991826660666e+17
19008.0	7.497785926483968e+17
19009.0	7.496393452508499e+17
19010.0	7.494789758975999e+17
19011.0	7.493683618949802e+17
19012.0	7.492217901241683e+17
19013.0	7.490949301840553e+17
19014.0	7.489534894451369e+17
19015.0	7.488176661375658e+17
19016.0	7.486796002754557e+17
19017.0	7.48544658330965e+17
19018.0	7.484061046713002e+17
19019.0	7.482686672557395e+17
19020.0	7.481295904265555e+17
19021.0	7.479937180456275e+17
19022.0	7.478559435478355e+17
19023.0	7.477148445048828e+17
19024.0	7.475777694771881e+17
19025.0	7.474404945210025e+17
19026.0	7.473003861726547e+17
19027.0	7.471572738637824e+17
19028.0	7.47025629201476e+17
19029.0	7.468870379328851e+17
19030.0	7.467497309601791e+17
19031.0	7.466111991108947e+17
19032.0	7.464725784821757e+17
19033.0	7.463277720939177e+17
19034.0	7.461936943158612e+17
19035.0	7.460600151364947e+17
19036.0	7.454583707489618e+17
19037.0	7.457991782214314e+17
19038.0	7.456618610425855e+17
19039.0	7.455250987701587e+17
19040.0	7.453862803101011e+17
19041.0	7.452473388171263e+17
19042.0	7.451028281273002e+17
19043.0	7.449692872201556e+17
19044.0	7.448300164743168e+17
19045.0	7.446909445384874e+17
19046.0	7.44548590559778e+17
19047.0	7.444111121798483e+17
19048.0	7.442605911922004e+17
19049.0	7.441294044080808e+17
19050.0	7.439910030016511e+17
19051.0	7.437750015186259e+17
19052.0	7.436994492410536e+17
19053.0	7.43575970189585e+17
19054.0	7.434381080308394e+17
19055.0	7.433623196139519e+17
19056.0	7.432384992859476e+17
19057.0	7.430998105696936e+17
19058.0	7.429600235050323e+17
19059.0	7.428210389505364e+17
19060.0	7.426801199830356e+17
19061.0	7.425418333607251e+17
19062.0	7.424018109956093e+17
19063.0	7.42262123335953e+17
19064.0	7.42115428672034e+17
19065.0	7.419704763219965e+17
19066.0	7.418386240416424e+17
19067.0	7.417030711268694e+17
19068.0	7.415632068870143e+17
19069.0	7.414233552300713e+17
19070.0	7.412818648585555e+17
19071.0	7.411435137837738e+17
19072.0	7.410035462242303e+17
19073.0	7.40863236828911e+17
19074.0	7.407235630104575e+17
19075.0	7.405835154795178e+17
19076.0	7.404421919014911e+17
19077.0	7.403024761399978e+17
19078.0	7.401616698594644e+17
19079.0	7.400230530056191e+17
19080.0	7.398819341096275e+17
19081.0	7.397399201491625e+17
19082.0	7.395999096679084e+17
19083.0	7.394543044045481e+17
19084.0	7.393056670788268e+17
19085.0	7.391816118697983e+17
19086.0	7.390146128598356e+17
19087.0	7.388899159222953e+17
19088.0	7.387531888820224e+17
19089.0	7.386015921952084e+17
19090.0	7.384769439115945e+17
19091.0	7.3833771972253e+17
19092.0	7.381935743565823e+17
19093.0	7.38059000811793e+17
19094.0	7.379186747790676e+17
19095.0	7.377782787014655e+17
19096.0	7.376371364571817e+17
19097.0	7.374975057002493e+17
19098.0	7.373572709635412e+17
19099.0	7.372167765994152e+17
19100.0	7.370754535806292e+17
19101.0	7.369355067129855e+17
19102.0	7.367542539201193e+17
19103.0	7.365741980418047e+17
19104.0	7.364336164361556e+17
19105.0	7.362928230181545e+17
19106.0	7.361502312224083e+17
19107.0	7.360104150772393e+17
19108.0	7.358698796089343e+17
19109.0	7.356922157421908e+17
19110.0	7.355847910883327e+17
19111.0	7.354488497810089e+17
19112.0	7.353085577221462e+17
19113.0	7.351679682871293e+17
19114.0	7.350272442149545e+17
19115.0	7.348833204480681e+17
19116.0	7.347441109390675e+17
19117.0	7.346033294049279e+17
19118.0	7.344565880444244e+17
19119.0	7.341111465650854e+17
19120.0	7.341768446050301e+17
19121.0	7.34038366442837e+17
19122.0	7.33900899107908e+17
19123.0	7.337600209649664e+17
19124.0	7.336160937028264e+17
19125.0	7.334777700308308e+17
19126.0	7.333355213291519e+17
19127.0	7.330884615842474e+17
19128.0	7.330458126428842e+17
19129.0	7.329081845263016e+17
19130.0	7.32772164645683e+17
19131.0	7.326321902354432e+17
19132.0	7.324909411762175e+17
19133.0	7.323429643135658e+17
19134.0	7.322047619967658e+17
19135.0	7.320676183222953e+17
19136.0	7.319268167953064e+17
19137.0	7.317759288060585e+17
19138.0	7.316435054013098e+17
19139.0	7.31503371747328e+17
19140.0	7.313623191213396e+17
19141.0	7.312210873985705e+17
19142.0	7.310781319566675e+17
19143.0	7.309352201355263e+17
19144.0	7.307945203903148e+17
19145.0	7.306558322333012e+17
19146.0	7.304752770930004e+17
19147.0	7.303678760670547e+17
19148.0	7.302313850262867e+17
19149.0	7.300899898654719e+17
19150.0	7.299482474162858e+17
19151.0	7.298071402643455e+17
19152.0	7.2966539851421e+17
19153.0	7.295224559348394e+17
19154.0	7.293745070342144e+17
19155.0	7.292403456496978e+17
19156.0	7.290982515780264e+17
19157.0	7.289536058316116e+17
19158.0	7.287926689890301e+17
19159.0	7.28670386852113e+17
19160.0	7.285141547603284e+17
19161.0	7.283313400086527e+17
19162.0	7.281325638331049e+17
19163.0	7.280431243547987e+17
19164.0	7.279079985599827e+17
19165.0	7.2776557803165e+17
19166.0	7.276168779311785e+17
19167.0	7.274770949210111e+17
19168.0	7.273393453094228e+17
19169.0	7.27197325337122e+17
19170.0	7.270564487320916e+17
19171.0	7.269119201465683e+17
19172.0	7.267720248688639e+17
19173.0	7.266301818961919e+17
19174.0	7.264846760378368e+17
19175.0	7.26345826120499e+17
19176.0	7.262035100303357e+17
19177.0	7.260509036347391e+17
19178.0	7.259164378835625e+17
19179.0	7.257721545250132e+17
19180.0	7.256327629832191e+17
19181.0	7.254841192262313e+17
19182.0	7.253472079162025e+17
19183.0	7.251681040050857e+17
19184.0	7.249621183802025e+17
19185.0	7.248197568517459e+17
19186.0	7.24677192318976e+17
19187.0	7.245292044113236e+17
19188.0	7.243912501177002e+17
19189.0	7.242482064556032e+17
19190.0	7.241046941499391e+17
19191.0	7.239595027245736e+17
19192.0	7.238188579247444e+17
19193.0	7.236751497450836e+17
19194.0	7.235307335669075e+17
19195.0	7.233875412866387e+17
19196.0	7.232419565753684e+17
19197.0	7.230949676111187e+17
19198.0	7.229362849273172e+17
19199.0	7.224388264919037e+17
19200.0	7.223799307741866e+17
19201.0	7.225078137050451e+17
19202.0	7.22377640124962e+17
19203.0	7.222362846702249e+17
19204.0	7.220932510744573e+17
19205.0	7.219505984613034e+17
19206.0	7.218069982150655e+17
19207.0	7.216572059178323e+17
19208.0	7.21506953924881e+17
19209.0	7.213745843470335e+17
19210.0	7.212311745221972e+17
19211.0	7.210831509629608e+17
19212.0	7.209353411734185e+17
19213.0	7.207833391770281e+17
19214.0	7.206362694025216e+17
19215.0	7.204992132491945e+17
19216.0	7.203026655073619e+17
19217.0	7.201480361989459e+17
19218.0	7.199536257346217e+17
19219.0	7.198464215613437e+17
19220.0	7.197111526009513e+17
19221.0	7.19548340904482e+17
19222.0	7.194206200135679e+17
19223.0	7.192760966010198e+17
19224.0	7.19127134076928e+17
19225.0	7.189759028538025e+17
19226.0	7.188368152592381e+17
19227.0	7.186904852201471e+17
19228.0	7.185462426861568e+17
19229.0	7.183997229247148e+17
19230.0	7.18252951085602e+17
19231.0	7.181054968332287e+17
19232.0	7.179589777708372e+17
19233.0	7.178077968793599e+17
19234.0	7.176640487140008e+17
19235.0	7.175166204663123e+17
19236.0	7.173706740662271e+17
19237.0	7.172221343279785e+17
19238.0	7.170690454476116e+17
19239.0	7.169275345240063e+17
19240.0	7.167779504040617e+17
19241.0	7.166291476829523e+17
19242.0	7.164817166390612e+17
19243.0	7.163227013469523e+17
19244.0	7.161856472907773e+17
19245.0	7.160366955320659e+17
19246.0	7.158866549320361e+17
19247.0	7.157381625894228e+17
19248.0	7.155887944761343e+17
19249.0	7.154389746363049e+17
19250.0	7.152878217068544e+17
19251.0	7.150944294797311e+17
19252.0	7.148803194879997e+17
19253.0	7.147483826225151e+17
19254.0	7.145989408292863e+17
19255.0	7.144349733224447e+17
19256.0	7.142951687815165e+17
19257.0	7.141455676047357e+17
19258.0	7.139938336243711e+17
19259.0	7.138367433779881e+17
19260.0	7.136809234464768e+17
19261.0	7.135372057597267e+17
19262.0	7.133811238240255e+17
19263.0	7.132269859482281e+17
19264.0	7.130456127788372e+17
19265.0	7.129125452688042e+17
19266.0	7.127602980454399e+17
19267.0	7.126167569388884e+17
19268.0	7.124623448954195e+17
19269.0	7.123075418030079e+17
19270.0	7.121517849258666e+17
19271.0	7.119766407173459e+17
19272.0	7.118382971923114e+17
19273.0	7.116274148573181e+17
19274.0	7.114815372438185e+17
19275.0	7.113713407142569e+17
19276.0	7.112131936430761e+17
19277.0	7.110559683401044e+17
19278.0	7.108983429005311e+17
19279.0	7.107395497667241e+17
19280.0	7.105774267749716e+17
19281.0	7.104214385120595e+17
19282.0	7.102627935769939e+17
19283.0	7.100988922003455e+17
19284.0	7.098262936180049e+17
19285.0	7.096396585544361e+17
19286.0	7.094857329104211e+17
19287.0	7.093258721864361e+17
19288.0	7.090319963193341e+17
19289.0	7.086879758701903e+17
19290.0	7.08837273379362e+17
19291.0	7.086571838068051e+17
19292.0	7.085105098347859e+17
19293.0	7.083453459726335e+17
19294.0	7.081795756141225e+17
19295.0	7.080144845930493e+17
19296.0	7.078481352807764e+17
19297.0	7.07681088455748e+17
19298.0	7.075124159184896e+17
19299.0	7.073454866737833e+17
19300.0	7.071765269665108e+17
19301.0	7.070067560808447e+17
19302.0	7.06824033743667e+17
19303.0	7.064765746642943e+17
19304.0	7.063074009077075e+17
19305.0	7.06135534547763e+17
19306.0	7.059625105599145e+17
19307.0	7.057851909057194e+17
19308.0	7.056110414462975e+17
19309.0	7.054252477601108e+17
19310.0	7.052420469926569e+17
19311.0	7.050787045769215e+17
19312.0	7.049036462118228e+17
19313.0	7.047247292268543e+17
19314.0	7.042145862374738e+17
19315.0	7.039437572319918e+17
19316.0	7.039314701582335e+17
19317.0	7.037490588286975e+17
19318.0	7.035637836283901e+17
19319.0	7.033790200632659e+17
19320.0	7.031917039146323e+17
19321.0	7.030031699498324e+17
19322.0	7.028078178642601e+17
19323.0	7.026175989776383e+17
19324.0	7.023093379061076e+17
19325.0	7.019075730756948e+17
19326.0	7.017195306833236e+17
19327.0	7.015226439718227e+17
19328.0	7.013256695294633e+17
19329.0	7.011264683311104e+17
19330.0	7.009234683516244e+17
19331.0	7.005299098167976e+17
19332.0	7.001171749939881e+17
19333.0	6.999103486208681e+17
19334.0	6.997017240797183e+17
19335.0	6.994917152085331e+17
19336.0	6.992797914278569e+17
19337.0	6.98753065209036e+17
19338.0	6.983225152197971e+17
19339.0	6.98116605022481e+17
19340.0	6.978915721543679e+17
19341.0	6.976706841673727e+17
19342.0	6.971882672750596e+17
19343.0	6.966316481118207e+17
19344.0	6.96400323158562e+17
19345.0	6.960554558794408e+17
19346.0	6.958828859250003e+17
19347.0	6.954641682770598e+17
19348.0	6.951133824155647e+17
19349.0	6.948672454175402e+17
19350.0	6.946189013767508e+17
19351.0	6.943679535120383e+17
19352.0	6.941117297022292e+17
19353.0	6.938612000096255e+17
19354.0	6.936039648832169e+17
19355.0	6.933379245845162e+17
19356.0	6.930810007453695e+17
19357.0	6.928155066848596e+17
19358.0	6.925464694161407e+17
19359.0	6.922687699309907e+17
19360.0	6.919464000596649e+17
19361.0	6.916687571976191e+17
19362.0	6.913896717746175e+17
19363.0	6.911050756653055e+17
19364.0	6.908170798628861e+17
19365.0	6.905255795796649e+17
19366.0	6.902305929909588e+17
19367.0	6.899320243967316e+17
19368.0	6.896298691832489e+17
19369.0	6.893208818679807e+17
19370.0	6.890091655987199e+17
19371.0	6.886254122980691e+17
19372.0	6.882860183759529e+17
19373.0	6.879593921249279e+17
19374.0	6.876293672992767e+17
19375.0	6.872941532807165e+17
19376.0	6.86955360681984e+17
19377.0	6.866122366255103e+17
19378.0	6.861310396465148e+17
19379.0	6.857597538445993e+17
19380.0	6.85401404604416e+17
19381.0	6.850385802515795e+17
19382.0	6.846660704119466e+17
19383.0	6.841328516901546e+17
19384.0	6.836974151969449e+17
19385.0	6.833111818043392e+17
19386.0	6.829208516952064e+17
19387.0	6.823944059355135e+17
19388.0	6.818184024468138e+17
19389.0	6.813969329859241e+17
19390.0	6.809458160872106e+17
19391.0	6.797633058941604e+17
19392.0	6.796649540091901e+17
19393.0	6.790400997414223e+17
19394.0	6.782367768597844e+17
19395.0	6.777160441615702e+17
19396.0	6.76629207720482e+17
19397.0	6.760904008575661e+17
19398.0	6.748348752418135e+17
19399.0	6.740798301274103e+17
19400.0	6.72816332537856e+17
19401.0	6.717029575469743e+17
19402.0	6.705535769728339e+17
19403.0	6.693446709062314e+17
19404.0	6.686258318628179e+17
19405.0	6.678884911153151e+17
19406.0	6.671355867736746e+17
19407.0	6.663646195220479e+17
19408.0	6.655398691296598e+17
19409.0	6.647646205422249e+17
19410.0	6.639302719744681e+17
19411.0	6.63074905329937e+17
19412.0	6.622008807434921e+17
19413.0	6.612807899764051e+17
19414.0	6.603613461807103e+17
19415.0	6.594315711152127e+17
19416.0	6.584757939514025e+17
19417.0	6.575127392507219e+17
19418.0	6.565024741632682e+17
19419.0	6.554025105293311e+17
19420.0	6.543226732631379e+17
19421.0	6.532044617504084e+17
19422.0	6.519368898139478e+17
19423.0	6.507165367227731e+17
19424.0	6.49362122490948e+17
19425.0	6.479372352137898e+17
19426.0	6.46373821190417e+17
19427.0	6.447348381122559e+17
19428.0	6.428159779362131e+17
19429.0	6.408716413479596e+17
19430.0	6.387458611260077e+17
19431.0	6.363517030498307e+17
19432.0	6.337646332040525e+17
19433.0	6.308846375010308e+17
19434.0	6.277816393225558e+17
19435.0	6.24347698185284e+17
19436.0	6.208225556824063e+17
19437.0	6.176270595391487e+17
19438.0	6.139314379423741e+17
19439.0	6.106516267816276e+17
19440.0	6.065111794625194e+17
19441.0	6.017837478969341e+17
19442.0	5.965328812430679e+17
19443.0	5.904627211960317e+17
19444.0	5.834947376622246e+17
19445.0	5.7542370411588294e+17
19446.0	5.6593386692061856e+17
19447.0	5.5461946323544685e+17
19448.0	5.406666466699952e+17
19449.0	5.2273287706705914e+17
19450.0	4.980818029401416e+17
19451.0	4.850998176645125e+17
19452.0	5.115220220095145e+17
19453.0	5.3224368005010835e+17
19454.0	5.4767616457878125e+17
19455.0	5.599360235951445e+17
19456.0	5.7003402026025e+17
19457.0	5.785178524527269e+17
19458.0	5.853145818551644e+17
19459.0	5.920472027889667e+17
19460.0	5.974421504961189e+17
19461.0	6.021617373151231e+17
19462.0	6.063442219062612e+17
19463.0	6.100473551519741e+17
19464.0	6.132449000030207e+17
19465.0	6.1617963752489e+17
19466.0	6.193267653039447e+17
19467.0	6.226555776794616e+17
19468.0	6.256436806593194e+17
19469.0	6.283712854141608e+17
19470.0	6.308693176658597e+17
19471.0	6.331012601260719e+17
19472.0	6.350714207644329e+17
19473.0	6.36927211680563e+17
19474.0	6.38543701405423e+17
19475.0	6.399782795520681e+17
19476.0	6.414641641728681e+17
19477.0	6.426193954515626e+17
19478.0	6.438359996039167e+17
19479.0	6.448245872700073e+17
19480.0	6.458295079753044e+17
19481.0	6.467637104082943e+17
19482.0	6.476125595238397e+17
19483.0	6.484475246542847e+17
19484.0	6.492674931206825e+17
19485.0	6.499943233617919e+17
19486.0	6.50700906439202e+17
19487.0	6.513899843092479e+17
19488.0	6.520593525156521e+17
19489.0	6.527240075826516e+17
19490.0	6.533063907475453e+17
19491.0	6.539778336664233e+17
19492.0	6.545722727290196e+17
19493.0	6.551389401164457e+17
19494.0	6.556821388350804e+17
19495.0	6.562060318015487e+17
19496.0	6.566937026887679e+17
19497.0	6.571969037555028e+17
19498.0	6.576273607010986e+17
19499.0	6.578587311625554e+17
19500.0	6.591238738979502e+17
19501.0	6.603707277901823e+17
19502.0	6.61062577326217e+17
19503.0	6.618621980355242e+17
19504.0	6.62571857005772e+17
19505.0	6.631411231140521e+17
19506.0	6.63722269868032e+17
19507.0	6.642288628684118e+17
19508.0	6.645608441970687e+17
19509.0	6.651477321143636e+17
19510.0	6.653402963159721e+17
19511.0	6.651100885155834e+17
19512.0	6.660003524684456e+17
19513.0	6.660801401541969e+17
19514.0	6.663175801230673e+17
19515.0	6.668188001501183e+17
19516.0	6.669817191508649e+17
19517.0	6.671093483962367e+17
19518.0	6.672381214283091e+17
19519.0	6.675157058497193e+17
19520.0	6.676739168840362e+17
19521.0	6.677815943845204e+17
19522.0	6.678810007175168e+17
19523.0	6.679795922370559e+17
19524.0	6.681488763038377e+17
19525.0	6.682984251217236e+17
19526.0	6.683801670036138e+17
19527.0	6.684572826380969e+17
19528.0	6.685296989743786e+17
19529.0	6.685986932479316e+17
19530.0	6.686609969774591e+17
19531.0	6.687671855000234e+17
19532.0	6.688583490469887e+17
19533.0	6.689055927085738e+17
19534.0	6.689489040004436e+17
19535.0	6.689882279073108e+17
19536.0	6.690228469934761e+17
19537.0	6.690578571984895e+17
19538.0	6.690807088152575e+17
19539.0	6.690820983182678e+17
19540.0	6.691330357635753e+17
19541.0	6.691537963100841e+17
19542.0	6.691693243225428e+17
19543.0	6.692239577186303e+17
19544.0	6.692383457192617e+17
19545.0	6.692175533659475e+17
19546.0	6.691974444744704e+17
19547.0	6.692486799250772e+17
19548.0	6.692467833307133e+17
19549.0	6.692357181975209e+17
19550.0	6.692353765015551e+17
19551.0	6.692266157189802e+17
19552.0	6.69215130526242e+17
19553.0	6.691995747614719e+17
19554.0	6.691800208463188e+17
19555.0	6.694033513163432e+17
19556.0	6.694540468901206e+17
19557.0	6.694265150592339e+17
19558.0	6.693974294484307e+17
19559.0	6.693664700323156e+17
19560.0	6.698535505013418e+17
19561.0	6.698350694891519e+17
19562.0	6.697977215888041e+17
19563.0	6.697566899710634e+17
19564.0	6.697139399469737e+17
19565.0	6.699773046991528e+17
19566.0	6.700695640779433e+17
19567.0	6.700309685119658e+17
19568.0	6.699868700191401e+17
19569.0	6.699348040264361e+17
19570.0	6.698803860777641e+17
19571.0	6.70073635558741e+17
19572.0	6.701271763386368e+17
19573.0	6.700670695156393e+17
19574.0	6.699994305615188e+17
19575.0	6.699421595074559e+17
19576.0	6.69877634404625e+17
19577.0	6.698114019404456e+17
19578.0	6.699080626121388e+17
19579.0	6.699618587552426e+17
19580.0	6.698911193716051e+17
19581.0	6.698195119767551e+17
19582.0	6.697472408332969e+17
19583.0	6.696728775010985e+17
19584.0	6.695972751015933e+17
19585.0	6.69513620267554e+17
19586.0	6.694340738940927e+17
19587.0	6.693770835088726e+17
19588.0	6.694783404386986e+17
19589.0	6.694232344843604e+17
19590.0	6.693377134646612e+17
19591.0	6.692599292581203e+17
19592.0	6.691761499231572e+17
19593.0	6.690903022370815e+17
19594.0	6.689906989116073e+17
19595.0	6.689183171084287e+17
19596.0	6.688122082776404e+17
19597.0	6.687441944226474e+17
19598.0	6.686374776973994e+17
19599.0	6.685677771030527e+17
19600.0	6.684779356706131e+17
19601.0	6.684940014627497e+17
19602.0	6.684539209034409e+17
19603.0	6.683366093662889e+17
19604.0	6.682682549338111e+17
19605.0	6.681600366477311e+17
19606.0	6.680851976814592e+17
19607.0	6.67990968447795e+17
19608.0	6.678954739324244e+17
19609.0	6.677971698625193e+17
19610.0	6.677045308293119e+17
19611.0	6.676077444683092e+17
19612.0	6.675111193782954e+17
19613.0	6.674129196067497e+17
19614.0	6.673129250925225e+17
19615.0	6.672171764722346e+17
19616.0	6.671148165802666e+17
19617.0	6.670188033693012e+17
19618.0	6.668846219919359e+17
19619.0	6.667754101451433e+17
19620.0	6.666786339902803e+17
19621.0	6.666359834411008e+17
19622.0	6.666291151983956e+17
19623.0	6.665272259772415e+17
19624.0	6.664248762215081e+17
19625.0	6.663221071751849e+17
19626.0	6.662188695551997e+17
19627.0	6.661147184158035e+17
19628.0	6.660018982791849e+17
19629.0	6.658980282979667e+17
19630.0	6.657491117015039e+17
19631.0	6.653000690958336e+17
19632.0	6.655858387014995e+17
19633.0	6.654842095970985e+17
19634.0	6.653821792376148e+17
19635.0	6.652739880747007e+17
19636.0	6.651707457710762e+17
19637.0	6.650383541731328e+17
19638.0	6.649571504903507e+17
19639.0	6.648538753313449e+17
19640.0	6.647629729497087e+17
19641.0	6.64617575374302e+17
19642.0	6.64553292702242e+17
19643.0	6.644445286673065e+17
19644.0	6.64332551725602e+17
19645.0	6.642119764606973e+17
19646.0	6.641196753485823e+17
19647.0	6.640108331597823e+17
19648.0	6.639016977891327e+17
19649.0	6.637921759133695e+17
19650.0	6.636827684722004e+17
19651.0	6.635729994820266e+17
19652.0	6.63463025320482e+17
19653.0	6.633527441358845e+17
19654.0	6.632425082497705e+17
19655.0	6.6313168893597e+17
19656.0	6.630208635404287e+17
19657.0	6.629104307317417e+17
19658.0	6.628317734808233e+17
19659.0	6.627607915266047e+17
19660.0	6.626494259746132e+17
19661.0	6.625377957620393e+17
19662.0	6.624259629645823e+17
19663.0	6.623111933154644e+17
19664.0	6.622005799419901e+17
19665.0	6.620897540571135e+17
