# Flux units: erg / (cm m2 s)
# Wavelength units: Angstrom
wave	flux
19000.0	6.862381112098813e+17
19001.0	6.861058171994111e+17
19002.0	6.859783556562943e+17
19003.0	6.858483271991295e+17
19004.0	6.857182153452202e+17
19005.0	6.855886288278867e+17
19006.0	6.854588544057341e+17
19007.0	6.853087627750058e+17
19008.0	6.851965977886719e+17
19009.0	6.850687488316755e+17
19010.0	6.849281516371968e+17
19011.0	6.848094141764948e+17
19012.0	6.846625572629161e+17
19013.0	6.845505603283626e+17
19014.0	6.84419372425762e+17
19015.0	6.842904351866879e+17
19016.0	6.841606891459923e+17
19017.0	6.8401133270685e+17
19018.0	6.83900695355938e+17
19019.0	6.837727809677994e+17
19020.0	6.836410044645375e+17
19021.0	6.835126234600788e+17
19022.0	6.833845261303807e+17
19023.0	6.832540225284777e+17
19024.0	6.831252488672595e+17
19025.0	6.829938394355027e+17
19026.0	6.828647051340457e+17
19027.0	6.827290986020863e+17
19028.0	6.82608199676723e+17
19029.0	6.824783097014953e+17
19030.0	6.823498269152595e+17
19031.0	6.822207142144681e+17
19032.0	6.820914360483839e+17
19033.0	6.819600779269459e+17
19034.0	6.818323092209663e+17
19035.0	6.817028924331348e+17
19036.0	6.805118234831523e+17
19037.0	6.814452421405353e+17
19038.0	6.813158713502378e+17
19039.0	6.811873157229225e+17
19040.0	6.810583993854634e+17
19041.0	6.809291553330516e+17
19042.0	6.807981133922303e+17
19043.0	6.806714600914944e+17
19044.0	6.805420068831231e+17
19045.0	6.804128915259391e+17
19046.0	6.802815103358292e+17
19047.0	6.801556958259881e+17
19048.0	6.800217884065791e+17
19049.0	6.798962729506134e+17
19050.0	6.797680853734739e+17
19051.0	6.795438973080914e+17
19052.0	6.795049667570346e+17
19053.0	6.793778482380799e+17
19054.0	6.792543183656275e+17
19055.0	6.791194350015827e+17
19056.0	6.789958798234963e+17
19057.0	6.788677824238932e+17
19058.0	6.787341919540563e+17
19059.0	6.786110415962111e+17
19060.0	6.784818250164906e+17
19061.0	6.783540093343059e+17
19062.0	6.782253194892627e+17
19063.0	6.780970419443027e+17
19064.0	6.779653195475625e+17
19065.0	6.778355960162985e+17
19066.0	6.777101127166634e+17
19067.0	6.775830355815081e+17
19068.0	6.774550256331434e+17
19069.0	6.773267197766314e+17
19070.0	6.771971663243946e+17
19071.0	6.770692602549588e+17
19072.0	6.769417897639936e+17
19073.0	6.76813544375364e+17
19074.0	6.766854785728511e+17
19075.0	6.765573039281491e+17
19076.0	6.764285892668072e+17
19077.0	6.763008446780755e+17
19078.0	6.761686698557439e+17
19079.0	6.760447998951423e+17
19080.0	6.759164582472361e+17
19081.0	6.757874771776852e+17
19082.0	6.756579012160169e+17
19083.0	6.755298142322687e+17
19084.0	6.753985978783059e+17
19085.0	6.752763413965482e+17
19086.0	6.751383271243775e+17
19087.0	6.750008665003348e+17
19088.0	6.748910683597481e+17
19089.0	6.747501785426601e+17
19090.0	6.746368897624745e+17
19091.0	6.745089320331945e+17
19092.0	6.743761105889962e+17
19093.0	6.742545506413226e+17
19094.0	6.741234123713194e+17
19095.0	6.739947530747901e+17
19096.0	6.738648210167124e+17
19097.0	6.737432392586579e+17
19098.0	6.736162330771456e+17
19099.0	6.734881850305193e+17
19100.0	6.733595137103188e+17
19101.0	6.732332371978921e+17
19102.0	6.731043413426175e+17
19103.0	6.729788552467796e+17
19104.0	6.728515378479103e+17
19105.0	6.727241355143849e+17
19106.0	6.725928808524457e+17
19107.0	6.724689356040873e+17
19108.0	6.723420621023913e+17
19109.0	6.720928984946002e+17
19110.0	6.720870542213119e+17
19111.0	6.719597779266218e+17
19112.0	6.718327780365652e+17
19113.0	6.717058177826815e+17
19114.0	6.715787650443946e+17
19115.0	6.714492944995668e+17
19116.0	6.713239553441791e+17
19117.0	6.711969363700393e+17
19118.0	6.710641563795455e+17
19119.0	6.708938780530003e+17
19120.0	6.708108982921897e+17
19121.0	6.706861687788884e+17
19122.0	6.705624238784511e+17
19123.0	6.704337861126825e+17
19124.0	6.703046554462889e+17
19125.0	6.7017912628893e+17
19126.0	6.700436474036223e+17
19127.0	6.698888564047871e+17
19128.0	6.69681146152004e+17
19129.0	6.69672135598626e+17
19130.0	6.695473101056682e+17
19131.0	6.694164876667561e+17
19132.0	6.692942484515497e+17
19133.0	6.691335264272384e+17
19134.0	6.689823051306326e+17
19135.0	6.68914075898129e+17
19136.0	6.687878345479508e+17
19137.0	6.686572811736403e+17
19138.0	6.685006656525652e+17
19139.0	6.684079625863165e+17
19140.0	6.682817366152531e+17
19141.0	6.681553183353513e+17
19142.0	6.680278482638163e+17
19143.0	6.679003746970281e+17
19144.0	6.677733954289663e+17
19145.0	6.67649125261858e+17
19146.0	6.675051259974998e+17
19147.0	6.673950221620564e+17
19148.0	6.672700257512106e+17
19149.0	6.671438550051497e+17
19150.0	6.670146610047657e+17
19151.0	6.668919483225428e+17
19152.0	6.667625885772457e+17
19153.0	6.666392690491391e+17
19154.0	6.665106391826431e+17
19155.0	6.663872251428864e+17
19156.0	6.662613819719677e+17
19157.0	6.661343039280468e+17
19158.0	6.659233342117203e+17
19159.0	6.658827253798228e+17
19160.0	6.657529763332095e+17
19161.0	6.65618594538018e+17
19162.0	6.653181531171501e+17
19163.0	6.653788729376767e+17
19164.0	6.652537259513172e+17
19165.0	6.651259506043561e+17
19166.0	6.649975429660672e+17
19167.0	6.648585207327401e+17
19168.0	6.647445961659732e+17
19169.0	6.646201564790783e+17
19170.0	6.644988994999636e+17
19171.0	6.643669296392874e+17
19172.0	6.642469034087764e+17
19173.0	6.641216381430442e+17
19174.0	6.639950105673727e+17
19175.0	6.638706931444393e+17
19176.0	6.63744915963904e+17
19177.0	6.6361590560413e+17
19178.0	6.634927636348927e+17
19179.0	6.633589654071978e+17
19180.0	6.631827468277076e+17
19181.0	6.631146587335338e+17
19182.0	6.629811884305066e+17
19183.0	6.628597578771114e+17
19184.0	6.627335730102272e+17
19185.0	6.626152521837225e+17
19186.0	6.624904138282324e+17
19187.0	6.623626675617791e+17
19188.0	6.622383120405844e+17
19189.0	6.621090380688041e+17
19190.0	6.619828003536895e+17
19191.0	6.618607598785876e+17
19192.0	6.617296687245993e+17
19193.0	6.615158609324713e+17
19194.0	6.614469066446164e+17
19195.0	6.613553693851647e+17
19196.0	6.612374909878272e+17
19197.0	6.611124256505855e+17
19198.0	6.60986745008947e+17
19199.0	6.597483529852241e+17
19200.0	6.6003372825641e+17
19201.0	6.606117581531818e+17
19202.0	6.604875260144298e+17
19203.0	6.603605360508927e+17
19204.0	6.602368277108052e+17
19205.0	6.601125938244265e+17
19206.0	6.59987760292386e+17
19207.0	6.598610779111423e+17
19208.0	6.597326107836415e+17
19209.0	6.596120520163327e+17
19210.0	6.594879964577791e+17
19211.0	6.593627990698666e+17
19212.0	6.592389874799955e+17
19213.0	6.591019520884735e+17
19214.0	6.589713361491284e+17
19215.0	6.588607324924585e+17
19216.0	6.587352820482047e+17
19217.0	6.58614919434513e+17
19218.0	6.584712843056467e+17
19219.0	6.583619019603965e+17
19220.0	6.582398736487764e+17
19221.0	6.581074261267796e+17
19222.0	6.579921632974164e+17
19223.0	6.578669754165929e+17
19224.0	6.577346752544767e+17
19225.0	6.576129604670803e+17
19226.0	6.574932400013311e+17
19227.0	6.573685717947731e+17
19228.0	6.572443114842793e+17
19229.0	6.57119796859153e+17
19230.0	6.56990081786402e+17
19231.0	6.568653107494911e+17
19232.0	6.567400164032511e+17
19233.0	6.566199601135615e+17
19234.0	6.564969248194559e+17
19235.0	6.563722076094463e+17
19236.0	6.562487154158249e+17
19237.0	6.56124012536354e+17
19238.0	6.559961452642303e+17
19239.0	6.558753472817834e+17
19240.0	6.55739942216226e+17
19241.0	6.556233857936042e+17
19242.0	6.555007681123668e+17
19243.0	6.553735144669183e+17
19244.0	6.552538277653162e+17
19245.0	6.551296409949524e+17
19246.0	6.550052367499263e+17
19247.0	6.548802809539242e+17
19248.0	6.547569922539519e+17
19249.0	6.546325943702867e+17
19250.0	6.545082401073833e+17
19251.0	6.543822673324714e+17
19252.0	6.542497606707882e+17
19253.0	6.541356158331561e+17
19254.0	6.540101601460223e+17
19255.0	6.538825339065686e+17
19256.0	6.537596232531967e+17
19257.0	6.536392514819412e+17
19258.0	6.535148590508713e+17
19259.0	6.533891175219199e+17
19260.0	6.53258494452258e+17
19261.0	6.531424897903274e+17
19262.0	6.530171792261119e+17
19263.0	6.528933931515903e+17
19264.0	6.527575715217407e+17
19265.0	6.526419129597951e+17
19266.0	6.525192338320042e+17
19267.0	6.52398010966562e+17
19268.0	6.522730250414761e+17
19269.0	6.521496359578281e+17
19270.0	6.520242774387369e+17
19271.0	6.518925620325034e+17
19272.0	6.517764395106301e+17
19273.0	6.513619786618193e+17
19274.0	6.513888864501757e+17
19275.0	6.514047911111337e+17
19276.0	6.512801494685012e+17
19277.0	6.511558111439529e+17
19278.0	6.51031701828403e+17
19279.0	6.509011689362772e+17
19280.0	6.507815128530943e+17
19281.0	6.506591577352874e+17
19282.0	6.50535316365858e+17
19283.0	6.503923630910122e+17
19284.0	6.502420657995775e+17
19285.0	6.501563603703124e+17
19286.0	6.500374121458345e+17
19287.0	6.499139350517076e+17
19288.0	6.495510531670015e+17
19289.0	6.489254053369157e+17
19290.0	6.495408666006867e+17
19291.0	6.494098644358484e+17
19292.0	6.492919954057897e+17
19293.0	6.491673704005631e+17
19294.0	6.490426220827988e+17
19295.0	6.489184513906004e+17
19296.0	6.487938321874943e+17
19297.0	6.486684749965993e+17
19298.0	6.485439861664425e+17
19299.0	6.484201327034367e+17
19300.0	6.482953827079508e+17
19301.0	6.481703216349183e+17
19302.0	6.48045168496913e+17
19303.0	6.479179232400724e+17
19304.0	6.477940055343101e+17
19305.0	6.476706096698708e+17
19306.0	6.475449176337066e+17
19307.0	6.47417981636881e+17
19308.0	6.472941234902356e+17
19309.0	6.471395569565695e+17
19310.0	6.46992635380804e+17
19311.0	6.469166510200147e+17
19312.0	6.467928121671679e+17
19313.0	6.466545484038144e+17
19314.0	6.463217146527738e+17
19315.0	6.46211288275354e+17
19316.0	6.462910228332541e+17
19317.0	6.461663320473599e+17
19318.0	6.460403464798208e+17
19319.0	6.459149074300927e+17
19320.0	6.457852912031059e+17
19321.0	6.456626706557609e+17
19322.0	6.455307985223679e+17
19323.0	6.453908083135828e+17
19324.0	6.452828934154921e+17
19325.0	6.451388535362902e+17
19326.0	6.450300397988521e+17
19327.0	6.449024049610751e+17
19328.0	6.447762515514707e+17
19329.0	6.446490842387796e+17
19330.0	6.445207425209683e+17
19331.0	6.443932072979114e+17
19332.0	6.442661198867113e+17
19333.0	6.441379123866282e+17
19334.0	6.44006300160273e+17
19335.0	6.438825920299008e+17
19336.0	6.437536739448148e+17
19337.0	6.436251604003497e+17
19338.0	6.434916583604223e+17
19339.0	6.433674104231252e+17
19340.0	6.43237180289843e+17
19341.0	6.431087880306687e+17
19342.0	6.429663589040128e+17
19343.0	6.428489367071401e+17
19344.0	6.427183910922921e+17
19345.0	6.425391154244264e+17
19346.0	6.424445788880895e+17
19347.0	6.423235640601257e+17
19348.0	6.421941398623571e+17
19349.0	6.420610209021951e+17
19350.0	6.419285357712723e+17
19351.0	6.417953474652842e+17
19352.0	6.416609234474324e+17
19353.0	6.415293044402858e+17
19354.0	6.413948433727488e+17
19355.0	6.412582623641597e+17
19356.0	6.411257859713705e+17
19357.0	6.409902617875798e+17
19358.0	6.408516717073748e+17
19359.0	6.40701960430114e+17
19360.0	6.405794297107795e+17
19361.0	6.404406725574655e+17
19362.0	6.403048616230911e+17
19363.0	6.401656551899135e+17
19364.0	6.400254364614655e+17
19365.0	6.398851372722857e+17
19366.0	6.397439954474324e+17
19367.0	6.396015480056489e+17
19368.0	6.394587275504298e+17
19369.0	6.393086962477737e+17
19370.0	6.391330119527082e+17
19371.0	6.390221974623571e+17
19372.0	6.388764121235455e+17
19373.0	6.387272370880511e+17
19374.0	6.385783298588672e+17
19375.0	6.384273539989501e+17
19376.0	6.38274439811345e+17
19377.0	6.381213979770879e+17
19378.0	6.379662768166228e+17
19379.0	6.378093826539519e+17
19380.0	6.376508448833535e+17
19381.0	6.37489844007731e+17
19382.0	6.37324791714065e+17
19383.0	6.371598460955306e+17
19384.0	6.369958446148265e+17
19385.0	6.368266799458985e+17
19386.0	6.36654338511121e+17
19387.0	6.364798703545001e+17
19388.0	6.3630285996032e+17
19389.0	6.361226603571881e+17
19390.0	6.3593557014173e+17
19391.0	6.348004855032475e+17
19392.0	6.355595960167082e+17
19393.0	6.353668901874346e+17
19394.0	6.35167171481873e+17
19395.0	6.349626237343059e+17
19396.0	6.347525384568831e+17
19397.0	6.345419476959231e+17
19398.0	6.343213952532479e+17
19399.0	6.340800445153279e+17
19400.0	6.338619999169194e+17
19401.0	6.336203896214867e+17
19402.0	6.333725547692031e+17
19403.0	6.331148442883412e+17
19404.0	6.328492360728575e+17
19405.0	6.325727096646313e+17
19406.0	6.322870405824511e+17
19407.0	6.319904257649321e+17
19408.0	6.316636438353238e+17
19409.0	6.313528475866451e+17
19410.0	6.310178112667648e+17
19411.0	6.306628178193065e+17
19412.0	6.30289127842338e+17
19413.0	6.298936175580499e+17
19414.0	6.294783453910356e+17
19415.0	6.290404308331178e+17
19416.0	6.285660937082196e+17
19417.0	6.280605398466559e+17
19418.0	6.275551972382036e+17
19419.0	6.269848095031295e+17
19420.0	6.263919166007977e+17
19421.0	6.257483008617129e+17
19422.0	6.250601167279444e+17
19423.0	6.243170769698815e+17
19424.0	6.235163844061866e+17
19425.0	6.226436029415423e+17
19426.0	6.217018551653715e+17
19427.0	6.206712477734227e+17
19428.0	6.195646082755241e+17
19429.0	6.183523570417663e+17
19430.0	6.169981806269782e+17
19431.0	6.153521114120196e+17
19432.0	6.139527452863144e+17
19433.0	6.121794557007188e+17
19434.0	6.102652047851519e+17
19435.0	6.081087315552937e+17
19436.0	6.056325352696489e+17
19437.0	6.029822428621482e+17
19438.0	5.988272422169256e+17
19439.0	5.969325821962924e+17
19440.0	5.934112349792938e+17
19441.0	5.893399721454248e+17
19442.0	5.845539368555863e+17
19443.0	5.796318028322132e+17
19444.0	5.7415005344453926e+17
19445.0	5.675323085553666e+17
19446.0	5.600784509741739e+17
19447.0	5.517030295164244e+17
19448.0	5.415390948971866e+17
19449.0	5.272719535549101e+17
19450.0	4.9408741233131296e+17
19451.0	4.8168237803765715e+17
19452.0	5.130786962057902e+17
19453.0	5.354041898259802e+17
19454.0	5.463355536616101e+17
19455.0	5.554777244390741e+17
19456.0	5.629183868796929e+17
19457.0	5.698994200117245e+17
19458.0	5.7532658116198445e+17
19459.0	5.805086882136067e+17
19460.0	5.852121037537276e+17
19461.0	5.893984329837225e+17
19462.0	5.929368955475286e+17
19463.0	5.960023076590931e+17
19464.0	5.987369279466152e+17
19465.0	6.013875312918527e+17
19466.0	6.036628707475453e+17
19467.0	6.057290643101011e+17
19468.0	6.075048142744234e+17
19469.0	6.090587119812607e+17
19470.0	6.105582142488575e+17
19471.0	6.118508968542207e+17
19472.0	6.129938567877971e+17
19473.0	6.140201078358015e+17
19474.0	6.149362470791849e+17
19475.0	6.157457568388435e+17
19476.0	6.165013858003625e+17
19477.0	6.171608276271104e+17
19478.0	6.177578591191037e+17
19479.0	6.182850044887039e+17
19480.0	6.187588442390528e+17
19481.0	6.191818435024212e+17
19482.0	6.195622265399977e+17
19483.0	6.1990202507264e+17
19484.0	6.202061362997929e+17
19485.0	6.204750915698687e+17
19486.0	6.207138900038996e+17
19487.0	6.209252895664809e+17
19488.0	6.21111665561873e+17
19489.0	6.212748850145961e+17
19490.0	6.213900954850643e+17
19491.0	6.215447015849983e+17
19492.0	6.216533171415721e+17
19493.0	6.217448689412778e+17
19494.0	6.218225008246783e+17
19495.0	6.218813992686932e+17
19496.0	6.219279910655316e+17
19497.0	6.219807694607699e+17
19498.0	6.219692613391702e+17
19499.0	6.204480135626734e+17
19500.0	6.220501821860521e+17
19501.0	6.220548945565012e+17
19502.0	6.220544723998035e+17
19503.0	6.220486772697769e+17
19504.0	6.220320820166655e+17
19505.0	6.22014724378897e+17
19506.0	6.219886034419711e+17
19507.0	6.219568453604692e+17
19508.0	6.219213526706858e+17
19509.0	6.218808484866729e+17
19510.0	6.218320179800745e+17
19511.0	6.208666729796943e+17
19512.0	6.215503721441953e+17
19513.0	6.212561831722999e+17
19514.0	6.213354146933414e+17
19515.0	6.215327951443284e+17
19516.0	6.214975926304768e+17
19517.0	6.214287721409193e+17
19518.0	6.213626153140223e+17
19519.0	6.212914290971988e+17
19520.0	6.212181186052095e+17
19521.0	6.211437472339284e+17
19522.0	6.210656194439849e+17
19523.0	6.209882771772756e+17
19524.0	6.209079315791872e+17
19525.0	6.208240564742825e+17
19526.0	6.207423779263828e+17
19527.0	6.206577764379306e+17
19528.0	6.205718214475775e+17
19529.0	6.204845855866879e+17
19530.0	6.203964984218964e+17
19531.0	6.203076514589353e+17
19532.0	6.202171213217791e+17
19533.0	6.201256773156863e+17
19534.0	6.200331851530239e+17
19535.0	6.199392722397865e+17
19536.0	6.198447656927231e+17
19537.0	6.197509587555668e+17
19538.0	6.196545586200575e+17
19539.0	6.195456631635968e+17
19540.0	6.194610030247936e+17
19541.0	6.193639151632383e+17
19542.0	6.192653585263273e+17
19543.0	6.191664550204758e+17
19544.0	6.190669544554495e+17
19545.0	6.189591443450537e+17
19546.0	6.188444889208148e+17
19547.0	6.187632150533462e+17
19548.0	6.186633137225727e+17
19549.0	6.185588529736361e+17
19550.0	6.184595699531775e+17
19551.0	6.183568907348649e+17
19552.0	6.182537243481428e+17
19553.0	6.181497982331561e+17
19554.0	6.180455014815059e+17
19555.0	6.179418636550144e+17
19556.0	6.178376630228308e+17
19557.0	6.177323833360383e+17
19558.0	6.176276981918376e+17
19559.0	6.1752121767581e+17
19560.0	6.174169320390655e+17
19561.0	6.173110452267689e+17
19562.0	6.172054182516052e+17
19563.0	6.170983591313405e+17
19564.0	6.16992673435921e+17
19565.0	6.1688596412061e+17
19566.0	6.167782697730047e+17
19567.0	6.166711454313129e+17
19568.0	6.165636208831146e+17
19569.0	6.164559993765887e+17
19570.0	6.163492397995348e+17
19571.0	6.162413227343871e+17
19572.0	6.161323533882708e+17
19573.0	6.16024779067665e+17
19574.0	6.159137290671444e+17
19575.0	6.158079774512467e+17
19576.0	6.156990104819027e+17
19577.0	6.155854159369556e+17
19578.0	6.154811567942312e+17
19579.0	6.153725041180672e+17
19580.0	6.152634575967572e+17
19581.0	6.151546537159338e+17
19582.0	6.150457873399805e+17
19583.0	6.14936407581218e+17
19584.0	6.148264931885055e+17
19585.0	6.147140194314921e+17
19586.0	6.145897729622015e+17
19587.0	6.144708024380074e+17
19588.0	6.143743488251219e+17
19589.0	6.142444781436927e+17
19590.0	6.141648680867156e+17
19591.0	6.140572857969322e+17
19592.0	6.139470859818323e+17
19593.0	6.138353783144447e+17
19594.0	6.137185538058921e+17
19595.0	6.13616369934882e+17
19596.0	6.132155999933783e+17
19597.0	6.133948899218772e+17
19598.0	6.132802344976383e+17
19599.0	6.131753734722902e+17
19600.0	6.130650667723433e+17
19601.0	6.12952948482594e+17
19602.0	6.128430085046271e+17
19603.0	6.127066047752874e+17
19604.0	6.126206606202196e+17
19605.0	6.125045598388224e+17
19606.0	6.124000145746601e+17
19607.0	6.122905437995008e+17
19608.0	6.121791133057023e+17
19609.0	6.120671008522239e+17
19610.0	6.119580950156627e+17
19611.0	6.118469805626707e+17
19612.0	6.11736338178594e+17
19613.0	6.116248835675476e+17
19614.0	6.115134249719124e+17
19615.0	6.11403480310306e+17
19616.0	6.112845455076009e+17
19617.0	6.111809573137066e+17
19618.0	6.110594288233129e+17
19619.0	6.109439678829908e+17
19620.0	6.108339071090685e+17
19621.0	6.107371691223721e+17
19622.0	6.106263561000276e+17
19623.0	6.105152998080511e+17
19624.0	6.104039660628649e+17
19625.0	6.102927769512617e+17
19626.0	6.101818474670761e+17
19627.0	6.100708749912745e+17
19628.0	6.099345389999444e+17
19629.0	6.09846450856482e+17
19630.0	6.097225506968916e+17
19631.0	6.084697405434532e+17
19632.0	6.095145236343465e+17
19633.0	6.094026946816682e+17
19634.0	6.092928536892756e+17
19635.0	6.091807511980713e+17
19636.0	6.090703679520767e+17
19637.0	6.089493367663273e+17
19638.0	6.088481770744489e+17
19639.0	6.087359083489961e+17
19640.0	6.086244786940586e+17
19641.0	6.085029557261652e+17
19642.0	6.08403495845888e+17
19643.0	6.08291547914786e+17
19644.0	6.081800973582335e+17
19645.0	6.080644793412265e+17
19646.0	6.079593523270995e+17
19647.0	6.07848238293538e+17
19648.0	6.07737010594338e+17
19649.0	6.076258271450452e+17
19650.0	6.075149310754815e+17
19651.0	6.074036581477033e+17
19652.0	6.07292534956578e+17
19653.0	6.071812217634815e+17
19654.0	6.070703735089833e+17
19655.0	6.069592132681727e+17
19656.0	6.068478003205459e+17
19657.0	6.067372300085929e+17
19658.0	6.066256858491561e+17
19659.0	6.06515398512913e+17
19660.0	6.064044327479977e+17
19661.0	6.062934358054227e+17
19662.0	6.061824488592724e+17
19663.0	6.06070287508002e+17
19664.0	6.05954982945314e+17
19665.0	6.058495635182931e+17
