# Flux units: erg / (cm m2 s)
# Wavelength units: Angstrom
wave	flux
19000.0	5.3846391516037114e+17
19001.0	5.383495519393109e+17
19002.0	5.3826405314942285e+17
19003.0	5.381620759876949e+17
19004.0	5.3806165141749754e+17
19005.0	5.379624040486227e+17
19006.0	5.3786382567123616e+17
19007.0	5.3775401159229434e+17
19008.0	5.37655688368401e+17
19009.0	5.375516453721428e+17
19010.0	5.373938230799016e+17
19011.0	5.373564462388563e+17
19012.0	5.371270141050876e+17
19013.0	5.3716452809987405e+17
19014.0	5.3705863912052045e+17
19015.0	5.369599874127189e+17
19016.0	5.3685785016838816e+17
19017.0	5.3676643286603085e+17
19018.0	5.366598068076543e+17
19019.0	5.3656612737733965e+17
19020.0	5.364652808601599e+17
19021.0	5.3636808842062496e+17
19022.0	5.3626792284869965e+17
19023.0	5.361629941552468e+17
19024.0	5.360629610534228e+17
19025.0	5.3595876594373965e+17
19026.0	5.3585377769117005e+17
19027.0	5.356613616883027e+17
19028.0	5.356711447625728e+17
19029.0	5.35568091132723e+17
19030.0	5.354726583435262e+17
19031.0	5.353744911477417e+17
19032.0	5.3527346805036365e+17
19033.0	5.351623505215487e+17
19034.0	5.350722043729236e+17
19035.0	5.349591873836372e+17
19036.0	5.272292067464515e+17
19037.0	5.3476666288810656e+17
19038.0	5.3467407006214816e+17
19039.0	5.345784892140202e+17
19040.0	5.344800860187305e+17
19041.0	5.343796550871721e+17
19042.0	5.341877128309417e+17
19043.0	5.3418349566798496e+17
19044.0	5.3408172808164685e+17
19045.0	5.339805206446079e+17
19046.0	5.3387710232002554e+17
19047.0	5.3378461302347085e+17
19048.0	5.3364139781434016e+17
19049.0	5.3341400704832826e+17
19050.0	5.3347894221428045e+17
19051.0	5.322725951624514e+17
19052.0	5.331170573855403e+17
19053.0	5.3318903318009165e+17
19054.0	5.330934626779135e+17
19055.0	5.3293760311022944e+17
19056.0	5.328830633869311e+17
19057.0	5.327957344823978e+17
19058.0	5.3260755514600083e+17
19059.0	5.3256556149473274e+17
19060.0	5.32495820005922e+17
19061.0	5.3240162991909536e+17
19062.0	5.323020704940032e+17
19063.0	5.3220357684155725e+17
19064.0	5.320867742132906e+17
19065.0	5.3198352317153274e+17
19066.0	5.3186906075518285e+17
19067.0	5.318070955059881e+17
19068.0	5.317100575566506e+17
19069.0	5.316115874622122e+17
19070.0	5.315087643792724e+17
19071.0	5.314091662966783e+17
19072.0	5.3128228028197536e+17
19073.0	5.3121636176145056e+17
19074.0	5.3111851829602976e+17
19075.0	5.3101993726225056e+17
19076.0	5.309184632072873e+17
19077.0	5.3082054452401485e+17
19078.0	5.307179546443775e+17
19079.0	5.3062535734449485e+17
19080.0	5.3052525986010445e+17
19081.0	5.3042275862009165e+17
19082.0	5.303242779000832e+17
19083.0	5.3021922624361805e+17
19084.0	5.301051176168107e+17
19085.0	5.3003239125155834e+17
19086.0	5.2983857770659834e+17
19087.0	5.295746559508481e+17
19088.0	5.2967826658426854e+17
19089.0	5.2951670115532794e+17
19090.0	5.295373325172735e+17
19091.0	5.2943189512465056e+17
19092.0	5.292309432937131e+17
19093.0	5.29248379015441e+17
19094.0	5.291506859857237e+17
19095.0	5.29052581634594e+17
19096.0	5.289518709429587e+17
19097.0	5.288559727957332e+17
19098.0	5.287218853008725e+17
19099.0	5.2861712752530765e+17
19100.0	5.285488272692566e+17
19101.0	5.2845919093828256e+17
19102.0	5.283482402029567e+17
19103.0	5.282674983130453e+17
19104.0	5.2816990168241485e+17
19105.0	5.279936123589975e+17
19106.0	5.2793642966493856e+17
19107.0	5.27852237820177e+17
19108.0	5.277473443588777e+17
19109.0	5.27162947648443e+17
19110.0	5.275677814510931e+17
19111.0	5.274588123845971e+17
19112.0	5.273596750462975e+17
19113.0	5.27287963422993e+17
19114.0	5.2717572517614925e+17
19115.0	5.27066770510097e+17
19116.0	5.2699260242274976e+17
19117.0	5.26894058508561e+17
19118.0	5.2675625451083085e+17
19119.0	5.255499008180206e+17
19120.0	5.265403304127145e+17
19121.0	5.264620614844415e+17
19122.0	5.2640937047053645e+17
19123.0	5.2631181529361056e+17
19124.0	5.2618074930544634e+17
19125.0	5.2611309364401485e+17
19126.0	5.2601776899795616e+17
19127.0	5.256661857992703e+17
19128.0	5.2575230143146656e+17
19129.0	5.2571606753826125e+17
19130.0	5.256266650397354e+17
19131.0	5.2552890189523616e+17
19132.0	5.254335487978153e+17
19133.0	5.2531717979067725e+17
19134.0	5.2520631231228595e+17
19135.0	5.251390569971711e+17
19136.0	5.250446053255849e+17
19137.0	5.249241074455892e+17
19138.0	5.248461028982783e+17
19139.0	5.247524918351188e+17
19140.0	5.2465543011805856e+17
19141.0	5.2455815805665274e+17
19142.0	5.2445556761777485e+17
19143.0	5.2435512242558285e+17
19144.0	5.2426137847289165e+17
19145.0	5.2416880081633274e+17
19146.0	5.2398724295775584e+17
19147.0	5.2396051237874336e+17
19148.0	5.2384618285192525e+17
19149.0	5.237451008245759e+17
19150.0	5.236823438305962e+17
19151.0	5.235855251035477e+17
19152.0	5.234814516286805e+17
19153.0	5.2333372572521805e+17
19154.0	5.232694179572394e+17
19155.0	5.2319567608108365e+17
19156.0	5.23100024419123e+17
19157.0	5.22974044164369e+17
19158.0	5.2252819866692224e+17
19159.0	5.228040760765098e+17
19160.0	5.2270375370751994e+17
19161.0	5.226076435382271e+17
19162.0	5.217226565091336e+17
19163.0	5.224016150615381e+17
19164.0	5.223235352963753e+17
19165.0	5.221480849735678e+17
19166.0	5.220918078297428e+17
19167.0	5.2195878023550285e+17
19168.0	5.2193558783153485e+17
19169.0	5.2182490504232954e+17
19170.0	5.2174379677996365e+17
19171.0	5.215963415489194e+17
19172.0	5.215461219587414e+17
19173.0	5.2145156046629536e+17
19174.0	5.2134997183692794e+17
19175.0	5.2126173060136954e+17
19176.0	5.211649501123924e+17
19177.0	5.2104774462122656e+17
19178.0	5.2095211525898234e+17
19179.0	5.2080221558756704e+17
19180.0	5.207740885150379e+17
19181.0	5.206619949716822e+17
19182.0	5.2058113850736634e+17
19183.0	5.204892046764713e+17
19184.0	5.203913265381375e+17
19185.0	5.20295152685329e+17
19186.0	5.2020014568789325e+17
19187.0	5.200934492351147e+17
19188.0	5.200052299497472e+17
19189.0	5.1990799123305805e+17
19190.0	5.1980778819201683e+17
19191.0	5.197045593800704e+17
19192.0	5.1962113481332045e+17
19193.0	5.195147073552383e+17
19194.0	5.194136046359893e+17
19195.0	5.19330383073553e+17
19196.0	5.1923036618970445e+17
19197.0	5.1913112091798176e+17
19198.0	5.1901690114211834e+17
19199.0	5.144213408011593e+17
19200.0	5.1574851288869715e+17
19201.0	5.1873099263508474e+17
19202.0	5.186522856117589e+17
19203.0	5.185457163862014e+17
19204.0	5.184593962117802e+17
19205.0	5.1836888292174496e+17
19206.0	5.182723336787285e+17
19207.0	5.1816363710218234e+17
19208.0	5.180486706003967e+17
19209.0	5.1798562552763725e+17
19210.0	5.178894743939754e+17
19211.0	5.177953788887039e+17
19212.0	5.176987416352083e+17
19213.0	5.1755136085306016e+17
19214.0	5.1743553584715085e+17
19215.0	5.1739283741300045e+17
19216.0	5.173153877022036e+17
19217.0	5.1721831948397216e+17
19218.0	5.170058343656103e+17
19219.0	5.1700818590214816e+17
19220.0	5.169258761114964e+17
19221.0	5.1679014256203085e+17
19222.0	5.1673912367732045e+17
19223.0	5.166419136217087e+17
19224.0	5.1654303325443405e+17
19225.0	5.1643237108722336e+17
19226.0	5.163545671674538e+17
19227.0	5.162587669572266e+17
19228.0	5.1616618776275616e+17
19229.0	5.160703376403113e+17
19230.0	5.159711635319466e+17
19231.0	5.1587545014381216e+17
19232.0	5.15781369738035e+17
19233.0	5.156771227587925e+17
19234.0	5.1558847942929056e+17
19235.0	5.15491713131042e+17
19236.0	5.154004417904638e+17
19237.0	5.1530259902409376e+17
19238.0	5.151890260099071e+17
19239.0	5.151137636286462e+17
19240.0	5.1501628485795834e+17
19241.0	5.149188190896128e+17
19242.0	5.1482486695963296e+17
19243.0	5.147102648030547e+17
19244.0	5.1463599891851936e+17
19245.0	5.1453974649241594e+17
19246.0	5.1444244528059725e+17
19247.0	5.1434821618674336e+17
19248.0	5.1425236655363405e+17
19249.0	5.1415277245562874e+17
19250.0	5.14047771550242e+17
19251.0	5.139388719693823e+17
19252.0	5.1383613864454816e+17
19253.0	5.137727750843051e+17
19254.0	5.136801150795775e+17
19255.0	5.135616305354068e+17
19256.0	5.1348376076506445e+17
19257.0	5.1339453219034445e+17
19258.0	5.132991602185556e+17
19259.0	5.131943245687466e+17
19260.0	5.129397042413564e+17
19261.0	5.130108938835285e+17
19262.0	5.1290875656929274e+17
19263.0	5.1281230722061645e+17
19264.0	5.1264650421643923e+17
19265.0	5.1260157357370003e+17
19266.0	5.124933898906283e+17
19267.0	5.1244053180361376e+17
19268.0	5.1234401968018765e+17
19269.0	5.122493049558356e+17
19270.0	5.1213841447867725e+17
19271.0	5.1193916693326515e+17
19272.0	5.118889337115989e+17
19273.0	5.117128722087934e+17
19274.0	5.1162675259200826e+17
19275.0	5.116077964350804e+17
19276.0	5.115097147331925e+17
19277.0	5.114151500950185e+17
19278.0	5.1131835373759136e+17
19279.0	5.1121892671269536e+17
19280.0	5.1111749348229126e+17
19281.0	5.1103279370731514e+17
19282.0	5.109391890055167e+17
19283.0	5.107742131879934e+17
19284.0	5.107230988129621e+17
19285.0	5.1062823134603936e+17
19286.0	5.105525507926697e+17
19287.0	5.104596672315391e+17
19288.0	5.082607942718782e+17
19289.0	5.05235670407569e+17
19290.0	5.1017297187307514e+17
19291.0	5.100465553408e+17
19292.0	5.099856962693802e+17
19293.0	5.098894621584042e+17
19294.0	5.0979301392820896e+17
19295.0	5.0969968688933536e+17
19296.0	5.095669954685611e+17
19297.0	5.0949363352644256e+17
19298.0	5.094089574492842e+17
19299.0	5.0927472168577696e+17
19300.0	5.0921914778692256e+17
19301.0	5.0912537300609696e+17
19302.0	5.0902727159098016e+17
19303.0	5.0892080358795936e+17
19304.0	5.0883291788957005e+17
19305.0	5.0873905593712634e+17
19306.0	5.086410177161897e+17
19307.0	5.0853664406896634e+17
19308.0	5.0844503704425805e+17
19309.0	5.0817959604169363e+17
19310.0	5.080317985554428e+17
19311.0	5.081412879253502e+17
19312.0	5.080672725106687e+17
19313.0	5.079700354017962e+17
19314.0	4.9640186402134106e+17
19315.0	4.9713111808083194e+17
19316.0	5.0761693155819514e+17
19317.0	5.0758695829285536e+17
19318.0	5.0749143917090125e+17
19319.0	5.0739793897717754e+17
19320.0	5.0728464796002976e+17
19321.0	5.071725313480021e+17
19322.0	5.070896428832085e+17
19323.0	5.069214883424941e+17
19324.0	5.068224414613504e+17
19325.0	5.065628233411241e+17
19326.0	5.066334939381759e+17
19327.0	5.065356648731989e+17
19328.0	5.063745279623168e+17
19329.0	5.0634634321810765e+17
19330.0	5.0624338976221856e+17
19331.0	5.0614597201865376e+17
19332.0	5.0605278108494496e+17
19333.0	5.05952559239441e+17
19334.0	5.0585646172296525e+17
19335.0	5.0562540122057395e+17
19336.0	5.0565896418099194e+17
19337.0	5.055663208136703e+17
19338.0	5.054403772590761e+17
19339.0	5.053689118414163e+17
19340.0	5.0524681096833696e+17
19341.0	5.051184338785621e+17
19342.0	5.049954022195198e+17
19343.0	5.0497665920314016e+17
19344.0	5.048283120533504e+17
19345.0	5.044140118463824e+17
19346.0	5.044509124941139e+17
19347.0	5.0440199229931514e+17
19348.0	5.043765115529897e+17
19349.0	5.042703129640959e+17
19350.0	5.041469819016532e+17
19351.0	5.040707941870249e+17
19352.0	5.038967355342846e+17
19353.0	5.038757279432703e+17
19354.0	5.0377576509603834e+17
19355.0	5.036166670363306e+17
19356.0	5.035238932960596e+17
19357.0	5.0342308557619194e+17
19358.0	5.032595463776938e+17
19359.0	5.031301704843262e+17
19360.0	5.0299513542628685e+17
19361.0	5.0294305405446816e+17
19362.0	5.0284636660913485e+17
19363.0	5.0274247439810554e+17
19364.0	5.0263806279243085e+17
19365.0	5.025335725435563e+17
19366.0	5.024284661514238e+17
19367.0	5.023220098924543e+17
19368.0	5.0221719828998816e+17
19369.0	5.0210023201396045e+17
19370.0	5.0199169251409914e+17
19371.0	5.0188896163594234e+17
19372.0	5.017876035534847e+17
19373.0	5.016752587713194e+17
19374.0	5.015689964989098e+17
19375.0	5.0145834509707936e+17
19376.0	5.013489742162602e+17
19377.0	5.012359381428906e+17
19378.0	5.0112413561432736e+17
19379.0	5.010113855924906e+17
19380.0	5.0089715092684794e+17
19381.0	5.0078192850261325e+17
19382.0	5.0064628464134816e+17
19383.0	5.0046009815859194e+17
19384.0	5.0035556659582285e+17
19385.0	5.002371534946303e+17
19386.0	5.001169646649343e+17
19387.0	4.9999386729512954e+17
19388.0	4.998711566401534e+17
19389.0	4.9974544384218445e+17
19390.0	4.996144407685801e+17
19391.0	4.924904184304878e+17
19392.0	4.9926121130557357e+17
19393.0	4.992025053801128e+17
19394.0	4.9898676394393594e+17
19395.0	4.988223161193813e+17
19396.0	4.9869776011045536e+17
19397.0	4.985772086132735e+17
19398.0	4.983981935514966e+17
19399.0	4.981456756189865e+17
19400.0	4.979640407949311e+17
19401.0	4.978326273785855e+17
19402.0	4.976771466264574e+17
19403.0	4.9751595742658554e+17
19404.0	4.9720859834013005e+17
19405.0	4.969965084650153e+17
19406.0	4.968233438281727e+17
19407.0	4.9645902385643514e+17
19408.0	4.961075850117122e+17
19409.0	4.959335539714729e+17
19410.0	4.9553765221881165e+17
19411.0	4.951972362846207e+17
19412.0	4.94754637947426e+17
19413.0	4.941855890341883e+17
19414.0	4.936551092628143e+17
19415.0	4.930411254426283e+17
19416.0	4.9247433963601914e+17
19417.0	4.921187183711572e+17
19418.0	4.918779474258602e+17
19419.0	4.9153004361045325e+17
19420.0	4.9117155777576954e+17
19421.0	4.907920003170304e+17
19422.0	4.903884025058644e+17
19423.0	4.899751978511017e+17
19424.0	4.8952668023248205e+17
19425.0	4.890488134609578e+17
19426.0	4.885722506985471e+17
19427.0	4.880680351694846e+17
19428.0	4.875511642368682e+17
19429.0	4.8695058715989325e+17
19430.0	4.8624121794614656e+17
19431.0	4.8446267974833696e+17
19432.0	4.850280243221844e+17
19433.0	4.842390148524715e+17
19434.0	4.833609338847232e+17
19435.0	4.819939419837776e+17
19436.0	4.799469299520849e+17
19437.0	4.778741321083561e+17
19438.0	4.627129350225938e+17
19439.0	4.717637938446344e+17
19440.0	4.700536101492051e+17
19441.0	4.6786901124491936e+17
19442.0	4.655462306458283e+17
19443.0	4.631121537706666e+17
19444.0	4.6046743496403603e+17
19445.0	4.566894099038215e+17
19446.0	4.474005803936453e+17
19447.0	4.394218167817554e+17
19448.0	4.313703934241452e+17
19449.0	4.1444295381264966e+17
19450.0	3.708613564213974e+17
19451.0	3.4936804794695725e+17
19452.0	3.97475157237215e+17
19453.0	4.2514596163310976e+17
19454.0	4.352578758377467e+17
19455.0	4.4243882285028717e+17
19456.0	4.5213808388123546e+17
19457.0	4.579483414342315e+17
19458.0	4.3284802917721235e+17
19459.0	4.619977896231007e+17
19460.0	4.652543696524628e+17
19461.0	4.6737079573763405e+17
19462.0	4.693433068639573e+17
19463.0	4.710806766398121e+17
19464.0	4.73805555446579e+17
19465.0	4.7706328849012115e+17
19466.0	4.788547557698216e+17
19467.0	4.800559582980778e+17
19468.0	4.808776115464874e+17
19469.0	4.814447255573841e+17
19470.0	4.820528507737427e+17
19471.0	4.8258371271611725e+17
19472.0	4.8298348993576954e+17
19473.0	4.8341396582563834e+17
19474.0	4.837426384076798e+17
19475.0	4.839919777568082e+17
19476.0	4.844137002740393e+17
19477.0	4.847063835607038e+17
19478.0	4.850080181911551e+17
19479.0	4.852037893576019e+17
19480.0	4.8547082279758496e+17
19481.0	4.856752552017919e+17
19482.0	4.858687589274964e+17
19483.0	4.860429902457513e+17
19484.0	4.861959806298794e+17
19485.0	4.863316909708629e+17
19486.0	4.864787374669827e+17
19487.0	4.868771577593851e+17
19488.0	4.873865921211049e+17
19489.0	4.877188915877204e+17
19490.0	4.8771217958283885e+17
19491.0	4.882650330300415e+17
19492.0	4.883260537918804e+17
19493.0	4.8859130045835936e+17
19494.0	4.885989481425578e+17
19495.0	4.887522749098665e+17
19496.0	4.8875450516111334e+17
19497.0	4.8880276209663994e+17
19498.0	4.881477141528582e+17
19499.0	4.781694124381471e+17
19500.0	4.8892166558187514e+17
19501.0	4.8889899942324896e+17
19502.0	4.888854634954752e+17
19503.0	4.8897475799067296e+17
19504.0	4.889367094318421e+17
19505.0	4.8889564810444794e+17
19506.0	4.888553284698111e+17
19507.0	4.8881624888115194e+17
19508.0	4.887726537747113e+17
19509.0	4.887797673842005e+17
19510.0	4.887268959453183e+17
19511.0	4.681367301739755e+17
19512.0	4.8693880696777094e+17
19513.0	4.855020673564621e+17
19514.0	4.862560252373642e+17
19515.0	4.883446044295169e+17
19516.0	4.884217378198869e+17
19517.0	4.8835891476561914e+17
19518.0	4.8829305433620474e+17
19519.0	4.882229012463616e+17
19520.0	4.881254435170987e+17
19521.0	4.881596310093824e+17
19522.0	4.8810418475717965e+17
19523.0	4.880327428975274e+17
19524.0	4.8794201332121594e+17
19525.0	4.879068196853077e+17
19526.0	4.878393352912895e+17
19527.0	4.877671270623914e+17
19528.0	4.876911273923923e+17
19529.0	4.8761566829827405e+17
19530.0	4.8755087741637965e+17
19531.0	4.874771799299412e+17
19532.0	4.874029473901225e+17
19533.0	4.873281751831893e+17
19534.0	4.8725241353994234e+17
19535.0	4.871745951498239e+17
19536.0	4.8709530623672314e+17
19537.0	4.870234833944575e+17
19538.0	4.8688536720069984e+17
19539.0	4.867871033961132e+17
19540.0	4.86787800838963e+17
19541.0	4.8670194008064e+17
19542.0	4.8662877995444896e+17
19543.0	4.865051684328789e+17
19544.0	4.864722941771775e+17
19545.0	4.863270882115582e+17
19546.0	4.8618467502325754e+17
19547.0	4.862510695273813e+17
19548.0	4.862147436391082e+17
19549.0	4.8612155724922874e+17
19550.0	4.860535511536981e+17
19551.0	4.8597282177679354e+17
19552.0	4.8589134812064416e+17
19553.0	4.858065303459156e+17
19554.0	4.8572225007124474e+17
19555.0	4.856382176799402e+17
19556.0	4.8555965612905805e+17
19557.0	4.854991854501887e+17
19558.0	4.8544198444100256e+17
19559.0	4.8536002312710803e+17
19560.0	4.8525604129778336e+17
19561.0	4.8519086181362336e+17
19562.0	4.850925486560598e+17
19563.0	4.8508289958980275e+17
19564.0	4.850397470523391e+17
19565.0	4.8495715155968e+17
19566.0	4.848703686836223e+17
19567.0	4.847907662462975e+17
19568.0	4.8470384139304954e+17
19569.0	4.8461988044472314e+17
19570.0	4.845382561431551e+17
19571.0	4.8445347332095994e+17
19572.0	4.8436585298220365e+17
19573.0	4.842767273077417e+17
19574.0	4.8418740974387194e+17
19575.0	4.8411696598876154e+17
19576.0	4.840284733046784e+17
19577.0	4.839348695116458e+17
19578.0	4.838568425248085e+17
19579.0	4.837743639134207e+17
19580.0	4.836895980082517e+17
19581.0	4.8360578211293856e+17
19582.0	4.8352332559155194e+17
19583.0	4.8343826335880525e+17
19584.0	4.8334988077520205e+17
19585.0	4.8325286274880845e+17
19586.0	4.831624249562453e+17
19587.0	4.830671019879082e+17
19588.0	4.829440687210496e+17
19589.0	4.829234646220798e+17
19590.0	4.8282104887596365e+17
19591.0	4.82754154270993e+17
19592.0	4.826699938835114e+17
19593.0	4.8257734688112634e+17
19594.0	4.824606457550164e+17
19595.0	4.824087500510549e+17
19596.0	4.821851988208298e+17
19597.0	4.823113145516032e+17
19598.0	4.821601951066793e+17
19599.0	4.821456377260714e+17
19600.0	4.820611543771817e+17
19601.0	4.819660200826198e+17
19602.0	4.818826306082132e+17
19603.0	4.816659952260435e+17
19604.0	4.8170385119641594e+17
19605.0	4.815905897491115e+17
19606.0	4.8154509021893965e+17
19607.0	4.8146042693440845e+17
19608.0	4.813720449799508e+17
19609.0	4.8128121774626125e+17
19610.0	4.8117757446717434e+17
19611.0	4.8108081613810336e+17
19612.0	4.810308188460372e+17
19613.0	4.809434473693183e+17
19614.0	4.808536445244757e+17
19615.0	4.8077125951597216e+17
19616.0	4.805970724476245e+17
19617.0	4.8056442964759885e+17
19618.0	4.804276785599827e+17
19619.0	4.8031750950311226e+17
19620.0	4.8022830595440614e+17
19621.0	4.80207860470033e+17
19622.0	4.8017074961776634e+17
19623.0	4.800819710219604e+17
19624.0	4.7998965243357856e+17
19625.0	4.7991213666249376e+17
19626.0	4.798254139047934e+17
19627.0	4.797381242869076e+17
19628.0	4.795313748093612e+17
19629.0	4.7942918373812896e+17
19630.0	4.7921350528641734e+17
19631.0	4.7428954226687994e+17
19632.0	4.792971836085589e+17
19633.0	4.7920322378902176e+17
19634.0	4.791369689552213e+17
19635.0	4.790386035785727e+17
19636.0	4.7891028206332576e+17
19637.0	4.787840196018175e+17
19638.0	4.787863240223402e+17
19639.0	4.787057823405396e+17
19640.0	4.786070062017194e+17
19641.0	4.7835787461044934e+17
19642.0	4.784450915969706e+17
19643.0	4.7835738877023565e+17
19644.0	4.7826969419229856e+17
19645.0	4.781519728017406e+17
19646.0	4.780473414145364e+17
19647.0	4.7801844965048314e+17
19648.0	4.779342490675882e+17
19649.0	4.7784782599290874e+17
19650.0	4.777627121702229e+17
19651.0	4.776762106620585e+17
19652.0	4.775899965336234e+17
19653.0	4.7750210740988576e+17
19654.0	4.7741822321732256e+17
