# Flux units: erg / (cm m2 s)
# Wavelength units: Angstrom
wave	flux
19000.0	5.563218321036628e+17
19001.0	5.5620751634814285e+17
19002.0	5.5611643116475725e+17
19003.0	5.56013412557346e+17
19004.0	5.559105012542122e+17
19005.0	5.558069494808575e+17
19006.0	5.557052555744596e+17
19007.0	5.5560143816185165e+17
19008.0	5.5549171544883194e+17
19009.0	5.5538364801788576e+17
19010.0	5.552367569906345e+17
19011.0	5.551864883970047e+17
19012.0	5.550709434307923e+17
19013.0	5.549843041397417e+17
19014.0	5.5487552318778016e+17
19015.0	5.547741055462058e+17
19016.0	5.5466918398306976e+17
19017.0	5.5457319488935245e+17
19018.0	5.5446925108838394e+17
19019.0	5.543669800457557e+17
19020.0	5.542626069577726e+17
19021.0	5.541619753986729e+17
19022.0	5.5405867115915936e+17
19023.0	5.539522479652862e+17
19024.0	5.538513354577236e+17
19025.0	5.537505794676053e+17
19026.0	5.5364447790694394e+17
19027.0	5.535372596128426e+17
19028.0	5.534425529275732e+17
19029.0	5.53338531881506e+17
19030.0	5.532383846946132e+17
19031.0	5.531356608768681e+17
19032.0	5.5303218215430816e+17
19033.0	5.529195208420009e+17
19034.0	5.5282587650402976e+17
19035.0	5.5271982233900365e+17
19036.0	5.5193863412776954e+17
19037.0	5.525175183343615e+17
19038.0	5.5241380969403725e+17
19039.0	5.52313906336017e+17
19040.0	5.5221124550273696e+17
19041.0	5.5210747933054285e+17
19042.0	5.5199185334435834e+17
19043.0	5.519032771936255e+17
19044.0	5.517992609011028e+17
19045.0	5.516979627272874e+17
19046.0	5.5158900463588685e+17
19047.0	5.514900365377535e+17
19048.0	5.513633659005611e+17
19049.0	5.512728588320766e+17
19050.0	5.511789358525098e+17
19051.0	5.509840983381332e+17
19052.0	5.509602964318889e+17
19053.0	5.5087707850451616e+17
19054.0	5.50774377615633e+17
19055.0	5.5064135372636154e+17
19056.0	5.505656515024211e+17
19057.0	5.504659828157098e+17
19058.0	5.5035964259915066e+17
19059.0	5.5025986639844685e+17
19060.0	5.5015646715794765e+17
19061.0	5.500569247197866e+17
19062.0	5.499538169834153e+17
19063.0	5.4985157411252896e+17
19064.0	5.4973409410416634e+17
19065.0	5.4962726364337485e+17
19066.0	5.4953690253666976e+17
19067.0	5.494403976134655e+17
19068.0	5.4933953508802554e+17
19069.0	5.492372947337215e+17
19070.0	5.4913206670677325e+17
19071.0	5.490326099023187e+17
19072.0	5.489288971375956e+17
19073.0	5.488272534230356e+17
19074.0	5.487255416209407e+17
19075.0	5.4862320570641043e+17
19076.0	5.4851847498410656e+17
19077.0	5.4841650921690445e+17
19078.0	5.4831201889812474e+17
19079.0	5.4821369210907296e+17
19080.0	5.4810974809838925e+17
19081.0	5.480046082916351e+17
19082.0	5.4790205783845536e+17
19083.0	5.477937472776874e+17
19084.0	5.476778276203177e+17
19085.0	5.475996950768298e+17
19086.0	5.4745580752076794e+17
19087.0	5.47375432213026e+17
19088.0	5.4728287972229114e+17
19089.0	5.47163483476241e+17
19090.0	5.4708645053945165e+17
19091.0	5.469838165497174e+17
19092.0	5.4687418464337914e+17
19093.0	5.4678320438749856e+17
19094.0	5.4668095445620045e+17
19095.0	5.4657882867630074e+17
19096.0	5.464750136404649e+17
19097.0	5.463745326568788e+17
19098.0	5.4627126183198714e+17
19099.0	5.461689844279977e+17
19100.0	5.460663423292757e+17
19101.0	5.45966208983586e+17
19102.0	5.458507127412051e+17
19103.0	5.457624125756758e+17
19104.0	5.4566084736450554e+17
19105.0	5.4555559410182816e+17
19106.0	5.4545376527865165e+17
19107.0	5.4535235085271046e+17
19108.0	5.4525172474620576e+17
19109.0	5.451058079159636e+17
19110.0	5.45047606145843e+17
19111.0	5.449463789955753e+17
19112.0	5.448443943540053e+17
19113.0	5.447432273919998e+17
19114.0	5.4464091035183776e+17
19115.0	5.4453345619804154e+17
19116.0	5.444356374091092e+17
19117.0	5.443337992186538e+17
19118.0	5.442225974542335e+17
19119.0	5.432791735642783e+17
19120.0	5.440242655253844e+17
19121.0	5.439250677192021e+17
19122.0	5.438274956951552e+17
19123.0	5.4372574174030496e+17
19124.0	5.436212556158292e+17
19125.0	5.4352185795106125e+17
19126.0	5.434198916945236e+17
19127.0	5.431031084963157e+17
19128.0	5.4320979334485325e+17
19129.0	5.4310687477159245e+17
19130.0	5.430115068542975e+17
19131.0	5.429118872409428e+17
19132.0	5.428101696367274e+17
19133.0	5.426982140859733e+17
19134.0	5.426038165908138e+17
19135.0	5.425051520204799e+17
19136.0	5.4240437498893645e+17
19137.0	5.422833721846442e+17
19138.0	5.4219923332792314e+17
19139.0	5.420995981956436e+17
19140.0	5.41998251717427e+17
19141.0	5.4189669573372576e+17
19142.0	5.417923050995711e+17
19143.0	5.416868946203989e+17
19144.0	5.415876128582315e+17
19145.0	5.4149072471545165e+17
19146.0	5.413205838222677e+17
19147.0	5.412746333345108e+17
19148.0	5.411849600237568e+17
19149.0	5.410826680795135e+17
19150.0	5.4098254857502694e+17
19151.0	5.408814875191978e+17
19152.0	5.4077953286690125e+17
19153.0	5.4067478375956474e+17
19154.0	5.40562457502242e+17
19155.0	5.404766007984126e+17
19156.0	5.40374915420433e+17
19157.0	5.402721157556905e+17
19158.0	5.401398743138303e+17
19159.0	5.4006878959916365e+17
19160.0	5.3996817789310285e+17
19161.0	5.398675636704596e+17
19162.0	5.396960650810709e+17
19163.0	5.396636085780479e+17
19164.0	5.3956457777506976e+17
19165.0	5.39458246156834e+17
19166.0	5.3934534038650874e+17
19167.0	5.3925425806923085e+17
19168.0	5.391582818380457e+17
19169.0	5.3905594005149005e+17
19170.0	5.389570501771264e+17
19171.0	5.3885138692123296e+17
19172.0	5.387546934640639e+17
19173.0	5.386534236717056e+17
19174.0	5.385453320536064e+17
19175.0	5.384508197044224e+17
19176.0	5.3834949091218765e+17
19177.0	5.3823102754925216e+17
19178.0	5.381457253324117e+17
19179.0	5.380400146808832e+17
19180.0	5.3794377518721683e+17
19181.0	5.378282773370196e+17
19182.0	5.377400173669034e+17
19183.0	5.376417745338366e+17
19184.0	5.375394327472809e+17
19185.0	5.3743881985283405e+17
19186.0	5.373380964384767e+17
19187.0	5.3722979888005114e+17
19188.0	5.3713560208233805e+17
19189.0	5.3703485168462496e+17
19190.0	5.369333748334591e+17
19191.0	5.3682883809771514e+17
19192.0	5.3673164474941434e+17
19193.0	5.3662984074253645e+17
19194.0	5.3652741779619834e+17
19195.0	5.364280392854186e+17
19196.0	5.363248900953428e+17
19197.0	5.362245139693568e+17
19198.0	5.361229437250218e+17
19199.0	5.35606225744691e+17
19200.0	5.356337603018754e+17
19201.0	5.3581997922058234e+17
19202.0	5.357201841455104e+17
19203.0	5.356181820276734e+17
19204.0	5.3551521480048634e+17
19205.0	5.3541589032632314e+17
19206.0	5.353143158876842e+17
19207.0	5.3520104919749965e+17
19208.0	5.35086804116002e+17
19209.0	5.350115493543935e+17
19210.0	5.349108733356713e+17
19211.0	5.348107504058367e+17
19212.0	5.3470961853617485e+17
19213.0	5.345966249650857e+17
19214.0	5.3449081756494496e+17
19215.0	5.3440450598884685e+17
19216.0	5.34304854848307e+17
19217.0	5.3420302770285216e+17
19218.0	5.340049771418963e+17
19219.0	5.3398490453114874e+17
19220.0	5.338973536081235e+17
19221.0	5.3376065739598496e+17
19222.0	5.336965153030143e+17
19223.0	5.335941064075945e+17
19224.0	5.334900607549439e+17
19225.0	5.333762073515347e+17
19226.0	5.3329039671514445e+17
19227.0	5.33189011509521e+17
19228.0	5.330904427790336e+17
19229.0	5.329890777759743e+17
19230.0	5.3288733123106125e+17
19231.0	5.3278503061858976e+17
19232.0	5.326840317083647e+17
19233.0	5.3257582754310816e+17
19234.0	5.324795511395668e+17
19235.0	5.323776791849641e+17
19236.0	5.322794792736085e+17
19237.0	5.321761677639679e+17
19238.0	5.320654684771668e+17
19239.0	5.3197524193771514e+17
19240.0	5.318714629728938e+17
19241.0	5.317691167823188e+17
19242.0	5.316685814125908e+17
19243.0	5.3155137515246925e+17
19244.0	5.314676371314004e+17
19245.0	5.313653792309247e+17
19246.0	5.312621801286313e+17
19247.0	5.3116255212666854e+17
19248.0	5.31060940218914e+17
19249.0	5.309587918596778e+17
19250.0	5.3085455417780896e+17
19251.0	5.307403745973588e+17
19252.0	5.306239756009472e+17
19253.0	5.3054875026937165e+17
19254.0	5.304495138056874e+17
19255.0	5.3032830736793574e+17
19256.0	5.302407824495956e+17
19257.0	5.301438710284287e+17
19258.0	5.3004168359226003e+17
19259.0	5.299320127487998e+17
19260.0	5.2982211548282854e+17
19261.0	5.2973357833912314e+17
19262.0	5.296262352644778e+17
19263.0	5.295223262063273e+17
19264.0	5.293612018084521e+17
19265.0	5.293005755908094e+17
19266.0	5.291910362387796e+17
19267.0	5.291206437939881e+17
19268.0	5.290172160322217e+17
19269.0	5.289148460739242e+17
19270.0	5.2881221355219616e+17
19271.0	5.286683323574954e+17
19272.0	5.286025955901439e+17
19273.0	5.284113021228372e+17
19274.0	5.2832792641972896e+17
19275.0	5.2829768080424954e+17
19276.0	5.28192195666466e+17
19277.0	5.2808958970866336e+17
19278.0	5.2798647582064634e+17
19279.0	5.2788147197924685e+17
19280.0	5.277697060110335e+17
19281.0	5.2767517926140576e+17
19282.0	5.275736348120404e+17
19283.0	5.2746337103380474e+17
19284.0	5.2736181099560954e+17
19285.0	5.272410475462655e+17
19286.0	5.2715352521441274e+17
19287.0	5.270533767692287e+17
19288.0	5.2674770847662035e+17
19289.0	5.264101178955087e+17
19290.0	5.267401565623636e+17
19291.0	5.2660686934070605e+17
19292.0	5.2653082311393274e+17
19293.0	5.264250675134462e+17
19294.0	5.263196812214271e+17
19295.0	5.2621564989931514e+17
19296.0	5.2610813877288954e+17
19297.0	5.260030636982272e+17
19298.0	5.258960656749909e+17
19299.0	5.257916481273855e+17
19300.0	5.2568640388246176e+17
19301.0	5.255804310869332e+17
19302.0	5.25472668651793e+17
19303.0	5.2535973002608634e+17
19304.0	5.252573698544981e+17
19305.0	5.2515232875369805e+17
19306.0	5.2504634980652365e+17
19307.0	5.249341816045566e+17
19308.0	5.248289918855849e+17
19309.0	5.247080059983189e+17
19310.0	5.2459413148357965e+17
19311.0	5.24503347171601e+17
19312.0	5.2439911151697914e+17
19313.0	5.242917446746111e+17
19314.0	5.231732572465841e+17
19315.0	5.231293679097182e+17
19316.0	5.239610002462036e+17
19317.0	5.238538206096042e+17
19318.0	5.237435365588991e+17
19319.0	5.2363528255133e+17
19320.0	5.2352403171355296e+17
19321.0	5.2341267811532794e+17
19322.0	5.232933747032064e+17
19323.0	5.2318434328139085e+17
19324.0	5.230793190976171e+17
19325.0	5.2295267006109005e+17
19326.0	5.228545277515092e+17
19327.0	5.227398366057812e+17
19328.0	5.22625484988962e+17
19329.0	5.225147711619071e+17
19330.0	5.2239605774854816e+17
19331.0	5.222807080271872e+17
19332.0	5.221703576365738e+17
19333.0	5.220545202574676e+17
19334.0	5.219390819663872e+17
19335.0	5.2181731817553914e+17
19336.0	5.2170538478469114e+17
19337.0	5.2158757587298976e+17
19338.0	5.214456170676223e+17
19339.0	5.213509612033364e+17
19340.0	5.212140372404906e+17
19341.0	5.211037634658303e+17
19342.0	5.209459564827987e+17
19343.0	5.2086983098368e+17
19344.0	5.2074608398609056e+17
19345.0	5.2038918422746406e+17
19346.0	5.203891841575593e+17
19347.0	5.2036792197229216e+17
19348.0	5.2025441487858336e+17
19349.0	5.201246415050068e+17
19350.0	5.1999798519835296e+17
19351.0	5.198705749655551e+17
19352.0	5.197351013930324e+17
19353.0	5.196176293538474e+17
19354.0	5.1948798439587834e+17
19355.0	5.1934574918587725e+17
19356.0	5.192245823143936e+17
19357.0	5.190916718111402e+17
19358.0	5.1895666010139296e+17
19359.0	5.1881467347380896e+17
19360.0	5.1867805639420576e+17
19361.0	5.185429986170196e+17
19362.0	5.1840834852618234e+17
19363.0	5.182676944988842e+17
19364.0	5.181255631678121e+17
19365.0	5.179823037786794e+17
19366.0	5.1783735492389536e+17
19367.0	5.176909542806868e+17
19368.0	5.1754300712768845e+17
19369.0	5.17387056194082e+17
19370.0	5.1723198145058125e+17
19371.0	5.170824336812715e+17
19372.0	5.1693309143285754e+17
19373.0	5.167737593309867e+17
19374.0	5.1661671284517536e+17
19375.0	5.1645634111515296e+17
19376.0	5.162939050186068e+17
19377.0	5.1612758995981645e+17
19378.0	5.159606491108692e+17
19379.0	5.1579127647436794e+17
19380.0	5.1561909847763616e+17
19381.0	5.1544390351803725e+17
19382.0	5.1525908934164474e+17
19383.0	5.150738932039679e+17
19384.0	5.149030170492928e+17
19385.0	5.1471783349452794e+17
19386.0	5.1452952168802976e+17
19387.0	5.143375669187925e+17
19388.0	5.1414242461832525e+17
19389.0	5.13944165880081e+17
19390.0	5.137432003477503e+17
19391.0	5.129369834662561e+17
19392.0	5.133168823413417e+17
19393.0	5.1312078625614496e+17
19394.0	5.1290482287138125e+17
19395.0	5.1268507657393485e+17
19396.0	5.124635971900756e+17
19397.0	5.122384559691091e+17
19398.0	5.120044914704383e+17
19399.0	5.116851626093225e+17
19400.0	5.1152451230760954e+17
19401.0	5.1129076367578445e+17
19402.0	5.110460542790313e+17
19403.0	5.107953210228734e+17
19404.0	5.105444376106325e+17
19405.0	5.1028535475350176e+17
19406.0	5.100248683424426e+17
19407.0	5.0975840281122125e+17
19408.0	5.093761073807361e+17
19409.0	5.091820640578219e+17
19410.0	5.089039681410389e+17
19411.0	5.086187649761279e+17
19412.0	5.083263761995093e+17
19413.0	5.0802657315170976e+17
19414.0	5.077209515556862e+17
19415.0	5.074190110905685e+17
19416.0	5.0709513273780896e+17
19417.0	5.067974826262527e+17
19418.0	5.0649207864470176e+17
19419.0	5.0611854029182285e+17
19420.0	5.057950789926911e+17
19421.0	5.0545798984062285e+17
19422.0	5.0510853399292576e+17
19423.0	5.04686154298163e+17
19424.0	5.042906888929279e+17
19425.0	5.038903102100822e+17
19426.0	5.033671338404522e+17
19427.0	5.028666988472999e+17
19428.0	5.022836344575313e+17
19429.0	5.015451914469373e+17
19430.0	5.0060995330047974e+17
19431.0	4.9937406772292294e+17
19432.0	4.9780469135660314e+17
19433.0	4.9539402554845805e+17
19434.0	4.9339616125255674e+17
19435.0	4.92163452510754e+17
19436.0	4.908038439829503e+17
19437.0	4.893755261845503e+17
19438.0	4.8674197806776346e+17
19439.0	4.860752844292097e+17
19440.0	4.843645590394196e+17
19441.0	4.824211921742504e+17
19442.0	4.800578293071871e+17
19443.0	4.761255287280991e+17
19444.0	4.6847267644811885e+17
19445.0	4.630597821530113e+17
19446.0	4.577716435856042e+17
19447.0	4.516138777400655e+17
19448.0	4.39286094626815e+17
19449.0	4.2197558573574726e+17
19450.0	3.756089238967625e+17
19451.0	3.547549798148767e+17
19452.0	4.04467992861082e+17
19453.0	4.3082327526823315e+17
19454.0	4.466694468665324e+17
19455.0	4.543268638774611e+17
19456.0	4.597667422972588e+17
19457.0	4.64603467568469e+17
19458.0	4.687489635713051e+17
19459.0	4.76979684407161e+17
19460.0	4.798287612390054e+17
19461.0	4.817495738635605e+17
19462.0	4.8336849306910726e+17
19463.0	4.849263009857534e+17
19464.0	4.863663705948159e+17
19465.0	4.8770922714234874e+17
19466.0	4.889157265173161e+17
19467.0	4.90006040945186e+17
19468.0	4.912009931915258e+17
19469.0	4.935435549671426e+17
19470.0	4.9531056274363725e+17
19471.0	4.965611875248812e+17
19472.0	4.9735431097767226e+17
19473.0	4.97945120079872e+17
19474.0	4.983991088884393e+17
19475.0	4.987178985717759e+17
19476.0	4.990823618489e+17
19477.0	4.993894820697428e+17
19478.0	4.995788068705619e+17
19479.0	4.998264920560981e+17
19480.0	5.000135051662676e+17
19481.0	5.001677802657108e+17
19482.0	5.0031570861424634e+17
19483.0	5.0047253685643936e+17
19484.0	5.0063508857596576e+17
19485.0	5.007529525728596e+17
19486.0	5.0087329372569594e+17
19487.0	5.009980570031445e+17
19488.0	5.011153998577662e+17
19489.0	5.012121520351914e+17
19490.0	5.011670046168403e+17
19491.0	5.014326249259007e+17
19492.0	5.0153177519663763e+17
19493.0	5.0162147695875405e+17
19494.0	5.0171635316381005e+17
19495.0	5.018123242919253e+17
19496.0	5.018359336097107e+17
19497.0	5.019544038932479e+17
19498.0	5.019351504300713e+17
19499.0	5.011258314413394e+17
19500.0	5.021418871848959e+17
19501.0	5.0219712560933536e+17
19502.0	5.0224711416326803e+17
19503.0	5.02294758241075e+17
19504.0	5.0233711497925965e+17
19505.0	5.023748656026964e+17
19506.0	5.0240990796404045e+17
19507.0	5.02437570028066e+17
19508.0	5.024668447320746e+17
19509.0	5.0248882617057274e+17
19510.0	5.024832887805268e+17
19511.0	5.00812394109337e+17
19512.0	5.023736463884285e+17
19513.0	5.0224087129128915e+17
19514.0	5.023427554093736e+17
19515.0	5.024946442294613e+17
19516.0	5.0255001603276794e+17
19517.0	5.0254122218509645e+17
19518.0	5.0254252829136205e+17
19519.0	5.025324936287571e+17
19520.0	5.025167807173972e+17
19521.0	5.0250746796441594e+17
19522.0	5.024868280740521e+17
19523.0	5.0247028441088e+17
19524.0	5.024471259108692e+17
19525.0	5.02422675984657e+17
19526.0	5.0239739663482874e+17
19527.0	5.023678650996053e+17
19528.0	5.02336367694097e+17
19529.0	5.0230399927145805e+17
19530.0	5.022707048863061e+17
19531.0	5.0223441409037645e+17
19532.0	5.021963103065428e+17
19533.0	5.0215645952518816e+17
19534.0	5.021145292079103e+17
19535.0	5.0207055346838176e+17
19536.0	5.0202227556133536e+17
19537.0	5.019807462894249e+17
19538.0	5.019158838247424e+17
19539.0	5.0181857688070835e+17
19540.0	5.018303038051669e+17
19541.0	5.0178129483093325e+17
19542.0	5.0172794076747085e+17
19543.0	5.0167204201977165e+17
19544.0	5.0161854178481485e+17
19545.0	5.015009120397993e+17
19546.0	5.0139846211010554e+17
19547.0	5.014466659177813e+17
19548.0	5.01386729103906e+17
19549.0	5.013160617923925e+17
19550.0	5.012650389929984e+17
19551.0	5.0120307234570234e+17
19552.0	5.011398310494207e+17
19553.0	5.0107288814004896e+17
19554.0	5.010065337614335e+17
19555.0	5.0094402975389e+17
19556.0	5.0087954575523834e+17
19557.0	5.008120660448595e+17
19558.0	5.007446054185641e+17
19559.0	5.0067638052017485e+17
19560.0	5.006037945242964e+17
19561.0	5.005347206288725e+17
19562.0	5.004671108251647e+17
19563.0	5.003971283036841e+17
19564.0	5.0032582625416525e+17
19565.0	5.002539734226261e+17
19566.0	5.0017800723715405e+17
19567.0	5.00108567388706e+17
19568.0	5.000325424829781e+17
19569.0	4.999589330769236e+17
19570.0	4.9988723082089805e+17
19571.0	4.998116807103828e+17
19572.0	4.997341623528106e+17
19573.0	4.996590710292479e+17
19574.0	4.995759843835904e+17
19575.0	4.9950939561328634e+17
19576.0	4.9943236428431334e+17
19577.0	4.9935250452643834e+17
19578.0	4.9927311425099085e+17
19579.0	4.9919734680562336e+17
19580.0	4.99119214821376e+17
19581.0	4.990421063871146e+17
19582.0	4.9896545576113485e+17
19583.0	4.988864804421632e+17
19584.0	4.988062427075924e+17
19585.0	4.9871521973971616e+17
19586.0	4.9863389707851085e+17
19587.0	4.985715298052777e+17
19588.0	4.9843713584660474e+17
19589.0	4.984107462645076e+17
19590.0	4.983189696501077e+17
19591.0	4.982505634878804e+17
19592.0	4.98169907581201e+17
19593.0	4.980865350937258e+17
19594.0	4.979806326925993e+17
19595.0	4.979198460428287e+17
19596.0	4.978254336578901e+17
19597.0	4.977587372337834e+17
19598.0	4.9762231679713274e+17
19599.0	4.975952255778815e+17
19600.0	4.975134301487103e+17
19601.0	4.9742254244713805e+17
19602.0	4.973407826695508e+17
19603.0	4.9720942377915725e+17
19604.0	4.971742671230292e+17
19605.0	4.9706286696802976e+17
19606.0	4.970126837284862e+17
19607.0	4.9692983762616314e+17
19608.0	4.9684366222513485e+17
19609.0	4.9675562287540896e+17
19610.0	4.966765008956074e+17
19611.0	4.965909199672661e+17
19612.0	4.965088656097279e+17
19613.0	4.964231557065387e+17
19614.0	4.963351912950442e+17
19615.0	4.962547518843562e+17
19616.0	4.961637473714175e+17
19617.0	4.9608226392855885e+17
19618.0	4.9592790613142163e+17
19619.0	4.958276241675604e+17
19620.0	4.957467947565054e+17
19621.0	4.957423530584746e+17
19622.0	4.9565898735179085e+17
19623.0	4.955735112810495e+17
19624.0	4.9548686814522016e+17
19625.0	4.9540226973259085e+17
19626.0	4.9531653752968525e+17
19627.0	4.95230614905378e+17
19628.0	4.9513435290228045e+17
19629.0	4.950433755824127e+17
19630.0	4.949398700862122e+17
19631.0	4.9441997317297485e+17
19632.0	4.9479961032349005e+17
19633.0	4.947097150641492e+17
19634.0	4.946281399757481e+17
19635.0	4.9453748715519994e+17
19636.0	4.944526551897428e+17
19637.0	4.94328743985152e+17
19638.0	4.942811829545642e+17
19639.0	4.941944857122132e+17
19640.0	4.940925676202666e+17
19641.0	4.938899290499756e+17
19642.0	4.939353699297961e+17
19643.0	4.9384827632571725e+17
19644.0	4.9375532789268474e+17
19645.0	4.9364225560849043e+17
19646.0	4.9358701264022176e+17
19647.0	4.935025042653183e+17
19648.0	4.9341576934413645e+17
19649.0	4.933285318754304e+17
19650.0	4.9324189265428474e+17
19651.0	4.931542455418879e+17
19652.0	4.9306756025330336e+17
19653.0	4.929805986299903e+17
19654.0	4.928928449123668e+17
19655.0	4.9280525393373856e+17
19656.0	4.927186697278804e+17
