# Flux units: erg / (cm m2 s)
# Wavelength units: Angstrom
wave	flux
19000.0	7.291660492865535e+17
19001.0	7.290251986862079e+17
19002.0	7.28899367469056e+17
19003.0	7.287653347098623e+17
19004.0	7.286313946447871e+17
19005.0	7.284987174846461e+17
19006.0	7.283650148171775e+17
19007.0	7.282273372078079e+17
19008.0	7.280935130453331e+17
19009.0	7.279542866193066e+17
19010.0	7.278000710090752e+17
19011.0	7.276906883142995e+17
19012.0	7.275268702644905e+17
19013.0	7.274302810357757e+17
19014.0	7.273059371188223e+17
19015.0	7.271734885482493e+17
19016.0	7.270394292251306e+17
19017.0	7.269079653373267e+17
19018.0	7.267723121786879e+17
19019.0	7.266390650126335e+17
19020.0	7.265037378912255e+17
19021.0	7.263709814587391e+17
19022.0	7.262374029426687e+17
19023.0	7.260989215648425e+17
19024.0	7.259660840424787e+17
19025.0	7.258297894349481e+17
19026.0	7.256913546138964e+17
19027.0	7.255326080368637e+17
19028.0	7.254277592449023e+17
19029.0	7.252938751038803e+17
19030.0	7.251604485614249e+17
19031.0	7.250253936503466e+17
19032.0	7.24889843531776e+17
19033.0	7.247463045223764e+17
19034.0	7.246110597491369e+17
19035.0	7.24423491732548e+17
19036.0	7.223189552409253e+17
19037.0	7.241701518562644e+17
19038.0	7.240721708176723e+17
19039.0	7.23944795677218e+17
19040.0	7.238118100959232e+17
19041.0	7.236777899196415e+17
19042.0	7.235314674302975e+17
19043.0	7.234087448914602e+17
19044.0	7.232729013114195e+17
19045.0	7.231374033420287e+17
19046.0	7.23000515240482e+17
19047.0	7.228659788851881e+17
19048.0	7.227194036191232e+17
19049.0	7.225812931575807e+17
19050.0	7.224515546666323e+17
19051.0	7.220198183185062e+17
19052.0	7.220914740876628e+17
19053.0	7.220520042889215e+17
19054.0	7.21922226930756e+17
19055.0	7.21774770581231e+17
19056.0	7.216656402437459e+17
19057.0	7.215322584405331e+17
19058.0	7.213912764186624e+17
19059.0	7.21260771348753e+17
19060.0	7.211264654005587e+17
19061.0	7.20992634946628e+17
19062.0	7.208571663373651e+17
19063.0	7.207219212845055e+17
19064.0	7.205790241434281e+17
19065.0	7.204381763392851e+17
19066.0	7.203100771221504e+17
19067.0	7.201815114984105e+17
19068.0	7.200463130023251e+17
19069.0	7.199111065370623e+17
19070.0	7.1977419145216e+17
19071.0	7.196393339529897e+17
19072.0	7.195032462644563e+17
19073.0	7.193698056011775e+17
19074.0	7.192348115075071e+17
19075.0	7.190994814500864e+17
19076.0	7.189629871936851e+17
19077.0	7.188276266576552e+17
19078.0	7.186918185893887e+17
19079.0	7.185580067302057e+17
19080.0	7.184215513410217e+17
19081.0	7.182839047695017e+17
19082.0	7.181491561824253e+17
19083.0	7.180070225444863e+17
19084.0	7.178617670860799e+17
19085.0	7.177430721975636e+17
19086.0	7.175687767763625e+17
19087.0	7.174315334172671e+17
19088.0	7.173124252499965e+17
19089.0	7.17165757010193e+17
19090.0	7.170575375357267e+17
19091.0	7.169262920313514e+17
19092.0	7.167799337506131e+17
19093.0	7.166601602269183e+17
19094.0	7.165265807321769e+17
19095.0	7.163917365149696e+17
19096.0	7.162557107623251e+17
19097.0	7.161211179237373e+17
19098.0	7.159839170669225e+17
19099.0	7.158481485649236e+17
19100.0	7.157111690275498e+17
19101.0	7.155779059231402e+17
19102.0	7.154378421742249e+17
19103.0	7.153050229669887e+17
19104.0	7.15159078244625e+17
19105.0	7.150173693498708e+17
19106.0	7.148804321749672e+17
19107.0	7.147463583115945e+17
19108.0	7.146038316673705e+17
19109.0	7.143500295787859e+17
19110.0	7.143120925185364e+17
19111.0	7.142041764320595e+17
19112.0	7.140726932504575e+17
19113.0	7.139400187467092e+17
19114.0	7.13803508551953e+17
19115.0	7.1366160182586e+17
19116.0	7.135318423633919e+17
19117.0	7.133951975314772e+17
19118.0	7.132483009817257e+17
19119.0	7.128615858733051e+17
19120.0	7.12971013726754e+17
19121.0	7.128418027394387e+17
19122.0	7.127211876985514e+17
19123.0	7.125861769674751e+17
19124.0	7.124368375152637e+17
19125.0	7.12313880514833e+17
19126.0	7.121751248295251e+17
19127.0	7.119308320669696e+17
19128.0	7.118804878360573e+17
19129.0	7.117660198273023e+17
19130.0	7.116365855632042e+17
19131.0	7.115018709499904e+17
19132.0	7.113665838142804e+17
19133.0	7.112238810092884e+17
19134.0	7.110845336474964e+17
19135.0	7.109596385989972e+17
19136.0	7.108243818020863e+17
19137.0	7.106793564711593e+17
19138.0	7.105520357168468e+17
19139.0	7.104180686684159e+17
19140.0	7.102827713265663e+17
19141.0	7.101472223264768e+17
19142.0	7.100096906788863e+17
19143.0	7.098726999567017e+17
19144.0	7.097370887411028e+17
19145.0	7.096045007798271e+17
19146.0	7.094230890228394e+17
19147.0	7.093282065962323e+17
19148.0	7.091949897689769e+17
19149.0	7.090591745703935e+17
19150.0	7.089256721110356e+17
19151.0	7.087901516322132e+17
19152.0	7.086516002095104e+17
19153.0	7.085129342823081e+17
19154.0	7.083736141834922e+17
19155.0	7.082434313759402e+17
19156.0	7.08105362018577e+17
19157.0	7.079524508368893e+17
19158.0	7.077641419664041e+17
19159.0	7.076859503531348e+17
19160.0	7.075563662125736e+17
19161.0	7.074097663399251e+17
19162.0	7.070878319771647e+17
19163.0	7.071070793586004e+17
19164.0	7.070150837316265e+17
19165.0	7.068774880509951e+17
19166.0	7.067376675717119e+17
19167.0	7.065945514879657e+17
19168.0	7.064739177125204e+17
19169.0	7.063389159292927e+17
19170.0	7.061969650231977e+17
19171.0	7.060545275778387e+17
19172.0	7.059231547064319e+17
19173.0	7.057903294873599e+17
19174.0	7.056523226251263e+17
19175.0	7.05519791706385e+17
19176.0	7.053835918901247e+17
19177.0	7.052348745930068e+17
19178.0	7.051026617423187e+17
19179.0	7.04961987023121e+17
19180.0	7.048356534681599e+17
19181.0	7.046950139811156e+17
19182.0	7.045563357506217e+17
19183.0	7.044217410945024e+17
19184.0	7.042851214284116e+17
19185.0	7.041487815223977e+17
19186.0	7.040124621684735e+17
19187.0	7.038696603779071e+17
19188.0	7.037386681395884e+17
19189.0	7.03601142014498e+17
19190.0	7.034622900000086e+17
19191.0	7.033225545252861e+17
19192.0	7.031888871598761e+17
19193.0	7.030491504268628e+17
19194.0	7.029076325826559e+17
19195.0	7.027662003022504e+17
19196.0	7.026154882640553e+17
19197.0	7.024464580924755e+17
19198.0	7.021888255557631e+17
19199.0	7.00832534442803e+17
19200.0	7.009149985838423e+17
19201.0	7.017962771491497e+17
19202.0	7.017668543862099e+17
19203.0	7.016553747491498e+17
19204.0	7.015334995296255e+17
19205.0	7.014042782662655e+17
19206.0	7.012712479457279e+17
19207.0	7.011287175266303e+17
19208.0	7.009881877905407e+17
19209.0	7.008643780881066e+17
19210.0	7.007281985443155e+17
19211.0	7.005917789465258e+17
19212.0	7.004533893540521e+17
19213.0	7.003001347287721e+17
19214.0	7.001580310102015e+17
19215.0	7.000352570212351e+17
19216.0	6.999042733113343e+17
19217.0	6.997656496067924e+17
19218.0	6.995791424694953e+17
19219.0	6.994774647111679e+17
19220.0	6.993522131468287e+17
19221.0	6.991988789695828e+17
19222.0	6.990767707564713e+17
19223.0	6.98940072656896e+17
19224.0	6.987996888825855e+17
19225.0	6.986572081659904e+17
19226.0	6.98525468992034e+17
19227.0	6.983871755190271e+17
19228.0	6.982510595189417e+17
19229.0	6.98112423441203e+17
19230.0	6.979727800314537e+17
19231.0	6.978334006531412e+17
19232.0	6.976953380765695e+17
19233.0	6.975515662133929e+17
19234.0	6.974169821828436e+17
19235.0	6.972774389470547e+17
19236.0	6.971398496277844e+17
19237.0	6.969994796946771e+17
19238.0	6.968527620319914e+17
19239.0	6.967214985620138e+17
19240.0	6.965814822087336e+17
19241.0	6.964404938954067e+17
19242.0	6.963013856089427e+17
19243.0	6.961497613096275e+17
19244.0	6.960227485570387e+17
19245.0	6.958820128806228e+17
19246.0	6.957411157235028e+17
19247.0	6.955984153651881e+17
19248.0	6.954458846068735e+17
19249.0	6.953041116091732e+17
19250.0	6.951618364833791e+17
19251.0	6.950148440937811e+17
19252.0	6.948588721187498e+17
19253.0	6.947390198819497e+17
19254.0	6.945992483362131e+17
19255.0	6.94442554241843e+17
19256.0	6.943136048392873e+17
19257.0	6.941740151166292e+17
19258.0	6.940318159077375e+17
19259.0	6.938828530341204e+17
19260.0	6.937070440284159e+17
19261.0	6.936027135126185e+17
19262.0	6.934567134254419e+17
19263.0	6.93311862158131e+17
19264.0	6.931402180962985e+17
19265.0	6.930180547280895e+17
19266.0	6.928756461535231e+17
19267.0	6.927444697153535e+17
19268.0	6.926005160990036e+17
19269.0	6.924561154397523e+17
19270.0	6.923099986810195e+17
19271.0	6.921454350237695e+17
19272.0	6.92018382774818e+17
19273.0	6.918383529011881e+17
19274.0	6.916891314487295e+17
19275.0	6.915847657007785e+17
19276.0	6.914377078101331e+17
19277.0	6.912917561671679e+17
19278.0	6.911453546850985e+17
19279.0	6.909753587750227e+17
19280.0	6.908224082367827e+17
19281.0	6.906778186241364e+17
19282.0	6.905291668280659e+17
19283.0	6.903706980537684e+17
19284.0	6.902203586095785e+17
19285.0	6.900747778129919e+17
19286.0	6.899297643659263e+17
19287.0	6.897734881640447e+17
19288.0	6.89008365115801e+17
19289.0	6.881770727276525e+17
19290.0	6.893205386341034e+17
19291.0	6.89163848524322e+17
19292.0	6.890355936985087e+17
19293.0	6.888850020368383e+17
19294.0	6.887331369844733e+17
19295.0	6.885821193213268e+17
19296.0	6.88427187184162e+17
19297.0	6.882443413247316e+17
19298.0	6.880667623926442e+17
19299.0	6.879121135108095e+17
19300.0	6.87760057967138e+17
19301.0	6.876047979053055e+17
19302.0	6.874482727714815e+17
19303.0	6.872877531922431e+17
19304.0	6.871343082154665e+17
19305.0	6.869771958790825e+17
19306.0	6.868190691502761e+17
19307.0	6.866558195684691e+17
19308.0	6.864944755987795e+17
19309.0	6.86292959633954e+17
19310.0	6.861123553503913e+17
19311.0	6.859726918778879e+17
19312.0	6.858062601475412e+17
19313.0	6.856395329983828e+17
19314.0	6.837783903600632e+17
19315.0	6.837568549857987e+17
19316.0	6.851377299630761e+17
19317.0	6.849891273102676e+17
19318.0	6.848259500802047e+17
19319.0	6.846619832025087e+17
19320.0	6.844937612733097e+17
19321.0	6.843013138830675e+17
19322.0	6.840812983812095e+17
19323.0	6.83905254494481e+17
19324.0	6.837424123893076e+17
19325.0	6.835499468237481e+17
19326.0	6.83400588567074e+17
19327.0	6.832323486023679e+17
19328.0	6.83055795666944e+17
19329.0	6.828646534042966e+17
19330.0	6.826238340147881e+17
19331.0	6.824386834552148e+17
19332.0	6.822283071629993e+17
19333.0	6.820465448321023e+17
19334.0	6.818666037379071e+17
19335.0	6.816757849260032e+17
19336.0	6.814542612922367e+17
19337.0	6.812122960887807e+17
19338.0	6.810108099734185e+17
19339.0	6.80837891891746e+17
19340.0	6.806433343471615e+17
19341.0	6.804507740602367e+17
19342.0	6.802007576805375e+17
19343.0	6.800075939031721e+17
19344.0	6.798075056095232e+17
19345.0	6.794940635239762e+17
19346.0	6.793480777673385e+17
19347.0	6.792031263959721e+17
19348.0	6.790054316518058e+17
19349.0	6.787317678560596e+17
19350.0	6.785247359620436e+17
19351.0	6.783177451722068e+17
19352.0	6.781007481012223e+17
19353.0	6.778977841927508e+17
19354.0	6.776831221607081e+17
19355.0	6.774586226682538e+17
19356.0	6.772456056422399e+17
19357.0	6.770230060995924e+17
19358.0	6.767962777539923e+17
19359.0	6.765541168862547e+17
19360.0	6.762159316227412e+17
19361.0	6.759853303966378e+17
19362.0	6.757497386478249e+17
19363.0	6.755086076914346e+17
19364.0	6.752637637973332e+17
19365.0	6.75015035068962e+17
19366.0	6.747617276286291e+17
19367.0	6.744569109894486e+17
19368.0	6.740698531364861e+17
19369.0	6.737970223295144e+17
19370.0	6.735237308481535e+17
19371.0	6.732476592422911e+17
19372.0	6.729710899822591e+17
19373.0	6.726728189739007e+17
19374.0	6.721742477197311e+17
19375.0	6.718722781741055e+17
19376.0	6.715600942399487e+17
19377.0	6.7125847275165e+17
19378.0	6.709398928534185e+17
19379.0	6.703541960485546e+17
19380.0	6.700405001377107e+17
19381.0	6.697226388635647e+17
19382.0	6.69395691119138e+17
19383.0	6.687735909711868e+17
19384.0	6.683703881935529e+17
19385.0	6.680181433434111e+17
19386.0	6.676429450248192e+17
19387.0	6.668448589414397e+17
19388.0	6.664235671093247e+17
19389.0	6.660379016953855e+17
19390.0	6.65299804644966e+17
19391.0	6.63126402994447e+17
19392.0	6.64232173851989e+17
19393.0	6.63541130880614e+17
19394.0	6.62907677380881e+17
19395.0	6.62388408984098e+17
19396.0	6.616726101819391e+17
19397.0	6.611887108827817e+17
19398.0	6.607353854732969e+17
19399.0	6.602204136516265e+17
19400.0	6.59628549542161e+17
19401.0	6.591495424791894e+17
19402.0	6.586495567659007e+17
19403.0	6.580840256154282e+17
19404.0	6.573605907333119e+17
19405.0	6.568081104393555e+17
19406.0	6.562377279471616e+17
19407.0	6.553150752292865e+17
19408.0	6.546493756407808e+17
19409.0	6.539601511099049e+17
19410.0	6.529686775529472e+17
19411.0	6.522783797695827e+17
19412.0	6.51142893176969e+17
19413.0	6.503151518963027e+17
19414.0	6.49146896464828e+17
19415.0	6.481594555214506e+17
19416.0	6.46803360771823e+17
19417.0	6.456942310457341e+17
19418.0	6.441570939873965e+17
19419.0	6.429707153877674e+17
19420.0	6.410954800278186e+17
19421.0	6.399132321884844e+17
19422.0	6.384609287733247e+17
19423.0	6.373189432464726e+17
19424.0	6.361185495198378e+17
19425.0	6.348611301758291e+17
19426.0	6.335516435808255e+17
19427.0	6.321906478568788e+17
19428.0	6.307458049201491e+17
19429.0	6.292518762534227e+17
19430.0	6.276159858453164e+17
19431.0	6.256932841062401e+17
19432.0	6.240434623173971e+17
19433.0	6.220809255955114e+17
19434.0	6.198344725910868e+17
19435.0	6.17378895573811e+17
19436.0	6.147488877292201e+17
19437.0	6.119517530882047e+17
19438.0	6.068672004445526e+17
19439.0	6.052515402132137e+17
19440.0	6.015487829868543e+17
19441.0	5.973406123382099e+17
19442.0	5.926199550629207e+17
19443.0	5.872159990393513e+17
19444.0	5.810619332689916e+17
19445.0	5.7391946941508294e+17
19446.0	5.6551619673019725e+17
19447.0	5.553891364044794e+17
19448.0	5.4269943847321645e+17
19449.0	5.2584541085586765e+17
19450.0	5.007120123210395e+17
19451.0	4.852038765292214e+17
19452.0	5.149202343875929e+17
19453.0	5.34843421517415e+17
19454.0	5.49053180586666e+17
19455.0	5.600757515201194e+17
19456.0	5.690322420673197e+17
19457.0	5.764965440247122e+17
19458.0	5.80097382180459e+17
19459.0	5.883336984275634e+17
19460.0	5.932331681797459e+17
19461.0	5.974600285771092e+17
19462.0	6.012226992690518e+17
19463.0	6.047340382475601e+17
19464.0	6.077435743305727e+17
19465.0	6.104479320156842e+17
19466.0	6.129410622444882e+17
19467.0	6.15154952839714e+17
19468.0	6.17296357892642e+17
19469.0	6.191153272236713e+17
19470.0	6.208011537569108e+17
19471.0	6.224031153913855e+17
19472.0	6.238071211163647e+17
19473.0	6.250737004707839e+17
19474.0	6.263258673577984e+17
19475.0	6.27433065886515e+17
19476.0	6.285627432981843e+17
19477.0	6.296091962813097e+17
19478.0	6.305914351692457e+17
19479.0	6.315247455436797e+17
19480.0	6.325438839608663e+17
19481.0	6.337016627899049e+17
19482.0	6.349686483626666e+17
19483.0	6.361173770021546e+17
19484.0	6.374342620697937e+17
19485.0	6.382752604968276e+17
19486.0	6.395094342391126e+17
19487.0	6.401627471391401e+17
19488.0	6.412048188222121e+17
19489.0	6.417686383471274e+17
19490.0	6.425569907791182e+17
19491.0	6.432040844350803e+17
19492.0	6.437772882957658e+17
19493.0	6.444447722810026e+17
19494.0	6.448280048588116e+17
19495.0	6.453739919507452e+17
19496.0	6.458136242159615e+17
19497.0	6.461309802861908e+17
19498.0	6.461892443417261e+17
19499.0	6.444333538476019e+17
19500.0	6.471764188069887e+17
19501.0	6.474478273953791e+17
19502.0	6.477548438771027e+17
19503.0	6.480650422277459e+17
19504.0	6.482715758384467e+17
19505.0	6.484671680479232e+17
19506.0	6.48886207189265e+17
19507.0	6.491925082625363e+17
19508.0	6.494230557316435e+17
19509.0	6.50095278022109e+17
19510.0	6.502723914563583e+17
19511.0	6.473294206555455e+17
19512.0	6.505773485348175e+17
19513.0	6.504615251367242e+17
19514.0	6.507821282273956e+17
19515.0	6.516864131093843e+17
19516.0	6.520483998597119e+17
19517.0	6.521539678349993e+17
19518.0	6.52254418969122e+17
19519.0	6.525781660401663e+17
19520.0	6.527496171640148e+17
19521.0	6.528217339570857e+17
19522.0	6.528831015878655e+17
19523.0	6.530665122103295e+17
19524.0	6.532721566285823e+17
19525.0	6.533249979383807e+17
19526.0	6.533723307289257e+17
19527.0	6.534329958137855e+17
19528.0	6.535536543356244e+17
19529.0	6.537198262288383e+17
19530.0	6.537499785210538e+17
19531.0	6.537757813200212e+17
19532.0	6.537975765314217e+17
19533.0	6.538154527948799e+17
19534.0	6.53845622563362e+17
19535.0	6.539940558361939e+17
19536.0	6.539962401598121e+17
19537.0	6.539967815745533e+17
19538.0	6.539779817952595e+17
19539.0	6.539493033814698e+17
19540.0	6.539660547325951e+17
19541.0	6.539522729487018e+17
19542.0	6.539459726147583e+17
19543.0	6.54013823381231e+17
19544.0	6.539905045889023e+17
19545.0	6.539286348999337e+17
19546.0	6.538773182895444e+17
19547.0	6.538979462960468e+17
19548.0	6.538629159583743e+17
19549.0	6.538171863706282e+17
19550.0	6.537838444500308e+17
19551.0	6.537410461914452e+17
19552.0	6.536959127541076e+17
19553.0	6.536471851477674e+17
19554.0	6.53649686700578e+17
19555.0	6.536141207502847e+17
19556.0	6.535621786992639e+17
19557.0	6.535070131159039e+17
19558.0	6.534556872081407e+17
19559.0	6.53399606357743e+17
19560.0	6.533784805572607e+17
19561.0	6.533348904839849e+17
19562.0	6.532739202635092e+17
19563.0	6.532117360017407e+17
19564.0	6.531468885666474e+17
19565.0	6.530806456866131e+17
19566.0	6.530839618431657e+17
19567.0	6.530371562766336e+17
19568.0	6.529654062055423e+17
19569.0	6.528958677909503e+17
19570.0	6.528241393205247e+17
19571.0	6.527525402443776e+17
19572.0	6.527101066805247e+17
19573.0	6.526970139508736e+17
19574.0	6.526271632004435e+17
19575.0	6.525569595692372e+17
19576.0	6.524783545374036e+17
19577.0	6.523976102707199e+17
19578.0	6.523154706290004e+17
19579.0	6.522340591184554e+17
19580.0	6.521517338787839e+17
19581.0	6.520990349656063e+17
19582.0	6.520436376469503e+17
19583.0	6.519586474863274e+17
19584.0	6.518717772988415e+17
19585.0	6.51777410212386e+17
19586.0	6.516865333460991e+17
19587.0	6.516042699724115e+17
19588.0	6.514930988264105e+17
19589.0	6.514307497983999e+17
19590.0	6.513367834077865e+17
19591.0	6.512533008897364e+17
19592.0	6.511913859721897e+17
19593.0	6.51111525655074e+17
19594.0	6.510020812341247e+17
19595.0	6.509257141430954e+17
19596.0	6.50781585973794e+17
19597.0	6.50738295583539e+17
19598.0	6.506220691128319e+17
19599.0	6.505492363520681e+17
19600.0	6.504542889137491e+17
19601.0	6.503530244341759e+17
19602.0	6.502544756965376e+17
19603.0	6.501196548276223e+17
19604.0	6.500551319617535e+17
19605.0	6.49946753732881e+17
19606.0	6.498719332914516e+17
19607.0	6.498014501797887e+17
19608.0	6.497009149498707e+17
19609.0	6.495989177952938e+17
19610.0	6.495093747176788e+17
19611.0	6.494155528907433e+17
19612.0	6.493173645836287e+17
19613.0	6.492152999706623e+17
19614.0	6.491113128285523e+17
19615.0	6.490112926591657e+17
19616.0	6.488932485868201e+17
19617.0	6.488161855209472e+17
19618.0	6.486848492098899e+17
19619.0	6.485715024784041e+17
19620.0	6.484743860256765e+17
19621.0	6.48409908388386e+17
19622.0	6.48309934985489e+17
19623.0	6.482055245682003e+17
19624.0	6.480996478222333e+17
19625.0	6.480021842908499e+17
19626.0	6.479072284639231e+17
19627.0	6.477946527853225e+17
19628.0	6.47653075591714e+17
19629.0	6.475365026015913e+17
19630.0	6.471153128308733e+17
19631.0	6.459540644036609e+17
19632.0	6.471945445616297e+17
19633.0	6.471428871640403e+17
19634.0	6.47052900049442e+17
19635.0	6.469469775156564e+17
19636.0	6.468420077180244e+17
19637.0	6.467068025110527e+17
19638.0	6.466312270949033e+17
19639.0	6.465235763680595e+17
19640.0	6.464085545014612e+17
19641.0	6.462572463128576e+17
19642.0	6.461994549553834e+17
19643.0	6.460909529945427e+17
19644.0	6.459774942052351e+17
19645.0	6.458571733248682e+17
19646.0	6.457613808041983e+17
19647.0	6.456561998233597e+17
19648.0	6.455470042644479e+17
19649.0	6.454373666258943e+17
19650.0	6.453278931943423e+17
19651.0	6.452176094232575e+17
19652.0	6.451080277786624e+17
19653.0	6.449972106319188e+17
19654.0	6.448872474454697e+17
19655.0	6.447773121511423e+17
19656.0	6.446667567289683e+17
19657.0	6.445566255606442e+17
19658.0	6.444459389266602e+17
19659.0	6.443350488689321e+17
19660.0	6.442242202577577e+17
19661.0	6.441240323861162e+17
19662.0	6.440139038741844e+17
19663.0	6.4389836177408e+17
19664.0	6.437861986751827e+17
19665.0	6.436798976054612e+17
