# Flux units: erg / (cm m2 s)
# Wavelength units: Angstrom
wave	flux
19000.0	6.445676300162388e+17
19001.0	6.44439151354402e+17
19002.0	6.443299740407126e+17
19003.0	6.442104512664916e+17
19004.0	6.440913110127956e+17
19005.0	6.439723750217044e+17
19006.0	6.438539897427284e+17
19007.0	6.437338429958828e+17
19008.0	6.436106648857258e+17
19009.0	6.434841552399017e+17
19010.0	6.433380551185748e+17
19011.0	6.43254238454306e+17
19012.0	6.431075225392467e+17
19013.0	6.430207955872425e+17
19014.0	6.42897042018577e+17
19015.0	6.427797747313321e+17
19016.0	6.426607798102697e+17
19017.0	6.425456557424637e+17
19018.0	6.424256413259092e+17
19019.0	6.423079612492458e+17
19020.0	6.421879536134825e+17
19021.0	6.420709807663785e+17
19022.0	6.419517113980244e+17
19023.0	6.418294939931988e+17
19024.0	6.417120652252499e+17
19025.0	6.415930511501993e+17
19026.0	6.414702825439231e+17
19027.0	6.41332016194082e+17
19028.0	6.412381952759123e+17
19029.0	6.41118666559761e+17
19030.0	6.410027388633087e+17
19031.0	6.408837144423082e+17
19032.0	6.407638841556991e+17
19033.0	6.406351923533139e+17
19034.0	6.405187223333546e+17
19035.0	6.403550071138985e+17
19036.0	6.385238891211429e+17
19037.0	6.401321315860479e+17
19038.0	6.400441794778452e+17
19039.0	6.399326440565417e+17
19040.0	6.398156706501972e+17
19041.0	6.396970447579817e+17
19042.0	6.395536020078591e+17
19043.0	6.394614342047059e+17
19044.0	6.39341821043234e+17
19045.0	6.392231536973139e+17
19046.0	6.391014124858025e+17
19047.0	6.389837188475561e+17
19048.0	6.388476331862697e+17
19049.0	6.387067583288659e+17
19050.0	6.386199778994858e+17
19051.0	6.38249804916326e+17
19052.0	6.383108637065215e+17
19053.0	6.382721729997482e+17
19054.0	6.381577147077971e+17
19055.0	6.380108966614358e+17
19056.0	6.379178524584617e+17
19057.0	6.378035479576575e+17
19058.0	6.376669523389097e+17
19059.0	6.375604964294655e+17
19060.0	6.374479201916244e+17
19061.0	6.373315240613204e+17
19062.0	6.372129052295167e+17
19063.0	6.370946399775401e+17
19064.0	6.369660917601619e+17
19065.0	6.368416741632682e+17
19066.0	6.367284148830207e+17
19067.0	6.366212718067711e+17
19068.0	6.365044474380287e+17
19069.0	6.363864308383743e+17
19070.0	6.362656155893757e+17
19071.0	6.361486485443923e+17
19072.0	6.36025486512401e+17
19073.0	6.35913905373184e+17
19074.0	6.357962790535168e+17
19075.0	6.356782431600639e+17
19076.0	6.355587094806527e+17
19077.0	6.354405765589674e+17
19078.0	6.353212593755476e+17
19079.0	6.352062518394879e+17
19080.0	6.350870606949033e+17
19081.0	6.349659196183891e+17
19082.0	6.348491631274665e+17
19083.0	6.347240242500948e+17
19084.0	6.345943230185471e+17
19085.0	6.344965946867711e+17
19086.0	6.343289886911146e+17
19087.0	6.342144641291603e+17
19088.0	6.341140164902911e+17
19089.0	6.339902200698198e+17
19090.0	6.339005594118825e+17
19091.0	6.337853685847382e+17
19092.0	6.336473857698474e+17
19093.0	6.335552076906495e+17
19094.0	6.334389879308287e+17
19095.0	6.333216952680447e+17
19096.0	6.332029656367103e+17
19097.0	6.330863384002559e+17
19098.0	6.329615310826153e+17
19099.0	6.328425500726612e+17
19100.0	6.327301016911871e+17
19101.0	6.326145837782356e+17
19102.0	6.324891564026537e+17
19103.0	6.323809137197055e+17
19104.0	6.3226357757597e+17
19105.0	6.321283330124458e+17
19106.0	6.320220231346857e+17
19107.0	6.319028301725695e+17
19108.0	6.317795616052563e+17
19109.0	6.315748406329344e+17
19110.0	6.315344464794963e+17
19111.0	6.314331751492265e+17
19112.0	6.313177767739391e+17
19113.0	6.312066792379732e+17
19114.0	6.310860283357865e+17
19115.0	6.30963913761314e+17
19116.0	6.308526651604991e+17
19117.0	6.307343015520938e+17
19118.0	6.306025479077887e+17
19119.0	6.299990555099128e+17
19120.0	6.303663939125247e+17
19121.0	6.302563162215764e+17
19122.0	6.301519288030548e+17
19123.0	6.300352260691283e+17
19124.0	6.299071991338323e+17
19125.0	6.297997358224724e+17
19126.0	6.296779992946003e+17
19127.0	6.294143514269011e+17
19128.0	6.294334951391231e+17
19129.0	6.293239332776617e+17
19130.0	6.292144929811114e+17
19131.0	6.290989890491731e+17
19132.0	6.289818665353213e+17
19133.0	6.28858901565713e+17
19134.0	6.287427316482047e+17
19135.0	6.286308021720404e+17
19136.0	6.285141569000788e+17
19137.0	6.283846435034452e+17
19138.0	6.282789296362836e+17
19139.0	6.281640649162752e+17
19140.0	6.28047561621504e+17
19141.0	6.279307877941247e+17
19142.0	6.278115112255485e+17
19143.0	6.276924649941673e+17
19144.0	6.275761760982356e+17
19145.0	6.274635974137172e+17
19146.0	6.272873735913472e+17
19147.0	6.272228048677546e+17
19148.0	6.271068749343401e+17
19149.0	6.269887544557567e+17
19150.0	6.268795376457044e+17
19151.0	6.267626549761364e+17
19152.0	6.266442401972223e+17
19153.0	6.265152494807721e+17
19154.0	6.264011777638399e+17
19155.0	6.262940332195839e+17
19156.0	6.261763322413053e+17
19157.0	6.260437161082879e+17
19158.0	6.258800102561108e+17
19159.0	6.258175196703401e+17
19160.0	6.257060302465705e+17
19161.0	6.255831146299391e+17
19162.0	6.253204393514326e+17
19163.0	6.253253437510996e+17
19164.0	6.252388016280916e+17
19165.0	6.251092450301267e+17
19166.0	6.249958073521492e+17
19167.0	6.248787385952937e+17
19168.0	6.247745545306112e+17
19169.0	6.246593476253012e+17
19170.0	6.245446640992255e+17
19171.0	6.244223402289833e+17
19172.0	6.243103111380991e+17
19173.0	6.241967128182783e+17
19174.0	6.240768909901823e+17
19175.0	6.239650570742442e+17
19176.0	6.238485795045373e+17
19177.0	6.23717343437346e+17
19178.0	6.23609115644177e+17
19179.0	6.234887760292521e+17
19180.0	6.233813903125161e+17
19181.0	6.232566830290259e+17
19182.0	6.231495102431231e+17
19183.0	6.230359497419433e+17
19184.0	6.229194657409706e+17
19185.0	6.228025735643135e+17
19186.0	6.226872240526676e+17
19187.0	6.225640477600425e+17
19188.0	6.224542640898047e+17
19189.0	6.223379461133652e+17
19190.0	6.222202011647999e+17
19191.0	6.221003463415124e+17
19192.0	6.219879376661161e+17
19193.0	6.218680437658966e+17
19194.0	6.217479046387027e+17
19195.0	6.2163177715357e+17
19196.0	6.215058547802111e+17
19197.0	6.21370175057647e+17
19198.0	6.211719307897514e+17
19199.0	6.200679655101778e+17
19200.0	6.201358633227607e+17
19201.0	6.208367201965395e+17
19202.0	6.207935301200553e+17
19203.0	6.206928447340543e+17
19204.0	6.205860220327252e+17
19205.0	6.204755464421376e+17
19206.0	6.203622208219818e+17
19207.0	6.202366901966164e+17
19208.0	6.201146179147092e+17
19209.0	6.200172822396928e+17
19210.0	6.199018366085801e+17
19211.0	6.197874866694825e+17
19212.0	6.196708679614464e+17
19213.0	6.195389937309011e+17
19214.0	6.194193075885395e+17
19215.0	6.193184225536682e+17
19216.0	6.192077993934847e+17
19217.0	6.190894554983082e+17
19218.0	6.189095908802559e+17
19219.0	6.188427176662356e+17
19220.0	6.187420154331136e+17
19221.0	6.186048556105727e+17
19222.0	6.185107048103935e+17
19223.0	6.183966152676692e+17
19224.0	6.182780320874495e+17
19225.0	6.181555733703337e+17
19226.0	6.180492884486826e+17
19227.0	6.17933730619938e+17
19228.0	6.178206342184959e+17
19229.0	6.177047177767594e+17
19230.0	6.175887211539114e+17
19231.0	6.174718428883625e+17
19232.0	6.173563295192403e+17
19233.0	6.172345053304148e+17
19234.0	6.171239348786516e+17
19235.0	6.170069000956585e+17
19236.0	6.168938694748841e+17
19237.0	6.167767208864425e+17
19238.0	6.166523913000276e+17
19239.0	6.165464113042772e+17
19240.0	6.164303148569939e+17
19241.0	6.16312683434257e+17
19242.0	6.161974803737257e+17
19243.0	6.16067499102481e+17
19244.0	6.159674068609705e+17
19245.0	6.158508512073044e+17
19246.0	6.157341856628736e+17
19247.0	6.156194107009705e+17
19248.0	6.1550367880861e+17
19249.0	6.153861590941695e+17
19250.0	6.152668804983465e+17
19251.0	6.151433283960831e+17
19252.0	6.150107851740499e+17
19253.0	6.149212992787796e+17
19254.0	6.148075828893012e+17
19255.0	6.146725273490771e+17
19256.0	6.145734597061289e+17
19257.0	6.144593550639101e+17
19258.0	6.14343065399023e+17
19259.0	6.142188259901439e+17
19260.0	6.140710450713939e+17
19261.0	6.139886508354217e+17
19262.0	6.13867152613922e+17
19263.0	6.137481431526057e+17
19264.0	6.135930205241341e+17
19265.0	6.135054584162986e+17
19266.0	6.133869951232682e+17
19267.0	6.132918320278186e+17
19268.0	6.131748482755242e+17
19269.0	6.130585870619988e+17
19270.0	6.129404084223999e+17
19271.0	6.127969460289536e+17
19272.0	6.127053485113343e+17
19273.0	6.125581024362495e+17
19274.0	6.12430998807074e+17
19275.0	6.123590551688531e+17
19276.0	6.12240664437282e+17
19277.0	6.121243525425834e+17
19278.0	6.120071995501225e+17
19279.0	6.118879777172138e+17
19280.0	6.117666904692051e+17
19281.0	6.116548341137407e+17
19282.0	6.115378672085673e+17
19283.0	6.114116770988031e+17
19284.0	6.11295150805265e+17
19285.0	6.111732797101395e+17
19286.0	6.110623647662079e+17
19287.0	6.109402913658196e+17
19288.0	6.102912735029926e+17
19289.0	6.095594471467674e+17
19290.0	6.105850522020521e+17
19291.0	6.104545183312554e+17
19292.0	6.103640290885631e+17
19293.0	6.102468033948329e+17
19294.0	6.1012869920413e+17
19295.0	6.100120621110612e+17
19296.0	6.098851596686675e+17
19297.0	6.097715726734675e+17
19298.0	6.096548581954899e+17
19299.0	6.09529604743714e+17
19300.0	6.094197278201172e+17
19301.0	6.0930122593949e+17
19302.0	6.091812576602793e+17
19303.0	6.090564944527359e+17
19304.0	6.089417594765311e+17
19305.0	6.088229359626921e+17
19306.0	6.08703646671394e+17
19307.0	6.085733912324777e+17
19308.0	6.084506991023444e+17
19309.0	6.082975219318783e+17
19310.0	6.081618496891562e+17
19311.0	6.080821507828393e+17
19312.0	6.079714278681257e+17
19313.0	6.078443726831615e+17
19314.0	6.054606106088774e+17
19315.0	6.055426320411341e+17
19316.0	6.074644466849108e+17
19317.0	6.073671915405312e+17
19318.0	6.072459734985386e+17
19319.0	6.071273490743295e+17
19320.0	6.070023370746538e+17
19321.0	6.068757079610708e+17
19322.0	6.067502340287146e+17
19323.0	6.066241359839232e+17
19324.0	6.065080294004052e+17
19325.0	6.063654397717161e+17
19326.0	6.062637565607935e+17
19327.0	6.061443496891731e+17
19328.0	6.060031831878313e+17
19329.0	6.058874081640447e+17
19330.0	6.057602248430931e+17
19331.0	6.056336355054931e+17
19332.0	6.055134210905427e+17
19333.0	6.053864517490004e+17
19334.0	6.052618640730793e+17
19335.0	6.051065048159572e+17
19336.0	6.050080714915837e+17
19337.0	6.048818485264383e+17
19338.0	6.047346917201235e+17
19339.0	6.046258972764842e+17
19340.0	6.044865209739946e+17
19341.0	6.043438283052372e+17
19342.0	6.04185462571008e+17
19343.0	6.040902501924863e+17
19344.0	6.039471964640596e+17
19345.0	6.036552216652456e+17
19346.0	6.036063576741203e+17
19347.0	6.035457396353706e+17
19348.0	6.034348765609983e+17
19349.0	6.032980852080637e+17
19350.0	6.031383435324073e+17
19351.0	6.030051358627156e+17
19352.0	6.028523012969812e+17
19353.0	6.027383412184404e+17
19354.0	6.026020378727764e+17
19355.0	6.024551945207808e+17
19356.0	6.023260853851475e+17
19357.0	6.021563581901482e+17
19358.0	6.020124788129791e+17
19359.0	6.018586281071956e+17
19360.0	6.01706366832913e+17
19361.0	6.015761257944404e+17
19362.0	6.014352417095679e+17
19363.0	6.012504369703593e+17
19364.0	6.011004694211242e+17
19365.0	6.009530563428351e+17
19366.0	6.008045290476884e+17
19367.0	6.006474060857344e+17
19368.0	6.00476007670306e+17
19369.0	6.003187702737577e+17
19370.0	6.001649817135785e+17
19371.0	6.000084332314623e+17
19372.0	5.998563460207956e+17
19373.0	5.996953942185299e+17
19374.0	5.995232794159786e+17
19375.0	5.993543258603519e+17
19376.0	5.991885529852586e+17
19377.0	5.990207279770282e+17
19378.0	5.988520578165418e+17
19379.0	5.986811205648381e+17
19380.0	5.985077002152618e+17
19381.0	5.983310653510995e+17
19382.0	5.981450769093972e+17
19383.0	5.979341991881386e+17
19384.0	5.977583785082879e+17
19385.0	5.975730089361408e+17
19386.0	5.973836737893716e+17
19387.0	5.97190335598865e+17
19388.0	5.969923902450346e+17
19389.0	5.967649695596544e+17
19390.0	5.965204958827859e+17
19391.0	5.947853020419393e+17
19392.0	5.960167369037139e+17
19393.0	5.958922166162772e+17
19394.0	5.956106266345472e+17
19395.0	5.953743761702912e+17
19396.0	5.951434960928767e+17
19397.0	5.948790040515924e+17
19398.0	5.945598281427625e+17
19399.0	5.942406834814976e+17
19400.0	5.939955670974463e+17
19401.0	5.936534189856084e+17
19402.0	5.933793068886697e+17
19403.0	5.930043200329043e+17
19404.0	5.926613687118505e+17
19405.0	5.922946461728767e+17
19406.0	5.918783531821738e+17
19407.0	5.914735755132925e+17
19408.0	5.909391221282132e+17
19409.0	5.905840815647402e+17
19410.0	5.901824815704745e+17
19411.0	5.898214046345897e+17
19412.0	5.894452795146239e+17
19413.0	5.890105272522068e+17
19414.0	5.885857817602729e+17
19415.0	5.881613527285759e+17
19416.0	5.876816856918698e+17
19417.0	5.871389252080979e+17
19418.0	5.866584196601174e+17
19419.0	5.860862078222336e+17
19420.0	5.854714670000809e+17
19421.0	5.848704284098559e+17
19422.0	5.841379129993897e+17
19423.0	5.834467567818066e+17
19424.0	5.826300768594602e+17
19425.0	5.817084074961578e+17
19426.0	5.807693760211624e+17
19427.0	5.796968159423146e+17
19428.0	5.785043663672655e+17
19429.0	5.772749138034685e+17
19430.0	5.757810241437694e+17
19431.0	5.7415852433080326e+17
19432.0	5.73047838867456e+17
19433.0	5.717874073840298e+17
19434.0	5.704755592560639e+17
19435.0	5.6888987361826106e+17
19436.0	5.670766023191211e+17
19437.0	5.6524123689451494e+17
19438.0	5.605418232796504e+17
19439.0	5.602723274336938e+17
19440.0	5.575759301181438e+17
19441.0	5.543659587327314e+17
19442.0	5.507748103279955e+17
19443.0	5.465784351806804e+17
19444.0	5.416249401365842e+17
19445.0	5.3599269800290976e+17
19446.0	5.2907132723746106e+17
19447.0	5.2026091870617536e+17
19448.0	5.0864982596430554e+17
19449.0	4.9157496894040736e+17
19450.0	4.6069756447074835e+17
19451.0	4.392443696906273e+17
19452.0	4.789981069443067e+17
19453.0	5.0096647627079744e+17
19454.0	5.1457851290637594e+17
19455.0	5.243174377226238e+17
19456.0	5.318717418941101e+17
19457.0	5.3783269750428986e+17
19458.0	5.374473994414858e+17
19459.0	5.469927102218251e+17
19460.0	5.509203255536297e+17
19461.0	5.5413141604925434e+17
19462.0	5.569770025211221e+17
19463.0	5.594576767855274e+17
19464.0	5.615977627997524e+17
19465.0	5.6348694575841274e+17
19466.0	5.6511980780912614e+17
19467.0	5.664876193469781e+17
19468.0	5.677221761690283e+17
19469.0	5.6872885149149856e+17
19470.0	5.698566682400085e+17
19471.0	5.710066820841476e+17
19472.0	5.722514042912766e+17
19473.0	5.7342910879061325e+17
19474.0	5.743705215117992e+17
19475.0	5.75161178713839e+17
19476.0	5.760205802788179e+17
19477.0	5.76802707874338e+17
19478.0	5.773699528873299e+17
19479.0	5.779555996401663e+17
19480.0	5.7840101738851e+17
19481.0	5.788778819310932e+17
19482.0	5.792266329959084e+17
19483.0	5.796533230370815e+17
19484.0	5.799419152695295e+17
19485.0	5.802369691069097e+17
19486.0	5.805209629840724e+17
19487.0	5.807495508044457e+17
19488.0	5.809469698430292e+17
19489.0	5.811535028944895e+17
19490.0	5.812327114866687e+17
19491.0	5.814931019879764e+17
19492.0	5.816349924960937e+17
19493.0	5.81878956425216e+17
19494.0	5.820399797403647e+17
19495.0	5.823271077412863e+17
19496.0	5.823999639202473e+17
19497.0	5.826539790095702e+17
19498.0	5.824306558795775e+17
19499.0	5.804800955034271e+17
19500.0	5.829839809063593e+17
19501.0	5.830904652671658e+17
19502.0	5.832227624233642e+17
19503.0	5.832743513838932e+17
19504.0	5.833246457724928e+17
19505.0	5.834216214364159e+17
19506.0	5.83441784574225e+17
19507.0	5.834520686581076e+17
19508.0	5.834872852228778e+17
19509.0	5.835174677839871e+17
19510.0	5.834696350324051e+17
19511.0	5.79544912512065e+17
19512.0	5.830258970329082e+17
19513.0	5.827814525064524e+17
19514.0	5.829534888056143e+17
19515.0	5.83422468685824e+17
19516.0	5.834487641057961e+17
19517.0	5.834191370103465e+17
19518.0	5.83389028688418e+17
19519.0	5.833572130750463e+17
19520.0	5.833307316376916e+17
19521.0	5.833035342326441e+17
19522.0	5.832544442384383e+17
19523.0	5.832100801762644e+17
19524.0	5.83156233282082e+17
19525.0	5.831126781613395e+17
19526.0	5.830609779119444e+17
19527.0	5.830056186915497e+17
19528.0	5.829517453033472e+17
19529.0	5.829062871569748e+17
19530.0	5.828489252263252e+17
19531.0	5.827867920651604e+17
19532.0	5.827230213778089e+17
19533.0	5.826577241735167e+17
19534.0	5.825907798660435e+17
19535.0	5.825451937933993e+17
19536.0	5.824749802356736e+17
19537.0	5.824076557145428e+17
19538.0	5.823117462426964e+17
19539.0	5.822213290721281e+17
19540.0	5.822260544449193e+17
19541.0	5.821512221196287e+17
19542.0	5.820762874533203e+17
19543.0	5.819890846575273e+17
19544.0	5.819212452156756e+17
19545.0	5.818029111771135e+17
19546.0	5.817237741677225e+17
19547.0	5.817209316179968e+17
19548.0	5.816410845828436e+17
19549.0	5.815498074401448e+17
19550.0	5.814765030998015e+17
19551.0	5.813932323241983e+17
19552.0	5.813089788231679e+17
19553.0	5.812387805746516e+17
19554.0	5.811580400129366e+17
19555.0	5.810725181543763e+17
19556.0	5.809879553933311e+17
19557.0	5.80901443539217e+17
19558.0	5.808138619278676e+17
19559.0	5.807259021301076e+17
19560.0	5.806304111099903e+17
19561.0	5.805453142043305e+17
19562.0	5.804627659674964e+17
19563.0	5.803841897365503e+17
19564.0	5.802936918256298e+17
19565.0	5.802027443552255e+17
19566.0	5.80108775657745e+17
19567.0	5.800195001767252e+17
19568.0	5.799250841567231e+17
19569.0	5.798331180995924e+17
19570.0	5.797424344509097e+17
19571.0	5.796491253077332e+17
19572.0	5.795521671200767e+17
19573.0	5.794591895366314e+17
19574.0	5.793581962188115e+17
19575.0	5.792737451660628e+17
19576.0	5.79181431890466e+17
19577.0	5.790901722240339e+17
19578.0	5.789960862957567e+17
19579.0	5.789012554590889e+17
19580.0	5.788058462978048e+17
19581.0	5.787167236292607e+17
19582.0	5.786235096268799e+17
19583.0	5.785272163762175e+17
19584.0	5.784297653578409e+17
19585.0	5.78322592571938e+17
19586.0	5.782216723049132e+17
19587.0	5.78133162983424e+17
19588.0	5.780020862997844e+17
19589.0	5.779412792377344e+17
19590.0	5.778371219466921e+17
19591.0	5.777490164667732e+17
19592.0	5.776519434949974e+17
19593.0	5.775508968396116e+17
19594.0	5.774304664180052e+17
19595.0	5.773568046530559e+17
19596.0	5.772378852294655e+17
19597.0	5.771614897569791e+17
19598.0	5.770270095354538e+17
19599.0	5.769644426133503e+17
19600.0	5.768674683475284e+17
19601.0	5.76767478866466e+17
19602.0	5.766663188949673e+17
19603.0	5.765264417226751e+17
19604.0	5.764653855189674e+17
19605.0	5.7634842287800326e+17
19606.0	5.762759534138709e+17
19607.0	5.7617739754591565e+17
19608.0	5.7607605428333216e+17
19609.0	5.759730555289599e+17
19610.0	5.758722273269077e+17
19611.0	5.7576906751126176e+17
19612.0	5.756777140322303e+17
19613.0	5.755764159283199e+17
19614.0	5.754731278368766e+17
19615.0	5.753755429502974e+17
19616.0	5.752569171978921e+17
19617.0	5.751654894796799e+17
19618.0	5.750191788741972e+17
19619.0	5.74903708566596e+17
19620.0	5.7481186365494605e+17
19621.0	5.747599961227263e+17
19622.0	5.746713843204094e+17
19623.0	5.745698848200021e+17
19624.0	5.7446641944930963e+17
19625.0	5.7436770007340365e+17
19626.0	5.742652730026666e+17
19627.0	5.7415910041845754e+17
19628.0	5.7403029376204794e+17
19629.0	5.738994277722794e+17
19630.0	5.735881207272787e+17
19631.0	5.7264990441526605e+17
19632.0	5.7360413989273594e+17
19633.0	5.735395269192362e+17
19634.0	5.7345246959588685e+17
19635.0	5.7334942176815776e+17
19636.0	5.7324195461201894e+17
19637.0	5.731082215358464e+17
19638.0	5.730513666965503e+17
19639.0	5.729508460068863e+17
19640.0	5.72839123030289e+17
19641.0	5.726614032394925e+17
19642.0	5.7264567942294176e+17
19643.0	5.725442789780137e+17
19644.0	5.7243753561893536e+17
19645.0	5.723201078995626e+17
19646.0	5.722286370499242e+17
19647.0	5.72140340449553e+17
19648.0	5.7203911155165856e+17
19649.0	5.719368621096958e+17
19650.0	5.7183589193045325e+17
19651.0	5.7173359572200096e+17
19652.0	5.7163175473534285e+17
19653.0	5.715300060932777e+17
19654.0	5.7142829058621434e+17
19655.0	5.713262505099263e+17
19656.0	5.7122504649823565e+17
19657.0	5.7112386157062816e+17
19658.0	5.7102208328881485e+17
19659.0	5.709201722572798e+17
19660.0	5.708184940096169e+17
19661.0	5.70716639601186e+17
19662.0	5.706145635936939e+17
19663.0	5.7050802673418234e+17
