# Flux units: erg / (cm m2 s)
# Wavelength units: Angstrom
wave	flux
19000.0	8.18173793481523e+17
19001.0	8.180128113404585e+17
19002.0	8.178658752244392e+17
19003.0	8.177111607716522e+17
19004.0	8.175559123839658e+17
19005.0	8.174031375171583e+17
19006.0	8.172495535691092e+17
19007.0	8.170076124129962e+17
19008.0	8.169350414467071e+17
19009.0	8.16784763449071e+17
19010.0	8.165999378082472e+17
19011.0	8.164759829828947e+17
19012.0	8.162467968450557e+17
19013.0	8.161693547539116e+17
19014.0	8.16010505696051e+17
19015.0	8.158584740599124e+17
19016.0	8.157037819767466e+17
19017.0	8.155282942547284e+17
19018.0	8.153906529959936e+17
19019.0	8.152434713733798e+17
19020.0	8.150838809023828e+17
19021.0	8.149321857892352e+17
19022.0	8.147808648080041e+17
19023.0	8.146234422329344e+17
19024.0	8.144709974578515e+17
19025.0	8.143088220372991e+17
19026.0	8.141541236626772e+17
19027.0	8.139511832423081e+17
19028.0	8.138549881383594e+17
19029.0	8.136986250444799e+17
19030.0	8.135469000119634e+17
19031.0	8.133930191071914e+17
19032.0	8.132386537603072e+17
19033.0	8.130779088770387e+17
19034.0	8.129285291595094e+17
19035.0	8.127716775690237e+17
19036.0	8.080805925137034e+17
19037.0	8.124647399402153e+17
19038.0	8.123105363536554e+17
19039.0	8.121582017489577e+17
19040.0	8.120038995962537e+17
19041.0	8.118489263549097e+17
19042.0	8.116882647984809e+17
19043.0	8.115412338911914e+17
19044.0	8.113853474100564e+17
19045.0	8.112292780572671e+17
19046.0	8.110723811682985e+17
19047.0	8.109236922526377e+17
19048.0	8.107547842751142e+17
19049.0	8.10609998438946e+17
19050.0	8.104572723658751e+17
19051.0	8.096641201121951e+17
19052.0	8.101042158480041e+17
19053.0	8.099765255755092e+17
19054.0	8.098438746996735e+17
19055.0	8.09671463080209e+17
19056.0	8.095326321770493e+17
19057.0	8.093790465512787e+17
19058.0	8.092043760194898e+17
19059.0	8.090723094102015e+17
19060.0	8.089159124822697e+17
19061.0	8.087641671772841e+17
19062.0	8.08609710814003e+17
19063.0	8.08455688561186e+17
19064.0	8.082918129096019e+17
19065.0	8.0813389526685e+17
19066.0	8.079883311076694e+17
19067.0	8.078379878187007e+17
19068.0	8.0768485336023e+17
19069.0	8.075307688919039e+17
19070.0	8.073738002803368e+17
19071.0	8.07218628928034e+17
19072.0	8.070679064739837e+17
19073.0	8.06913977474526e+17
19074.0	8.067602840551424e+17
19075.0	8.066062055986515e+17
19076.0	8.064505203042985e+17
19077.0	8.062969061572607e+17
19078.0	8.061378436093268e+17
19079.0	8.059897969814185e+17
19080.0	8.058348887517864e+17
19081.0	8.056784017861289e+17
19082.0	8.055226626648745e+17
19083.0	8.053646486929408e+17
19084.0	8.052010378417492e+17
19085.0	8.050640918588073e+17
19086.0	8.048768577088169e+17
19087.0	8.046249830427306e+17
19088.0	8.045907308183548e+17
19089.0	8.043649732444157e+17
19090.0	8.04291143008256e+17
19091.0	8.041391287085737e+17
19092.0	8.039520280772608e+17
19093.0	8.038339271021908e+17
19094.0	8.036778569105408e+17
19095.0	8.035225503618387e+17
19096.0	8.033622479776424e+17
19097.0	8.032160820756479e+17
19098.0	8.030650857335464e+17
19099.0	8.029108622939476e+17
19100.0	8.027500729510569e+17
19101.0	8.026016549874345e+17
19102.0	8.024451403393705e+17
19103.0	8.022969434155688e+17
19104.0	8.021435243036671e+17
19105.0	8.019894143898966e+17
19106.0	8.01810580452147e+17
19107.0	8.016805921204906e+17
19108.0	8.015272931054931e+17
19109.0	8.008114003509239e+17
19110.0	8.012132515839999e+17
19111.0	8.010655504269311e+17
19112.0	8.009136724421288e+17
19113.0	8.007606236872701e+17
19114.0	8.006072339354966e+17
19115.0	8.00442490622225e+17
19116.0	8.002983736377344e+17
19117.0	8.001449377486164e+17
19118.0	7.999636460885332e+17
19119.0	7.997099569665361e+17
19120.0	7.996502103643475e+17
19121.0	7.995105116596905e+17
19122.0	7.993788731490303e+17
19123.0	7.992231282955603e+17
19124.0	7.990454923908434e+17
19125.0	7.989094221785769e+17
19126.0	7.987479701356543e+17
19127.0	7.984974418411517e+17
19128.0	7.97947665055743e+17
19129.0	7.982979401908221e+17
19130.0	7.981505559833257e+17
19131.0	7.979796358583636e+17
19132.0	7.978448584703999e+17
19133.0	7.975869848311127e+17
19134.0	7.97289432376935e+17
19135.0	7.973832349100712e+17
19136.0	7.972315156097705e+17
19137.0	7.970646092939264e+17
19138.0	7.968487831328084e+17
19139.0	7.967685967085565e+17
19140.0	7.966185143052969e+17
19141.0	7.964657509029203e+17
19142.0	7.963088284286975e+17
19143.0	7.96154615754479e+17
19144.0	7.960013212134058e+17
19145.0	7.958504371388416e+17
19146.0	7.956403412358484e+17
19147.0	7.955408185109161e+17
19148.0	7.953899092705279e+17
19149.0	7.952373841046185e+17
19150.0	7.95081747604002e+17
19151.0	7.949334384126634e+17
19152.0	7.947734489235455e+17
19153.0	7.946262700971347e+17
19154.0	7.944657807867901e+17
19155.0	7.943195969890985e+17
19156.0	7.941668692383059e+17
19157.0	7.940021025767424e+17
19158.0	7.934728658572623e+17
19159.0	7.937022499662505e+17
19160.0	7.935436241851732e+17
19161.0	7.933451890065408e+17
19162.0	7.923857720257203e+17
19163.0	7.930813958062079e+17
19164.0	7.929390636378792e+17
19165.0	7.927747432502612e+17
19166.0	7.926123649652051e+17
19167.0	7.923982061797373e+17
19168.0	7.923136086059689e+17
19169.0	7.921574500543145e+17
19170.0	7.920208882696191e+17
19171.0	7.918308151350614e+17
19172.0	7.917111080211795e+17
19173.0	7.91561134809634e+17
19174.0	7.914063960298836e+17
19175.0	7.912564683964415e+17
19176.0	7.911033975515818e+17
19177.0	7.909398128448851e+17
19178.0	7.907837949422249e+17
19179.0	7.905862068731905e+17
19180.0	7.90355929657071e+17
19181.0	7.903251958945106e+17
19182.0	7.901726170415103e+17
19183.0	7.900172422654632e+17
19184.0	7.898573239397032e+17
19185.0	7.897251359752191e+17
19186.0	7.895736282076499e+17
19187.0	7.894127289739945e+17
19188.0	7.892606184849405e+17
19189.0	7.890908151633236e+17
19190.0	7.88932930375953e+17
19191.0	7.887943876214784e+17
19192.0	7.886375191139668e+17
19193.0	7.883466073615016e+17
19194.0	7.882799229610666e+17
19195.0	7.881810594409126e+17
19196.0	7.880370741575679e+17
19197.0	7.878795910447103e+17
19198.0	7.877049511313407e+17
19199.0	7.827011391892127e+17
19200.0	7.841748854942399e+17
19201.0	7.872491169688233e+17
19202.0	7.87115310981666e+17
19203.0	7.869565781060266e+17
19204.0	7.868118164570111e+17
19205.0	7.866622941331455e+17
19206.0	7.86509701718562e+17
19207.0	7.863514792897194e+17
19208.0	7.861902577937064e+17
19209.0	7.860458182672384e+17
19210.0	7.85896641274402e+17
19211.0	7.857435484793513e+17
19212.0	7.85590963474705e+17
19213.0	7.853854551616169e+17
19214.0	7.85203521073971e+17
19215.0	7.851105733399892e+17
19216.0	7.849725192219304e+17
19217.0	7.848230493268649e+17
19218.0	7.846140678504445e+17
19219.0	7.845047065466195e+17
19220.0	7.843577382742697e+17
19221.0	7.841807622733824e+17
19222.0	7.840562796647764e+17
19223.0	7.839007635406848e+17
19224.0	7.837387122715305e+17
19225.0	7.835828295652692e+17
19226.0	7.834391556390911e+17
19227.0	7.832848200717651e+17
19228.0	7.831334247115434e+17
19229.0	7.829793793900544e+17
19230.0	7.828037507394216e+17
19231.0	7.826543452968275e+17
19232.0	7.825103135965183e+17
19233.0	7.823566596035926e+17
19234.0	7.822068933110441e+17
19235.0	7.820519971050836e+17
19236.0	7.819000550872403e+17
19237.0	7.817445202285908e+17
19238.0	7.815767505851731e+17
19239.0	7.814349880033279e+17
19240.0	7.81256688419908e+17
19241.0	7.811185857877331e+17
19242.0	7.809699160260608e+17
19243.0	7.808044166195881e+17
19244.0	7.806628574614867e+17
19245.0	7.805075770572797e+17
19246.0	7.803519103576742e+17
19247.0	7.801970988766548e+17
19248.0	7.800418922921983e+17
19249.0	7.798859558988458e+17
19250.0	7.797307849659732e+17
19251.0	7.795700469334015e+17
19252.0	7.793949027248809e+17
19253.0	7.792641418024275e+17
19254.0	7.791057542578175e+17
19255.0	7.789387058948777e+17
19256.0	7.787813154761385e+17
19257.0	7.786414312434344e+17
19258.0	7.784855897811624e+17
19259.0	7.783238098834772e+17
19260.0	7.781196395533651e+17
19261.0	7.780158326265172e+17
19262.0	7.778557961611945e+17
19263.0	7.777001256867155e+17
19264.0	7.775122500878335e+17
19265.0	7.773771751839059e+17
19266.0	7.772246286270461e+17
19267.0	7.770751762082472e+17
19268.0	7.769160781485396e+17
19269.0	7.767598459169449e+17
19270.0	7.766001865195519e+17
19271.0	7.7642074161152e+17
19272.0	7.76283731735347e+17
19273.0	7.754849487683575e+17
19274.0	7.756454868724389e+17
19275.0	7.758108891108691e+17
19276.0	7.7565083516928e+17
19277.0	7.754911050279593e+17
19278.0	7.753321122452819e+17
19279.0	7.751547328921599e+17
19280.0	7.750082781424297e+17
19281.0	7.748536254857212e+17
19282.0	7.746933382010196e+17
19283.0	7.74452861276433e+17
19284.0	7.741774985079462e+17
19285.0	7.741905302104745e+17
19286.0	7.740453478727679e+17
19287.0	7.738865740327593e+17
19288.0	7.726843953501522e+17
19289.0	7.704580561305537e+17
19290.0	7.734014776093353e+17
19291.0	7.732201132479828e+17
19292.0	7.730769269795497e+17
19293.0	7.729134922891261e+17
19294.0	7.727497858078036e+17
19295.0	7.7258723178141e+17
19296.0	7.724230382015828e+17
19297.0	7.722558809265492e+17
19298.0	7.720927640245587e+17
19299.0	7.719299242262528e+17
19300.0	7.717645791701673e+17
19301.0	7.715980251758591e+17
19302.0	7.714313103998975e+17
19303.0	7.71257517735936e+17
19304.0	7.710941188369066e+17
19305.0	7.709302367540564e+17
19306.0	7.707589202673663e+17
19307.0	7.705844388986879e+17
19308.0	7.704188783951872e+17
19309.0	7.70102032282419e+17
19310.0	7.698450632146939e+17
19311.0	7.69900595659844e+17
19312.0	7.697442385778003e+17
19313.0	7.695596004223658e+17
19314.0	7.681703699021802e+17
19315.0	7.680673294144878e+17
19316.0	7.690409199271933e+17
19317.0	7.688782388133888e+17
19318.0	7.687036605562879e+17
19319.0	7.685253682429951e+17
19320.0	7.683445927619241e+17
19321.0	7.681712529429844e+17
19322.0	7.679749028926804e+17
19323.0	7.677306329191767e+17
19324.0	7.676318172140882e+17
19325.0	7.673418244336297e+17
19326.0	7.672739731778217e+17
19327.0	7.670934272649897e+17
19328.0	7.669137954308097e+17
19329.0	7.667307455184896e+17
19330.0	7.665437760290815e+17
19331.0	7.6635842819741e+17
19332.0	7.661732979103059e+17
19333.0	7.659846238557523e+17
19334.0	7.657953256887636e+17
19335.0	7.656099409472169e+17
19336.0	7.654168357502973e+17
19337.0	7.652197487607808e+17
19338.0	7.650106994764458e+17
19339.0	7.648313324426578e+17
19340.0	7.646353205930666e+17
19341.0	7.644385740412242e+17
19342.0	7.642047213207551e+17
19343.0	7.640377306994004e+17
19344.0	7.63835462066722e+17
19345.0	7.634967174927697e+17
19346.0	7.633904005545983e+17
19347.0	7.632127099841193e+17
19348.0	7.630077111391572e+17
19349.0	7.627833210481321e+17
19350.0	7.625660554018815e+17
19351.0	7.62348394652194e+17
19352.0	7.62128786207539e+17
19353.0	7.619146211306153e+17
19354.0	7.6169210771101e+17
19355.0	7.61461091458526e+17
19356.0	7.612390357772969e+17
19357.0	7.609973096491689e+17
19358.0	7.607582885675009e+17
19359.0	7.604963334509908e+17
19360.0	7.602888619240105e+17
19361.0	7.600462098333693e+17
19362.0	7.598066921461076e+17
19363.0	7.595431142533802e+17
19364.0	7.592899411705855e+17
19365.0	7.590350109540352e+17
19366.0	7.58764795015987e+17
19367.0	7.584998153868628e+17
19368.0	7.582239588089855e+17
19369.0	7.579374193388202e+17
19370.0	7.575984969263785e+17
19371.0	7.573922540508499e+17
19372.0	7.571105057341437e+17
19373.0	7.568170121079466e+17
19374.0	7.565227169502548e+17
19375.0	7.562079829491711e+17
19376.0	7.558934936158205e+17
19377.0	7.555797501695314e+17
19378.0	7.552591561665193e+17
19379.0	7.549313323018921e+17
19380.0	7.545963823147689e+17
19381.0	7.542439374662314e+17
19382.0	7.538722037126484e+17
19383.0	7.53507513873203e+17
19384.0	7.531433160256168e+17
19385.0	7.527666973059756e+17
19386.0	7.523590773669887e+17
19387.0	7.519512800089427e+17
19388.0	7.515443280827732e+17
19389.0	7.511254253262164e+17
19390.0	7.5064959579805e+17
19391.0	7.465384003938929e+17
19392.0	7.497471624915622e+17
19393.0	7.492390485666474e+17
19394.0	7.487534893716822e+17
19395.0	7.482083489699156e+17
19396.0	7.476553174046035e+17
19397.0	7.47106784649762e+17
19398.0	7.465122252805459e+17
19399.0	7.458598105208147e+17
19400.0	7.452742806492502e+17
19401.0	7.446227872382977e+17
19402.0	7.439715203197609e+17
19403.0	7.43320451092753e+17
19404.0	7.426464356674216e+17
19405.0	7.419441216924329e+17
19406.0	7.411811173968556e+17
19407.0	7.404233452158973e+17
19408.0	7.395938667943254e+17
19409.0	7.38758453292783e+17
19410.0	7.379040216984233e+17
19411.0	7.369798837075965e+17
19412.0	7.360234751612244e+17
19413.0	7.349930828671657e+17
19414.0	7.339323007434751e+17
19415.0	7.32770605203456e+17
19416.0	7.315343747842045e+17
19417.0	7.302127831482368e+17
19418.0	7.28921869910016e+17
19419.0	7.274370457490772e+17
19420.0	7.25862920242244e+17
19421.0	7.243043132407808e+17
19422.0	7.228069555208191e+17
19423.0	7.212135335591935e+17
19424.0	7.195604453862058e+17
19425.0	7.177679434416127e+17
19426.0	7.158801787868499e+17
19427.0	7.138525174562815e+17
19428.0	7.117010071366314e+17
19429.0	7.093707645211987e+17
19430.0	7.067952924153174e+17
19431.0	7.036019297047907e+17
19432.0	7.012061671675215e+17
19433.0	6.979796127623853e+17
19434.0	6.94858226335744e+17
19435.0	6.915845369714003e+17
19436.0	6.879529403766098e+17
19437.0	6.844059164693844e+17
19438.0	6.779015831835988e+17
19439.0	6.758092177233239e+17
19440.0	6.707985206913706e+17
19441.0	6.65646154330931e+17
19442.0	6.602871088174422e+17
19443.0	6.543567055661737e+17
19444.0	6.478281582837755e+17
19445.0	6.407966418097495e+17
19446.0	6.332300756604244e+17
19447.0	6.248262056367441e+17
19448.0	6.154048821177005e+17
19449.0	6.032731696442025e+17
19450.0	5.77169223494309e+17
19451.0	5.659289166632292e+17
19452.0	5.922899753260378e+17
19453.0	6.097497155261784e+17
19454.0	6.197523469303804e+17
19455.0	6.283584324588884e+17
19456.0	6.36094871625182e+17
19457.0	6.430933118178642e+17
19458.0	6.490268459772598e+17
19459.0	6.556271471755267e+17
19460.0	6.609999208557222e+17
19461.0	6.659128587277651e+17
19462.0	6.708439055073279e+17
19463.0	6.753012793999356e+17
19464.0	6.793153670195881e+17
19465.0	6.829629890712918e+17
19466.0	6.86195798931319e+17
19467.0	6.893727998017536e+17
19468.0	6.922312051152214e+17
19469.0	6.951085121295697e+17
19470.0	6.980052709976745e+17
19471.0	7.005385313484799e+17
19472.0	7.028698819592191e+17
19473.0	7.049858091319293e+17
19474.0	7.06940426518528e+17
19475.0	7.08709874750805e+17
19476.0	7.10414533988625e+17
19477.0	7.119704636260351e+17
19478.0	7.134048849756156e+17
19479.0	7.147344866137428e+17
19480.0	7.159983094016681e+17
19481.0	7.172214261896531e+17
19482.0	7.185232716016298e+17
19483.0	7.19765463105536e+17
19484.0	7.209009962549247e+17
19485.0	7.219349572026365e+17
19486.0	7.228869820022783e+17
19487.0	7.237585922075306e+17
19488.0	7.245815052850516e+17
19489.0	7.253506851340288e+17
19490.0	7.259627631323817e+17
19491.0	7.267013484696916e+17
19492.0	7.272968291876863e+17
19493.0	7.278718509296297e+17
19494.0	7.284097374224383e+17
19495.0	7.288883785323859e+17
19496.0	7.29338911933508e+17
19497.0	7.298043341351594e+17
19498.0	7.300282403433137e+17
19499.0	7.249717230567364e+17
19500.0	7.309292654821373e+17
19501.0	7.312974192574463e+17
19502.0	7.31623559668258e+17
19503.0	7.319854155563007e+17
19504.0	7.322573602466474e+17
19505.0	7.325838877917181e+17
19506.0	7.328159495443795e+17
19507.0	7.330909928467113e+17
19508.0	7.333069406426454e+17
19509.0	7.335088129135955e+17
19510.0	7.337007530726739e+17
19511.0	7.29916550641525e+17
19512.0	7.332808982091063e+17
19513.0	7.325281706573792e+17
19514.0	7.331694858906267e+17
19515.0	7.343225822685868e+17
19516.0	7.345467871111849e+17
19517.0	7.346486901036372e+17
19518.0	7.347373335030441e+17
19519.0	7.348111596847103e+17
19520.0	7.348838250228394e+17
19521.0	7.34958824071714e+17
19522.0	7.35013718982656e+17
19523.0	7.35059941610837e+17
19524.0	7.350958682013693e+17
19525.0	7.351207922936489e+17
19526.0	7.351469887979519e+17
19527.0	7.351653612475732e+17
19528.0	7.351918542891689e+17
19529.0	7.351974030737407e+17
19530.0	7.351987701372246e+17
19531.0	7.351940504267433e+17
19532.0	7.351844595914067e+17
19533.0	7.351703744195241e+17
19534.0	7.351516490891263e+17
19535.0	7.351333791203325e+17
19536.0	7.351089365341523e+17
19537.0	7.350830804675242e+17
19538.0	7.350562455901523e+17
19539.0	7.349845503945388e+17
19540.0	7.34984180596736e+17
19541.0	7.34950537105681e+17
19542.0	7.349027290305875e+17
19543.0	7.348525612400639e+17
19544.0	7.347994216453459e+17
19545.0	7.347216737894399e+17
19546.0	7.346246300379817e+17
19547.0	7.346314150237522e+17
19548.0	7.34573041496883e+17
19549.0	7.344998704655017e+17
19550.0	7.344392963271336e+17
19551.0	7.343692459977385e+17
19552.0	7.342968393083561e+17
19553.0	7.342213321894569e+17
19554.0	7.341438782144511e+17
19555.0	7.340715920414035e+17
19556.0	7.340026731954173e+17
19557.0	7.33923021684736e+17
19558.0	7.338404559716348e+17
19559.0	7.337533627869866e+17
19560.0	7.336675980782249e+17
19561.0	7.335799488686761e+17
19562.0	7.334927722173782e+17
19563.0	7.334014659941716e+17
19564.0	7.333104487585106e+17
19565.0	7.332174130839551e+17
19566.0	7.331209520611327e+17
19567.0	7.330269119905792e+17
19568.0	7.329283715716436e+17
19569.0	7.328336229433343e+17
19570.0	7.327417646099113e+17
19571.0	7.326442996105215e+17
19572.0	7.325412250091517e+17
19573.0	7.32441213088563e+17
19574.0	7.323314530462377e+17
19575.0	7.322356108230653e+17
19576.0	7.32130393072162e+17
19577.0	7.320207314561705e+17
19578.0	7.319175738075817e+17
19579.0	7.318110695238312e+17
19580.0	7.317036595500372e+17
19581.0	7.315962066545321e+17
19582.0	7.314882470871039e+17
19583.0	7.31378350310468e+17
19584.0	7.312656131511638e+17
19585.0	7.311456039075837e+17
19586.0	7.310129861667497e+17
19587.0	7.308775643938815e+17
19588.0	7.307782580950356e+17
19589.0	7.306583675502592e+17
19590.0	7.305807365756244e+17
19591.0	7.304770887527081e+17
19592.0	7.303637354501459e+17
19593.0	7.302499643949055e+17
19594.0	7.30110223467588e+17
19595.0	7.300201393247572e+17
19596.0	7.286744767179442e+17
19597.0	7.297818733576192e+17
19598.0	7.296548726287017e+17
19599.0	7.295522290619731e+17
19600.0	7.294345107472383e+17
19601.0	7.293110684658345e+17
19602.0	7.291936606694058e+17
19603.0	7.289695137082024e+17
19604.0	7.289492321512106e+17
19605.0	7.288156000878591e+17
19606.0	7.287149805524308e+17
19607.0	7.28599430832674e+17
19608.0	7.284765640097791e+17
19609.0	7.283512825260713e+17
19610.0	7.282355353944063e+17
19611.0	7.281128145332905e+17
19612.0	7.279912366200148e+17
19613.0	7.278676329977172e+17
19614.0	7.277427445202944e+17
19615.0	7.276225456941738e+17
19616.0	7.274638683231572e+17
19617.0	7.273749862678527e+17
19618.0	7.272203421395625e+17
19619.0	7.270839770677245e+17
19620.0	7.269625185523027e+17
19621.0	7.268786284178089e+17
19622.0	7.267548782744918e+17
19623.0	7.266301112920744e+17
19624.0	7.265043129303039e+17
19625.0	7.263789943969108e+17
19626.0	7.262540323793577e+17
19627.0	7.26128176136192e+17
19628.0	7.258857195001176e+17
19629.0	7.258681369777492e+17
19630.0	7.256421533308248e+17
19631.0	7.20632910324256e+17
19632.0	7.254915197960191e+17
19633.0	7.253662290848425e+17
19634.0	7.252451774169088e+17
19635.0	7.251155829303978e+17
19636.0	7.249909163316564e+17
19637.0	7.248346694199977e+17
19638.0	7.247375682065748e+17
19639.0	7.246061504561151e+17
19640.0	7.244785934226772e+17
19641.0	7.243236643613356e+17
19642.0	7.242275243425791e+17
19643.0	7.240973728524969e+17
19644.0	7.239685256511487e+17
19645.0	7.238277297165651e+17
19646.0	7.237168727239338e+17
19647.0	7.235887482011647e+17
19648.0	7.23460525531682e+17
19649.0	7.233316581976745e+17
19650.0	7.232038050463744e+17
19651.0	7.23074775392802e+17
19652.0	7.22946054020574e+17
19653.0	7.228160353501183e+17
19654.0	7.226885886268756e+17
19655.0	7.225595841391274e+17
19656.0	7.224302533345279e+17
19657.0	7.223026388391251e+17
19658.0	7.221750482512553e+17
19659.0	7.220482273181693e+17
19660.0	7.219191729182036e+17
19661.0	7.217899468313939e+17
19662.0	7.216606448276819e+17
19663.0	7.215270843471187e+17
19664.0	7.213778888993449e+17
19665.0	7.212724375257087e+17
19666.0	7.211411219764564e+17
