# Flux units: erg / (cm m2 s)
# Wavelength units: Angstrom
wave	flux
19000.0	5.89197743296785e+17
19001.0	5.890813573726205e+17
19002.0	5.889782995484671e+17
19003.0	5.888684249317375e+17
19004.0	5.887586413314048e+17
19005.0	5.886490915635199e+17
19006.0	5.885393555685376e+17
19007.0	5.884287226216447e+17
19008.0	5.883158796260692e+17
19009.0	5.882007492668073e+17
19010.0	5.880713606507177e+17
19011.0	5.879880722590377e+17
19012.0	5.878742373804713e+17
19013.0	5.877713853568339e+17
19014.0	5.876573364289535e+17
19015.0	5.875488843803306e+17
19016.0	5.874381640521044e+17
19017.0	5.873315495280639e+17
19018.0	5.872219138468521e+17
19019.0	5.871121991030099e+17
19020.0	5.870013356092073e+17
19021.0	5.868936421703679e+17
19022.0	5.867846563266559e+17
19023.0	5.866723420230996e+17
19024.0	5.865636782320297e+17
19025.0	5.864551093021354e+17
19026.0	5.863441790489942e+17
19027.0	5.862335654658047e+17
19028.0	5.861264877507924e+17
19029.0	5.860167189004287e+17
19030.0	5.859081844337321e+17
19031.0	5.857987413409792e+17
19032.0	5.856889383769428e+17
19033.0	5.855736708639401e+17
19034.0	5.854694379356159e+17
19035.0	5.853576291855018e+17
19036.0	5.850190082037076e+17
19037.0	5.851417615007744e+17
19038.0	5.850309249204223e+17
19039.0	5.849231252258815e+17
19040.0	5.848137369387007e+17
19041.0	5.847040440751443e+17
19042.0	5.845897957780138e+17
19043.0	5.84485658829346e+17
19044.0	5.843761626786474e+17
19045.0	5.842669941030912e+17
19046.0	5.841541800482132e+17
19047.0	5.840460601884671e+17
19048.0	5.839262344456874e+17
19049.0	5.838255150159188e+17
19050.0	5.837178510071124e+17
19051.0	5.835779629995348e+17
19052.0	5.834933855584256e+17
19053.0	5.833929309290495e+17
19054.0	5.832833260060671e+17
19055.0	5.831576856996521e+17
19056.0	5.830640569505107e+17
19057.0	5.829556623638527e+17
19058.0	5.828464940679167e+17
19059.0	5.825714486684329e+17
19060.0	5.822618088592724e+17
19061.0	5.82154335551488e+17
19062.0	5.820450440129193e+17
19063.0	5.819362146866516e+17
19064.0	5.818195961883305e+17
19065.0	5.818060241196369e+17
19066.0	5.816102573572093e+17
19067.0	5.815039061655551e+17
19068.0	5.813954251762346e+17
19069.0	5.812865337742676e+17
19070.0	5.811762111359657e+17
19071.0	5.810689846629716e+17
19072.0	5.809601685487615e+17
19073.0	5.808510396792831e+17
19074.0	5.807426190879402e+17
19075.0	5.806338610648403e+17
19076.0	5.805238442612051e+17
19077.0	5.804151384571901e+17
19078.0	5.80305889071377e+17
19079.0	5.801989690621951e+17
19080.0	5.800895591044436e+17
19081.0	5.799791351737001e+17
19082.0	5.7987015128733e+17
19083.0	5.797572963379882e+17
19084.0	5.796407751475199e+17
19085.0	5.795471453498025e+17
19086.0	5.794157322829823e+17
19087.0	5.793220924888406e+17
19088.0	5.792160733462527e+17
19089.0	5.790988755446441e+17
19090.0	5.790026639430995e+17
19091.0	5.788938858572457e+17
19092.0	5.787834111754239e+17
19093.0	5.786789957948756e+17
19094.0	5.785702493061119e+17
19095.0	5.784617504210943e+17
19096.0	5.783526576226304e+17
19097.0	5.782450095521792e+17
19098.0	5.781369506496512e+17
19099.0	5.780285677371391e+17
19100.0	5.779196790614697e+17
19101.0	5.778112098861055e+17
19102.0	5.776969739621716e+17
19103.0	5.775953181540351e+17
19104.0	5.774870422661802e+17
19105.0	5.773787768640852e+17
19106.0	5.772693432085164e+17
19107.0	5.771613224042495e+17
19108.0	5.770540804822356e+17
19109.0	5.769288301761875e+17
19110.0	5.76836592607778e+17
19111.0	5.76729579135522e+17
19112.0	5.766214419393194e+17
19113.0	5.765133202620415e+17
19114.0	5.7640519480989e+17
19115.0	5.7629442338106016e+17
19116.0	5.761875318931455e+17
19117.0	5.7607928585475405e+17
19118.0	5.7596466041978874e+17
19119.0	5.7552244082824486e+17
19120.0	5.7575513613052576e+17
19121.0	5.75647413121843e+17
19122.0	5.7554096385338016e+17
19123.0	5.75432938365474e+17
19124.0	5.753241079207252e+17
19125.0	5.752168680958634e+17
19126.0	5.7510884414586874e+17
19127.0	5.7488197822709754e+17
19128.0	5.748876134842368e+17
19129.0	5.747808040648703e+17
19130.0	5.746766092348074e+17
19131.0	5.745697580122111e+17
19132.0	5.744617057506645e+17
19133.0	5.7434259716396365e+17
19134.0	5.7424395244666874e+17
19135.0	5.7413836259109536e+17
19136.0	5.7403106069053434e+17
19137.0	5.739127581791573e+17
19138.0	5.738140933991081e+17
19139.0	5.7370782861011616e+17
19140.0	5.736003062988798e+17
19141.0	5.7349255749522746e+17
19142.0	5.7338340639593805e+17
19143.0	5.732741089853439e+17
19144.0	5.7316768991586976e+17
19145.0	5.730620518258005e+17
19146.0	5.729176294959786e+17
19147.0	5.7283789633617914e+17
19148.0	5.7273934165661e+17
19149.0	5.726318246581587e+17
19150.0	5.7252376932078925e+17
19151.0	5.7241685637201914e+17
19152.0	5.723088073261055e+17
19153.0	5.722006947364863e+17
19154.0	5.7208585175695354e+17
19155.0	5.719869625117354e+17
19156.0	5.7187938203948365e+17
19157.0	5.717717809452372e+17
19158.0	5.7165216093306874e+17
19159.0	5.7155616785476256e+17
19160.0	5.7144958884249594e+17
19161.0	5.713424045222569e+17
19162.0	5.712083523294547e+17
19163.0	5.711262552599209e+17
19164.0	5.710206383510868e+17
19165.0	5.709126818594816e+17
19166.0	5.7079755877034656e+17
19167.0	5.7069618230285645e+17
19168.0	5.705892324442111e+17
19169.0	5.704822130300245e+17
19170.0	5.7037692131956045e+17
19171.0	5.702680556426579e+17
19172.0	5.7016253653101216e+17
19173.0	5.700553487155199e+17
19174.0	5.699443212244309e+17
19175.0	5.698410264221011e+17
19176.0	5.697339087213909e+17
19177.0	5.696166978475347e+17
19178.0	5.6951873959799456e+17
19179.0	5.694103002021888e+17
19180.0	5.69304611430946e+17
19181.0	5.6919090056396794e+17
19182.0	5.6908854829165216e+17
19183.0	5.6898392962717005e+17
19184.0	5.688750228460885e+17
19185.0	5.6876941243842554e+17
19186.0	5.686627224169129e+17
19187.0	5.685513207240021e+17
19188.0	5.684484435345406e+17
19189.0	5.683416266353321e+17
19190.0	5.682344549679103e+17
19191.0	5.681257671294975e+17
19192.0	5.6802074720993274e+17
19193.0	5.679134953613994e+17
19194.0	5.678060953141247e+17
19195.0	5.676998874977621e+17
19196.0	5.675922318775636e+17
19197.0	5.6748535437066234e+17
19198.0	5.673788317018793e+17
19199.0	5.671132717907966e+17
19200.0	5.6704980903526394e+17
19201.0	5.6705816262082554e+17
19202.0	5.669514640708947e+17
19203.0	5.668446131978239e+17
19204.0	5.6673607936027296e+17
19205.0	5.6663065140483405e+17
19206.0	5.665225871895211e+17
19207.0	5.664089435013119e+17
19208.0	5.6629700906188794e+17
19209.0	5.662025333429588e+17
19210.0	5.6609652370746003e+17
19211.0	5.659896399091028e+17
19212.0	5.658828276236287e+17
19213.0	5.6577075253521043e+17
19214.0	5.6566045044899834e+17
19215.0	5.6556161468115616e+17
19216.0	5.6545513332626765e+17
19217.0	5.653485671765332e+17
19218.0	5.6518623761530854e+17
19219.0	5.651252036414122e+17
19220.0	5.6502653187085645e+17
19221.0	5.6490078342130336e+17
19222.0	5.6481262621163514e+17
19223.0	5.647072280357547e+17
19224.0	5.6459731000797856e+17
19225.0	5.644840120003242e+17
19226.0	5.643860024404649e+17
19227.0	5.6427899036631034e+17
19228.0	5.641732699280724e+17
19229.0	5.640664424731989e+17
19230.0	5.639593332310015e+17
19231.0	5.63851955343633e+17
19232.0	5.637447872413696e+17
19233.0	5.6363441804629325e+17
19234.0	5.6353061419526816e+17
19235.0	5.634238672710313e+17
19236.0	5.6331830880283296e+17
19237.0	5.632103329475242e+17
19238.0	5.6309859151598925e+17
19239.0	5.6299751654905165e+17
19240.0	5.628866931807572e+17
19241.0	5.627808404821332e+17
19242.0	5.626751319976617e+17
19243.0	5.6255965644718074e+17
19244.0	5.624629378241876e+17
19245.0	5.6235602019177805e+17
19246.0	5.6224800742659405e+17
19247.0	5.621418699347284e+17
19248.0	5.62034970337826e+17
19249.0	5.6192763117786445e+17
19250.0	5.6181957367343776e+17
19251.0	5.61703951741747e+17
19252.0	5.6159003416548685e+17
19253.0	5.6149790334211405e+17
19254.0	5.6139169636461216e+17
19255.0	5.612745709846528e+17
19256.0	5.611740530911913e+17
19257.0	5.610707777224702e+17
19258.0	5.6096347582190925e+17
19259.0	5.608521082426708e+17
19260.0	5.607437235126271e+17
19261.0	5.606414805019305e+17
19262.0	5.60531131928849e+17
19263.0	5.604211837719892e+17
19264.0	5.602338679029757e+17
19265.0	5.600028273934334e+17
19266.0	5.5989557344774816e+17
19267.0	5.5980172890166605e+17
19268.0	5.5969407740586656e+17
19269.0	5.595864082939903e+17
19270.0	5.594781458978132e+17
19271.0	5.593484861898751e+17
19272.0	5.592606927661738e+17
19273.0	5.590274620609876e+17
19274.0	5.589626513959592e+17
19275.0	5.5893927108717216e+17
19276.0	5.588299467631274e+17
19277.0	5.587221939049811e+17
19278.0	5.5861495072467616e+17
19279.0	5.585057009893375e+17
19280.0	5.583936589660158e+17
19281.0	5.582889002117802e+17
19282.0	5.581818668864854e+17
19283.0	5.580706591102294e+17
19284.0	5.5796177931250336e+17
19285.0	5.578436521230335e+17
19286.0	5.577451500120745e+17
19287.0	5.5763865250911565e+17
19288.0	5.574531150249981e+17
19289.0	5.572820205567998e+17
19290.0	5.5731198850935456e+17
19291.0	5.571862792066388e+17
19292.0	5.570933575472468e+17
19293.0	5.569838403551231e+17
19294.0	5.5687497999100576e+17
19295.0	5.567654693699584e+17
19296.0	5.566558518640639e+17
19297.0	5.565458707120126e+17
19298.0	5.564351494750207e+17
19299.0	5.5632631413691725e+17
19300.0	5.562158010772138e+17
19301.0	5.561055377184084e+17
19302.0	5.559940099167572e+17
19303.0	5.558802721363283e+17
19304.0	5.557716430880767e+17
19305.0	5.556622121588052e+17
19306.0	5.555520333851306e+17
19307.0	5.5543823324938234e+17
19308.0	5.5532805587380896e+17
19309.0	5.5521281555387725e+17
19310.0	5.5509844988613965e+17
19311.0	5.5499264157723296e+17
19312.0	5.5488267377704954e+17
19313.0	5.5477066300129274e+17
19314.0	5.5442669057693024e+17
19315.0	5.5432331685178016e+17
19316.0	5.544333059730089e+17
19317.0	5.5432063760029005e+17
19318.0	5.542069225390079e+17
19319.0	5.540944996728831e+17
19320.0	5.5398076377989114e+17
19321.0	5.5386706186076154e+17
19322.0	5.537468138913792e+17
19323.0	5.5363612634862925e+17
19324.0	5.5352374409734816e+17
19325.0	5.534032952208041e+17
19326.0	5.53293432557841e+17
19327.0	5.531769013709481e+17
19328.0	5.530618092497579e+17
19329.0	5.529457278320639e+17
19330.0	5.5282671019185485e+17
19331.0	5.527091897783637e+17
19332.0	5.525943125453481e+17
19333.0	5.524771072638975e+17
19334.0	5.523587659552085e+17
19335.0	5.522405204164607e+17
19336.0	5.5212136513317536e+17
19337.0	5.520016838841685e+17
19338.0	5.5186822595433805e+17
19339.0	5.5176161010210125e+17
19340.0	5.516348378229418e+17
19341.0	5.515160917639166e+17
19342.0	5.5137310283748685e+17
19343.0	5.512752289633621e+17
19344.0	5.5115250467689805e+17
19345.0	5.509074715497811e+17
19346.0	5.508340503281662e+17
19347.0	5.507748938645502e+17
19348.0	5.5065424911400954e+17
19349.0	5.505263783466324e+17
19350.0	5.5039922263818234e+17
19351.0	5.502713874524841e+17
19352.0	5.5013991377797114e+17
19353.0	5.500151795111252e+17
19354.0	5.498851247696553e+17
19355.0	5.497484967848617e+17
19356.0	5.4962189647216634e+17
19357.0	5.4948896192157005e+17
19358.0	5.493534159273983e+17
19359.0	5.49212872909346e+17
19360.0	5.4908074555255456e+17
19361.0	5.4894411742795085e+17
19362.0	5.488081492770815e+17
19363.0	5.486682879732393e+17
19364.0	5.485271267147775e+17
19365.0	5.4838494008879776e+17
19366.0	5.4824115270669645e+17
19367.0	5.480959289851903e+17
19368.0	5.4794920482133325e+17
19369.0	5.477951777450666e+17
19370.0	5.4763659306816845e+17
19371.0	5.474955427490473e+17
19372.0	5.473450242080766e+17
19373.0	5.4718833731392845e+17
19374.0	5.4703196436343456e+17
19375.0	5.468720352722942e+17
19376.0	5.467103324099924e+17
19377.0	5.4654589339347616e+17
19378.0	5.46379433980723e+17
19379.0	5.462103372595198e+17
19380.0	5.460385573721428e+17
19381.0	5.45864012599569e+17
19382.0	5.456818345432405e+17
19383.0	5.4549837610571085e+17
19384.0	5.4532169000113485e+17
19385.0	5.451351630107987e+17
19386.0	5.4494499585392634e+17
19387.0	5.4475088080841376e+17
19388.0	5.445529262970196e+17
19389.0	5.4435093840308896e+17
19390.0	5.44144750752563e+17
19391.0	5.437371368953169e+17
19392.0	5.4370696041594874e+17
19393.0	5.434996788210345e+17
19394.0	5.432741494871382e+17
19395.0	5.430440361983999e+17
19396.0	5.4280814546561696e+17
19397.0	5.425666916177237e+17
19398.0	5.4231771227968845e+17
19399.0	5.4201938548708685e+17
19400.0	5.417956816541011e+17
19401.0	5.4153556769723725e+17
19402.0	5.412607564797268e+17
19403.0	5.409645629800447e+17
19404.0	5.406358362215764e+17
19405.0	5.403364354075306e+17
19406.0	5.4003001598498125e+17
19407.0	5.397144147416404e+17
19408.0	5.393383616238933e+17
19409.0	5.390514005562709e+17
19410.0	5.387087800259924e+17
19411.0	5.38353232650786e+17
19412.0	5.3798688794869754e+17
19413.0	5.3760948461458765e+17
19414.0	5.372193633118889e+17
19415.0	5.3682133987054925e+17
19416.0	5.3632422362043725e+17
19417.0	5.35887241945634e+17
19418.0	5.354504928449877e+17
19419.0	5.3499655968085325e+17
19420.0	5.345280141907285e+17
19421.0	5.339071568849578e+17
19422.0	5.3339652896413005e+17
19423.0	5.328585592143873e+17
19424.0	5.3214102928315725e+17
19425.0	5.315265239012694e+17
19426.0	5.30721683939874e+17
19427.0	5.298718253951659e+17
19428.0	5.2888599862968314e+17
19429.0	5.276992334550357e+17
19430.0	5.26167871533876e+17
19431.0	5.2416327586938816e+17
19432.0	5.215677809950722e+17
19433.0	5.195805811365205e+17
19434.0	5.181444755641683e+17
19435.0	5.1658388871140685e+17
19436.0	5.1487576064436896e+17
19437.0	5.130540597728596e+17
19438.0	5.1082304956661766e+17
19439.0	5.089698681367209e+17
19440.0	5.066967188766719e+17
19441.0	5.0398236427769114e+17
19442.0	5.0042450620361446e+17
19443.0	4.9449742022737965e+17
19444.0	4.8731875918042406e+17
19445.0	4.8187734291906586e+17
19446.0	4.755351695349077e+17
19447.0	4.6714720298379994e+17
19448.0	4.524202902858421e+17
19449.0	4.3310812404995494e+17
19450.0	3.840216204836837e+17
19451.0	3.689504096736586e+17
19452.0	4.11488667828225e+17
19453.0	4.447549229017781e+17
19454.0	4.599694086198614e+17
19455.0	4.7130926397085e+17
19456.0	4.78081571548911e+17
19457.0	4.837618679633233e+17
19458.0	4.8896375374479405e+17
19459.0	4.965514269600433e+17
19460.0	5.008188060816725e+17
19461.0	5.036464447072938e+17
19462.0	5.0593986112389126e+17
19463.0	5.079568440360959e+17
19464.0	5.097740372890966e+17
19465.0	5.114463441824426e+17
19466.0	5.1303615219193165e+17
19467.0	5.1445663999371936e+17
19468.0	5.15753978626048e+17
19469.0	5.1705201225454944e+17
19470.0	5.1943665639096154e+17
19471.0	5.215478593792695e+17
19472.0	5.230043196293117e+17
19473.0	5.241387827418447e+17
19474.0	5.2505908427270835e+17
19475.0	5.257312768535206e+17
19476.0	5.263305893478396e+17
19477.0	5.268844750132564e+17
19478.0	5.2731652187968845e+17
19479.0	5.277658316625236e+17
19480.0	5.280747843048789e+17
19481.0	5.284395813087915e+17
19482.0	5.287854655668224e+17
19483.0	5.290478930318676e+17
19484.0	5.292940447099561e+17
19485.0	5.295230866336426e+17
19486.0	5.297928680417961e+17
19487.0	5.300406719960404e+17
19488.0	5.302327616820564e+17
19489.0	5.30398426833442e+17
19490.0	5.3049762708630176e+17
19491.0	5.307403059505835e+17
19492.0	5.308911677254315e+17
19493.0	5.3102902617920845e+17
19494.0	5.311568983446868e+17
19495.0	5.3127480819930445e+17
19496.0	5.313574855507967e+17
19497.0	5.3148179773085005e+17
19498.0	5.315253158718122e+17
19499.0	5.31380498927889e+17
19500.0	5.317854859624446e+17
19501.0	5.318545432204628e+17
19502.0	5.3191574650443085e+17
19503.0	5.3197043016226125e+17
19504.0	5.32018528133666e+17
19505.0	5.320606315358889e+17
19506.0	5.3209667046386336e+17
19507.0	5.32126407659793e+17
19508.0	5.321521097954645e+17
19509.0	5.3217179205632e+17
19510.0	5.3217284657425056e+17
19511.0	5.317691370547881e+17
19512.0	5.321388562142549e+17
19513.0	5.32092892164915e+17
19514.0	5.321242205399722e+17
19515.0	5.321653001824939e+17
19516.0	5.3218228019309216e+17
19517.0	5.321662922751999e+17
19518.0	5.321531378892799e+17
19519.0	5.321324784254975e+17
19520.0	5.3210741088802125e+17
19521.0	5.320830233870336e+17
19522.0	5.3205183545125536e+17
19523.0	5.3202216487485434e+17
19524.0	5.3198785365060256e+17
19525.0	5.3194989380130125e+17
19526.0	5.3191187425307296e+17
19527.0	5.318704717889535e+17
19528.0	5.3182675281073485e+17
19529.0	5.3178168990760954e+17
19530.0	5.3173481317771936e+17
19531.0	5.316856606184789e+17
19532.0	5.316347593140907e+17
19533.0	5.315821804279124e+17
19534.0	5.315276872613888e+17
19535.0	5.3147155670848845e+17
19536.0	5.3141233614192634e+17
19537.0	5.3135641796061856e+17
19538.0	5.312853230398122e+17
19539.0	5.312021265732949e+17
19540.0	5.311708165832702e+17
19541.0	5.3110871236280314e+17
19542.0	5.3104373008083616e+17
19543.0	5.3097793913705805e+17
19544.0	5.309110248887637e+17
19545.0	5.3080677707066016e+17
19546.0	5.307186043420672e+17
19547.0	5.3070468176936954e+17
19548.0	5.306334060041557e+17
19549.0	5.3055670029298336e+17
19550.0	5.304901390652756e+17
19551.0	5.304171776791892e+17
19552.0	5.3034324510201165e+17
19553.0	5.3026678643534496e+17
19554.0	5.301910784092843e+17
19555.0	5.301165152185002e+17
19556.0	5.3004094231893325e+17
19557.0	5.299634698190847e+17
19558.0	5.2988577648913056e+17
19559.0	5.2980716572508154e+17
19560.0	5.297269586788351e+17
19561.0	5.296474015399935e+17
19562.0	5.295693780484094e+17
19563.0	5.2948898323715405e+17
19564.0	5.2940813690907296e+17
19565.0	5.293268296968874e+17
19566.0	5.292437874409472e+17
19567.0	5.29162715669026e+17
19568.0	5.290787104008874e+17
19569.0	5.289967581746517e+17
19570.0	5.2891404363366394e+17
19571.0	5.2882983326405965e+17
19572.0	5.2874452727234554e+17
19573.0	5.2866008761412256e+17
19574.0	5.285718280634367e+17
19575.0	5.284920533800277e+17
19576.0	5.284069355727529e+17
19577.0	5.283197711548415e+17
19578.0	5.282323305420115e+17
19579.0	5.281477502347947e+17
19580.0	5.280612021698559e+17
19581.0	5.2797524480273056e+17
19582.0	5.2788937467712845e+17
19583.0	5.2780224626032634e+17
19584.0	5.277138273959935e+17
19585.0	5.276205049708543e+17
19586.0	5.2753041726286496e+17
19587.0	5.27450329195042e+17
19588.0	5.2733160550563834e+17
19589.0	5.2727360925641376e+17
19590.0	5.2718021727573325e+17
19591.0	5.270976329678847e+17
19592.0	5.270086172540928e+17
19593.0	5.269183317147647e+17
19594.0	5.2681655357276154e+17
19595.0	5.2673679412865683e+17
19596.0	5.266364578485588e+17
19597.0	5.265594542718975e+17
19598.0	5.264461733210793e+17
19599.0	5.2638205520554656e+17
19600.0	5.2629207333382816e+17
19601.0	5.2619737461773645e+17
19602.0	5.261065066992981e+17
19603.0	5.259937176704339e+17
19604.0	5.259259416324777e+17
19605.0	5.2582128493963936e+17
19606.0	5.257488591661738e+17
19607.0	5.256583136499028e+17
19608.0	5.25566531932433e+17
19609.0	5.254728978006015e+17
19610.0	5.253850177645225e+17
19611.0	5.252933855739904e+17
19612.0	5.2520244921849165e+17
19613.0	5.251103495028735e+17
19614.0	5.2501696507194016e+17
19615.0	5.249278756083028e+17
19616.0	5.248347080228862e+17
19617.0	5.2474416558243834e+17
19618.0	5.246126506639359e+17
19619.0	5.2451347928186874e+17
19620.0	5.244249276678143e+17
19621.0	5.243770452836351e+17
19622.0	5.242850008629247e+17
19623.0	5.241928897527807e+17
19624.0	5.2410071384063994e+17
19625.0	5.2400847298669216e+17
19626.0	5.239162038211925e+17
19627.0	5.238237819830272e+17
19628.0	5.237276029572436e+17
19629.0	5.236333152130388e+17
19630.0	5.235254387627347e+17
19631.0	5.232840408388949e+17
19632.0	5.2336130313420794e+17
19633.0	5.2326650291595936e+17
19634.0	5.231761046896639e+17
19635.0	5.230811036341588e+17
19636.0	5.229907112798889e+17
19637.0	5.2287488948961274e+17
19638.0	5.2280440274288634e+17
19639.0	5.227111365214207e+17
19640.0	5.226069160361983e+17
19641.0	5.2247132418430285e+17
19642.0	5.224336364055209e+17
19643.0	5.223400052097024e+17
19644.0	5.2224304667252045e+17
19645.0	5.2213665996909216e+17
19646.0	5.22061879443456e+17
19647.0	5.2196884195136845e+17
19648.0	5.2187577384086176e+17
19649.0	5.217825078990166e+17
19650.0	5.2168957771120634e+17
19651.0	5.215964493425321e+17
19652.0	5.215032997926228e+17
19653.0	5.2141000700723194e+17
19654.0	5.2131695329716896e+17
19655.0	5.2122341766157645e+17
19656.0	5.2113009181108896e+17
19657.0	5.210373080743934e+17
