# Flux units: erg / (cm m2 s)
# Wavelength units: Angstrom
wave	flux
19000.0	4.2105310239784954e+17
19001.0	4.2098053206070605e+17
19002.0	4.2091887977649485e+17
19003.0	4.208483259209044e+17
19004.0	4.2074223177018016e+17
19005.0	4.206927698111146e+17
19006.0	4.206207961836202e+17
19007.0	4.205627463871146e+17
19008.0	4.2048994033008634e+17
19009.0	4.204237157651796e+17
19010.0	4.202914366444884e+17
19011.0	4.202582710244694e+17
19012.0	4.20153029435938e+17
19013.0	4.2014414044747085e+17
19014.0	4.200403670750549e+17
19015.0	4.1996624743191885e+17
19016.0	4.1990902328415565e+17
19017.0	4.1985693436258976e+17
19018.0	4.197757032071167e+17
19019.0	4.1970847068105376e+17
19020.0	4.196362017745578e+17
19021.0	4.19566866993425e+17
19022.0	4.1950494501546656e+17
19023.0	4.194094174349994e+17
19024.0	4.1934626484824736e+17
19025.0	4.192790707699711e+17
19026.0	4.1920940582720845e+17
19027.0	4.191325304564393e+17
19028.0	4.190549478561109e+17
19029.0	4.189763482768725e+17
19030.0	4.188989832910166e+17
19031.0	4.1884913818228045e+17
19032.0	4.187917422078634e+17
19033.0	4.18687146262528e+17
19034.0	4.186350933420714e+17
19035.0	4.1857417631935136e+17
19036.0	4.1812890711927405e+17
19037.0	4.184239014674432e+17
19038.0	4.183524192026623e+17
19039.0	4.182813446242304e+17
19040.0	4.182069900301653e+17
19041.0	4.1814042167214074e+17
19042.0	4.175220164962978e+17
19043.0	4.1800133421738656e+17
19044.0	4.179459717114538e+17
19045.0	4.1786212757449376e+17
19046.0	4.177795700402859e+17
19047.0	4.1771261482762234e+17
19048.0	4.1756387760756045e+17
19049.0	4.164331075796976e+17
19050.0	4.175100108603391e+17
19051.0	4.17309998343782e+17
19052.0	4.173578874388479e+17
19053.0	4.1729869574307834e+17
19054.0	4.172117656469504e+17
19055.0	4.169702438513323e+17
19056.0	4.1704218951679974e+17
19057.0	4.1702216353273165e+17
19058.0	4.163619019991712e+17
19059.0	4.1662071404407443e+17
19060.0	4.1680553521097376e+17
19061.0	4.167262845359444e+17
19062.0	4.1663765770403834e+17
19063.0	4.16598401814801e+17
19064.0	4.1651537549721594e+17
19065.0	4.16438773874688e+17
19066.0	4.161717449785345e+17
19067.0	4.1627095956193274e+17
19068.0	4.162487342945621e+17
19069.0	4.1617295258856096e+17
19070.0	4.160763233741482e+17
19071.0	4.160144311757482e+17
19072.0	4.157419549272743e+17
19073.0	4.159005001777151e+17
19074.0	4.1579490270248954e+17
19075.0	4.1574995108823034e+17
19076.0	4.156674345882966e+17
19077.0	4.1560313276224845e+17
19078.0	4.1552999353767245e+17
19079.0	4.1545517267681274e+17
19080.0	4.153955907709611e+17
19081.0	4.153272666772821e+17
19082.0	4.1526191571599354e+17
19083.0	4.1517539393535994e+17
19084.0	4.151028240875518e+17
19085.0	4.150417795579904e+17
19086.0	4.1464569605215546e+17
19087.0	4.1442078691601e+17
19088.0	4.145406801870843e+17
19089.0	4.147445659336704e+17
19090.0	4.1469665439907834e+17
19091.0	4.145905332649986e+17
19092.0	4.140998121401015e+17
19093.0	4.144790582416725e+17
19094.0	4.1441514040415565e+17
19095.0	4.1432845308832416e+17
19096.0	4.142726113132544e+17
19097.0	4.1420185641069216e+17
19098.0	4.139122494362962e+17
19099.0	4.137827149283331e+17
19100.0	4.139959680936618e+17
19101.0	4.139201461223424e+17
19102.0	4.13841557168674e+17
19103.0	4.137708581202602e+17
19104.0	4.1372146340986874e+17
19105.0	4.1313377235326445e+17
19106.0	4.135706676953087e+17
19107.0	4.133791147403943e+17
19108.0	4.132331935061333e+17
19109.0	4.1333756435715405e+17
19110.0	4.1328335095070714e+17
19111.0	4.130505237375656e+17
19112.0	4.129629449224188e+17
19113.0	4.130842573362517e+17
19114.0	4.1290160266717843e+17
19115.0	4.1291354755563514e+17
19116.0	4.128367759938901e+17
19117.0	4.127552659172011e+17
19118.0	4.1252857336299514e+17
19119.0	4.117507811398993e+17
19120.0	4.124623239817897e+17
19121.0	4.1247246818563405e+17
19122.0	4.124502403317759e+17
19123.0	4.1239294578961056e+17
19124.0	4.123174353152682e+17
19125.0	4.122509144227838e+17
19126.0	4.121771879257428e+17
19127.0	4.119208048022866e+17
19128.0	4.120282056884223e+17
19129.0	4.1197190351858336e+17
19130.0	4.11908261875985e+17
19131.0	4.118365531886933e+17
19132.0	4.117553030889472e+17
19133.0	4.1169706608667296e+17
19134.0	4.1162627077898234e+17
19135.0	4.115650875577684e+17
19136.0	4.1148288360338765e+17
19137.0	4.1138494618555725e+17
19138.0	4.1134836262720845e+17
19139.0	4.1128856443508045e+17
19140.0	4.112209554702336e+17
19141.0	4.1114702107552416e+17
19142.0	4.110694057596245e+17
19143.0	4.109927822568107e+17
19144.0	4.1092009133342714e+17
19145.0	4.108584033277268e+17
19146.0	4.1074537137875616e+17
19147.0	4.1070807073423366e+17
19148.0	4.104723674868399e+17
19149.0	4.1034954190793376e+17
19150.0	4.105227693894314e+17
19151.0	4.104434983021225e+17
19152.0	4.10386370203921e+17
19153.0	4.099105813605027e+17
19154.0	4.1020171541108045e+17
19155.0	4.1018016682475514e+17
19156.0	4.1010251795442336e+17
19157.0	4.099073443364867e+17
19158.0	4.096711606315694e+17
19159.0	4.098699491104085e+17
19160.0	4.0981197781729274e+17
19161.0	4.097539974365183e+17
19162.0	4.096547784491008e+17
19163.0	4.096159376561493e+17
19164.0	4.0954480897119565e+17
19165.0	4.090322197239118e+17
19166.0	4.0937569729030816e+17
19167.0	4.0934160200280736e+17
19168.0	4.092680458644138e+17
19169.0	4.0919918175409485e+17
19170.0	4.0913420723159034e+17
19171.0	4.090487565363882e+17
19172.0	4.0899274139675296e+17
19173.0	4.08934093492497e+17
19174.0	4.0885109052320416e+17
19175.0	4.0878262585043616e+17
19176.0	4.087231127311701e+17
19177.0	4.0863875486187514e+17
19178.0	4.0857505687579296e+17
19179.0	4.085000362961578e+17
19180.0	4.084444787550889e+17
19181.0	4.083593067713876e+17
19182.0	4.082894049203542e+17
19183.0	4.08235291058722e+17
19184.0	4.081701396763989e+17
19185.0	4.080951964117674e+17
19186.0	4.080285771628543e+17
19187.0	4.079608861294592e+17
19188.0	4.07898204213521e+17
19189.0	4.078318749308244e+17
19190.0	4.077595849829033e+17
19191.0	4.076899642900479e+17
19192.0	4.076251999720789e+17
19193.0	4.074981075976192e+17
19194.0	4.074059422411435e+17
19195.0	4.074225031009621e+17
19196.0	4.073482421796864e+17
19197.0	4.0726626786344954e+17
19198.0	4.0719009238220806e+17
19199.0	4.067657174570323e+17
19200.0	4.068387335787863e+17
19201.0	4.070004122539349e+17
19202.0	4.0693877758580045e+17
19203.0	4.068648154387797e+17
19204.0	4.0680811914417485e+17
19205.0	4.067321033261055e+17
19206.0	4.0666402543807136e+17
19207.0	4.06557852574242e+17
19208.0	4.064956669842772e+17
19209.0	4.06457119932416e+17
19210.0	4.0637478497594016e+17
19211.0	4.0631792873854285e+17
19212.0	4.0624890454562125e+17
19213.0	4.0617391122896205e+17
19214.0	4.061037605158912e+17
19215.0	4.060455816047274e+17
19216.0	4.059797476693333e+17
19217.0	4.0592077966977696e+17
19218.0	4.057593293045758e+17
19219.0	4.05755031331362e+17
19220.0	4.057090473590783e+17
19221.0	4.056042268087636e+17
19222.0	4.055512820394666e+17
19223.0	4.0549273025467725e+17
19224.0	4.0541877048442874e+17
19225.0	4.053535539505834e+17
19226.0	4.0530275205119994e+17
19227.0	4.0522759774317216e+17
19228.0	4.051636885738836e+17
19229.0	4.050551354425343e+17
19230.0	4.050170389288276e+17
19231.0	4.0496801122003616e+17
19232.0	4.0489754090100045e+17
19233.0	4.048138711771817e+17
19234.0	4.0474477288488954e+17
19235.0	4.046817673783978e+17
19236.0	4.0461845407989754e+17
19237.0	4.0453044052514125e+17
19238.0	4.0446442938040314e+17
19239.0	4.0441258869172896e+17
19240.0	4.043304066176342e+17
19241.0	4.042804473539242e+17
19242.0	4.041814892522153e+17
19243.0	4.041322334431914e+17
19244.0	4.040664095741268e+17
19245.0	4.0400598922690554e+17
19246.0	4.039414127438506e+17
19247.0	4.038761645430101e+17
19248.0	4.038005208296107e+17
19249.0	4.03709321281536e+17
19250.0	4.035766432825344e+17
19251.0	4.035164388720638e+17
19252.0	4.03513665388544e+17
19253.0	4.0345615623782394e+17
19254.0	4.033964745774421e+17
19255.0	4.0330731702626976e+17
19256.0	4.0324182408779085e+17
19257.0	4.031863186959018e+17
19258.0	4.031134732124159e+17
19259.0	4.030586766579029e+17
19260.0	4.0296274824178336e+17
19261.0	4.0292195730718714e+17
19262.0	4.02845475082513e+17
19263.0	4.0276453585059834e+17
19264.0	4.02655227814434e+17
19265.0	4.026110343206229e+17
19266.0	4.02536197521408e+17
19267.0	4.0251229572082336e+17
19268.0	4.024281306497024e+17
19269.0	4.023706800794282e+17
19270.0	4.023030434321749e+17
19271.0	4.021871495697751e+17
19272.0	4.0217040842478925e+17
19273.0	4.020980881380693e+17
19274.0	4.0200978307918483e+17
19275.0	4.0197372094272845e+17
19276.0	4.019049868558336e+17
19277.0	4.018418088935424e+17
19278.0	4.0176276723466234e+17
19279.0	4.017032397848576e+17
19280.0	4.016338666957482e+17
19281.0	4.015683676056233e+17
19282.0	4.0150353457097376e+17
19283.0	4.014239017948502e+17
19284.0	4.013695139752618e+17
19285.0	4.0127501288079354e+17
19286.0	4.0121679272564045e+17
19287.0	4.01146686612002e+17
19288.0	4.010283151742293e+17
19289.0	4.00752310467515e+17
19290.0	4.0095884638508365e+17
19291.0	4.0087090839770464e+17
19292.0	4.0082167894289056e+17
19293.0	4.007521562569386e+17
19294.0	4.0069152444689056e+17
19295.0	4.006121264818859e+17
19296.0	4.003015856663218e+17
19297.0	4.00444732857822e+17
19298.0	4.0040736104994125e+17
19299.0	4.000798070887767e+17
19300.0	4.002891328476501e+17
19301.0	4.002147032454485e+17
19302.0	4.001499605281449e+17
19303.0	4.000621732560896e+17
19304.0	4.000033536649898e+17
19305.0	3.999337991023273e+17
19306.0	3.9987528143121056e+17
19307.0	3.9979832273360205e+17
19308.0	3.9973219561635834e+17
19309.0	3.9964398360111776e+17
19310.0	3.995675504498004e+17
19311.0	3.9949276999406925e+17
19312.0	3.9938974740206925e+17
19313.0	3.991960235453098e+17
19314.0	3.970867177106093e+17
19315.0	3.970651954784943e+17
19316.0	3.986815792971781e+17
19317.0	3.9906740185770656e+17
19318.0	3.990386732520789e+17
19319.0	3.989664027377664e+17
19320.0	3.988402419182247e+17
19321.0	3.9864434450322784e+17
19322.0	3.9879609295394125e+17
19323.0	3.987416917125801e+17
19324.0	3.9867145781247994e+17
19325.0	3.985972697322836e+17
19326.0	3.9853543506575354e+17
19327.0	3.984786901871274e+17
19328.0	3.9794240885446016e+17
19329.0	3.983451866791936e+17
19330.0	3.982792246078122e+17
19331.0	3.9821314132104525e+17
19332.0	3.981416273892693e+17
19333.0	3.980874868938069e+17
19334.0	3.979798439963307e+17
19335.0	3.9700102472444704e+17
19336.0	3.9786504316955296e+17
19337.0	3.978075117191168e+17
19338.0	3.9772505981146445e+17
19339.0	3.9766212609747616e+17
19340.0	3.9755445796427085e+17
19341.0	3.9720025374501626e+17
19342.0	3.973486900936707e+17
19343.0	3.974119443922943e+17
19344.0	3.970013475460442e+17
19345.0	3.968804139477672e+17
19346.0	3.971477957946029e+17
19347.0	3.9670775542360736e+17
19348.0	3.970821821999786e+17
19349.0	3.970089035846996e+17
19350.0	3.9677267248414726e+17
19351.0	3.968717118155434e+17
19352.0	3.963434443997176e+17
19353.0	3.967406374387712e+17
19354.0	3.966832601989119e+17
19355.0	3.966077094592512e+17
19356.0	3.9654090712896845e+17
19357.0	3.964814924360363e+17
19358.0	3.96413117800994e+17
19359.0	3.962494606027429e+17
19360.0	3.9590825201500134e+17
19361.0	3.96209494827554e+17
19362.0	3.961454886300329e+17
19363.0	3.960800785989631e+17
19364.0	3.960171388731391e+17
19365.0	3.959451501461504e+17
19366.0	3.9585410208235514e+17
19367.0	3.9580815907444045e+17
19368.0	3.9574773306490874e+17
19369.0	3.956856763099818e+17
19370.0	3.956234137545385e+17
19371.0	3.9553534057076045e+17
19372.0	3.954805512863744e+17
19373.0	3.954012521671338e+17
19374.0	3.9533051697780045e+17
19375.0	3.95281368612864e+17
19376.0	3.952195352745301e+17
19377.0	3.951541126605482e+17
19378.0	3.9508885844787194e+17
19379.0	3.950220805144576e+17
19380.0	3.949227811362132e+17
19381.0	3.9486403920964256e+17
19382.0	3.9480826223656954e+17
19383.0	3.947341175674197e+17
19384.0	3.9464996591807136e+17
19385.0	3.946157507433813e+17
19386.0	3.9454783587396256e+17
19387.0	3.944750512078848e+17
19388.0	3.9440712613232634e+17
19389.0	3.9434865222178125e+17
19390.0	3.9427936539552416e+17
19391.0	3.938530135550627e+17
19392.0	3.941423390916608e+17
19393.0	3.9407684475508045e+17
19394.0	3.9401507817608525e+17
19395.0	3.938151057151321e+17
19396.0	3.9385062077453664e+17
19397.0	3.9380693402255354e+17
19398.0	3.936298247826091e+17
19399.0	3.934273223873876e+17
19400.0	3.935104235732992e+17
19401.0	3.9353828214046714e+17
19402.0	3.934824272232447e+17
19403.0	3.934153658946902e+17
19404.0	3.933319717366443e+17
19405.0	3.9325964089425914e+17
19406.0	3.932082530506069e+17
19407.0	3.9297403130129024e+17
19408.0	3.92991125327053e+17
19409.0	3.930044989352618e+17
19410.0	3.929378229234346e+17
19411.0	3.9286657470081696e+17
19412.0	3.9279448475129165e+17
19413.0	3.925622398473557e+17
19414.0	3.926641872295253e+17
19415.0	3.925915569837397e+17
19416.0	3.925004087459838e+17
19417.0	3.924514050845354e+17
19418.0	3.923875103156906e+17
19419.0	3.923152594447018e+17
19420.0	3.9224249623947936e+17
19421.0	3.921694097233236e+17
19422.0	3.9208619158623565e+17
19423.0	3.9203347778327885e+17
19424.0	3.9196010479615994e+17
19425.0	3.9187636733433165e+17
19426.0	3.9181497418820256e+17
19427.0	3.917404140732416e+17
19428.0	3.91641260167441e+17
19429.0	3.9158938697291085e+17
19430.0	3.914950558875648e+17
19431.0	3.9127943909212205e+17
19432.0	3.9133376162037754e+17
19433.0	3.912447385665536e+17
19434.0	3.911714844180478e+17
19435.0	3.9106061050839034e+17
19436.0	3.909014224109567e+17
19437.0	3.9088742420097696e+17
19438.0	3.899769618781521e+17
19439.0	3.9070232872659635e+17
19440.0	3.90587673162547e+17
19441.0	3.904744671499606e+17
19442.0	3.903552660089514e+17
19443.0	3.902302838587391e+17
19444.0	3.90088400970274e+17
19445.0	3.8995454430194355e+17
19446.0	3.898032756796074e+17
19447.0	3.896537124612778e+17
19448.0	3.894944490061823e+17
19449.0	3.893692310661802e+17
19450.0	3.892339742692693e+17
19451.0	3.891726460649472e+17
19452.0	3.891337080340478e+17
19453.0	3.8912966619299834e+17
19454.0	3.891018599847253e+17
19455.0	3.890865156827818e+17
19456.0	3.8899428014161914e+17
19457.0	3.885686860021761e+17
19458.0	3.824547709758153e+17
19459.0	3.868757943735647e+17
19460.0	3.8883116247067296e+17
19461.0	3.890569945634134e+17
19462.0	3.891006061674495e+17
19463.0	3.891056122789887e+17
19464.0	3.890840014072489e+17
19465.0	3.890615441249621e+17
19466.0	3.89033572241681e+17
19467.0	3.889978092290047e+17
19468.0	3.889626772493653e+17
19469.0	3.8856386388077165e+17
19470.0	3.888717688558933e+17
19471.0	3.888210610487295e+17
19472.0	3.8877634144938656e+17
19473.0	3.887209940429482e+17
19474.0	3.8831669207804525e+17
19475.0	3.8849446870166163e+17
19476.0	3.885554890440704e+17
19477.0	3.8849363725079885e+17
19478.0	3.8844878958537376e+17
19479.0	3.8806059738289434e+17
19480.0	3.883338985111551e+17
19481.0	3.882478405506389e+17
19482.0	3.881932546200916e+17
19483.0	3.881525503677781e+17
19484.0	3.880771543280298e+17
19485.0	3.8802773661887136e+17
19486.0	3.876085503273653e+17
19487.0	3.8789705685620045e+17
19488.0	3.878460548186111e+17
19489.0	3.877916119837353e+17
19490.0	3.875483499014824e+17
19491.0	3.8765192285607245e+17
19492.0	3.8759697712414714e+17
19493.0	3.8752364328386554e+17
19494.0	3.874638541793961e+17
19495.0	3.874170045027669e+17
19496.0	3.872865002018133e+17
19497.0	3.8729382611298976e+17
19498.0	3.872300828983296e+17
19499.0	3.865721484345335e+17
19500.0	3.8710059550638074e+17
19501.0	3.870651689467904e+17
19502.0	3.8700345479659514e+17
19503.0	3.869397790403242e+17
19504.0	3.8686811292521805e+17
19505.0	3.8678981771263994e+17
19506.0	3.8673787342465696e+17
19507.0	3.8666874821891405e+17
19508.0	3.8658513651630074e+17
19509.0	3.864808849233236e+17
19510.0	3.861143238650537e+17
19511.0	3.835743416527524e+17
19512.0	3.8588138312608384e+17
19513.0	3.859865947253413e+17
19514.0	3.860637752317268e+17
19515.0	3.8610082680449734e+17
19516.0	3.860407638818815e+17
19517.0	3.8602019913946445e+17
19518.0	3.8587448894859923e+17
19519.0	3.8580912169943014e+17
19520.0	3.855174670658213e+17
19521.0	3.8579278146000205e+17
19522.0	3.856696789172223e+17
19523.0	3.8559443317336774e+17
19524.0	3.8534435436844435e+17
19525.0	3.8553027619061754e+17
19526.0	3.854561735344127e+17
19527.0	3.8540232908690765e+17
19528.0	3.8530609868090016e+17
19529.0	3.8523365815746554e+17
19530.0	3.8520966261418656e+17
19531.0	3.8514192173847885e+17
19532.0	3.850744855090516e+17
19533.0	3.8499829835366394e+17
19534.0	3.849556459170475e+17
19535.0	3.848945948863147e+17
19536.0	3.8481875138423456e+17
19537.0	3.847617398876841e+17
19538.0	3.843951668756484e+17
19539.0	3.8457686636189056e+17
19540.0	3.845770172869289e+17
19541.0	3.8443545826863776e+17
19542.0	3.844092591778474e+17
19543.0	3.840556197915308e+17
19544.0	3.842879716502186e+17
19545.0	3.8422287241707494e+17
19546.0	3.840754589193557e+17
19547.0	3.841339539412308e+17
19548.0	3.8406666863684256e+17
19549.0	3.8398508327239674e+17
19550.0	3.839129956996438e+17
19551.0	3.83875121484049e+17
19552.0	3.8379528304721914e+17
19553.0	3.837440048147114e+17
19554.0	3.836616989387434e+17
19555.0	3.835609727281834e+17
19556.0	3.835151468811603e+17
19557.0	3.834834337486165e+17
19558.0	3.834222774408533e+17
19559.0	3.833559129959082e+17
19560.0	3.831756106323282e+17
19561.0	3.8322831947202554e+17
19562.0	3.830654456299518e+17
19563.0	3.831076942949034e+17
19564.0	3.830081723389268e+17
19565.0	3.8296647403656525e+17
19566.0	3.8288661469812045e+17
19567.0	3.828519055742293e+17
19568.0	3.82784937918464e+17
19569.0	3.8272454623231994e+17
19570.0	3.8266178770042874e+17
19571.0	3.825925444949333e+17
19572.0	3.825292976761514e+17
19573.0	3.824343159144447e+17
19574.0	3.8238518817150285e+17
19575.0	3.823452427386879e+17
19576.0	3.822672019106474e+17
19577.0	3.821704783942997e+17
19578.0	3.8214903536462496e+17
19579.0	3.8209424803758074e+17
19580.0	3.8201553479270394e+17
19581.0	3.8193728348050765e+17
19582.0	3.8189688743963296e+17
19583.0	3.818447634257236e+17
19584.0	3.817662098440191e+17
19585.0	3.817044047473323e+17
19586.0	3.81641883053807e+17
19587.0	3.8158954911498234e+17
19588.0	3.8147164876745376e+17
19589.0	3.8146296383187616e+17
19590.0	3.8138349735990605e+17
19591.0	3.813306238238719e+17
19592.0	3.812649356405418e+17
19593.0	3.811768033869823e+17
19594.0	3.810969947297108e+17
19595.0	3.810769507800404e+17
19596.0	3.809981240093353e+17
19597.0	3.809542831865855e+17
19598.0	3.807939943639721e+17
19599.0	3.8082175555338234e+17
19600.0	3.8074818592331085e+17
19601.0	3.8068920338350074e+17
19602.0	3.806281300530516e+17
19603.0	3.805197772696233e+17
19604.0	3.805091516994901e+17
19605.0	3.804083304180395e+17
19606.0	3.8036750488043514e+17
19607.0	3.803198527635455e+17
19608.0	3.8022320600296096e+17
19609.0	3.80185143812642e+17
19610.0	3.7997846521883334e+17
19611.0	3.7982262585371315e+17
19612.0	3.800036471909034e+17
19613.0	3.799171844800512e+17
19614.0	3.798707035526484e+17
19615.0	3.7981851522607776e+17
19616.0	3.7960461683698374e+17
19617.0	3.7945987762749446e+17
19618.0	3.7955332287583565e+17
19619.0	3.794464449495038e+17
19620.0	3.7934626218093165e+17
19621.0	3.7907054820939066e+17
19622.0	3.7937341967018656e+17
19623.0	3.793021366348457e+17
19624.0	3.792119985253034e+17
19625.0	3.79188046532881e+17
19626.0	3.7910990434249376e+17
19627.0	3.7906180238650016e+17
19628.0	3.7899383005511686e+17
19629.0	3.781417386726736e+17
19630.0	3.788747219577514e+17
19631.0	3.7857951481855974e+17
19632.0	3.787484854310229e+17
19633.0	3.7868403442756256e+17
19634.0	3.786197366560086e+17
19635.0	3.785196365851304e+17
19636.0	3.781006123335676e+17
19637.0	3.780264025828006e+17
19638.0	3.783355018160808e+17
19639.0	3.782934136531625e+17
19640.0	3.7823306488872954e+17
19641.0	3.7799040650663334e+17
19642.0	3.781027443681963e+17
19643.0	3.780383037106857e+17
19644.0	3.7798822246263456e+17
19645.0	3.7790958031121056e+17
19646.0	3.7746127541370816e+17
19647.0	3.7777123692598605e+17
19648.0	3.777469159746218e+17
19649.0	3.776742025418069e+17
19650.0	3.776149749148329e+17
19651.0	3.7755431010959354e+17
19652.0	3.774979413202261e+17
19653.0	3.774240998992553e+17
19654.0	3.7737428911390714e+17
19655.0	3.7729514280714234e+17
