# Flux units: erg / (cm m2 s)
# Wavelength units: Angstrom
wave	flux
19000.0	8.14366188371968e+17
19001.0	8.141982199185408e+17
19002.0	8.14063684681728e+17
19003.0	8.139117044957181e+17
19004.0	8.13760527099494e+17
19005.0	8.136083569115133e+17
19006.0	8.134570612359167e+17
19007.0	8.132901325504511e+17
19008.0	8.131424824240809e+17
19009.0	8.129961564394836e+17
19010.0	8.127720782648659e+17
19011.0	8.126937679527935e+17
19012.0	8.125168554257066e+17
19013.0	8.123932175499263e+17
19014.0	8.122304779954857e+17
19015.0	8.120834410763604e+17
19016.0	8.119303169638399e+17
19017.0	8.117649120690173e+17
19018.0	8.116303994814463e+17
19019.0	8.114796104777728e+17
19020.0	8.113194526572544e+17
19021.0	8.11172326958694e+17
19022.0	8.11024126120209e+17
19023.0	8.108646458195965e+17
19024.0	8.107162623890772e+17
19025.0	8.10565661430033e+17
19026.0	8.104100679909375e+17
19027.0	8.102478899139923e+17
19028.0	8.101096627109888e+17
19029.0	8.099545319036246e+17
19030.0	8.098065616120489e+17
19031.0	8.096550513278973e+17
19032.0	8.09502196909124e+17
19033.0	8.09334632227362e+17
19034.0	8.091936174899199e+17
19035.0	8.09037520314914e+17
19036.0	8.077117152209569e+17
19037.0	8.087367263627944e+17
19038.0	8.085818865003178e+17
19039.0	8.084327798319786e+17
19040.0	8.082809478447101e+17
19041.0	8.081266294740306e+17
19042.0	8.079595302202025e+17
19043.0	8.078225991969446e+17
19044.0	8.076673829655892e+17
19045.0	8.075160481431551e+17
19046.0	8.07353127674402e+17
19047.0	8.072100322825555e+17
19048.0	8.070224181286227e+17
19049.0	8.068928004336296e+17
19050.0	8.067436699975679e+17
19051.0	8.064027495585103e+17
19052.0	8.064287901745151e+17
19053.0	8.06288963403776e+17
19054.0	8.061396767997951e+17
19055.0	8.059437691087532e+17
19056.0	8.058290701336575e+17
19057.0	8.056791742371156e+17
19058.0	8.055208707183955e+17
19059.0	8.053741169147903e+17
19060.0	8.05217611354385e+17
19061.0	8.050688038797311e+17
19062.0	8.049149836525565e+17
19063.0	8.047622656884735e+17
19064.0	8.045870949160275e+17
19065.0	8.044236862302889e+17
19066.0	8.042916282892288e+17
19067.0	8.041474022528339e+17
19068.0	8.039966312846676e+17
19069.0	8.038437145105747e+17
19070.0	8.036852156770986e+17
19071.0	8.035354874129066e+17
19072.0	8.033840193514154e+17
19073.0	8.032292807114752e+17
19074.0	8.030777690292224e+17
19075.0	8.029245523623935e+17
19076.0	8.027675208362668e+17
19077.0	8.026166587118931e+17
19078.0	8.024549798969343e+17
19079.0	8.023111163882152e+17
19080.0	8.021557386761556e+17
19081.0	8.019967718981631e+17
19082.0	8.018418965239123e+17
19083.0	8.016769728555689e+17
19084.0	8.015011528048639e+17
19085.0	8.013895483872596e+17
19086.0	8.011681018587817e+17
19087.0	8.01048670450483e+17
19088.0	8.009162441097216e+17
19089.0	8.007263188942848e+17
19090.0	8.00618767712256e+17
19091.0	8.004673833970344e+17
19092.0	8.002997801276756e+17
19093.0	8.001648869769216e+17
19094.0	8.000106000635219e+17
19095.0	7.998568008078676e+17
19096.0	7.997020901299539e+17
19097.0	7.995520780511913e+17
19098.0	7.993983390537044e+17
19099.0	7.99244454933299e+17
19100.0	7.99090150543633e+17
19101.0	7.989386004135935e+17
19102.0	7.987716110505297e+17
19103.0	7.986313714204672e+17
19104.0	7.984793801894569e+17
19105.0	7.983252880315732e+17
19106.0	7.981659350979924e+17
19107.0	7.980157374911827e+17
19108.0	7.978654375433558e+17
19109.0	7.97582345791078e+17
19110.0	7.975562616941224e+17
19111.0	7.974053756622163e+17
19112.0	7.972526322526889e+17
19113.0	7.970993508537683e+17
19114.0	7.969451026677757e+17
19115.0	7.967825935204351e+17
19116.0	7.96635094389009e+17
19117.0	7.964820390630739e+17
19118.0	7.963128914509821e+17
19119.0	7.958271767871483e+17
19120.0	7.96012609483571e+17
19121.0	7.958656262515369e+17
19122.0	7.957190435755348e+17
19123.0	7.955639393320957e+17
19124.0	7.954048065994751e+17
19125.0	7.952571384375978e+17
19126.0	7.951031742059859e+17
19127.0	7.946792907134289e+17
19128.0	7.946983922728956e+17
19129.0	7.94628838409284e+17
19130.0	7.944890570768384e+17
19131.0	7.943347765947049e+17
19132.0	7.941839606076756e+17
19133.0	7.939449164573357e+17
19134.0	7.938293354201088e+17
19135.0	7.937233173960019e+17
19136.0	7.93571194324036e+17
19137.0	7.933909705337514e+17
19138.0	7.932548288785064e+17
19139.0	7.931102730300073e+17
19140.0	7.929574117605373e+17
19141.0	7.928040295585108e+17
19142.0	7.926463433015293e+17
19143.0	7.92487417348096e+17
19144.0	7.92337122014003e+17
19145.0	7.921887627706369e+17
19146.0	7.919353156599807e+17
19147.0	7.918683762458621e+17
19148.0	7.917280551064918e+17
19149.0	7.915741329577299e+17
19150.0	7.914202972116306e+17
19151.0	7.912675487689386e+17
19152.0	7.911115170250751e+17
19153.0	7.909577426556242e+17
19154.0	7.907866500049576e+17
19155.0	7.906540770033661e+17
19156.0	7.904996487419222e+17
19157.0	7.903425642277545e+17
19158.0	7.901052035312297e+17
19159.0	7.900344221346472e+17
19160.0	7.898796727293267e+17
19161.0	7.897207572616531e+17
19162.0	7.89376341569263e+17
19163.0	7.89419642585088e+17
19164.0	7.892704886609236e+17
19165.0	7.891125489281705e+17
19166.0	7.889436234743805e+17
19167.0	7.887903068433066e+17
19168.0	7.886351019365715e+17
19169.0	7.884886462081705e+17
19170.0	7.883473765968552e+17
19171.0	7.881831662398122e+17
19172.0	7.880387613862569e+17
19173.0	7.878857562521599e+17
19174.0	7.877226759804244e+17
19175.0	7.875784218421932e+17
19176.0	7.874231995990012e+17
19177.0	7.872450273826132e+17
19178.0	7.871117333801641e+17
19179.0	7.869470046071466e+17
19180.0	7.867918757571241e+17
19181.0	7.866369413829972e+17
19182.0	7.864891499085824e+17
19183.0	7.863436070005417e+17
19184.0	7.861719201568082e+17
19185.0	7.8603370903197e+17
19186.0	7.858821809919315e+17
19187.0	7.857133089456125e+17
19188.0	7.855721608293034e+17
19189.0	7.854150240261458e+17
19190.0	7.852595079020544e+17
19191.0	7.851025342573225e+17
19192.0	7.849541903930706e+17
19193.0	7.84787252200516e+17
19194.0	7.846374966733484e+17
19195.0	7.844897925802666e+17
19196.0	7.843323611971581e+17
19197.0	7.841774737992361e+17
19198.0	7.840156800603475e+17
19199.0	7.826626616229884e+17
19200.0	7.828882796664152e+17
19201.0	7.83524580888849e+17
19202.0	7.833771104185002e+17
19203.0	7.832214126810451e+17
19204.0	7.830649255755773e+17
19205.0	7.829126112433494e+17
19206.0	7.82756376075742e+17
19207.0	7.825896006221821e+17
19208.0	7.824162768814076e+17
19209.0	7.822910247578281e+17
19210.0	7.821359364527444e+17
19211.0	7.819824438007123e+17
19212.0	7.818271835291645e+17
19213.0	7.816489632180905e+17
19214.0	7.814874246326954e+17
19215.0	7.813560456096426e+17
19216.0	7.812010878872232e+17
19217.0	7.810477790855165e+17
19218.0	7.807593776239955e+17
19219.0	7.807080730372777e+17
19220.0	7.805761488945151e+17
19221.0	7.80369462960674e+17
19222.0	7.802683019405994e+17
19223.0	7.801078850519039e+17
19224.0	7.79941617808179e+17
19225.0	7.79772587356979e+17
19226.0	7.796370952596138e+17
19227.0	7.794800754775378e+17
19228.0	7.793290912989183e+17
19229.0	7.7917200594589e+17
19230.0	7.790083310616575e+17
19231.0	7.788516787006122e+17
19232.0	7.786942257867436e+17
19233.0	7.785303883033258e+17
19234.0	7.783805988022953e+17
19235.0	7.782212802620073e+17
19236.0	7.780700688919209e+17
19237.0	7.779089363151528e+17
19238.0	7.777377375485952e+17
19239.0	7.775964903069011e+17
19240.0	7.774003798911658e+17
19241.0	7.772646921994239e+17
19242.0	7.771167516874068e+17
19243.0	7.769302894291625e+17
19244.0	7.768036903747583e+17
19245.0	7.766437826745683e+17
19246.0	7.764828603722408e+17
19247.0	7.763245939032063e+17
19248.0	7.761674220077055e+17
19249.0	7.760071358414847e+17
19250.0	7.75844390834449e+17
19251.0	7.756706949190995e+17
19252.0	7.754704083746815e+17
19253.0	7.753639685434025e+17
19254.0	7.752015727820799e+17
19255.0	7.750107522225491e+17
19256.0	7.748795718696957e+17
19257.0	7.74724091117568e+17
19258.0	7.745630940168191e+17
19259.0	7.743882621441364e+17
19260.0	7.742215605103273e+17
19261.0	7.740760816353279e+17
19262.0	7.739059275300863e+17
19263.0	7.737458074583039e+17
19264.0	7.73509477721702e+17
19265.0	7.733686866804735e+17
19266.0	7.732079234820777e+17
19267.0	7.730651492341076e+17
19268.0	7.729002321368404e+17
19269.0	7.727370802823167e+17
19270.0	7.725731596118698e+17
19271.0	7.723566956369239e+17
19272.0	7.722374701689514e+17
19273.0	7.711093384282099e+17
19274.0	7.714185604147875e+17
19275.0	7.71748138337348e+17
19276.0	7.715792949521064e+17
19277.0	7.714136280530943e+17
19278.0	7.712477580099581e+17
19279.0	7.710603510546432e+17
19280.0	7.708792159819092e+17
19281.0	7.707243611597481e+17
19282.0	7.705589836677117e+17
19283.0	7.703732358392489e+17
19284.0	7.701815445422079e+17
19285.0	7.700158696740178e+17
19286.0	7.698770514935807e+17
19287.0	7.697132354011135e+17
19288.0	7.692662106750973e+17
19289.0	7.68572893482187e+17
19290.0	7.692006328718675e+17
19291.0	7.689831336028844e+17
19292.0	7.688564969395539e+17
19293.0	7.686822503120893e+17
19294.0	7.684620420819625e+17
19295.0	7.682876062913875e+17
19296.0	7.681119830933503e+17
19297.0	7.679335350315688e+17
19298.0	7.677570971598847e+17
19299.0	7.675865441763325e+17
19300.0	7.6740940529664e+17
19301.0	7.672304771268608e+17
19302.0	7.670518769516543e+17
19303.0	7.66859468288819e+17
19304.0	7.666860574463318e+17
19305.0	7.665121053988178e+17
19306.0	7.663321898898772e+17
19307.0	7.66142266072542e+17
19308.0	7.65964330414899e+17
19309.0	7.657480131007828e+17
19310.0	7.655427908392275e+17
19311.0	7.653662156739926e+17
19312.0	7.651673029039442e+17
19313.0	7.649728156838569e+17
19314.0	7.643675886616568e+17
19315.0	7.642057444513116e+17
19316.0	7.64417045238033e+17
19317.0	7.642282141766995e+17
19318.0	7.640363112071165e+17
19319.0	7.638469790662655e+17
19320.0	7.636576216197802e+17
19321.0	7.634667257025876e+17
19322.0	7.632488816618153e+17
19323.0	7.630006493293226e+17
19324.0	7.627962663479977e+17
19325.0	7.625690899808255e+17
19326.0	7.623976374588756e+17
19327.0	7.62195039293713e+17
19328.0	7.61994772602334e+17
19329.0	7.617903858461354e+17
19330.0	7.615762540440233e+17
19331.0	7.613358159866538e+17
19332.0	7.61047861358319e+17
19333.0	7.608255614287872e+17
19334.0	7.606127467779411e+17
19335.0	7.604026916995072e+17
19336.0	7.601861727791786e+17
19337.0	7.59968299937519e+17
19338.0	7.5971383277213e+17
19339.0	7.594711604090195e+17
19340.0	7.592404061607251e+17
19341.0	7.590219697444182e+17
19342.0	7.587311572571475e+17
19343.0	7.5856590405632e+17
19344.0	7.583282922607955e+17
19345.0	7.577769729501856e+17
19346.0	7.577625072151212e+17
19347.0	7.576071727043922e+17
19348.0	7.573757627465727e+17
19349.0	7.571254778615126e+17
19350.0	7.568592340691624e+17
19351.0	7.565757634314239e+17
19352.0	7.563175648733866e+17
19353.0	7.560740749006164e+17
19354.0	7.558144645398527e+17
19355.0	7.555361898059092e+17
19356.0	7.552850618657449e+17
19357.0	7.550147881861119e+17
19358.0	7.547325243894442e+17
19359.0	7.544137749015212e+17
19360.0	7.541757741542058e+17
19361.0	7.538749393775276e+17
19362.0	7.535347983799636e+17
19363.0	7.532403128008701e+17
19364.0	7.529409182083753e+17
19365.0	7.526365565812735e+17
19366.0	7.523284137891155e+17
19367.0	7.520146478333952e+17
19368.0	7.5169542452893e+17
19369.0	7.512883242642089e+17
19370.0	7.508302804025343e+17
19371.0	7.505950725024425e+17
19372.0	7.502604851828054e+17
19373.0	7.499061974969002e+17
19374.0	7.495439224580777e+17
19375.0	7.490617314290345e+17
19376.0	7.486898388511402e+17
19377.0	7.483083281749331e+17
19378.0	7.479210327146493e+17
19379.0	7.474064458601814e+17
19380.0	7.469604354566825e+17
19381.0	7.465447226081279e+17
19382.0	7.460569621026132e+17
19383.0	7.454769530535935e+17
19384.0	7.450485366368936e+17
19385.0	7.445150179524605e+17
19386.0	7.438699980303017e+17
19387.0	7.433874125968723e+17
19388.0	7.426672104745642e+17
19389.0	7.421148746044756e+17
19390.0	7.413708401672191e+17
19391.0	7.398367469152924e+17
19392.0	7.400392393839955e+17
19393.0	7.394428889071615e+17
19394.0	7.388588868807338e+17
19395.0	7.382590772215808e+17
19396.0	7.376446550267219e+17
19397.0	7.369808776178345e+17
19398.0	7.363215823820116e+17
19399.0	7.355609087213565e+17
19400.0	7.349560946982911e+17
19401.0	7.342494376613203e+17
19402.0	7.335153431653033e+17
19403.0	7.326960301987155e+17
19404.0	7.31904708059682e+17
19405.0	7.310903700968787e+17
19406.0	7.302522888781823e+17
19407.0	7.292970905283241e+17
19408.0	7.283018298643799e+17
19409.0	7.27439257964817e+17
19410.0	7.263656804177236e+17
19411.0	7.253610719084543e+17
19412.0	7.241819694475949e+17
19413.0	7.230620213531987e+17
19414.0	7.217333638529024e+17
19415.0	7.204240296509439e+17
19416.0	7.189847884868268e+17
19417.0	7.17452517240559e+17
19418.0	7.157735771952472e+17
19419.0	7.139319332470784e+17
19420.0	7.119157529848494e+17
19421.0	7.099137206692524e+17
19422.0	7.081841345429501e+17
19423.0	7.064434779706708e+17
19424.0	7.046130852429824e+17
19425.0	7.027179295954259e+17
19426.0	7.006893940320937e+17
19427.0	6.985816305128788e+17
19428.0	6.963501381713919e+17
19429.0	6.939971351653034e+17
19430.0	6.91435792621022e+17
19431.0	6.885446899116717e+17
19432.0	6.856774385314474e+17
19433.0	6.823100309394772e+17
19434.0	6.785163920233811e+17
19435.0	6.742768778302802e+17
19436.0	6.703821216546816e+17
19437.0	6.665562893582335e+17
19438.0	6.617221650448381e+17
19439.0	6.577222629807447e+17
19440.0	6.526372049933654e+17
19441.0	6.470286515197265e+17
19442.0	6.406898941864622e+17
19443.0	6.339004220484266e+17
19444.0	6.26869878093687e+17
19445.0	6.189685681771864e+17
19446.0	6.101589142710953e+17
19447.0	6.004985923895291e+17
19448.0	5.8974323301417e+17
19449.0	5.76912799895825e+17
19450.0	5.545103818315031e+17
19451.0	5.4479289696911443e+17
19452.0	5.670887651016713e+17
19453.0	5.83569877080474e+17
19454.0	5.948099510577829e+17
19455.0	6.047238188258644e+17
19456.0	6.137367301718019e+17
19457.0	6.218264308176209e+17
19458.0	6.28799952300715e+17
19459.0	6.355978066853889e+17
19460.0	6.420175694506665e+17
19461.0	6.47712410103535e+17
19462.0	6.527754572922881e+17
19463.0	6.573760182222845e+17
19464.0	6.615055391697578e+17
19465.0	6.652807615960407e+17
19466.0	6.687735483990012e+17
19467.0	6.726501475024896e+17
19468.0	6.764438239576064e+17
19469.0	6.796316248113151e+17
19470.0	6.826166169458001e+17
19471.0	6.852295244032684e+17
19472.0	6.876002057715708e+17
19473.0	6.897760313802751e+17
19474.0	6.918035711459328e+17
19475.0	6.93605040931908e+17
19476.0	6.954781636209322e+17
19477.0	6.971544541244076e+17
19478.0	6.987330913741481e+17
19479.0	7.002586594235732e+17
19480.0	7.01661474455552e+17
19481.0	7.032669578373802e+17
19482.0	7.050677511520252e+17
19483.0	7.066759724356947e+17
19484.0	7.081287200975532e+17
19485.0	7.094343507290793e+17
19486.0	7.106189819816617e+17
19487.0	7.11779309060096e+17
19488.0	7.127535466141014e+17
19489.0	7.136763095722666e+17
19490.0	7.144041079985487e+17
19491.0	7.153522643916118e+17
19492.0	7.161129890829651e+17
19493.0	7.168475216041299e+17
19494.0	7.174791421231101e+17
19495.0	7.181224018356905e+17
19496.0	7.186898029466964e+17
19497.0	7.19271736062771e+17
19498.0	7.197410546330284e+17
19499.0	7.189009524588529e+17
19500.0	7.207991831603881e+17
19501.0	7.212364903830868e+17
19502.0	7.216510264497492e+17
19503.0	7.220461644196521e+17
19504.0	7.224176846831615e+17
19505.0	7.227943164051455e+17
19506.0	7.23151039303953e+17
19507.0	7.23467095908898e+17
19508.0	7.237739074289663e+17
19509.0	7.24061470728738e+17
19510.0	7.244195658640042e+17
19511.0	7.236614712808782e+17
19512.0	7.250438167112357e+17
19513.0	7.250819111976952e+17
19514.0	7.256163695460351e+17
19515.0	7.261253419051693e+17
19516.0	7.264088842655063e+17
19517.0	7.268015348733266e+17
19518.0	7.269735288799232e+17
19519.0	7.271445212867241e+17
19520.0	7.274463106869929e+17
19521.0	7.275822900226729e+17
19522.0	7.276985385134761e+17
19523.0	7.278991758415186e+17
19524.0	7.280733815046143e+17
19525.0	7.281626034383529e+17
19526.0	7.282566857315667e+17
19527.0	7.283518097500841e+17
19528.0	7.285292490817535e+17
19529.0	7.285949931192319e+17
19530.0	7.286561504056659e+17
19531.0	7.287101312379561e+17
19532.0	7.287569582653439e+17
19533.0	7.288312381308927e+17
19534.0	7.289236902379519e+17
19535.0	7.289494614398291e+17
19536.0	7.289713283039232e+17
19537.0	7.289966768597674e+17
19538.0	7.290039668397396e+17
19539.0	7.2893598765766e+17
19540.0	7.290214000448851e+17
19541.0	7.290567770417833e+17
19542.0	7.290898267592019e+17
19543.0	7.290828284231679e+17
19544.0	7.290717375649108e+17
19545.0	7.290007927302824e+17
19546.0	7.288977669226497e+17
19547.0	7.290157313032191e+17
19548.0	7.28991754564403e+17
19549.0	7.28945185207091e+17
19550.0	7.289313209352191e+17
19551.0	7.288969902773586e+17
19552.0	7.288591762500266e+17
19553.0	7.288351866486783e+17
19554.0	7.288157705164116e+17
19555.0	7.287742357220012e+17
19556.0	7.287283061358591e+17
19557.0	7.286767925329919e+17
19558.0	7.286235223556096e+17
19559.0	7.2856535840413e+17
19560.0	7.285063730681172e+17
19561.0	7.28446940619298e+17
19562.0	7.283887974995283e+17
19563.0	7.283257896861693e+17
19564.0	7.282722442226345e+17
19565.0	7.282502610365097e+17
19566.0	7.281772595948202e+17
19567.0	7.281108671179433e+17
19568.0	7.280332752901459e+17
19569.0	7.279609924725417e+17
19570.0	7.278889982230525e+17
19571.0	7.278113455778474e+17
19572.0	7.277875865234089e+17
19573.0	7.277345512270505e+17
19574.0	7.276383703837353e+17
19575.0	7.275721375700308e+17
19576.0	7.275177549234175e+17
19577.0	7.27425217532177e+17
19578.0	7.273392398925823e+17
19579.0	7.272528445003092e+17
19580.0	7.271645330101587e+17
19581.0	7.270761021221545e+17
19582.0	7.270541912178688e+17
19583.0	7.269635207113385e+17
19584.0	7.268694570128726e+17
19585.0	7.267567311781888e+17
19586.0	7.266549138893481e+17
19587.0	7.265741006962687e+17
19588.0	7.264108568466772e+17
19589.0	7.263817539693225e+17
19590.0	7.262770010871123e+17
19591.0	7.261887943147517e+17
19592.0	7.26089478508817e+17
19593.0	7.259846474727423e+17
19594.0	7.258432630773075e+17
19595.0	7.25804500717841e+17
19596.0	7.254961867980799e+17
19597.0	7.256255531144532e+17
19598.0	7.254840730888872e+17
19599.0	7.254180253837993e+17
19600.0	7.25313280610577e+17
19601.0	7.251952569505108e+17
19602.0	7.250920439371092e+17
19603.0	7.249117387773267e+17
19604.0	7.248731893486931e+17
19605.0	7.247216789247318e+17
19606.0	7.246613413451092e+17
19607.0	7.24553062171716e+17
19608.0	7.244397961106772e+17
19609.0	7.243224225677311e+17
19610.0	7.242198956026538e+17
19611.0	7.241060522655743e+17
19612.0	7.239951910786387e+17
19613.0	7.238799068583251e+17
19614.0	7.23761282154496e+17
19615.0	7.236546527406761e+17
19616.0	7.235474600318291e+17
19617.0	7.234664350263978e+17
19618.0	7.232721189339133e+17
19619.0	7.231292736623955e+17
19620.0	7.230190883176445e+17
19621.0	7.230029438823084e+17
19622.0	7.22887595209523e+17
19623.0	7.227707112816639e+17
19624.0	7.226516819673087e+17
19625.0	7.225357686013951e+17
19626.0	7.224159713099775e+17
19627.0	7.222995462389757e+17
19628.0	7.221527681084074e+17
19629.0	7.220469072308905e+17
19630.0	7.219072843033258e+17
19631.0	7.205655662996134e+17
19632.0	7.217015706091519e+17
19633.0	7.215760499103062e+17
19634.0	7.214644568173225e+17
19635.0	7.213367876561577e+17
19636.0	7.212217282505385e+17
19637.0	7.21031114330385e+17
19638.0	7.209806205026301e+17
19639.0	7.208578189710675e+17
19640.0	7.20727676428834e+17
19641.0	7.205327537001816e+17
19642.0	7.204935315051862e+17
19643.0	7.203688931480918e+17
19644.0	7.202410116153343e+17
19645.0	7.200869022608041e+17
19646.0	7.200061504443731e+17
19647.0	7.198833117233151e+17
19648.0	7.197594474949288e+17
19649.0	7.196357871097172e+17
19650.0	7.195137071382527e+17
19651.0	7.193889180658345e+17
19652.0	7.192648625771862e+17
19653.0	7.191422980237993e+17
19654.0	7.190167769055232e+17
19655.0	7.188917368739155e+17
19656.0	7.187755157858986e+17
19657.0	7.186608692396032e+17
19658.0	7.185543104299008e+17
19659.0	7.184427973083135e+17
19660.0	7.183182080245757e+17
19661.0	7.181932135710719e+17
19662.0	7.180680882552832e+17
19663.0	7.179349904064511e+17
19664.0	7.178111946850304e+17
19665.0	7.176920525438975e+17
19666.0	7.175639752769535e+17
