# Flux units: erg / (cm m2 s)
# Wavelength units: Angstrom
wave	flux
19000.0	5.197953337655296e+17
19001.0	5.1968692582700365e+17
19002.0	5.1960369818282656e+17
19003.0	5.1950632524840954e+17
19004.0	5.194098357043198e+17
19005.0	5.1931399865412256e+17
19006.0	5.1921918753068365e+17
19007.0	5.191151325806591e+17
19008.0	5.1901885890341536e+17
19009.0	5.1891744175117645e+17
19010.0	5.187711427499347e+17
19011.0	5.1873110091803296e+17
19012.0	5.185601122861055e+17
19013.0	5.185461683923626e+17
19014.0	5.1844396005457914e+17
19015.0	5.183489711625556e+17
19016.0	5.1825057670539936e+17
19017.0	5.18162214953506e+17
19018.0	5.1806195626803194e+17
19019.0	5.179693637216938e+17
19020.0	5.178722340569087e+17
19021.0	5.177785363813717e+17
19022.0	5.1768210583715834e+17
19023.0	5.1758190559231994e+17
19024.0	5.174865415897087e+17
19025.0	5.173883796368041e+17
19026.0	5.172886648826538e+17
19027.0	5.171401967970985e+17
19028.0	5.1710727437680634e+17
19029.0	5.1700847174396576e+17
19030.0	5.169166077482323e+17
19031.0	5.168211860040362e+17
19032.0	5.167243836347733e+17
19033.0	5.1661762272952314e+17
19034.0	5.165311761667413e+17
19035.0	5.1642928939226445e+17
19036.0	5.116682965439824e+17
19037.0	5.1624234178314234e+17
19038.0	5.1614722950867616e+17
19039.0	5.160542083044692e+17
19040.0	5.159590691165525e+17
19041.0	5.158621368636757e+17
19042.0	5.1572297908442445e+17
19043.0	5.1567239500922874e+17
19044.0	5.15574927073826e+17
19045.0	5.154785528031915e+17
19046.0	5.1537755787755514e+17
19047.0	5.1528701096318285e+17
19048.0	5.151588520471209e+17
19049.0	5.1502321776285e+17
19050.0	5.149949217996798e+17
19051.0	5.142708071606945e+17
19052.0	5.146932979346089e+17
19053.0	5.14713915105826e+17
19054.0	5.146205199794175e+17
19055.0	5.144842701810347e+17
19056.0	5.144221857437013e+17
19057.0	5.143330318974975e+17
19058.0	5.141999826326868e+17
19059.0	5.141290227684692e+17
19060.0	5.1404404826658125e+17
19061.0	5.139523892325033e+17
19062.0	5.138562757776725e+17
19063.0	5.137611238670334e+17
19064.0	5.1364959760329376e+17
19065.0	5.1354973381154125e+17
19066.0	5.134557860855807e+17
19067.0	5.1337816440831994e+17
19068.0	5.1328441940705274e+17
19069.0	5.1318927204024314e+17
19070.0	5.1309018713074336e+17
19071.0	5.1299556859576314e+17
19072.0	5.1288942788826445e+17
19073.0	5.1280749817146003e+17
19074.0	5.1271292598353914e+17
19075.0	5.126176818681173e+17
19076.0	5.125198162427903e+17
19077.0	5.124249756893183e+17
19078.0	5.123263892029439e+17
19079.0	5.1223633022593696e+17
19080.0	5.1213966452107936e+17
19081.0	5.1204120113752736e+17
19082.0	5.1194579386367994e+17
19083.0	5.1184474203531936e+17
19084.0	5.117350537155925e+17
19085.0	5.1166376061392205e+17
19086.0	5.1150664967563936e+17
19087.0	5.1133309517824e+17
19088.0	5.1135031852837536e+17
19089.0	5.112052092414633e+17
19090.0	5.1118665112398496e+17
19091.0	5.1108791846611616e+17
19092.0	5.109429331907925e+17
19093.0	5.10905630798643e+17
19094.0	5.1081072173820576e+17
19095.0	5.107157693366271e+17
19096.0	5.1061864952845645e+17
19097.0	5.105256770480809e+17
19098.0	5.104161158856703e+17
19099.0	5.1031831471281485e+17
19100.0	5.1023304255515296e+17
19101.0	5.101435176528554e+17
19102.0	5.1003556989938336e+17
19103.0	5.0995652970850976e+17
19104.0	5.0986213368135674e+17
19105.0	5.097350831101269e+17
19106.0	5.096506084294655e+17
19107.0	5.095666214065492e+17
19108.0	5.094707682781866e+17
19109.0	5.0908309141585875e+17
19110.0	5.092852349883732e+17
19111.0	5.0918806715542176e+17
19112.0	5.0909316410682016e+17
19113.0	5.090089024968021e+17
19114.0	5.089085871882238e+17
19115.0	5.0880345989447674e+17
19116.0	5.0872303383565645e+17
19117.0	5.0862783438957216e+17
19118.0	5.085074536704683e+17
19119.0	5.073687236924742e+17
19120.0	5.0831014682951674e+17
19121.0	5.082261796596393e+17
19122.0	5.081582740875945e+17
19123.0	5.0806374789720736e+17
19124.0	5.0795061668304205e+17
19125.0	5.0787211280383994e+17
19126.0	5.077793587767978e+17
19127.0	5.074497174503423e+17
19128.0	5.0753656359048525e+17
19129.0	5.0748774538717856e+17
19130.0	5.0740013672256845e+17
19131.0	5.073060207351126e+17
19132.0	5.0721325447468365e+17
19133.0	5.071012775329791e+17
19134.0	5.070010635867478e+17
19135.0	5.069288638163626e+17
19136.0	5.068365086676308e+17
19137.0	5.067209088958462e+17
19138.0	5.0664439164873376e+17
19139.0	5.0655346172450125e+17
19140.0	5.064594231918591e+17
19141.0	5.0636515124619936e+17
19142.0	5.062667117002751e+17
19143.0	5.061690392925525e+17
19144.0	5.0607767113345683e+17
19145.0	5.059878886309887e+17
19146.0	5.058172857352192e+17
19147.0	5.057858120974336e+17
19148.0	5.05692206137344e+17
19149.0	5.055962393433428e+17
19150.0	5.0551644368841376e+17
19151.0	5.054225975345151e+17
19152.0	5.053245333787987e+17
19153.0	5.052103972793002e+17
19154.0	5.0512093424298656e+17
19155.0	5.050457425357481e+17
19156.0	5.049524897360554e+17
19157.0	5.048460474580991e+17
19158.0	5.045463216553982e+17
19159.0	5.046674124701694e+17
19160.0	5.045712762961919e+17
19161.0	5.044777345089536e+17
19162.0	5.03917611424154e+17
19163.0	5.0428261569658874e+17
19164.0	5.0420016609580365e+17
19165.0	5.040706528389801e+17
19166.0	5.039836064208212e+17
19167.0	5.038743581534889e+17
19168.0	5.0382320749772794e+17
19169.0	5.0372108640146765e+17
19170.0	5.036373114006187e+17
19171.0	5.0351312616816646e+17
19172.0	5.03447257420049e+17
19173.0	5.033541623261865e+17
19174.0	5.032544477817514e+17
19175.0	5.031683990487038e+17
19176.0	5.030745111614804e+17
19177.0	5.0296203789380256e+17
19178.0	5.028759739913557e+17
19179.0	5.027508842572458e+17
19180.0	5.026958352056319e+17
19181.0	5.0258783698070176e+17
19182.0	5.0250818169514656e+17
19183.0	5.02418508943633e+17
19184.0	5.023236669221546e+17
19185.0	5.022300433459883e+17
19186.0	5.021374765247146e+17
19187.0	5.020352201621503e+17
19188.0	5.019487286504107e+17
19189.0	5.018544789345621e+17
19190.0	5.017588320261461e+17
19191.0	5.0166049782715725e+17
19192.0	5.015755526853972e+17
19193.0	5.0147686455705594e+17
19194.0	5.0138144504982176e+17
19195.0	5.012943678035285e+17
19196.0	5.0119818164742816e+17
19197.0	5.011043508726442e+17
19198.0	5.0100568804993696e+17
19199.0	4.98238663478476e+17
19200.0	4.9898264933171296e+17
19201.0	5.007259838971903e+17
19202.0	5.0063801137670816e+17
19203.0	5.00537337455138e+17
19204.0	5.004478442897406e+17
19205.0	5.0035799642603514e+17
19206.0	5.002640888255828e+17
19207.0	5.0015767905348256e+17
19208.0	5.0004839017130656e+17
19209.0	4.9998436600818336e+17
19210.0	4.9989074977204896e+17
19211.0	4.9979887067682125e+17
19212.0	4.997049591616853e+17
19213.0	4.9957851284985165e+17
19214.0	4.994715637601621e+17
19215.0	4.9941411137235616e+17
19216.0	4.9933135453880314e+17
19217.0	4.992370728763392e+17
19218.0	4.990368329586003e+17
19219.0	4.990334774454953e+17
19220.0	4.9895304782151674e+17
19221.0	4.9882202678231046e+17
19222.0	4.987694476165119e+17
19223.0	4.9867482034339834e+17
19224.0	4.9857842391285754e+17
19225.0	4.984711998865407e+17
19226.0	4.983945373067945e+17
19227.0	4.9830102334177274e+17
19228.0	4.98210401559074e+17
19229.0	4.981168721450324e+17
19230.0	4.980206402011134e+17
19231.0	4.9792712994106016e+17
19232.0	4.978349467587925e+17
19233.0	4.9773399014113274e+17
19234.0	4.976465670744746e+17
19235.0	4.9755212770618016e+17
19236.0	4.9746263202420045e+17
19237.0	4.973671376486398e+17
19238.0	4.9725974822693536e+17
19239.0	4.971823689804457e+17
19240.0	4.9708644923255443e+17
19241.0	4.96992149185058e+17
19242.0	4.9689978131360416e+17
19243.0	4.967891529105407e+17
19244.0	4.967149799298389e+17
19245.0	4.966208459068757e+17
19246.0	4.9652564883756365e+17
19247.0	4.9643328956443296e+17
19248.0	4.963399816096426e+17
19249.0	4.962441895783081e+17
19250.0	4.9614615674006176e+17
19251.0	4.960391710201172e+17
19252.0	4.959347926892543e+17
19253.0	4.9586952652281165e+17
19254.0	4.957785382977535e+17
19255.0	4.956645208271529e+17
19256.0	4.955855418731177e+17
19257.0	4.9549810929937056e+17
19258.0	4.9540448194833056e+17
19259.0	4.9530259349613216e+17
19260.0	4.951185126937939e+17
19261.0	4.9512142864383994e+17
19262.0	4.950220200039764e+17
19263.0	4.94926730310451e+17
19264.0	4.947680724429481e+17
19265.0	4.9472035727168845e+17
19266.0	4.946152499707904e+17
19267.0	4.945601691822762e+17
19268.0	4.944653578491221e+17
19269.0	4.9437172483577165e+17
19270.0	4.9427792027538765e+17
19271.0	4.9413808357812915e+17
19272.0	4.94085511123217e+17
19273.0	4.938962257488553e+17
19274.0	4.938222649300307e+17
19275.0	4.9380754152488954e+17
19276.0	4.9371079452043936e+17
19277.0	4.936172536419667e+17
19278.0	4.935224650978645e+17
19279.0	4.934245801088341e+17
19280.0	4.933236302020607e+17
19281.0	4.9323912413402445e+17
19282.0	4.9314663378889363e+17
19283.0	4.930102596293972e+17
19284.0	4.9293840064621216e+17
19285.0	4.928408182063103e+17
19286.0	4.9276352263618554e+17
19287.0	4.9267255048929274e+17
19288.0	4.9122733803437914e+17
19289.0	4.894826910012711e+17
19290.0	4.923877742346239e+17
19291.0	4.922629860010666e+17
19292.0	4.9219860651048954e+17
19293.0	4.921025656171177e+17
19294.0	4.920067220657492e+17
19295.0	4.9191293225533434e+17
19296.0	4.918023776021162e+17
19297.0	4.9171362389251405e+17
19298.0	4.9162264091033594e+17
19299.0	4.9151369931653126e+17
19300.0	4.914329270878208e+17
19301.0	4.913381941881515e+17
19302.0	4.912407702230356e+17
19303.0	4.911361760952319e+17
19304.0	4.91046029037841e+17
19305.0	4.90951615254801e+17
19306.0	4.9085445818722976e+17
19307.0	4.9075127565243725e+17
19308.0	4.906579715424255e+17
19309.0	4.9046150328265376e+17
19310.0	4.9033569758085094e+17
19311.0	4.903567894773759e+17
19312.0	4.902744177508351e+17
19313.0	4.9017763900948474e+17
19314.0	4.826722990729959e+17
19315.0	4.830668621436313e+17
19316.0	4.898560773106345e+17
19317.0	4.8978632142138016e+17
19318.0	4.8968811347094176e+17
19319.0	4.8959199770924365e+17
19320.0	4.894861716444502e+17
19321.0	4.893816802071892e+17
19322.0	4.8928084312719354e+17
19323.0	4.891528599524693e+17
19324.0	4.890936105151146e+17
19325.0	4.8889776434053114e+17
19326.0	4.8889701048429216e+17
19327.0	4.887952212972886e+17
19328.0	4.8866988046417926e+17
19329.0	4.8859739471216634e+17
19330.0	4.8849157682626554e+17
19331.0	4.883897865207807e+17
19332.0	4.882924916004181e+17
19333.0	4.8818888026794656e+17
19334.0	4.8808829246941856e+17
19335.0	4.879326848395947e+17
19336.0	4.8788181149723296e+17
19337.0	4.8778157888634874e+17
19338.0	4.876524819141972e+17
19339.0	4.8757369477966496e+17
19340.0	4.874476462276607e+17
19341.0	4.8733907541032954e+17
19342.0	4.871992228446207e+17
19343.0	4.8715528303629645e+17
19344.0	4.8702972493823994e+17
19345.0	4.866694753987237e+17
19346.0	4.867143891943423e+17
19347.0	4.8669449029768525e+17
19348.0	4.8662147158944416e+17
19349.0	4.8650782042139296e+17
19350.0	4.863898466036394e+17
19351.0	4.86289525772561e+17
19352.0	4.861466781242708e+17
19353.0	4.860731203780607e+17
19354.0	4.8596225429777056e+17
19355.0	4.8583784578853536e+17
19356.0	4.857365466360489e+17
19357.0	4.856230028421802e+17
19358.0	4.855062021712555e+17
19359.0	4.8537772399875405e+17
19360.0	4.8525034137845754e+17
19361.0	4.8515374376113485e+17
19362.0	4.8504117458370554e+17
19363.0	4.8492178043480736e+17
19364.0	4.848012443167402e+17
19365.0	4.8468012498070176e+17
19366.0	4.845575584000682e+17
19367.0	4.844333286380885e+17
19368.0	4.8430910516756474e+17
19369.0	4.8417408115452576e+17
19370.0	4.840430102730069e+17
19371.0	4.839197163301546e+17
19372.0	4.8379551494963194e+17
19373.0	4.8366022739449165e+17
19374.0	4.8352896385460896e+17
19375.0	4.833932866486272e+17
19376.0	4.832570039948628e+17
19377.0	4.8311648320662176e+17
19378.0	4.8297581310115834e+17
19379.0	4.828330145961302e+17
19380.0	4.8268768315091616e+17
19381.0	4.8253954865233914e+17
19382.0	4.823815607549951e+17
19383.0	4.822234049456809e+17
19384.0	4.8208114303194445e+17
19385.0	4.8192407410660685e+17
19386.0	4.817638222637738e+17
19387.0	4.815993970884606e+17
19388.0	4.8143292019944096e+17
19389.0	4.81262631526946e+17
19390.0	4.8108751625912314e+17
19391.0	4.7672238699533056e+17
19392.0	4.806436690679119e+17
19393.0	4.8054481603351885e+17
19394.0	4.8035296961713485e+17
19395.0	4.801456855056383e+17
19396.0	4.7995239107570336e+17
19397.0	4.797567498627753e+17
19398.0	4.7952387763077114e+17
19399.0	4.79215326732834e+17
19400.0	4.790875804663806e+17
19401.0	4.7887709344453965e+17
19402.0	4.7864740447955616e+17
19403.0	4.784089071266474e+17
19404.0	4.7816794240450554e+17
19405.0	4.7791606578107725e+17
19406.0	4.776605763239936e+17
19407.0	4.7738778620177056e+17
19408.0	4.770209209865558e+17
19409.0	4.768440467674454e+17
19410.0	4.765589409103871e+17
19411.0	4.762646954551978e+17
19412.0	4.7596208327229434e+17
19413.0	4.756442989636266e+17
19414.0	4.753314198934868e+17
19415.0	4.7500830133889696e+17
19416.0	4.746391892350292e+17
19417.0	4.742815365988351e+17
19418.0	4.739818360318634e+17
19419.0	4.7362073001547085e+17
19420.0	4.7325911145512954e+17
19421.0	4.7288890638554445e+17
19422.0	4.725053995002538e+17
19423.0	4.721227342020607e+17
19424.0	4.7172897587855354e+17
19425.0	4.7132667235969696e+17
19426.0	4.70871755072034e+17
19427.0	4.70437786025984e+17
19428.0	4.7001185375573325e+17
19429.0	4.69578502181137e+17
19430.0	4.690295350362114e+17
19431.0	4.6788749575236365e+17
19432.0	4.6813245366162765e+17
19433.0	4.675192050330281e+17
19434.0	4.6686927085458765e+17
19435.0	4.659805742432256e+17
19436.0	4.646393291472889e+17
19437.0	4.634351108445524e+17
19438.0	4.5340412405787635e+17
19439.0	4.569848674429608e+17
19440.0	4.554061284114431e+17
19441.0	4.5345537558664525e+17
19442.0	4.512199669536086e+17
19443.0	4.4879078266415776e+17
19444.0	4.461793063731197e+17
19445.0	4.426933379705509e+17
19446.0	4.343605407077709e+17
19447.0	4.257583271510013e+17
19448.0	4.1787059615389075e+17
19449.0	4.010323432439787e+17
19450.0	3.538748941445827e+17
19451.0	3.32207760710041e+17
19452.0	3.8272837521244314e+17
19453.0	4.1181797941248006e+17
19454.0	4.216277047093926e+17
19455.0	4.2899343639838765e+17
19456.0	4.388465845556564e+17
19457.0	4.4377242445632794e+17
19458.0	4.269476997846594e+17
19459.0	4.4772427671361536e+17
19460.0	4.5096137196393786e+17
19461.0	4.528896438086313e+17
19462.0	4.5459113991208954e+17
19463.0	4.569359910087342e+17
19464.0	4.601720567671459e+17
19465.0	4.6200759765346976e+17
19466.0	4.63065670955827e+17
19467.0	4.638345498634925e+17
19468.0	4.643948800070998e+17
19469.0	4.6475684956078086e+17
19470.0	4.652010457180842e+17
19471.0	4.654982789158229e+17
19472.0	4.6583747269973325e+17
19473.0	4.6609485064219296e+17
19474.0	4.663416052514815e+17
19475.0	4.665003497313619e+17
19476.0	4.668769803348651e+17
19477.0	4.671402342875134e+17
19478.0	4.673672678386345e+17
19479.0	4.6756395441192954e+17
19480.0	4.6778748159481165e+17
19481.0	4.6798512768505165e+17
19482.0	4.6818111625625594e+17
19483.0	4.6837128397236896e+17
19484.0	4.6854875860609696e+17
19485.0	4.6871398377499296e+17
19486.0	4.688575522843306e+17
19487.0	4.690356833266346e+17
19488.0	4.6918247809460896e+17
19489.0	4.693027390663338e+17
19490.0	4.692553430117033e+17
19491.0	4.695637806634324e+17
19492.0	4.6968220585820154e+17
19493.0	4.697878074578261e+17
19494.0	4.6988479640371194e+17
19495.0	4.6997410348182176e+17
19496.0	4.699979831924051e+17
19497.0	4.701283072081919e+17
19498.0	4.696451255544492e+17
19499.0	4.637719381322389e+17
19500.0	4.7031652855753376e+17
19501.0	4.703675101129387e+17
19502.0	4.7040993270169594e+17
19503.0	4.704529847156736e+17
19504.0	4.704858376503295e+17
19505.0	4.7051371026841594e+17
19506.0	4.705384743479978e+17
19507.0	4.7055380103386445e+17
19508.0	4.7058246448797e+17
19509.0	4.70592868389137e+17
19510.0	4.7056676401971194e+17
19511.0	4.578594659499985e+17
19512.0	4.6950439260432954e+17
19513.0	4.687370804090169e+17
19514.0	4.6918830272457184e+17
19515.0	4.7046688275169286e+17
19516.0	4.7055091472356685e+17
19517.0	4.7052883975208954e+17
19518.0	4.705118086408874e+17
19519.0	4.704844951934293e+17
19520.0	4.704444699290282e+17
19521.0	4.704398619967487e+17
19522.0	4.704022453114197e+17
19523.0	4.7036991163159885e+17
19524.0	4.703266069807104e+17
19525.0	4.7030258123844256e+17
19526.0	4.7026579383691936e+17
19527.0	4.702241996232021e+17
19528.0	4.701798543654911e+17
19529.0	4.7013442879488e+17
19530.0	4.7009324932792314e+17
19531.0	4.700461634420734e+17
19532.0	4.699976397488127e+17
19533.0	4.6994775661172045e+17
19534.0	4.6989605859928736e+17
19535.0	4.6984190321404576e+17
19536.0	4.6978537189539834e+17
19537.0	4.6973543402263885e+17
19538.0	4.696448081155414e+17
19539.0	4.6954947025742515e+17
19540.0	4.6956148330332154e+17
19541.0	4.695012561737045e+17
19542.0	4.6944338827018234e+17
19543.0	4.69364839092497e+17
19544.0	4.693219765911551e+17
19545.0	4.6919482794311674e+17
19546.0	4.6908023892869114e+17
19547.0	4.69135380115183e+17
19548.0	4.6907059154015565e+17
19549.0	4.689940991792468e+17
19550.0	4.689398677372928e+17
19551.0	4.6887383240540154e+17
19552.0	4.688067073933311e+17
19553.0	4.6873593788061005e+17
19554.0	4.6866584358092794e+17
19555.0	4.685981702335146e+17
19556.0	4.6853152071570765e+17
19557.0	4.684629696402772e+17
19558.0	4.683930245879125e+17
19559.0	4.683226905837568e+17
19560.0	4.68241586655505e+17
19561.0	4.6817731467892045e+17
19562.0	4.681007786273449e+17
19563.0	4.680369637599914e+17
19564.0	4.679644696193706e+17
19565.0	4.678916037236051e+17
19566.0	4.6781447410810874e+17
19567.0	4.6774471304587936e+17
19568.0	4.676681227479723e+17
19569.0	4.675940240064511e+17
19570.0	4.675221499237717e+17
19571.0	4.6744662490917536e+17
19572.0	4.673697264697344e+17
19573.0	4.6729632482153805e+17
19574.0	4.6721483124244474e+17
19575.0	4.671504539189246e+17
19576.0	4.6707266698608634e+17
19577.0	4.6699081220751354e+17
19578.0	4.6691610696963405e+17
19579.0	4.6684179327003296e+17
19580.0	4.667649032191998e+17
19581.0	4.666890546140502e+17
19582.0	4.6661409394305696e+17
19583.0	4.665366751302996e+17
19584.0	4.664566341784916e+17
19585.0	4.6636776589448525e+17
19586.0	4.662852938541738e+17
19587.0	4.6620745987522554e+17
19588.0	4.6608423304123744e+17
19589.0	4.6606560257201485e+17
19590.0	4.6597260031208096e+17
19591.0	4.659099239186432e+17
19592.0	4.658321498483369e+17
19593.0	4.6574919357562874e+17
19594.0	4.6564235556509e+17
19595.0	4.655898006563498e+17
19596.0	4.654081927457451e+17
19597.0	4.6543152754633376e+17
19598.0	4.652906941426346e+17
19599.0	4.6527697212757325e+17
19600.0	4.651983652782079e+17
19601.0	4.651099870986239e+17
19602.0	4.650318706333012e+17
19603.0	4.6485948194269843e+17
19604.0	4.648673873668778e+17
19605.0	4.647608986719572e+17
19606.0	4.6471722408345594e+17
19607.0	4.6463806414520314e+17
19608.0	4.6455533387557536e+17
19609.0	4.6447052029515085e+17
19610.0	4.643861854246229e+17
19611.0	4.643006561561258e+17
19612.0	4.6423548457123834e+17
19613.0	4.6415350431307085e+17
19614.0	4.640692448002046e+17
19615.0	4.6399182850402976e+17
19616.0	4.638640097460224e+17
19617.0	4.638155652552021e+17
19618.0	4.6367002619194e+17
19619.0	4.635706288067923e+17
19620.0	4.634903874371583e+17
19621.0	4.634870698125993e+17
19622.0	4.634259476884138e+17
19623.0	4.6334361979234976e+17
19624.0	4.6325918971112096e+17
19625.0	4.631818970071039e+17
19626.0	4.6310008095593805e+17
19627.0	4.6301868412545696e+17
19628.0	4.628659802821975e+17
19629.0	4.62794639155746e+17
19630.0	4.6258841508468064e+17
19631.0	4.596348015869954e+17
19632.0	4.626078029053951e+17
19633.0	4.6251761446420474e+17
19634.0	4.6244830806452896e+17
19635.0	4.623586898389674e+17
19636.0	4.622624213346985e+17
19637.0	4.621426395622058e+17
19638.0	4.6211751526181536e+17
19639.0	4.620381024070314e+17
19640.0	4.619404808202923e+17
19641.0	4.6171538867268294e+17
19642.0	4.6179223272598176e+17
19643.0	4.617091808231424e+17
19644.0	4.6162320919538336e+17
19645.0	4.615121375941972e+17
19646.0	4.614437547802623e+17
19647.0	4.6138457790436685e+17
19648.0	4.61303471739153e+17
19649.0	4.612211000825172e+17
19650.0	4.61139946381858e+17
19651.0	4.610574981092693e+17
19652.0	4.609752213837141e+17
19653.0	4.608923858370559e+17
19654.0	4.608113502759594e+17
19655.0	4.6072884866580474e+17
