# Flux units: erg / (cm m2 s)
# Wavelength units: Angstrom
wave	flux
19000.0	8.820155070371155e+17
19001.0	8.818700369701544e+17
19002.0	8.817241793495039e+17
19003.0	8.815779454997842e+17
19004.0	8.814313491223891e+17
19005.0	8.812843903571283e+17
19006.0	8.811370675262803e+17
19007.0	8.809893898573139e+17
19008.0	8.808411881799679e+17
19009.0	8.806927348443817e+17
19010.0	8.805430511796221e+17
19011.0	8.803951566651391e+17
19012.0	8.802456792203263e+17
19013.0	8.801567152362834e+17
19014.0	8.801744090475178e+17
19015.0	8.800237388824573e+17
19016.0	8.798726130761728e+17
19017.0	8.797213717867177e+17
19018.0	8.79569909457442e+17
19019.0	8.794180493683369e+17
19020.0	8.792658491211773e+17
19021.0	8.791134035072339e+17
19022.0	8.789607007824554e+17
19023.0	8.788076819469651e+17
19024.0	8.786543682519036e+17
19025.0	8.785008196758186e+17
19026.0	8.783468880199679e+17
19027.0	8.781926644405588e+17
19028.0	8.780385088088745e+17
19029.0	8.778838795004585e+17
19030.0	8.777289939200681e+17
19031.0	8.775738545842856e+17
19032.0	8.774184614931113e+17
19033.0	8.772628184214186e+17
19034.0	8.771069210350932e+17
19035.0	8.769507043224233e+17
19036.0	8.76781421933363e+17
19037.0	8.766377579337046e+17
19038.0	8.764809814212607e+17
19039.0	8.763239255681705e+17
19040.0	8.761666256065875e+17
19041.0	8.760091020886013e+17
19042.0	8.758513533364905e+17
19043.0	8.756933855019009e+17
19044.0	8.75535183904768e+17
19045.0	8.75376787272499e+17
19046.0	8.752180278329343e+17
19047.0	8.750592843317247e+17
19048.0	8.748997430738944e+17
19049.0	8.747410536792063e+17
19050.0	8.745815820468221e+17
19051.0	8.74419883239014e+17
19052.0	8.742616166301693e+17
19053.0	8.741020028108799e+17
19054.0	8.739417447464957e+17
19055.0	8.737812894100136e+17
19056.0	8.736206443511804e+17
19057.0	8.734597916742995e+17
19058.0	8.732987531897513e+17
19059.0	8.731375108620285e+17
19060.0	8.729760307172692e+17
19061.0	8.728144939494056e+17
19062.0	8.726526803574784e+17
19063.0	8.724907094791507e+17
19064.0	8.723282773671936e+17
19065.0	8.721660163828394e+17
19066.0	8.720036979365203e+17
19067.0	8.718410021426515e+17
19068.0	8.716781176051026e+17
19069.0	8.715150640371028e+17
19070.0	8.713518076045992e+17
19071.0	8.711884331723433e+17
19072.0	8.71024854058052e+17
19073.0	8.70861084102929e+17
19074.0	8.70697181188369e+17
19075.0	8.705330874329769e+17
19076.0	8.703687697017513e+17
19077.0	8.70204360115268e+17
19078.0	8.700397219392169e+17
19079.0	8.698750257419604e+17
19080.0	8.697100837584895e+17
19081.0	8.695450096544424e+17
19082.0	8.693796760627881e+17
19083.0	8.692143357602473e+17
19084.0	8.690487970671276e+17
19085.0	8.688830464218451e+17
19086.0	8.687160418194772e+17
19087.0	8.685508990686547e+17
19088.0	8.683848875376639e+17
19089.0	8.682184962823506e+17
19090.0	8.680521058658982e+17
19091.0	8.678854474334204e+17
19092.0	8.677185980203007e+17
19093.0	8.675515976122365e+17
19094.0	8.673826936892073e+17
19095.0	8.672151014648489e+17
19096.0	8.67049699086609e+17
19097.0	8.668822387032063e+17
19098.0	8.667145017753597e+17
19099.0	8.665466125942781e+17
19100.0	8.663785489301503e+17
19101.0	8.662103177734826e+17
19102.0	8.660417158403412e+17
19103.0	8.65873409605632e+17
19104.0	8.657047162366633e+17
19105.0	8.655358597092692e+17
19106.0	8.653667938861053e+17
19107.0	8.651976304754688e+17
19108.0	8.650283223613439e+17
19109.0	8.648577003115859e+17
19110.0	8.64689076707874e+17
19111.0	8.645194548598098e+17
19112.0	8.643495269673641e+17
19113.0	8.641794262695936e+17
19114.0	8.640091619939668e+17
19115.0	8.638386527709866e+17
19116.0	8.636681557114879e+17
19117.0	8.634973981857106e+17
19118.0	8.633264032623272e+17
19119.0	8.631497485451264e+17
19120.0	8.629841152005459e+17
19121.0	8.628127620836009e+17
19122.0	8.626413186493096e+17
19123.0	8.624696051018408e+17
19124.0	8.622977454527826e+17
19125.0	8.621438161737042e+17
19126.0	8.620272124253523e+17
19127.0	8.618498664868522e+17
19128.0	8.61681732358417e+17
19129.0	8.615087995267754e+17
19130.0	8.613356618732883e+17
19131.0	8.611623283458045e+17
19132.0	8.60988787200273e+17
19133.0	8.608147234444626e+17
19134.0	8.606412991802025e+17
19135.0	8.604672952631293e+17
19136.0	8.60293105398579e+17
19137.0	8.601183066608982e+17
19138.0	8.59944158040337e+17
19139.0	8.597694949184854e+17
19140.0	8.595946043255466e+17
19141.0	8.594195417661439e+17
19142.0	8.592443181454675e+17
19143.0	8.590687835870548e+17
19144.0	8.588933178152275e+17
19145.0	8.587175796932604e+17
19146.0	8.585398533313876e+17
19147.0	8.583652609534633e+17
19148.0	8.581891540123645e+17
19149.0	8.580126451171327e+17
19150.0	8.578359235706879e+17
19151.0	8.576535921426433e+17
19152.0	8.572638753106601e+17
19153.0	8.570863910999382e+17
19154.0	8.569083456913407e+17
19155.0	8.567307894783999e+17
19156.0	8.565526758424575e+17
19157.0	8.563742630128297e+17
19158.0	8.561952380944381e+17
19159.0	8.560170172241234e+17
19160.0	8.558381537864362e+17
19161.0	8.556591006263977e+17
19162.0	8.554781365414569e+17
19163.0	8.553003127319212e+17
19164.0	8.551209392668671e+17
19165.0	8.549410826179923e+17
19166.0	8.547607377521322e+17
19167.0	8.545805489143807e+17
19168.0	8.544000555701587e+17
19169.0	8.542193395083945e+17
19170.0	8.540384225394688e+17
19171.0	8.5385713563293e+17
19172.0	8.536757093356886e+17
19173.0	8.534939947499519e+17
19174.0	8.533118850607786e+17
19175.0	8.531298370278739e+17
19176.0	8.529473725005824e+17
19177.0	8.527646336658088e+17
19178.0	8.525816149311488e+17
19179.0	8.523983382467923e+17
19180.0	8.522148912736936e+17
19181.0	8.520309056121513e+17
19182.0	8.51847052071185e+17
19183.0	8.516628076210858e+17
19184.0	8.514781359112191e+17
19185.0	8.51293342007296e+17
19186.0	8.511082083647485e+17
19187.0	8.509227642038953e+17
19188.0	8.507370407023956e+17
19189.0	8.505510273744893e+17
19190.0	8.501235282520748e+17
19191.0	8.498988122636285e+17
19192.0	8.497113869931859e+17
19193.0	8.495235727709523e+17
19194.0	8.493354509664255e+17
19195.0	8.491469554494124e+17
19196.0	8.489580442768722e+17
19197.0	8.487687342260221e+17
19198.0	8.485785848949418e+17
19199.0	8.483784806629376e+17
19200.0	8.481904702870868e+17
19201.0	8.480081306102441e+17
19202.0	8.478177904383318e+17
19203.0	8.476266839670783e+17
19204.0	8.474350515301034e+17
19205.0	8.472432462878036e+17
19206.0	8.470509610773161e+17
19207.0	8.468582635667455e+17
19208.0	8.466647929061373e+17
19209.0	8.464718648486569e+17
19210.0	8.462780161414483e+17
19211.0	8.460837596080808e+17
19212.0	8.458890828054527e+17
19213.0	8.453751284520271e+17
19214.0	8.45148928938257e+17
19215.0	8.449523294666752e+17
19216.0	8.447550668756306e+17
19217.0	8.445572823733587e+17
19218.0	8.443568582557695e+17
19219.0	8.441603411323562e+17
19220.0	8.439611130904573e+17
19221.0	8.437599316213757e+17
19222.0	8.435598272495615e+17
19223.0	8.433585270816765e+17
19224.0	8.431566638983849e+17
19225.0	8.429540021196118e+17
19226.0	8.427515994090154e+17
19227.0	8.425483351883775e+17
19228.0	8.422742392395087e+17
19229.0	8.417132990343849e+17
19230.0	8.415070592346792e+17
19231.0	8.413003026967208e+17
19232.0	8.410929856599378e+17
19233.0	8.408851576171178e+17
19234.0	8.406768052862973e+17
19235.0	8.404679721484285e+17
19236.0	8.402585143388842e+17
19237.0	8.40048484426274e+17
19238.0	8.398378810124969e+17
19239.0	8.396268522962943e+17
19240.0	8.394149541008723e+17
19241.0	8.389965657057961e+17
19242.0	8.387329948035752e+17
19243.0	8.385186033740456e+17
19244.0	8.383036095026514e+17
19245.0	8.380880259121152e+17
19246.0	8.378717829769897e+17
19247.0	8.37654995481395e+17
19248.0	8.374375501791231e+17
19249.0	8.372194681815039e+17
19250.0	8.370007394222079e+17
19251.0	8.367810466720425e+17
19252.0	8.3656047605405e+17
19253.0	8.363407353490089e+17
19254.0	8.361194305880064e+17
19255.0	8.358976162190675e+17
19256.0	8.356752983938388e+17
19257.0	8.35452322901743e+17
19258.0	8.352286788375891e+17
19259.0	8.350043497037821e+17
19260.0	8.347791587803135e+17
19261.0	8.345536633503743e+17
19262.0	8.343273076686845e+17
19263.0	8.341001711474003e+17
19264.0	8.338712122010281e+17
19265.0	8.336435590813012e+17
19266.0	8.334143737823231e+17
19267.0	8.331829940234922e+17
19268.0	8.329492292435965e+17
19269.0	8.327090982092799e+17
19270.0	8.324600647647231e+17
19271.0	8.322219237878442e+17
19272.0	8.319843019259903e+17
19273.0	8.317390535611732e+17
19274.0	8.315007638263123e+17
19275.0	8.312632037605373e+17
19276.0	8.310206910605992e+17
19277.0	8.307770805714944e+17
19278.0	8.305323369212586e+17
19279.0	8.302864499037524e+17
19280.0	8.300392339909289e+17
19281.0	8.297912386366122e+17
19282.0	8.295418620979878e+17
19283.0	8.292911879815165e+17
19284.0	8.290393928673961e+17
19285.0	8.287860945147219e+17
19286.0	8.285321403127123e+17
19287.0	8.28276587102208e+17
19288.0	8.280163454986921e+17
19289.0	8.277536862983506e+17
19290.0	8.275019567551828e+17
19291.0	8.272402359604564e+17
19292.0	8.269787160728914e+17
19293.0	8.267149537705983e+17
19294.0	8.264497922484905e+17
19295.0	8.261832499615059e+17
19296.0	8.259158695127721e+17
19297.0	8.256470726475773e+17
19298.0	8.25376755347183e+17
19299.0	8.251048745500672e+17
19300.0	8.248315228105385e+17
19301.0	8.245568094601215e+17
19302.0	8.242804847979178e+17
19303.0	8.240024102720854e+17
19304.0	8.237227093349718e+17
19305.0	8.234413614344876e+17
19306.0	8.231575804182527e+17
19307.0	8.228718013754025e+17
19308.0	8.225842807177216e+17
19309.0	8.222945605670227e+17
19310.0	8.220030958654804e+17
19311.0	8.216942445155668e+17
19312.0	8.213744330298708e+17
19313.0	8.210770505848147e+17
19314.0	8.207731409638739e+17
19315.0	8.20471968965154e+17
19316.0	8.201726010763945e+17
19317.0	8.19866869449796e+17
19318.0	8.195588569606825e+17
19319.0	8.192485732559528e+17
19320.0	8.189359424187046e+17
19321.0	8.186209476717224e+17
19322.0	8.183032530512553e+17
19323.0	8.179834467385344e+17
19324.0	8.176610823198036e+17
19325.0	8.173358621392893e+17
19326.0	8.170082826627753e+17
19327.0	8.166776396666195e+17
19328.0	8.163426935941802e+17
19329.0	8.160047178361514e+17
19330.0	8.156291661474473e+17
19331.0	8.152457808969727e+17
19332.0	8.149002384747178e+17
19333.0	8.145518690915668e+17
19334.0	8.142005794941609e+17
19335.0	8.138462613296468e+17
19336.0	8.134880206520319e+17
19337.0	8.131263979672918e+17
19338.0	8.127615986565119e+17
19339.0	8.123936070609577e+17
19340.0	8.120221423020714e+17
19341.0	8.116473562136575e+17
19342.0	8.111732456510804e+17
19343.0	8.107670720479231e+17
19344.0	8.10377772549188e+17
19345.0	8.099830288438611e+17
19346.0	8.095913131464019e+17
19347.0	8.091948332788392e+17
19348.0	8.087924738359293e+17
19349.0	8.083855466561535e+17
19350.0	8.079740755072339e+17
19351.0	8.074576913935021e+17
19352.0	8.069640012606121e+17
19353.0	8.065326626723156e+17
19354.0	8.060947692257276e+17
19355.0	8.056510272416426e+17
19356.0	8.052031798728019e+17
19357.0	8.047506638241791e+17
19358.0	8.040914198986753e+17
19359.0	8.035929342782121e+17
19360.0	8.031185013134676e+17
19361.0	8.02636783961156e+17
19362.0	8.02147874635776e+17
19363.0	8.014948413560148e+17
19364.0	8.008474678700714e+17
19365.0	8.003332853465084e+17
19366.0	7.998105879663955e+17
19367.0	7.992790828275028e+17
19368.0	7.983815821623293e+17
19369.0	7.978164654090922e+17
19370.0	7.972543959575212e+17
19371.0	7.966674731575978e+17
19372.0	7.956561065061034e+17
19373.0	7.950613585330175e+17
19374.0	7.944556923671894e+17
19375.0	7.935325966609069e+17
19376.0	7.92678552899857e+17
19377.0	7.920249121450666e+17
19378.0	7.910904073726634e+17
19379.0	7.900799085226666e+17
19380.0	7.89396386148079e+17
19381.0	7.883066605305861e+17
19382.0	7.873205652597416e+17
19383.0	7.866043942830076e+17
19384.0	7.855215673169234e+17
19385.0	7.847629915073194e+17
19386.0	7.840138305120936e+17
19387.0	7.832530307426985e+17
19388.0	7.824802900694356e+17
19389.0	7.816868159728297e+17
19390.0	7.808560276701181e+17
19391.0	7.800250148323327e+17
19392.0	7.791859367673855e+17
19393.0	7.783219835437053e+17
19394.0	7.774392594115241e+17
19395.0	7.765369331995987e+17
19396.0	7.756081862279164e+17
19397.0	7.745947952655017e+17
19398.0	7.736284929152339e+17
19399.0	7.726362617970687e+17
19400.0	7.71619829125393e+17
19401.0	7.705737853665279e+17
19402.0	7.693743848510803e+17
19403.0	7.68248262042146e+17
19404.0	7.670920388105555e+17
19405.0	7.659036796605778e+17
19406.0	7.645382856496468e+17
19407.0	7.632912518217727e+17
19408.0	7.620088864352936e+17
19409.0	7.605622797937324e+17
19410.0	7.59178250350319e+17
19411.0	7.578092205768703e+17
19412.0	7.561475823151788e+17
19413.0	7.546228831857322e+17
19414.0	7.52941361126878e+17
19415.0	7.511535219900415e+17
19416.0	7.494235737554943e+17
19417.0	7.47393617441587e+17
19418.0	7.455315157756586e+17
19419.0	7.433560341697878e+17
19420.0	7.413656694292479e+17
19421.0	7.391173343008086e+17
19422.0	7.369551466812756e+17
19423.0	7.34537957122594e+17
19424.0	7.322283690775894e+17
19425.0	7.29637478290773e+17
19426.0	7.27068571948373e+17
19427.0	7.243772000381608e+17
19428.0	7.216220179442345e+17
19429.0	7.188075606878888e+17
19430.0	7.158615275558228e+17
19431.0	7.127921216279891e+17
19432.0	7.094452469716305e+17
19433.0	7.0595500848797e+17
19434.0	7.023009964840276e+17
19435.0	6.984311323841874e+17
19436.0	6.943319198269441e+17
19437.0	6.899827284290217e+17
19438.0	6.854080491509074e+17
19439.0	6.805403975286787e+17
19440.0	6.754004114254505e+17
19441.0	6.699304036422994e+17
19442.0	6.641250158160556e+17
19443.0	6.579787464179711e+17
19444.0	6.514472952091986e+17
19445.0	6.445294634576557e+17
19446.0	6.372105374050985e+17
19447.0	6.294692701055654e+17
19448.0	6.21271836314829e+17
19449.0	6.12506536124962e+17
19450.0	6.02614296075741e+17
19451.0	5.974608781333848e+17
19452.0	6.07671940022272e+17
19453.0	6.166553645722286e+17
19454.0	6.248800826600102e+17
19455.0	6.326090021382825e+17
19456.0	6.398991212915373e+17
19457.0	6.467764742346066e+17
19458.0	6.532432372520276e+17
19459.0	6.593354317256023e+17
19460.0	6.65045846737988e+17
19461.0	6.704378554963284e+17
19462.0	6.754645422637057e+17
19463.0	6.802138090263889e+17
19464.0	6.846528601019731e+17
19465.0	6.888554992325974e+17
19466.0	6.928095868441939e+17
19467.0	6.965059297913514e+17
19468.0	6.999988496236543e+17
19469.0	7.032787087392765e+17
19470.0	7.064439710810111e+17
19471.0	7.093665763688449e+17
19472.0	7.120684484395005e+17
19473.0	7.1468768573085e+17
19474.0	7.17147741216222e+17
19475.0	7.196454169520808e+17
19476.0	7.219277175543126e+17
19477.0	7.243097134071809e+17
19478.0	7.263816008772264e+17
19479.0	7.285342026945876e+17
19480.0	7.304337730568191e+17
19481.0	7.324542372413436e+17
19482.0	7.342007708723881e+17
19483.0	7.360414301377874e+17
19484.0	7.377314273471145e+17
19485.0	7.393896040497151e+17
19486.0	7.409821809988948e+17
19487.0	7.423851524784127e+17
19488.0	7.439141419614208e+17
19489.0	7.451617460748287e+17
19490.0	7.46480326480145e+17
19491.0	7.476742320379219e+17
19492.0	7.487297150779392e+17
19493.0	7.499020108824573e+17
19494.0	7.509346791456768e+17
19495.0	7.519002100236287e+17
19496.0	7.52910771508565e+17
19497.0	7.538812543216297e+17
19498.0	7.547514718781439e+17
19499.0	7.55581367632964e+17
19500.0	7.564607663811242e+17
19501.0	7.572730948528808e+17
19502.0	7.580033990961833e+17
19503.0	7.587062685368317e+17
19504.0	7.593833027425619e+17
19505.0	7.600706346636627e+17
19506.0	7.60740164280866e+17
19507.0	7.6135036630685e+17
19508.0	7.619401398353919e+17
19509.0	7.625105323240105e+17
19510.0	7.630622169584982e+17
19511.0	7.635862801438036e+17
19512.0	7.641111751994026e+17
19513.0	7.646238878990335e+17
19514.0	7.651001666371581e+17
19515.0	7.655643559930536e+17
19516.0	7.660156432504148e+17
19517.0	7.664541450108927e+17
19518.0	7.671327627061926e+17
19519.0	7.676586595013972e+17
19520.0	7.681184690252454e+17
19521.0	7.691041327022076e+17
19522.0	7.694859222996308e+17
19523.0	7.699738131081896e+17
19524.0	7.707903119764136e+17
19525.0	7.711500716911276e+17
19526.0	7.715136704522921e+17
19527.0	7.723019658417492e+17
19528.0	7.726048359743488e+17
19529.0	7.728964053936809e+17
19530.0	7.734317527946577e+17
19531.0	7.738664880701437e+17
19532.0	7.74124341436962e+17
19533.0	7.743722129195007e+17
19534.0	7.748350269631148e+17
19535.0	7.751858386894847e+17
19536.0	7.754036669317119e+17
19537.0	7.756127877988348e+17
19538.0	7.758372419229011e+17
19539.0	7.762843878643027e+17
19540.0	7.764688499987796e+17
19541.0	7.766446889238527e+17
19542.0	7.768133206365523e+17
19543.0	7.769746399996586e+17
19544.0	7.772827924387156e+17
19545.0	7.774893719770454e+17
19546.0	7.776285368866131e+17
19547.0	7.777668467174058e+17
19548.0	7.778976102962515e+17
19549.0	7.780225123352575e+17
19550.0	7.781397766864896e+17
19551.0	7.783974589257042e+17
19552.0	7.785117156813481e+17
19553.0	7.786109287268351e+17
19554.0	7.787056376490666e+17
19555.0	7.787960776086868e+17
19556.0	7.788822161697446e+17
19557.0	7.789642387204778e+17
19558.0	7.790423156894378e+17
19559.0	7.791168479122774e+17
19560.0	7.792557281684136e+17
19561.0	7.793651207897088e+17
19562.0	7.794277287460863e+17
19563.0	7.794868955556521e+17
19564.0	7.795427031471444e+17
19565.0	7.795952505061375e+17
19566.0	7.796445093909842e+17
19567.0	7.796900533807786e+17
19568.0	7.797320958257833e+17
19569.0	7.797711275993769e+17
19570.0	7.798072632060585e+17
19571.0	7.7984081931578e+17
19572.0	7.79921027830033e+17
19573.0	7.799678329072297e+17
19574.0	7.799933848868178e+17
19575.0	7.800150456707753e+17
19576.0	7.800331182276608e+17
19577.0	7.800484670035284e+17
19578.0	7.800610875244543e+17
19579.0	7.800712971594409e+17
19580.0	7.800788565535402e+17
19581.0	7.800839056566953e+17
19582.0	7.800866072079017e+17
19583.0	7.800869062617769e+17
19584.0	7.800848721641472e+17
19585.0	7.80080578175522e+17
19586.0	7.800740214996991e+17
19587.0	7.800652959492778e+17
19588.0	7.800533986661715e+17
19589.0	7.80041618404147e+17
19590.0	7.800265956655103e+17
19591.0	7.80010293244723e+17
19592.0	7.800265200282281e+17
19593.0	7.800055468305064e+17
19594.0	7.799826929068714e+17
19595.0	7.799580207524521e+17
19596.0	7.799301503014228e+17
19597.0	7.799027613564927e+17
19598.0	7.798715814597972e+17
19599.0	7.798396428135084e+17
19600.0	7.79805530259456e+17
19601.0	7.797696730147497e+17
19602.0	7.797323279106047e+17
19603.0	7.796927229154642e+17
19604.0	7.796535962107903e+17
19605.0	7.796115771140778e+17
19606.0	7.795686562420051e+17
19607.0	7.795243079084714e+17
19608.0	7.794788517194408e+17
19609.0	7.794318960667305e+17
19610.0	7.793836387816787e+17
19611.0	7.793339221584554e+17
19612.0	7.792828520333311e+17
19613.0	7.792304247712425e+17
19614.0	7.791766533745321e+17
19615.0	7.791215649663657e+17
19616.0	7.790651292079444e+17
19617.0	7.790076078238377e+17
19618.0	7.789473463009276e+17
19619.0	7.78886926652757e+17
19620.0	7.788257737004372e+17
19621.0	7.787649978160467e+17
19622.0	7.787014155228499e+17
19623.0	7.786366968528893e+17
19624.0	7.785708457208489e+17
19625.0	7.785038993162237e+17
19626.0	7.784358609944573e+17
19627.0	7.783667455754241e+17
19628.0	7.782963176188585e+17
19629.0	7.782253088909994e+17
19630.0	7.781515084343976e+17
19631.0	7.780681385334099e+17
19632.0	7.780056460602025e+17
19633.0	7.779307057315837e+17
19634.0	7.778545487751849e+17
19635.0	7.777766320286376e+17
19636.0	7.776964910426794e+17
19637.0	7.776153206347092e+17
19638.0	7.77547167249203e+17
19639.0	7.774641962265257e+17
19640.0	7.773804282860884e+17
19641.0	7.772947810178386e+17
19642.0	7.772111075890515e+17
19643.0	7.771254022995967e+17
19644.0	7.770389495851689e+17
19645.0	7.769513195296084e+17
19646.0	7.768643317618003e+17
19647.0	7.767760662691839e+17
19648.0	7.766873389836969e+17
19649.0	7.765979724862804e+17
19650.0	7.765079965564927e+17
19651.0	7.764173851896489e+17
19652.0	7.763261425800531e+17
19653.0	7.762342836873897e+17
19654.0	7.761418287841279e+17
19655.0	7.760487496286205e+17
19656.0	7.759550727847933e+17
19657.0	7.758608309682173e+17
19658.0	7.757659846126249e+17
19659.0	7.757432116390569e+17
19660.0	7.757907750464168e+17
19661.0	7.756932619523412e+17
19662.0	7.755951707433641e+17
19663.0	7.75496429417267e+17
19664.0	7.753973515681791e+17
19665.0	7.752977038529878e+17
