# Flux units: erg / (cm m2 s)
# Wavelength units: Angstrom
wave	flux
19000.0	5.612221524606975e+17
19001.0	5.6111244205096954e+17
19002.0	5.6102131010109434e+17
19003.0	5.609205239119871e+17
19004.0	5.6082028738641914e+17
19005.0	5.607185276294484e+17
19006.0	5.606177979935402e+17
19007.0	5.6051688765303456e+17
19008.0	5.6041284577525754e+17
19009.0	5.6030228217419085e+17
19010.0	5.6019784694060365e+17
19011.0	5.601102861609641e+17
19012.0	5.600065246724094e+17
19013.0	5.5991459230952096e+17
19014.0	5.598103240791379e+17
19015.0	5.5971063183441914e+17
19016.0	5.5961357969435296e+17
19017.0	5.59514332115763e+17
19018.0	5.594133877314901e+17
19019.0	5.593135091198634e+17
19020.0	5.592126790303743e+17
19021.0	5.5911390498870605e+17
19022.0	5.5901318772599456e+17
19023.0	5.589095893958655e+17
19024.0	5.588102900176211e+17
19025.0	5.5871213009196365e+17
19026.0	5.5861176368278176e+17
19027.0	5.585116071985151e+17
19028.0	5.5841162575653536e+17
19029.0	5.5831050122690554e+17
19030.0	5.5821241672881485e+17
19031.0	5.58112434238259e+17
19032.0	5.5801102659310925e+17
19033.0	5.5790143774829216e+17
19034.0	5.578031603122175e+17
19035.0	5.5767534442031776e+17
19036.0	5.574821688989011e+17
19037.0	5.5748277777203194e+17
19038.0	5.574036351003306e+17
19039.0	5.57310018724386e+17
19040.0	5.5721220496861856e+17
19041.0	5.571123635464874e+17
19042.0	5.5697653164059296e+17
19043.0	5.569138301512362e+17
19044.0	5.568130014598484e+17
19045.0	5.567133413015551e+17
19046.0	5.5661042293800954e+17
19047.0	5.565090412276393e+17
19048.0	5.564020844483924e+17
19049.0	5.562457100997972e+17
19050.0	5.562047326584831e+17
19051.0	5.5609315186879136e+17
19052.0	5.5600244647963296e+17
19053.0	5.559127521973589e+17
19054.0	5.558159726870526e+17
19055.0	5.556863540133888e+17
19056.0	5.5561306491234976e+17
19057.0	5.5551840981701965e+17
19058.0	5.553881481565524e+17
19059.0	5.553080673588564e+17
19060.0	5.5522020298151245e+17
19061.0	5.5512100783172256e+17
19062.0	5.550212810539007e+17
19063.0	5.549211302319445e+17
19064.0	5.5481755490058234e+17
19065.0	5.547108868292607e+17
19066.0	5.546074223673343e+17
19067.0	5.5452364310227616e+17
19068.0	5.544257257472e+17
19069.0	5.543265280808277e+17
19070.0	5.5422533147907405e+17
19071.0	5.541275773523283e+17
19072.0	5.540176431764821e+17
19073.0	5.539296529001129e+17
19074.0	5.538304772538367e+17
19075.0	5.5373115438749005e+17
19076.0	5.5363148926593696e+17
19077.0	5.53531407999522e+17
19078.0	5.534310878674943e+17
19079.0	5.533342316713301e+17
19080.0	5.5323433152894285e+17
19081.0	5.531318716028244e+17
19082.0	5.5303639526277114e+17
19083.0	5.5293036227898016e+17
19084.0	5.528199609275732e+17
19085.0	5.527385623494655e+17
19086.0	5.5259394260773536e+17
19087.0	5.5251527787697485e+17
19088.0	5.52421039415842e+17
19089.0	5.523282591743999e+17
19090.0	5.522426662922921e+17
19091.0	5.521434296188928e+17
19092.0	5.520196312410795e+17
19093.0	5.519491143652692e+17
19094.0	5.5185044231509325e+17
19095.0	5.517516565992788e+17
19096.0	5.516526188057941e+17
19097.0	5.51554008621602e+17
19098.0	5.5144252695729485e+17
19099.0	5.513410577257813e+17
19100.0	5.5125603093490336e+17
19101.0	5.5115693260363085e+17
19102.0	5.510552883298303e+17
19103.0	5.509610128190121e+17
19104.0	5.508632204541952e+17
19105.0	5.5073671073846605e+17
19106.0	5.5066538722809165e+17
19107.0	5.5055927168641696e+17
19108.0	5.504567049453567e+17
19109.0	5.5036759968317434e+17
19110.0	5.502698628928853e+17
19111.0	5.501644752726697e+17
19112.0	5.5006457450113696e+17
19113.0	5.4997530062793376e+17
19114.0	5.498706105903785e+17
19115.0	5.4977358172869965e+17
19116.0	5.496746462063274e+17
19117.0	5.4956999216988154e+17
19118.0	5.494144440991744e+17
19119.0	5.4884972251927846e+17
19120.0	5.492475278568105e+17
19121.0	5.491791658046804e+17
19122.0	5.490865192217258e+17
19123.0	5.489895181123583e+17
19124.0	5.488887262609407e+17
19125.0	5.487880712137385e+17
19126.0	5.48674463736354e+17
19127.0	5.4853709832301216e+17
19128.0	5.484758965769556e+17
19129.0	5.483886503002112e+17
19130.0	5.483015215338836e+17
19131.0	5.4820647783628794e+17
19132.0	5.4810919626779296e+17
19133.0	5.480085125595135e+17
19134.0	5.4791335435741856e+17
19135.0	5.47815557308962e+17
19136.0	5.4771694565676365e+17
19137.0	5.476160956443306e+17
19138.0	5.4752028110356474e+17
19139.0	5.4742437911156045e+17
19140.0	5.473271818485758e+17
19141.0	5.4722947623594656e+17
19142.0	5.471292366345557e+17
19143.0	5.4703187062074016e+17
19144.0	5.4693225520168954e+17
19145.0	5.4683739248831136e+17
19146.0	5.4668438015399245e+17
19147.0	5.466397440212992e+17
19148.0	5.465348718111402e+17
19149.0	5.4643530951994016e+17
19150.0	5.463497926945449e+17
19151.0	5.462515543354026e+17
19152.0	5.461536549459285e+17
19153.0	5.460327403618303e+17
19154.0	5.459541431593642e+17
19155.0	5.458597075659434e+17
19156.0	5.4576287597636256e+17
19157.0	5.4565861375781536e+17
19158.0	5.455521964359679e+17
19159.0	5.454693714449747e+17
19160.0	5.45371330777361e+17
19161.0	5.452735372940628e+17
19162.0	5.451739270479871e+17
19163.0	5.4507807986155514e+17
19164.0	5.449821245319849e+17
19165.0	5.4486135737767245e+17
19166.0	5.447832858613076e+17
19167.0	5.446897788168874e+17
19168.0	5.4459418720337914e+17
19169.0	5.4449732702262605e+17
19170.0	5.444003191324671e+17
19171.0	5.443027506735785e+17
19172.0	5.442059229287764e+17
19173.0	5.441083479687167e+17
19174.0	5.4400955435362976e+17
19175.0	5.4391336568094714e+17
19176.0	5.4381668529602554e+17
19177.0	5.437067425218558e+17
19178.0	5.4362282491467085e+17
19179.0	5.4352542415803725e+17
19180.0	5.434268791952724e+17
19181.0	5.433250758874453e+17
19182.0	5.432307692688724e+17
19183.0	5.431370139915604e+17
19184.0	5.4304028900720634e+17
19185.0	5.4294273571771725e+17
19186.0	5.428462886759081e+17
19187.0	5.427439993181524e+17
19188.0	5.426519560858283e+17
19189.0	5.4255490086993914e+17
19190.0	5.4245761077302605e+17
19191.0	5.423575866190505e+17
19192.0	5.4226243813376e+17
19193.0	5.421610722219347e+17
19194.0	5.420598231913813e+17
19195.0	5.41966034149922e+17
19196.0	5.418640887250943e+17
19197.0	5.417608600529578e+17
19198.0	5.4165216892900685e+17
19199.0	5.4153341622900045e+17
19200.0	5.4144079404291405e+17
19201.0	5.4136289973589325e+17
19202.0	5.412778700789077e+17
19203.0	5.411876425607851e+17
19204.0	5.410951574585343e+17
19205.0	5.4099998471618554e+17
19206.0	5.409052943187967e+17
19207.0	5.407977529933823e+17
19208.0	5.407062220952915e+17
19209.0	5.4061734731011405e+17
19210.0	5.405223807178068e+17
19211.0	5.4042763208949754e+17
19212.0	5.4033077295732045e+17
19213.0	5.402261403118249e+17
19214.0	5.4013441850299725e+17
19215.0	5.400400869982206e+17
19216.0	5.399422725434026e+17
19217.0	5.3983936753172474e+17
19218.0	5.3973048577665696e+17
19219.0	5.3963261574731085e+17
19220.0	5.39551964664081e+17
19221.0	5.3945437523367245e+17
19222.0	5.393624552439807e+17
19223.0	5.392681785447765e+17
19224.0	5.391701566117204e+17
19225.0	5.390762306262357e+17
19226.0	5.389810155913215e+17
19227.0	5.388862108292436e+17
19228.0	5.38792743211281e+17
19229.0	5.3869679990538234e+17
19230.0	5.3860035859578874e+17
19231.0	5.3850346744709114e+17
19232.0	5.384083179132245e+17
19233.0	5.383078076394154e+17
19234.0	5.3821612973096954e+17
19235.0	5.3811752080506874e+17
19236.0	5.3802451518969165e+17
19237.0	5.3792766004210336e+17
19238.0	5.3782640604829e+17
19239.0	5.3773684877994656e+17
19240.0	5.376408991825918e+17
19241.0	5.375436582289407e+17
19242.0	5.374481137314474e+17
19243.0	5.3733966273140045e+17
19244.0	5.3725794419780256e+17
19245.0	5.3716146555890336e+17
19246.0	5.370658329111209e+17
19247.0	5.369695152635903e+17
19248.0	5.3687462388913485e+17
19249.0	5.367780875086506e+17
19250.0	5.3667703379285325e+17
19251.0	5.365759992310441e+17
19252.0	5.3646433252802554e+17
19253.0	5.363941360970409e+17
19254.0	5.363001416744958e+17
19255.0	5.361867576137044e+17
19256.0	5.3610777796061856e+17
19257.0	5.360127780934996e+17
19258.0	5.3591713859502074e+17
19259.0	5.3581391565509965e+17
19260.0	5.357194356020564e+17
19261.0	5.3562721690801485e+17
19262.0	5.3552565987573754e+17
19263.0	5.354250366353407e+17
19264.0	5.353175060054014e+17
19265.0	5.352285766942719e+17
19266.0	5.3513210882075296e+17
19267.0	5.350539916563796e+17
19268.0	5.3495935767237965e+17
19269.0	5.3486364645130234e+17
19270.0	5.3476429625207456e+17
19271.0	5.3466233964243616e+17
19272.0	5.345747518794409e+17
19273.0	5.344673672112809e+17
19274.0	5.343530789983572e+17
19275.0	5.342932420788224e+17
19276.0	5.341964762000041e+17
19277.0	5.3410171575773856e+17
19278.0	5.340058048877908e+17
19279.0	5.339088397795326e+17
19280.0	5.3381322530706765e+17
19281.0	5.337190306764118e+17
19282.0	5.3362502940317e+17
19283.0	5.335287722934271e+17
19284.0	5.334313148437845e+17
19285.0	5.3333373303302816e+17
19286.0	5.3323580078817274e+17
19287.0	5.3313608973899085e+17
19288.0	5.3298077060737696e+17
19289.0	5.328678207968596e+17
19290.0	5.3284894831629645e+17
19291.0	5.3274213344433485e+17
19292.0	5.3267184928249165e+17
19293.0	5.325778748527955e+17
19294.0	5.3248212329649485e+17
19295.0	5.3238858465498445e+17
19296.0	5.322793168142336e+17
19297.0	5.3219472846793376e+17
19298.0	5.321007141224447e+17
19299.0	5.319928887727445e+17
19300.0	5.319124515990185e+17
19301.0	5.3181787486726816e+17
19302.0	5.317214643159039e+17
19303.0	5.316224000283989e+17
19304.0	5.3153168366414483e+17
19305.0	5.3143538440164685e+17
19306.0	5.3134063178874874e+17
19307.0	5.3124259216971085e+17
19308.0	5.311477907630762e+17
19309.0	5.3105282242314214e+17
19310.0	5.3095547080977056e+17
19311.0	5.3085840706546336e+17
19312.0	5.3076150417271443e+17
19313.0	5.3064984718650016e+17
19314.0	5.300480940965888e+17
19315.0	5.2998042333566304e+17
19316.0	5.3034770078105594e+17
19317.0	5.302859730692778e+17
19318.0	5.301963607856468e+17
19319.0	5.301047401993556e+17
19320.0	5.3000497721070925e+17
19321.0	5.299029092422998e+17
19322.0	5.298196338529621e+17
19323.0	5.29724832935663e+17
19324.0	5.2963041411945805e+17
19325.0	5.295359298721108e+17
19326.0	5.2944113797256525e+17
19327.0	5.2934590902654285e+17
19328.0	5.2922627601203194e+17
19329.0	5.2915605483465376e+17
19330.0	5.2906036815025485e+17
19331.0	5.2896192748584954e+17
19332.0	5.2887090486749856e+17
19333.0	5.2877478344349005e+17
19334.0	5.286801658871807e+17
19335.0	5.2853517145429325e+17
19336.0	5.2848931988220576e+17
19337.0	5.283938132033535e+17
19338.0	5.2828050491965434e+17
19339.0	5.2820097797980154e+17
19340.0	5.2809276528612685e+17
19341.0	5.279797220125354e+17
19342.0	5.278949032591359e+17
19343.0	5.278075715583999e+17
19344.0	5.27680591171857e+17
19345.0	5.275336886801749e+17
19346.0	5.274565401903103e+17
19347.0	5.273925898469374e+17
19348.0	5.273339092271102e+17
19349.0	5.272400841845417e+17
19350.0	5.2713751178117114e+17
19351.0	5.2705064411026765e+17
19352.0	5.269292520046591e+17
19353.0	5.2686369587199994e+17
19354.0	5.267682484027392e+17
19355.0	5.26663194509312e+17
19356.0	5.26575710834961e+17
19357.0	5.264794182833492e+17
19358.0	5.263826665952596e+17
19359.0	5.2627905617155405e+17
19360.0	5.261679761118549e+17
19361.0	5.2609222453493766e+17
19362.0	5.2599620433346554e+17
19363.0	5.25898390437888e+17
19364.0	5.258014428758015e+17
19365.0	5.2570430698946554e+17
19366.0	5.2560698173030394e+17
19367.0	5.255094450782207e+17
19368.0	5.25411629015586e+17
19369.0	5.253119886404266e+17
19370.0	5.252144532466345e+17
19371.0	5.251127654918826e+17
19372.0	5.250192350292649e+17
19373.0	5.249194869303978e+17
19374.0	5.248216477990911e+17
19375.0	5.247226441192789e+17
19376.0	5.2462276522803194e+17
19377.0	5.245224272003072e+17
19378.0	5.244225503363072e+17
19379.0	5.2432250367290016e+17
19380.0	5.24221961941811e+17
19381.0	5.2412013675369805e+17
19382.0	5.2401163975611725e+17
19383.0	5.239128634774869e+17
19384.0	5.23813646377506e+17
19385.0	5.237117727451817e+17
19386.0	5.2360919677665274e+17
19387.0	5.235048736707925e+17
19388.0	5.23398911430929e+17
19389.0	5.232907509563391e+17
19390.0	5.2317089151931725e+17
19391.0	5.2297123412049914e+17
19392.0	5.2293141186041165e+17
19393.0	5.2286124989262496e+17
19394.0	5.227587538255871e+17
19395.0	5.226437582432938e+17
19396.0	5.2253973915456845e+17
19397.0	5.2242903189858976e+17
19398.0	5.223031846032724e+17
19399.0	5.221697286307839e+17
19400.0	5.220652509648213e+17
19401.0	5.2196623547105274e+17
19402.0	5.2185176186989216e+17
19403.0	5.217315182346239e+17
19404.0	5.2161195589413536e+17
19405.0	5.2148674298729805e+17
19406.0	5.2136079405001376e+17
19407.0	5.212204655007059e+17
19408.0	5.2107919784673274e+17
19409.0	5.209602076093098e+17
19410.0	5.208337559846911e+17
19411.0	5.206972191561044e+17
19412.0	5.205546781813419e+17
19413.0	5.2039928795627514e+17
19414.0	5.2025415720850765e+17
19415.0	5.2009725074254496e+17
19416.0	5.199225170165759e+17
19417.0	5.1976705842435405e+17
19418.0	5.1959512264867834e+17
19419.0	5.194167110074367e+17
19420.0	5.1923242629201914e+17
19421.0	5.190374771392511e+17
19422.0	5.188245358204244e+17
19423.0	5.1860971167853216e+17
19424.0	5.183801570710868e+17
19425.0	5.181388738614612e+17
19426.0	5.178798678299988e+17
19427.0	5.1760545968510285e+17
19428.0	5.1731197563589965e+17
19429.0	5.1699578215683405e+17
19430.0	5.1665072662336845e+17
19431.0	5.162750879727615e+17
19432.0	5.15897227809041e+17
19433.0	5.1546368518389766e+17
19434.0	5.149843457223338e+17
19435.0	5.144559062701395e+17
19436.0	5.138704821649407e+17
19437.0	5.132092632814934e+17
19438.0	5.1231335505373856e+17
19439.0	5.1162057494145696e+17
19440.0	5.107819119727957e+17
19441.0	5.097506677456894e+17
19442.0	5.085727514340011e+17
19443.0	5.071633385521151e+17
19444.0	5.0551662956598605e+17
19445.0	5.0358641841493325e+17
19446.0	5.0116613373951994e+17
19447.0	4.9817840062737056e+17
19448.0	4.9417057803960346e+17
19449.0	4.883749864996862e+17
19450.0	4.774157246005239e+17
19451.0	4.676957957171888e+17
19452.0	4.83995992404787e+17
19453.0	4.9131665378071904e+17
19454.0	4.958413836517374e+17
19455.0	4.990767435087872e+17
19456.0	5.0155664357457926e+17
19457.0	5.0348596595261434e+17
19458.0	5.035376146120716e+17
19459.0	5.061314556723203e+17
19460.0	5.075471823099221e+17
19461.0	5.084880036342442e+17
19462.0	5.092915307085824e+17
19463.0	5.099774738257236e+17
19464.0	5.1055958855516154e+17
19465.0	5.1104274119830176e+17
19466.0	5.114661362641577e+17
19467.0	5.118290277957632e+17
19468.0	5.121419393717589e+17
19469.0	5.123910176953683e+17
19470.0	5.1263625592395085e+17
19471.0	5.128359077303636e+17
19472.0	5.1300066628293965e+17
19473.0	5.131369307613866e+17
19474.0	5.1323399863009274e+17
19475.0	5.1331555253725856e+17
19476.0	5.1342403121971194e+17
19477.0	5.1350027248162125e+17
19478.0	5.135552412123134e+17
19479.0	5.135778771020457e+17
19480.0	5.1362210317161805e+17
19481.0	5.1363943319688525e+17
19482.0	5.1364770478380365e+17
19483.0	5.13645254681122e+17
19484.0	5.136354205761534e+17
19485.0	5.136185538816681e+17
19486.0	5.1358211866187085e+17
19487.0	5.1357504077387085e+17
19488.0	5.135406419585706e+17
19489.0	5.1348111611658234e+17
19490.0	5.134223218311167e+17
19491.0	5.1341639024639994e+17
19492.0	5.133829429788672e+17
19493.0	5.1333754159540896e+17
19494.0	5.132836379383124e+17
19495.0	5.132235128700927e+17
19496.0	5.131457048259243e+17
19497.0	5.1308720386211834e+17
19498.0	5.1295686516626765e+17
19499.0	5.1280749523544736e+17
19500.0	5.1289272342282234e+17
19501.0	5.1284864079844685e+17
19502.0	5.1278825785043616e+17
19503.0	5.1272211025100794e+17
19504.0	5.1265224628852045e+17
19505.0	5.1258023568124576e+17
19506.0	5.125080172462079e+17
19507.0	5.1243146273969485e+17
19508.0	5.1235466021000525e+17
19509.0	5.122686029485396e+17
19510.0	5.1214092476962125e+17
19511.0	5.1138873954140134e+17
19512.0	5.119162592526336e+17
19513.0	5.118738240110591e+17
19514.0	5.118134298782377e+17
19515.0	5.117866226832724e+17
19516.0	5.1172315223818234e+17
19517.0	5.11650644885504e+17
19518.0	5.1156996073717754e+17
19519.0	5.1148982834954234e+17
19520.0	5.1139525280617805e+17
19521.0	5.113335911546878e+17
19522.0	5.1124604582406816e+17
19523.0	5.111674700125525e+17
19524.0	5.11075206369553e+17
19525.0	5.110053017223167e+17
19526.0	5.1092237970309114e+17
19527.0	5.1083769936172365e+17
19528.0	5.1075241084627616e+17
19529.0	5.106672854193493e+17
19530.0	5.105861338857471e+17
19531.0	5.1050119678306976e+17
19532.0	5.104160245197481e+17
19533.0	5.1033060814793376e+17
19534.0	5.102447511644841e+17
19535.0	5.1015686085236045e+17
19536.0	5.100684744239787e+17
19537.0	5.099828843380736e+17
19538.0	5.0986864820442445e+17
19539.0	5.0979421839250765e+17
19540.0	5.0972069979313485e+17
19541.0	5.096352142852096e+17
19542.0	5.095514496303103e+17
19543.0	5.094474604609534e+17
19544.0	5.093719989201578e+17
19545.0	5.092608316189353e+17
19546.0	5.091709430704809e+17
19547.0	5.0911244189696e+17
19548.0	5.0903262198497274e+17
19549.0	5.089389105381375e+17
19550.0	5.088618188810921e+17
19551.0	5.087750892027903e+17
19552.0	5.08687822234146e+17
19553.0	5.085995819073535e+17
19554.0	5.0851214360139085e+17
19555.0	5.084224166734507e+17
19556.0	5.083375952636587e+17
19557.0	5.0825161972121594e+17
19558.0	5.0816420091876685e+17
19559.0	5.080768141328383e+17
19560.0	5.07980440141824e+17
19561.0	5.078992398843903e+17
19562.0	5.078068247571113e+17
19563.0	5.0772638877177165e+17
19564.0	5.0763859073433594e+17
19565.0	5.075506635822421e+17
19566.0	5.0746149225977165e+17
19567.0	5.0737476663596365e+17
19568.0	5.072850151014398e+17
19569.0	5.0719781622033056e+17
19570.0	5.071117514790228e+17
19571.0	5.0702388136946336e+17
19572.0	5.069330667186858e+17
19573.0	5.0684547874597536e+17
19574.0	5.0675093053549216e+17
19575.0	5.0667240715277645e+17
19576.0	5.0658260717404154e+17
19577.0	5.064905061302271e+17
19578.0	5.0640663144475296e+17
19579.0	5.063171867235668e+17
19580.0	5.062296692151636e+17
19581.0	5.0614356700474016e+17
19582.0	5.060559414231038e+17
19583.0	5.059678696374272e+17
19584.0	5.0587954479540896e+17
19585.0	5.0578062933579085e+17
19586.0	5.0568979650969594e+17
19587.0	5.056093547222355e+17
19588.0	5.055107157371562e+17
19589.0	5.05430526726417e+17
19590.0	5.053412420179285e+17
19591.0	5.0526093039370234e+17
19592.0	5.0517457848238074e+17
19593.0	5.050833290919935e+17
19594.0	5.049744070017023e+17
19595.0	5.049087193776127e+17
19596.0	5.0482101263619405e+17
19597.0	5.0473032269605523e+17
19598.0	5.046144723845119e+17
19599.0	5.04552741736721e+17
19600.0	5.0446843336021325e+17
19601.0	5.0437584724514125e+17
19602.0	5.042845612944042e+17
19603.0	5.041912404770815e+17
19604.0	5.041085004906494e+17
19605.0	5.040096403259392e+17
19606.0	5.039399184105471e+17
19607.0	5.038538854760447e+17
19608.0	5.037651800009387e+17
19609.0	5.0367557149218125e+17
19610.0	5.03581825442338e+17
19611.0	5.034892313580883e+17
19612.0	5.034146549552468e+17
19613.0	5.0332557702594554e+17
19614.0	5.032345148413267e+17
19615.0	5.031487037156009e+17
19616.0	5.0304939301273594e+17
19617.0	5.0294990740739405e+17
19618.0	5.028459500448426e+17
19619.0	5.027471216869374e+17
19620.0	5.026728633521493e+17
19621.0	5.02593577095441e+17
19622.0	5.025311765473961e+17
19623.0	5.0244447203491834e+17
19624.0	5.023546224235861e+17
19625.0	5.0227051970778445e+17
19626.0	5.0218163178045434e+17
19627.0	5.020925255396009e+17
19628.0	5.020007074015913e+17
19629.0	5.0185602194909856e+17
19630.0	5.0180347654744723e+17
19631.0	5.017015756521471e+17
19632.0	5.0163909632109216e+17
19633.0	5.0155829543130445e+17
19634.0	5.0147830872582816e+17
19635.0	5.013877918706345e+17
19636.0	5.0128515934890656e+17
19637.0	5.011694859670869e+17
19638.0	5.011292102328319e+17
19639.0	5.0104071866722976e+17
19640.0	5.0092602912931834e+17
19641.0	5.008007787533653e+17
19642.0	5.0077394583333536e+17
19643.0	5.0068926031899296e+17
19644.0	5.0059837324656634e+17
19645.0	5.0051010279069e+17
19646.0	5.0040807480797856e+17
19647.0	5.003440486875134e+17
19648.0	5.002574941214036e+17
19649.0	5.001703114582699e+17
19650.0	5.0008352424809805e+17
19651.0	4.99995636871987e+17
19652.0	4.999082488277674e+17
19653.0	4.998215354373461e+17
19654.0	4.997334941302782e+17
19655.0	4.9964610349957114e+17
