# Flux units: erg / (cm m2 s)
# Wavelength units: Angstrom
wave	flux
19000.0	6.052939147771903e+17
19001.0	6.051724373174953e+17
19002.0	6.050681403561302e+17
19003.0	6.049546782113791e+17
19004.0	6.0484193091584e+17
19005.0	6.047287117611007e+17
19006.0	6.046164017217533e+17
19007.0	6.044968151941119e+17
19008.0	6.043852743202131e+17
19009.0	6.042686061193897e+17
19010.0	6.041243312193535e+17
19011.0	6.04047033901602e+17
19012.0	6.039053431122601e+17
19013.0	6.038250614773076e+17
19014.0	6.03707540644386e+17
19015.0	6.035961957143892e+17
19016.0	6.034819597205503e+17
19017.0	6.033768004801876e+17
19018.0	6.032630693407401e+17
19019.0	6.031516857532415e+17
19020.0	6.030373539195561e+17
19021.0	6.029262827378003e+17
19022.0	6.028139033526272e+17
19023.0	6.026976248725501e+17
19024.0	6.025864066105344e+17
19025.0	6.024731922792447e+17
19026.0	6.023577365818025e+17
19027.0	6.022238586623316e+17
19028.0	6.021369491182931e+17
19029.0	6.020238916539734e+17
19030.0	6.01912495972898e+17
19031.0	6.017997915990698e+17
19032.0	6.016866821952852e+17
19033.0	6.015664875634687e+17
19034.0	6.014603827871743e+17
19035.0	6.013440690050388e+17
19036.0	5.993653403822761e+17
19037.0	6.011217885790207e+17
19038.0	6.010088449900543e+17
19039.0	6.008983991091199e+17
19040.0	6.007858244091904e+17
19041.0	6.006723936518143e+17
19042.0	6.005505487011839e+17
19043.0	6.004481693057023e+17
19044.0	6.003344002777087e+17
19045.0	6.002221154041855e+17
19046.0	6.001059911346857e+17
19047.0	5.999960573782698e+17
19048.0	5.998666740050601e+17
19049.0	5.997627817940307e+17
19050.0	5.996566746409642e+17
19051.0	5.99283318810214e+17
19052.0	5.993815962462889e+17
19053.0	5.99321470968354e+17
19054.0	5.992106336190463e+17
19055.0	5.990758119811754e+17
19056.0	5.989832614477823e+17
19057.0	5.988729130145108e+17
19058.0	5.987568759865341e+17
19059.0	5.986479404744704e+17
19060.0	5.985346267381759e+17
19061.0	5.984243610025983e+17
19062.0	5.983116261501609e+17
19063.0	5.981995152004435e+17
19064.0	5.980765674274815e+17
19065.0	5.979603676605097e+17
19066.0	5.978573105354067e+17
19067.0	5.977505318742698e+17
19068.0	5.976385538140842e+17
19069.0	5.975264107080361e+17
19070.0	5.974121712888489e+17
19071.0	5.973013545615359e+17
19072.0	5.971888466908499e+17
19073.0	5.970774619848701e+17
19074.0	5.969658335898282e+17
19075.0	5.968537526293843e+17
19076.0	5.967399130671786e+17
19077.0	5.966282515371348e+17
19078.0	5.965145989709823e+17
19079.0	5.964053624477012e+17
19080.0	5.962920734578004e+17
19081.0	5.961781133792598e+17
19082.0	5.960658173908308e+17
19083.0	5.959487726114132e+17
19084.0	5.958264658679124e+17
19085.0	5.957337040115028e+17
19086.0	5.955883408293887e+17
19087.0	5.954569453087402e+17
19088.0	5.95388698530065e+17
19089.0	5.952448305474218e+17
19090.0	5.95171622326545e+17
19091.0	5.950597694663338e+17
19092.0	5.949333833427625e+17
19093.0	5.948390513486506e+17
19094.0	5.947272284777129e+17
19095.0	5.946154577559551e+17
19096.0	5.945023513580884e+17
19097.0	5.94391928475921e+17
19098.0	5.942795393040383e+17
19099.0	5.941676817601876e+17
19100.0	5.94053805777442e+17
19101.0	5.939442446150314e+17
19102.0	5.938247037353983e+17
19103.0	5.937223793552042e+17
19104.0	5.936107854233599e+17
19105.0	5.934969586537812e+17
19106.0	5.933783333208064e+17
19107.0	5.932741147230207e+17
19108.0	5.931635128139775e+17
19109.0	5.929119374114813e+17
19110.0	5.929367139341652e+17
19111.0	5.928288856484521e+17
19112.0	5.927178756336298e+17
19113.0	5.926073454471849e+17
19114.0	5.924957341788841e+17
19115.0	5.923768916508671e+17
19116.0	5.922712531413673e+17
19117.0	5.921597891630419e+17
19118.0	5.920350859340457e+17
19119.0	5.914725762902693e+17
19120.0	5.918120039066282e+17
19121.0	5.917052666991956e+17
19122.0	5.916053130794324e+17
19123.0	5.914940274988372e+17
19124.0	5.913745240184148e+17
19125.0	5.912701968580607e+17
19126.0	5.911596940044969e+17
19127.0	5.908943677860522e+17
19128.0	5.908966320111615e+17
19129.0	5.908202983347539e+17
19130.0	5.907138966716415e+17
19131.0	5.906035823520425e+17
19132.0	5.904932067956052e+17
19133.0	5.903655992907092e+17
19134.0	5.90252989288721e+17
19135.0	5.901593723535359e+17
19136.0	5.900494133613907e+17
19137.0	5.899242651167402e+17
19138.0	5.898246140461055e+17
19139.0	5.897162790884692e+17
19140.0	5.896054983622655e+17
19141.0	5.89494523859217e+17
19142.0	5.893814947064489e+17
19143.0	5.892680563993257e+17
19144.0	5.891585192143532e+17
19145.0	5.890505552429055e+17
19146.0	5.88888961851938e+17
19147.0	5.888195844287146e+17
19148.0	5.887167156278611e+17
19149.0	5.88605446894387e+17
19150.0	5.88495952351505e+17
19151.0	5.883858852162217e+17
19152.0	5.882729392504831e+17
19153.0	5.8816128366237e+17
19154.0	5.880422802827946e+17
19155.0	5.87942379720977e+17
19156.0	5.878318709254825e+17
19157.0	5.877185613834921e+17
19158.0	5.875137159801512e+17
19159.0	5.87497932394769e+17
19160.0	5.873865139945472e+17
19161.0	5.872749209015635e+17
19162.0	5.869497764981418e+17
19163.0	5.870503937267028e+17
19164.0	5.869468709639508e+17
19165.0	5.868302665864532e+17
19166.0	5.867098862867798e+17
19167.0	5.865945355867476e+17
19168.0	5.865024244766036e+17
19169.0	5.863888221721942e+17
19170.0	5.862835447922687e+17
19171.0	5.861594748332714e+17
19172.0	5.860615483905366e+17
19173.0	5.859515522088959e+17
19174.0	5.858369896884905e+17
19175.0	5.857314307309567e+17
19176.0	5.856212648897193e+17
19177.0	5.854977143952724e+17
19178.0	5.853945946352298e+17
19179.0	5.85270879724066e+17
19180.0	5.851760182689791e+17
19181.0	5.850587462281898e+17
19182.0	5.849565664815786e+17
19183.0	5.848482838129321e+17
19184.0	5.847365038637055e+17
19185.0	5.846273799574868e+17
19186.0	5.845174163516074e+17
19187.0	5.844014065167018e+17
19188.0	5.84296252309504e+17
19189.0	5.841849217799507e+17
19190.0	5.840737540592979e+17
19191.0	5.839612600997206e+17
19192.0	5.838557913896276e+17
19193.0	5.837442099008852e+17
19194.0	5.836335501803519e+17
19195.0	5.835249855146665e+17
19196.0	5.834135599142228e+17
19197.0	5.83302761222417e+17
19198.0	5.831898918027264e+17
19199.0	5.818097198607014e+17
19200.0	5.820851767913134e+17
19201.0	5.828600568392362e+17
19202.0	5.827529083103913e+17
19203.0	5.82639944798481e+17
19204.0	5.825307754539689e+17
19205.0	5.824225337496916e+17
19206.0	5.823121498046463e+17
19207.0	5.821933340502698e+17
19208.0	5.82074814833186e+17
19209.0	5.819822816362495e+17
19210.0	5.818725306116777e+17
19211.0	5.817631891608916e+17
19212.0	5.816530809214292e+17
19213.0	5.815261325514068e+17
19214.0	5.81409179767057e+17
19215.0	5.813175907079508e+17
19216.0	5.812125500964863e+17
19217.0	5.811026686989652e+17
19218.0	5.809204414294697e+17
19219.0	5.808697173344255e+17
19220.0	5.807697429528576e+17
19221.0	5.80634394230784e+17
19222.0	5.805513765814272e+17
19223.0	5.804403757241683e+17
19224.0	5.803280139550719e+17
19225.0	5.802088693672618e+17
19226.0	5.801101389463551e+17
19227.0	5.799998838363476e+17
19228.0	5.798919643245225e+17
19229.0	5.797818449002495e+17
19230.0	5.796700036442793e+17
19231.0	5.795595135833428e+17
19232.0	5.794506098780841e+17
19233.0	5.793355102071465e+17
19234.0	5.792293567769258e+17
19235.0	5.791194216224084e+17
19236.0	5.790111166540457e+17
19237.0	5.788996059791359e+17
19238.0	5.78781167222784e+17
19239.0	5.786807993455956e+17
19240.0	5.785672158456489e+17
19241.0	5.784575505945939e+17
19242.0	5.783487129496234e+17
19243.0	5.782265353207807e+17
19244.0	5.781301010715988e+17
19245.0	5.780194140181844e+17
19246.0	5.779080552469844e+17
19247.0	5.77799353008128e+17
19248.0	5.776892046431572e+17
19249.0	5.775779416418986e+17
19250.0	5.774665394596522e+17
19251.0	5.773466991067135e+17
19252.0	5.772254438053204e+17
19253.0	5.771355365922132e+17
19254.0	5.770267849304745e+17
19255.0	5.769021836230655e+17
19256.0	5.768016011373225e+17
19257.0	5.766959996775081e+17
19258.0	5.765856360049322e+17
19259.0	5.764694386846378e+17
19260.0	5.763286979051519e+17
19261.0	5.7625293905810765e+17
19262.0	5.761385975076179e+17
19263.0	5.7602712325324794e+17
19264.0	5.7587477089266323e+17
19265.0	5.7579404745768954e+17
19266.0	5.75681662689826e+17
19267.0	5.755903173896873e+17
19268.0	5.754795521824085e+17
19269.0	5.753687454515199e+17
19270.0	5.7525765937998496e+17
19271.0	5.751173826303317e+17
19272.0	5.75032940175906e+17
19273.0	5.74718129349154e+17
19274.0	5.7456168509549216e+17
19275.0	5.745296436887551e+17
19276.0	5.7441676965533005e+17
19277.0	5.743059662099796e+17
19278.0	5.741948350496767e+17
19279.0	5.740816490998442e+17
19280.0	5.739656443680086e+17
19281.0	5.7386005493186554e+17
19282.0	5.7374997905844896e+17
19283.0	5.736184716896938e+17
19284.0	5.7351157894348794e+17
19285.0	5.733987489502549e+17
19286.0	5.73300087665459e+17
19287.0	5.731910600884222e+17
19288.0	5.725255054131191e+17
19289.0	5.717876414960964e+17
19290.0	5.7285494806937594e+17
19291.0	5.7272125029526176e+17
19292.0	5.7263068891054074e+17
19293.0	5.7251767576603296e+17
19294.0	5.724049360901459e+17
19295.0	5.722932941335209e+17
19296.0	5.721795120332799e+17
19297.0	5.7206553993106765e+17
19298.0	5.7195250958991354e+17
19299.0	5.7184062939682125e+17
19300.0	5.717280762276522e+17
19301.0	5.716147559202815e+17
19302.0	5.7150025708339194e+17
19303.0	5.7138192737894394e+17
19304.0	5.712712761868287e+17
19305.0	5.7115898516165965e+17
19306.0	5.710453781736106e+17
19307.0	5.7092689593630714e+17
19308.0	5.7081441379068576e+17
19309.0	5.7065514816853325e+17
19310.0	5.705266802021716e+17
19311.0	5.7046565454697805e+17
19312.0	5.7035841080743245e+17
19313.0	5.702438684196863e+17
19314.0	5.681406608233828e+17
19315.0	5.6814139811212096e+17
19316.0	5.698923412848638e+17
19317.0	5.6978143200324256e+17
19318.0	5.696650942436692e+17
19319.0	5.6955029327708154e+17
19320.0	5.694331870511102e+17
19321.0	5.693161840050175e+17
19322.0	5.6919018403703456e+17
19323.0	5.69062813929745e+17
19324.0	5.6896385834461856e+17
19325.0	5.6880253646493e+17
19326.0	5.687288342249471e+17
19327.0	5.686097227721386e+17
19328.0	5.6849059307410765e+17
19329.0	5.683737009673556e+17
19330.0	5.6825111970665805e+17
19331.0	5.681309916244649e+17
19332.0	5.680144869315924e+17
19333.0	5.6787673745981414e+17
19334.0	5.675546955131562e+17
19335.0	5.6742980570753696e+17
19336.0	5.6731044651117216e+17
19337.0	5.6718858785914874e+17
19338.0	5.670481613029375e+17
19339.0	5.6694261394964474e+17
19340.0	5.668094905155583e+17
19341.0	5.6669010706213536e+17
19342.0	5.665348551791956e+17
19343.0	5.664443525147306e+17
19344.0	5.663173684232192e+17
19345.0	5.660255915955537e+17
19346.0	5.659842828741289e+17
19347.0	5.6593035544930976e+17
19348.0	5.658102794463913e+17
19349.0	5.656785945886719e+17
19350.0	5.6554845162700794e+17
19351.0	5.654187553587198e+17
19352.0	5.652822824233641e+17
19353.0	5.651588557307903e+17
19354.0	5.6502659268826445e+17
19355.0	5.6464924716564474e+17
19356.0	5.6448510154069325e+17
19357.0	5.6434883356699296e+17
19358.0	5.6420982167961594e+17
19359.0	5.640656054998356e+17
19360.0	5.6392847308008096e+17
19361.0	5.637899295566505e+17
19362.0	5.636516411168085e+17
19363.0	5.6350871922933754e+17
19364.0	5.633645230424063e+17
19365.0	5.6321933476276896e+17
19366.0	5.629980907492691e+17
19367.0	5.6259180369018874e+17
19368.0	5.62440038392354e+17
19369.0	5.622810419047081e+17
19370.0	5.621181926692181e+17
19371.0	5.619701499559934e+17
19372.0	5.618157931375274e+17
19373.0	5.616534152719017e+17
19374.0	5.6126455198078246e+17
19375.0	5.6092804765450234e+17
19376.0	5.607575954740565e+17
19377.0	5.6058415212571296e+17
19378.0	5.604081995350015e+17
19379.0	5.602188545316181e+17
19380.0	5.595809879250259e+17
19381.0	5.5939076994717e+17
19382.0	5.591922571739136e+17
19383.0	5.589922902354602e+17
19384.0	5.583699361224021e+17
19385.0	5.580481950471509e+17
19386.0	5.5783267136525645e+17
19387.0	5.5748693299909997e+17
19388.0	5.5707371149721594e+17
19389.0	5.5683815889524045e+17
19390.0	5.5659667051424403e+17
19391.0	5.547636757102571e+17
19392.0	5.560546160716455e+17
19393.0	5.558373237216596e+17
19394.0	5.5557002464242336e+17
19395.0	5.552931921199103e+17
19396.0	5.550126702875987e+17
19397.0	5.547273489831251e+17
19398.0	5.5442725394186234e+17
19399.0	5.540641266903721e+17
19400.0	5.5380230684016634e+17
19401.0	5.5348550973085005e+17
19402.0	5.531533195258537e+17
19403.0	5.5280808370722125e+17
19404.0	5.5243939718539936e+17
19405.0	5.520690281185279e+17
19406.0	5.5169162876900685e+17
19407.0	5.5130077549035514e+17
19408.0	5.50833670394129e+17
19409.0	5.5047785115811834e+17
19410.0	5.500482917935786e+17
19411.0	5.496040964052308e+17
19412.0	5.4914593335541754e+17
19413.0	5.4867175771122336e+17
19414.0	5.4817983177250106e+17
19415.0	5.47675546128657e+17
19416.0	5.4713462855215776e+17
19417.0	5.465928041671338e+17
19418.0	5.4605797678994765e+17
19419.0	5.454854247940094e+17
19420.0	5.449032430955177e+17
19421.0	5.442833580294143e+17
19422.0	5.4362182149734394e+17
19423.0	5.4298647000514554e+17
19424.0	5.423340871221247e+17
19425.0	5.4165941382021114e+17
19426.0	5.4089073735761894e+17
19427.0	5.401321809816234e+17
19428.0	5.393699318704809e+17
19429.0	5.384944231295657e+17
19430.0	5.3755410644991974e+17
19431.0	5.362860421021697e+17
19432.0	5.353510877003774e+17
19433.0	5.3381363166522086e+17
19434.0	5.3174748829450106e+17
19435.0	5.2873362327033165e+17
19436.0	5.248761376800772e+17
19437.0	5.227809139414356e+17
19438.0	5.181414891498163e+17
19439.0	5.180972128185003e+17
19440.0	5.1559137412819616e+17
19441.0	5.1283426705844896e+17
19442.0	5.098964848913065e+17
19443.0	5.063737211879427e+17
19444.0	5.010984340378964e+17
19445.0	4.918331559641097e+17
19446.0	4.845666941534208e+17
19447.0	4.76603243456102e+17
19448.0	4.6355749385448166e+17
19449.0	4.4325612975117626e+17
19450.0	3.9573672238776237e+17
19451.0	3.7843891692502694e+17
19452.0	4.235947682736822e+17
19453.0	4.542550720730472e+17
19454.0	4.710186358232411e+17
19455.0	4.802663393438378e+17
19456.0	4.872699822211074e+17
19457.0	4.9578009361558106e+17
19458.0	4.984077835479787e+17
19459.0	5.0659496240524077e+17
19460.0	5.098144705194665e+17
19461.0	5.124694142003883e+17
19462.0	5.149617512164011e+17
19463.0	5.17270879286067e+17
19464.0	5.193434905531732e+17
19465.0	5.212321625057963e+17
19466.0	5.2403022814248966e+17
19467.0	5.2741534059069466e+17
19468.0	5.296724855750649e+17
19469.0	5.311503746640553e+17
19470.0	5.323636636385279e+17
19471.0	5.332625125627221e+17
19472.0	5.340534490355027e+17
19473.0	5.3467472437357216e+17
19474.0	5.353241720127488e+17
19475.0	5.357807202555219e+17
19476.0	5.3643922046102195e+17
19477.0	5.3694464744488954e+17
19478.0	5.374064477252266e+17
19479.0	5.3784466343417165e+17
19480.0	5.382768886284288e+17
19481.0	5.3873096356003834e+17
19482.0	5.391192778167637e+17
19483.0	5.394922537134762e+17
19484.0	5.398503670939647e+17
19485.0	5.4018764561885856e+17
19486.0	5.405111003469141e+17
19487.0	5.40822062829841e+17
19488.0	5.411131967406079e+17
19489.0	5.413755724059989e+17
19490.0	5.415311102006611e+17
19491.0	5.41884459061521e+17
19492.0	5.421176402739199e+17
19493.0	5.4233379233245856e+17
19494.0	5.425359208753834e+17
19495.0	5.4272378710698656e+17
19496.0	5.4286599498410656e+17
19497.0	5.4306070687907834e+17
19498.0	5.4297111228142925e+17
19499.0	5.408787408792228e+17
19500.0	5.4350172717929805e+17
19501.0	5.436209784422399e+17
19502.0	5.4372980140714656e+17
19503.0	5.4383326719726925e+17
19504.0	5.4392532364165114e+17
19505.0	5.440102541033471e+17
19506.0	5.440866191671294e+17
19507.0	5.441534828740607e+17
19508.0	5.4421670201043616e+17
19509.0	5.4427100580413434e+17
19510.0	5.443012183545173e+17
19511.0	5.408002024669172e+17
19512.0	5.4396515387091584e+17
19513.0	5.4371392813356256e+17
19514.0	5.439143651136845e+17
19515.0	5.44616920261154e+17
19516.0	5.4477136522990925e+17
19517.0	5.4477335116294816e+17
19518.0	5.4484378156619085e+17
19519.0	5.452849947344894e+17
19520.0	5.4526978003653965e+17
19521.0	5.4525684508262394e+17
19522.0	5.4523444652059296e+17
19523.0	5.455019062416719e+17
19524.0	5.456229470044158e+17
19525.0	5.4558923053247136e+17
19526.0	5.455545961370964e+17
19527.0	5.4551615275444896e+17
19528.0	5.45475336024883e+17
19529.0	5.456992601287338e+17
19530.0	5.4575830768025594e+17
19531.0	5.4570851870528845e+17
19532.0	5.456569846901417e+17
19533.0	5.456037793846611e+17
19534.0	5.4554866546114554e+17
19535.0	5.454916989135529e+17
19536.0	5.454313241444351e+17
19537.0	5.4544524392093005e+17
19538.0	5.4561103273437856e+17
19539.0	5.455133507496618e+17
19540.0	5.4549182600096403e+17
19541.0	5.4542763546378234e+17
19542.0	5.45360017760802e+17
19543.0	5.452904757111466e+17
19544.0	5.45222356439313e+17
19545.0	5.4510890680756896e+17
19546.0	5.450056516414122e+17
19547.0	5.4500905392100685e+17
19548.0	5.449357275605673e+17
19549.0	5.448543233900543e+17
19550.0	5.4478750749818874e+17
19551.0	5.44856684293871e+17
19552.0	5.4488629370333856e+17
19553.0	5.4480618396494496e+17
19554.0	5.4472657404777805e+17
19555.0	5.446493878091775e+17
19556.0	5.4457088462902605e+17
19557.0	5.4449013001639245e+17
19558.0	5.444093290566996e+17
19559.0	5.443277485157034e+17
19560.0	5.442432139963049e+17
19561.0	5.441611329350315e+17
19562.0	5.440801283418794e+17
19563.0	5.439972372905983e+17
19564.0	5.4391339056715085e+17
19565.0	5.4382910190387194e+17
19566.0	5.4374175391525536e+17
19567.0	5.4365913626269005e+17
19568.0	5.435717036190377e+17
19569.0	5.434864513843199e+17
19570.0	5.434016634590549e+17
19571.0	5.433146092115285e+17
19572.0	5.432257520424277e+17
19573.0	5.431388353680724e+17
19574.0	5.4304594600482125e+17
19575.0	5.42965409845521e+17
19576.0	5.4287736273633274e+17
19577.0	5.4278632054456314e+17
19578.0	5.4269643493212154e+17
19579.0	5.4260880858152954e+17
19580.0	5.4258959097965203e+17
19581.0	5.426281588632234e+17
19582.0	5.425394893892266e+17
19583.0	5.424491535182507e+17
19584.0	5.4235720291013965e+17
19585.0	5.422586603241471e+17
19586.0	5.421644647148203e+17
19587.0	5.42077597393442e+17
19588.0	5.419534345306112e+17
19589.0	5.4190058560116045e+17
19590.0	5.418019196327252e+17
19591.0	5.4171851191309645e+17
19592.0	5.416271300526079e+17
19593.0	5.4153339483805005e+17
19594.0	5.414226697562793e+17
19595.0	5.413461231490388e+17
19596.0	5.411702840142507e+17
19597.0	5.4116005844090874e+17
19598.0	5.410373234589694e+17
19599.0	5.409785730039807e+17
19600.0	5.408861538222079e+17
19601.0	5.407870319329279e+17
19602.0	5.4069463561011194e+17
19603.0	5.4055118726758394e+17
19604.0	5.405051993806164e+17
19605.0	5.403934390048085e+17
19606.0	5.4032426759181645e+17
19607.0	5.402311262208e+17
19608.0	5.401354599486804e+17
19609.0	5.400384833759913e+17
19610.0	5.3994811192333645e+17
19611.0	5.3985303844618234e+17
19612.0	5.397602739333802e+17
19613.0	5.3966495313210016e+17
19614.0	5.3956796104048634e+17
19615.0	5.394761738704211e+17
19616.0	5.393671281879722e+17
19617.0	5.3928582405160954e+17
19618.0	5.391416928064852e+17
19619.0	5.390363523022847e+17
19620.0	5.389439686322857e+17
19621.0	5.389118625633621e+17
19622.0	5.38818186907921e+17
19623.0	5.3872308246282234e+17
19624.0	5.3862710287619405e+17
19625.0	5.385326128966315e+17
19626.0	5.384373826224126e+17
19627.0	5.383417736025428e+17
19628.0	5.382149156896768e+17
19629.0	5.381396844161706e+17
19630.0	5.379546204689749e+17
19631.0	5.3655741622736224e+17
19632.0	5.378631110317396e+17
19633.0	5.3776411455214925e+17
19634.0	5.3767352254900896e+17
19635.0	5.375745678027434e+17
19636.0	5.37480352829713e+17
19637.0	5.3735525030297594e+17
19638.0	5.3728989654548474e+17
19639.0	5.3719380147568634e+17
19640.0	5.3708790886126925e+17
19641.0	5.369243863001771e+17
19642.0	5.3690690835578854e+17
19643.0	5.368106708194645e+17
19644.0	5.3671033104411296e+17
19645.0	5.365958044549118e+17
19646.0	5.365224245471913e+17
19647.0	5.364279846196564e+17
19648.0	5.363320909463551e+17
19649.0	5.362358314598399e+17
19650.0	5.36140020134707e+17
19651.0	5.360434582388734e+17
19652.0	5.359476222372521e+17
19653.0	5.358509376580266e+17
19654.0	5.3575565020146336e+17
19655.0	5.356591056420864e+17
19656.0	5.355627747125929e+17
19657.0	5.354672136475988e+17
19658.0	5.3537089509130234e+17
19659.0	5.352747064885247e+17
