# Flux units: erg / (cm m2 s)
# Wavelength units: Angstrom
wave	flux
19000.0	5.866730755369641e+17
19001.0	5.865504196176554e+17
19002.0	5.8645477865117e+17
19003.0	5.863449405947901e+17
19004.0	5.862354933776383e+17
19005.0	5.861258525933567e+17
19006.0	5.860178312298495e+17
19007.0	5.859073555693567e+17
19008.0	5.85790985863168e+17
19009.0	5.856787571933183e+17
19010.0	5.855131425133907e+17
19011.0	5.854670706704383e+17
19012.0	5.853258229394089e+17
19013.0	5.852528904241152e+17
19014.0	5.851371251171327e+17
19015.0	5.850295380738047e+17
19016.0	5.849186062128468e+17
19017.0	5.848172349882368e+17
19018.0	5.847058402159273e+17
19019.0	5.845980154953727e+17
19020.0	5.844878453899263e+17
19021.0	5.843812702224383e+17
19022.0	5.842717390493012e+17
19023.0	5.841585007405737e+17
19024.0	5.840506470793215e+17
19025.0	5.839437479717546e+17
19026.0	5.838304610091007e+17
19027.0	5.837026646906195e+17
19028.0	5.836188202740394e+17
19029.0	5.835079620231167e+17
19030.0	5.834029070112084e+17
19031.0	5.832940728614911e+17
19032.0	5.831843461638825e+17
19033.0	5.83064044577314e+17
19034.0	5.829646710996991e+17
19035.0	5.828446733205504e+17
19036.0	5.809097056190456e+17
19037.0	5.826328856450388e+17
19038.0	5.825287233907369e+17
19039.0	5.824235253530623e+17
19040.0	5.823158257625769e+17
19041.0	5.82206285222161e+17
19042.0	5.820652462975657e+17
19043.0	5.819904006204074e+17
19044.0	5.8188024512512e+17
19045.0	5.817722620695892e+17
19046.0	5.816567170334719e+17
19047.0	5.815538989137919e+17
19048.0	5.814140920659967e+17
19049.0	5.812865861331625e+17
19050.0	5.812226518679551e+17
19051.0	5.808438371505489e+17
19052.0	5.809692888530944e+17
19053.0	5.809050682567338e+17
19054.0	5.80797279117858e+17
19055.0	5.80649298759953e+17
19056.0	5.805746801344511e+17
19057.0	5.80471559954978e+17
19058.0	5.803403556246867e+17
19059.0	5.802468378847914e+17
19060.0	5.801446175932415e+17
19061.0	5.800396482150399e+17
19062.0	5.799307521993386e+17
19063.0	5.79822820454127e+17
19064.0	5.796981412025686e+17
19065.0	5.795841159026003e+17
19066.0	5.794831487292756e+17
19067.0	5.793889046058324e+17
19068.0	5.792824439428436e+17
19069.0	5.791745716868436e+17
19070.0	5.790624903768746e+17
19071.0	5.789568556422484e+17
19072.0	5.788419185704959e+17
19073.0	5.787418565978794e+17
19074.0	5.786345807020031e+17
19075.0	5.785266221831507e+17
19076.0	5.784159310752425e+17
19077.0	5.783086445537961e+17
19078.0	5.781975766575786e+17
19079.0	5.780945877598207e+17
19080.0	5.779852422545408e+17
19081.0	5.778733342392319e+17
19082.0	5.777656587659946e+17
19083.0	5.776509740515327e+17
19084.0	5.775273913308499e+17
19085.0	5.774458665041919e+17
19086.0	5.772796000294228e+17
19087.0	5.771701493869225e+17
19088.0	5.770990725016233e+17
19089.0	5.76970752594193e+17
19090.0	5.769041371900586e+17
19091.0	5.767961396641791e+17
19092.0	5.766610005174954e+17
19093.0	5.765864095044948e+17
19094.0	5.764792084769449e+17
19095.0	5.763717127995392e+17
19096.0	5.7626194213164365e+17
19097.0	5.7615638170610336e+17
19098.0	5.760396952600574e+17
19099.0	5.759298564347221e+17
19100.0	5.758298582854313e+17
19101.0	5.7572551155165856e+17
19102.0	5.7560324339575456e+17
19103.0	5.755115735263913e+17
19104.0	5.7540463988572154e+17
19105.0	5.7527657009861965e+17
19106.0	5.751817147252735e+17
19107.0	5.750742045076138e+17
19108.0	5.7496609765021005e+17
19109.0	5.74748564267554e+17
19110.0	5.747535728257705e+17
19111.0	5.746465265680383e+17
19112.0	5.745391352588969e+17
19113.0	5.7443863819714554e+17
19114.0	5.743276954309972e+17
19115.0	5.742142216820052e+17
19116.0	5.7411476340954445e+17
19117.0	5.740075863594324e+17
19118.0	5.738843703607294e+17
19119.0	5.728349042595142e+17
19120.0	5.7367147091503776e+17
19121.0	5.7357110548452685e+17
19122.0	5.7347529772455245e+17
19123.0	5.7336838701274445e+17
19124.0	5.7325271153377274e+17
19125.0	5.731536027167402e+17
19126.0	5.730454509802836e+17
19127.0	5.726998370451455e+17
19128.0	5.728198490150228e+17
19129.0	5.7271597973285536e+17
19130.0	5.726178894326442e+17
19131.0	5.7251284847165434e+17
19132.0	5.724058445763924e+17
19133.0	5.7228963523242656e+17
19134.0	5.721866660478975e+17
19135.0	5.720850470098262e+17
19136.0	5.7197932978722125e+17
19137.0	5.718509475244713e+17
19138.0	5.7176384140738554e+17
19139.0	5.7165928342050125e+17
19140.0	5.715528451970389e+17
19141.0	5.7144622095619405e+17
19142.0	5.713362090459135e+17
19143.0	5.7122502524709536e+17
19144.0	5.71121400422946e+17
19145.0	5.710198498918399e+17
19146.0	5.7083212920258554e+17
19147.0	5.7079392874004474e+17
19148.0	5.7069219428870816e+17
19149.0	5.7058391434635936e+17
19150.0	5.704862761921193e+17
19151.0	5.703800881588906e+17
19152.0	5.7027221827966285e+17
19153.0	5.701502217748479e+17
19154.0	5.700430017331198e+17
19155.0	5.699543052757675e+17
19156.0	5.6984788872287565e+17
19157.0	5.697320410677247e+17
19158.0	5.6954862191684256e+17
19159.0	5.6952467586635085e+17
19160.0	5.694198746797396e+17
19161.0	5.6931376032645114e+17
19162.0	5.690251528546988e+17
19163.0	5.690941546080937e+17
19164.0	5.6899746233931085e+17
19165.0	5.688705643708415e+17
19166.0	5.6876427798118394e+17
19167.0	5.686622065175209e+17
19168.0	5.6857223016830285e+17
19169.0	5.684635400929279e+17
19170.0	5.6836128219245216e+17
19171.0	5.682442731345237e+17
19172.0	5.681478089659732e+17
19173.0	5.680430088978431e+17
19174.0	5.6792956059429536e+17
19175.0	5.6783145176924154e+17
19176.0	5.677252806530388e+17
19177.0	5.675995338812074e+17
19178.0	5.67507983479603e+17
19179.0	5.6739181370190496e+17
19180.0	5.672999771788628e+17
19181.0	5.671773066493951e+17
19182.0	5.670878585727657e+17
19183.0	5.6698456908322125e+17
19184.0	5.66877931909939e+17
19185.0	5.667713757566292e+17
19186.0	5.666667827473066e+17
19187.0	5.665523629730473e+17
19188.0	5.6645481415748256e+17
19189.0	5.6634935740115616e+17
19190.0	5.662425939094185e+17
19191.0	5.661321146138624e+17
19192.0	5.660321936397652e+17
19193.0	5.659231996870655e+17
19194.0	5.6581507968750925e+17
19195.0	5.657137055967913e+17
19196.0	5.6560436274790394e+17
19197.0	5.6549651684611405e+17
19198.0	5.653762511907499e+17
19199.0	5.641479932346365e+17
19200.0	5.6437394011149677e+17
19201.0	5.6506217457691296e+17
19202.0	5.6497025563579725e+17
19203.0	5.6486451744167245e+17
19204.0	5.647595942008149e+17
19205.0	5.6465741340562765e+17
19206.0	5.645521037994666e+17
19207.0	5.6443398395002874e+17
19208.0	5.64310801855283e+17
19209.0	5.6423635205051725e+17
19210.0	5.6413083776232096e+17
19211.0	5.640272586560852e+17
19212.0	5.6392122644125005e+17
19213.0	5.637967944439124e+17
19214.0	5.6368579820038816e+17
19215.0	5.63600808878626e+17
19216.0	5.635001471205375e+17
19217.0	5.633934540931071e+17
19218.0	5.6318092192863546e+17
19219.0	5.631642354494121e+17
19220.0	5.630751307464703e+17
19221.0	5.629308102683306e+17
19222.0	5.6286705859515725e+17
19223.0	5.627603490701311e+17
19224.0	5.6265201432221005e+17
19225.0	5.625331485158057e+17
19226.0	5.6244457949538976e+17
19227.0	5.623393445478399e+17
19228.0	5.622374214227284e+17
19229.0	5.621320770038443e+17
19230.0	5.620257660076032e+17
19231.0	5.619199916725588e+17
19232.0	5.618153578386773e+17
19233.0	5.617019507092137e+17
19234.0	5.6160298477813754e+17
19235.0	5.6149648454888096e+17
19236.0	5.6139569996759034e+17
19237.0	5.612884804851028e+17
19238.0	5.611716648544938e+17
19239.0	5.6108053038803616e+17
19240.0	5.609741559179945e+17
19241.0	5.608671727845374e+17
19242.0	5.607630665241941e+17
19243.0	5.6063941103233683e+17
19244.0	5.6055506497699834e+17
19245.0	5.6044918103080954e+17
19246.0	5.603425049903102e+17
19247.0	5.6023852840386554e+17
19248.0	5.6013466765011616e+17
19249.0	5.6002794155758925e+17
19250.0	5.599183981510655e+17
19251.0	5.5980161160096403e+17
19252.0	5.596773436708181e+17
19253.0	5.5960566637090125e+17
19254.0	5.595039376517802e+17
19255.0	5.593744703225855e+17
19256.0	5.59290260861747e+17
19257.0	5.5918887866204154e+17
19258.0	5.590836819525632e+17
19259.0	5.589690653256361e+17
19260.0	5.588326784434175e+17
19261.0	5.5876644003730765e+17
19262.0	5.586552193985194e+17
19263.0	5.585489451024383e+17
19264.0	5.583775869523284e+17
19265.0	5.5831961265329485e+17
19266.0	5.5820536603388576e+17
19267.0	5.5813762438922234e+17
19268.0	5.580315659599871e+17
19269.0	5.579250865624404e+17
19270.0	5.578076979899049e+17
19271.0	5.576561470909099e+17
19272.0	5.5759308489140896e+17
19273.0	5.574283204668073e+17
19274.0	5.5732182750767763e+17
19275.0	5.572822887126356e+17
19276.0	5.571744349814783e+17
19277.0	5.570698906959871e+17
19278.0	5.569642762338303e+17
19279.0	5.568567214866431e+17
19280.0	5.567428061473449e+17
19281.0	5.566476021574313e+17
19282.0	5.5654410833537696e+17
19283.0	5.564236419825662e+17
19284.0	5.563266398246227e+17
19285.0	5.562052956039849e+17
19286.0	5.561171445459625e+17
19287.0	5.5601493467026765e+17
19288.0	5.554230635003899e+17
19289.0	5.5456939100514746e+17
19290.0	5.556978965981866e+17
19291.0	5.555615456471722e+17
19292.0	5.554894416467283e+17
19293.0	5.55383013769216e+17
19294.0	5.5527689920621216e+17
19295.0	5.551726127306068e+17
19296.0	5.5505622093441696e+17
19297.0	5.5495564439060474e+17
19298.0	5.548508842382677e+17
19299.0	5.547377928000853e+17
19300.0	5.546418105570645e+17
19301.0	5.545360791437311e+17
19302.0	5.544289178921642e+17
19303.0	5.543142362535253e+17
19304.0	5.5421374555313485e+17
19305.0	5.54109193228561e+17
19306.0	5.540035484975103e+17
19307.0	5.538907606570324e+17
19308.0	5.537868591486292e+17
19309.0	5.536425107084628e+17
19310.0	5.535205585933652e+17
19311.0	5.5346171614330874e+17
19312.0	5.53362581950737e+17
19313.0	5.5325557889433594e+17
19314.0	5.503202121569613e+17
19315.0	5.5045960978050125e+17
19316.0	5.5291634407615136e+17
19317.0	5.528273347936256e+17
19318.0	5.527203256554836e+17
19319.0	5.526155663420073e+17
19320.0	5.525037429817343e+17
19321.0	5.5238006903493965e+17
19322.0	5.522607978490538e+17
19323.0	5.521473892515839e+17
19324.0	5.52053323735586e+17
19325.0	5.519101281697791e+17
19326.0	5.518384125618858e+17
19327.0	5.517294550996309e+17
19328.0	5.5160521107701754e+17
19329.0	5.5151472672768e+17
19330.0	5.513914513096704e+17
19331.0	5.512679061280085e+17
19332.0	5.511645806373545e+17
19333.0	5.510528520683519e+17
19334.0	5.5094488816680954e+17
19335.0	5.50799375527663e+17
19336.0	5.50723982004497e+17
19337.0	5.5061438519050234e+17
19338.0	5.5047649982327456e+17
19339.0	5.5039268993979725e+17
19340.0	5.5026019711931725e+17
19341.0	5.5015188495073274e+17
19342.0	5.499925415242409e+17
19343.0	5.499197321816745e+17
19344.0	5.497938071519231e+17
19345.0	5.4940743723472154e+17
19346.0	5.494680506597374e+17
19347.0	5.4944365889454074e+17
19348.0	5.493571478093824e+17
19349.0	5.4923857322748576e+17
19350.0	5.4911870603100154e+17
19351.0	5.490092952343892e+17
19352.0	5.4887158190353043e+17
19353.0	5.4878447033384954e+17
19354.0	5.486690006553941e+17
19355.0	5.4850445251706874e+17
19356.0	5.4839975611815245e+17
19357.0	5.482828456962731e+17
19358.0	5.48164074611234e+17
19359.0	5.480364803183956e+17
19360.0	5.479081998374228e+17
19361.0	5.4780319914175136e+17
19362.0	5.4768838852826445e+17
19363.0	5.475376186785791e+17
19364.0	5.473995500901717e+17
19365.0	5.472774060157609e+17
19366.0	5.471544501338111e+17
19367.0	5.470308243516074e+17
19368.0	5.4690645198329165e+17
19369.0	5.4674519616389114e+17
19370.0	5.4658852234199046e+17
19371.0	5.464617910271999e+17
19372.0	5.463097026281471e+17
19373.0	5.461667034955775e+17
19374.0	5.4601403306693965e+17
19375.0	5.458707541043881e+17
19376.0	5.457385261542058e+17
19377.0	5.4560310116570445e+17
19378.0	5.4546829357875194e+17
19379.0	5.453319464026111e+17
19380.0	5.451938808900266e+17
19381.0	5.450534307059028e+17
19382.0	5.449027647351466e+17
19383.0	5.447550535816532e+17
19384.0	5.446233978044415e+17
19385.0	5.4447720212288845e+17
19386.0	5.4426160161532576e+17
19387.0	5.4410785786429434e+17
19388.0	5.4395413298763085e+17
19389.0	5.437975546560511e+17
19390.0	5.4363564809038496e+17
19391.0	5.4180242085205075e+17
19392.0	5.4328231726503226e+17
19393.0	5.430901405472085e+17
19394.0	5.4285619625110176e+17
19395.0	5.426750145516885e+17
19396.0	5.425013393981439e+17
19397.0	5.423237850726399e+17
19398.0	5.4206557337245024e+17
19399.0	5.4168930082269856e+17
19400.0	5.415873140140715e+17
19401.0	5.4139810357794125e+17
19402.0	5.4103495912980474e+17
19403.0	5.4077771086124365e+17
19404.0	5.405583117123581e+17
19405.0	5.4007541883644576e+17
19406.0	5.3984006714163194e+17
19407.0	5.393589047656445e+17
19408.0	5.389151299960833e+17
19409.0	5.3841569506481517e+17
19410.0	5.379233304018945e+17
19411.0	5.372928720546473e+17
19412.0	5.364940374977192e+17
19413.0	5.358859056403798e+17
19414.0	5.3544874745528314e+17
19415.0	5.350795870470143e+17
19416.0	5.346313371648e+17
19417.0	5.342583689576447e+17
19418.0	5.3388900554506234e+17
19419.0	5.333945674279593e+17
19420.0	5.329490256680276e+17
19421.0	5.324465805546836e+17
19422.0	5.318834203743572e+17
19423.0	5.3124873598621024e+17
19424.0	5.3056826692512403e+17
19425.0	5.2971674429030426e+17
19426.0	5.286682034525522e+17
19427.0	5.2732216335837824e+17
19428.0	5.2531266399327616e+17
19429.0	5.2282102854451066e+17
19430.0	5.211644946109782e+17
19431.0	5.197644171313155e+17
19432.0	5.187963795974825e+17
19433.0	5.174439741576533e+17
19434.0	5.1602441574372685e+17
19435.0	5.145077564659028e+17
19436.0	5.128677006245887e+17
19437.0	5.113846785463636e+17
19438.0	5.070143829486253e+17
19439.0	5.079761444055724e+17
19440.0	5.062539032046251e+17
19441.0	5.0430926071179936e+17
19442.0	5.0200061568614426e+17
19443.0	4.985379841114107e+17
19444.0	4.9205810487623584e+17
19445.0	4.850874207698945e+17
19446.0	4.797462545257812e+17
19447.0	4.7329175432505926e+17
19448.0	4.630155128821086e+17
19449.0	4.446428713713659e+17
19450.0	4.059131072391918e+17
19451.0	3.845744444309532e+17
19452.0	4.2951983196624237e+17
19453.0	4.5496776289594086e+17
19454.0	4.685722974595743e+17
19455.0	4.761836275280553e+17
19456.0	4.817155210783403e+17
19457.0	4.871679389291849e+17
19458.0	4.873631682614721e+17
19459.0	4.989885986723176e+17
19460.0	5.016423339742546e+17
19461.0	5.035520408507731e+17
19462.0	5.0521335118779744e+17
19463.0	5.067849003433983e+17
19464.0	5.082457783140351e+17
19465.0	5.096755374850048e+17
19466.0	5.110557741591209e+17
19467.0	5.123808993563989e+17
19468.0	5.1363549439590406e+17
19469.0	5.147818651374932e+17
19470.0	5.159318965278036e+17
19471.0	5.16918517624559e+17
19472.0	5.179503162687483e+17
19473.0	5.2002764689680986e+17
19474.0	5.2203846530061574e+17
19475.0	5.234124203054418e+17
19476.0	5.244757287982422e+17
19477.0	5.251817136280915e+17
19478.0	5.257550631010304e+17
19479.0	5.2623355440442035e+17
19480.0	5.265623138784596e+17
19481.0	5.26960347386129e+17
19482.0	5.2718677618851834e+17
19483.0	5.2748891448497485e+17
19484.0	5.2771588274476365e+17
19485.0	5.278951545678506e+17
19486.0	5.2807454320230394e+17
19487.0	5.283084239547051e+17
19488.0	5.284592802769578e+17
19489.0	5.288256156117675e+17
19490.0	5.2913814215065626e+17
19491.0	5.297581589179045e+17
19492.0	5.301909304202579e+17
19493.0	5.305351770122922e+17
19494.0	5.3073648053562016e+17
19495.0	5.3101257667816115e+17
19496.0	5.3107510221646483e+17
19497.0	5.3126467448122e+17
19498.0	5.312718565976748e+17
19499.0	5.287482643273026e+17
19500.0	5.315738095058943e+17
19501.0	5.3165843532130976e+17
19502.0	5.3165779072669005e+17
19503.0	5.316548126310399e+17
19504.0	5.317731684100779e+17
19505.0	5.3176894208955725e+17
19506.0	5.317508164048213e+17
19507.0	5.31723855208994e+17
19508.0	5.316999404060671e+17
19509.0	5.317460764917759e+17
19510.0	5.317012972634111e+17
19511.0	5.2683987005821914e+17
19512.0	5.31269653889023e+17
19513.0	5.308446495386269e+17
19514.0	5.310387011802446e+17
19515.0	5.3145505624664755e+17
19516.0	5.31482480214016e+17
19517.0	5.3148440819575456e+17
19518.0	5.3144438160315725e+17
19519.0	5.31387338719232e+17
19520.0	5.3131857674021536e+17
19521.0	5.3127740978626554e+17
19522.0	5.312104176637268e+17
19523.0	5.3115137402688845e+17
19524.0	5.3108187566789965e+17
19525.0	5.310254996084052e+17
19526.0	5.309613744324607e+17
19527.0	5.308932671143935e+17
19528.0	5.3083191996579834e+17
19529.0	5.307866406365866e+17
19530.0	5.3071978748532045e+17
19531.0	5.306482700582911e+17
19532.0	5.3061415365946016e+17
19533.0	5.3054970894745574e+17
19534.0	5.305209185457492e+17
19535.0	5.3044353007179085e+17
19536.0	5.303647668447913e+17
19537.0	5.302933769945087e+17
19538.0	5.3019023787076256e+17
19539.0	5.300595328723629e+17
19540.0	5.3008155212950176e+17
19541.0	5.300188608462848e+17
19542.0	5.299399887770964e+17
19543.0	5.2984757644602016e+17
19544.0	5.2977875686522874e+17
19545.0	5.2963410972071226e+17
19546.0	5.2949019322395296e+17
19547.0	5.295340146829994e+17
19548.0	5.2945128727947936e+17
19549.0	5.2936988338858656e+17
19550.0	5.2931634994872314e+17
19551.0	5.292323593606485e+17
19552.0	5.2914747811211936e+17
19553.0	5.2905934229340154e+17
19554.0	5.289713876686164e+17
19555.0	5.2888765670795936e+17
19556.0	5.2880416845769363e+17
19557.0	5.2871822290452474e+17
19558.0	5.286314173093205e+17
19559.0	5.2854467581706234e+17
19560.0	5.2844936682973856e+17
19561.0	5.2836641908544845e+17
19562.0	5.282765935913642e+17
19563.0	5.282010408244564e+17
19564.0	5.281301621899262e+17
19565.0	5.2804164804498765e+17
19566.0	5.279488168427519e+17
19567.0	5.278639002921641e+17
19568.0	5.2777169425093965e+17
19569.0	5.276852396490751e+17
19570.0	5.2759974134852256e+17
19571.0	5.2750942197514234e+17
19572.0	5.2741553814241274e+17
19573.0	5.2732598157311994e+17
19574.0	5.272272697469609e+17
19575.0	5.2714967239666336e+17
19576.0	5.2705772842953376e+17
19577.0	5.2696296526097056e+17
19578.0	5.268722027593726e+17
19579.0	5.267831779579219e+17
19580.0	5.266924330724009e+17
19581.0	5.2660247419944954e+17
19582.0	5.265136603714901e+17
19583.0	5.264223228308138e+17
19584.0	5.263298620555264e+17
19585.0	5.2622430624372045e+17
19586.0	5.2612858984966816e+17
19587.0	5.26048614748433e+17
19588.0	5.259049063590571e+17
19589.0	5.2588837849442976e+17
19590.0	5.257911492149247e+17
19591.0	5.257232179877204e+17
19592.0	5.256317925064704e+17
19593.0	5.255359928554836e+17
19594.0	5.254133226056361e+17
19595.0	5.253511955961173e+17
19596.0	5.2523462253608954e+17
19597.0	5.2516802754423456e+17
19598.0	5.250139045582164e+17
19599.0	5.2498394394569376e+17
19600.0	5.248925332144128e+17
19601.0	5.247907072573439e+17
19602.0	5.24699792642321e+17
19603.0	5.245410106234195e+17
19604.0	5.24513112629794e+17
19605.0	5.2438823533718176e+17
19606.0	5.243342958886911e+17
19607.0	5.24242400645393e+17
19608.0	5.2414699337154554e+17
19609.0	5.240490833565012e+17
19610.0	5.2395644341452794e+17
19611.0	5.238590897739091e+17
19612.0	5.237767515318953e+17
19613.0	5.236821283132756e+17
19614.0	5.2358500214374394e+17
19615.0	5.2349650470611616e+17
19616.0	5.2338227346582176e+17
19617.0	5.2329896424243194e+17
19618.0	5.2313639651464525e+17
19619.0	5.230204963607891e+17
19620.0	5.229331397039444e+17
19621.0	5.229229813093715e+17
19622.0	5.228429091099989e+17
19623.0	5.2274870427320314e+17
19624.0	5.2265252643580576e+17
19625.0	5.2256223824008525e+17
19626.0	5.224678811500543e+17
19627.0	5.2237390532225696e+17
19628.0	5.2225150106118816e+17
19629.0	5.2213933453694285e+17
19630.0	5.2199917816381434e+17
19631.0	5.207495703614804e+17
19632.0	5.218968029626366e+17
19633.0	5.218040852163241e+17
19634.0	5.217190222845267e+17
19635.0	5.2161942972443296e+17
19636.0	5.215171467280383e+17
19637.0	5.2138072447385594e+17
19638.0	5.213427149919572e+17
19639.0	5.212502877711017e+17
19640.0	5.211455982228822e+17
19641.0	5.209065746246318e+17
19642.0	5.2096843844157434e+17
19643.0	5.2087446079624525e+17
19644.0	5.207746664202238e+17
19645.0	5.2065176289716896e+17
19646.0	5.205803141169151e+17
19647.0	5.2050214417421645e+17
19648.0	5.2040835275598496e+17
19649.0	5.203142561322324e+17
19650.0	5.2022153838591994e+17
19651.0	5.2012703952841376e+17
19652.0	5.2003309536761165e+17
19653.0	5.1993954910644896e+17
19654.0	5.198457157451775e+17
19655.0	5.197515218135721e+17
19656.0	5.196584351083178e+17
19657.0	5.1956480712813216e+17
