# Flux units: erg / (cm m2 s)
# Wavelength units: Angstrom
wave	flux
19000.0	5.938484691511977e+17
19001.0	5.937352002939561e+17
19002.0	5.936258495457962e+17
19003.0	5.93514516779281e+17
19004.0	5.934031791893161e+17
19005.0	5.932919726014463e+17
19006.0	5.931807062447444e+17
19007.0	5.93067680796945e+17
19008.0	5.929569285221033e+17
19009.0	5.928465881279145e+17
19010.0	5.927256582346067e+17
19011.0	5.926239927795711e+17
19012.0	5.925097324587689e+17
19013.0	5.924019613554004e+17
19014.0	5.92289669980706e+17
19015.0	5.921789856535892e+17
19016.0	5.920676312165033e+17
19017.0	5.919560149150377e+17
19018.0	5.918460782226089e+17
19019.0	5.917352280107689e+17
19020.0	5.916231709578579e+17
19021.0	5.915126567796735e+17
19022.0	5.914024033473876e+17
19023.0	5.912903393738751e+17
19024.0	5.911797664754345e+17
19025.0	5.910692320247808e+17
19026.0	5.909575719627433e+17
19027.0	5.908454259905875e+17
19028.0	5.907363255724714e+17
19029.0	5.906253291891369e+17
19030.0	5.905147667065513e+17
19031.0	5.904038869947731e+17
19032.0	5.902929720508415e+17
19033.0	5.901804112620201e+17
19034.0	5.900710571584169e+17
19035.0	5.899598225386154e+17
19036.0	5.896937795136169e+17
19037.0	5.897387477652822e+17
19038.0	5.896277256568831e+17
19039.0	5.895174799141546e+17
19040.0	5.894067608442195e+17
19041.0	5.892960604389375e+17
19042.0	5.891835474651818e+17
19043.0	5.890747177194836e+17
19044.0	5.889638205314388e+17
19045.0	5.888534388233556e+17
19046.0	5.887418300716372e+17
19047.0	5.886321077780479e+17
19048.0	5.885171975498409e+17
19049.0	5.884095673051818e+17
19050.0	5.88299558261009e+17
19051.0	5.881655036914345e+17
19052.0	5.880782456007337e+17
19053.0	5.879684498369193e+17
19054.0	5.878584512785065e+17
19055.0	5.877429906877097e+17
19056.0	5.876371453291178e+17
19057.0	5.875270228290217e+17
19058.0	5.874162613966163e+17
19059.0	5.873064538887508e+17
19060.0	5.871825474377044e+17
19061.0	5.870622542397439e+17
19062.0	5.869518737899519e+17
19063.0	5.868416644677631e+17
19064.0	5.867289535228586e+17
19065.0	5.866176775891625e+17
19066.0	5.865097635998377e+17
19067.0	5.86400809493026e+17
19068.0	5.862906271541929e+17
19069.0	5.861805050036223e+17
19070.0	5.860698782782804e+17
19071.0	5.859602656657407e+17
19072.0	5.858501780482729e+17
19073.0	5.8574000109213e+17
19074.0	5.85630060974353e+17
19075.0	5.855200344539135e+17
19076.0	5.854095650848767e+17
19077.0	5.852998537663828e+17
19078.0	5.851893134437034e+17
19079.0	5.850801121525759e+17
19080.0	5.849699275068756e+17
19081.0	5.848593404177065e+17
19082.0	5.847491845728938e+17
19083.0	5.846384338359636e+17
19084.0	5.845259915362301e+17
19085.0	5.844208669687807e+17
19086.0	5.843035695524521e+17
19087.0	5.841968755463508e+17
19088.0	5.840902264892074e+17
19089.0	5.83975814963746e+17
19090.0	5.838714171293695e+17
19091.0	5.83761911751202e+17
19092.0	5.836506094632959e+17
19093.0	5.835430128429738e+17
19094.0	5.834329224992084e+17
19095.0	5.833231837080234e+17
19096.0	5.832136095432703e+17
19097.0	5.831045537944915e+17
19098.0	5.829950301711018e+17
19099.0	5.828854522314751e+17
19100.0	5.827756436750335e+17
19101.0	5.826664897795412e+17
19102.0	5.825551353424553e+17
19103.0	5.82447567872546e+17
19104.0	5.823381361044138e+17
19105.0	5.822287255175167e+17
19106.0	5.821185305957716e+17
19107.0	5.82009674076433e+17
19108.0	5.819006160207871e+17
19109.0	5.817769250870612e+17
19110.0	5.816819439545002e+17
19111.0	5.815727023980543e+17
19112.0	5.814634424565759e+17
19113.0	5.813541978243071e+17
19114.0	5.812449613709311e+17
19115.0	5.811346337693695e+17
19116.0	5.810261405466623e+17
19117.0	5.809171509280767e+17
19118.0	5.808060097014442e+17
19119.0	5.806322676487507e+17
19120.0	5.805885613932541e+17
19121.0	5.80480204275712e+17
19122.0	5.803719262207999e+17
19123.0	5.802627705077759e+17
19124.0	5.801530766655487e+17
19125.0	5.800447965134848e+17
19126.0	5.799355028078591e+17
19127.0	5.797933807042559e+17
19128.0	5.797074022957053e+17
19129.0	5.796073115222015e+17
19130.0	5.794999592899924e+17
19131.0	5.793913030486698e+17
19132.0	5.792824238800895e+17
19133.0	5.79163980440098e+17
19134.0	5.790594511841961e+17
19135.0	5.789559308681215e+17
19136.0	5.788473153814527e+17
19137.0	5.787353689183572e+17
19138.0	5.786285275523753e+17
19139.0	5.785211191164927e+17
19140.0	5.784124478455807e+17
19141.0	5.783037847535615e+17
19142.0	5.781946433011711e+17
19143.0	5.780853488964948e+17
19144.0	5.779772796480169e+17
19145.0	5.778692740830548e+17
19146.0	5.777490022760447e+17
19147.0	5.776503844022954e+17
19148.0	5.775435893134676e+17
19149.0	5.77435113427217e+17
19150.0	5.773264693493759e+17
19151.0	5.772182282043391e+17
19152.0	5.771093606399999e+17
19153.0	5.770009001328639e+17
19154.0	5.768904352377514e+17
19155.0	5.767845608685567e+17
19156.0	5.76676138459682e+17
19157.0	5.765677059145728e+17
19158.0	5.7644960158405965e+17
19159.0	5.763507788884649e+17
19160.0	5.762424635042473e+17
19161.0	5.761335700750334e+17
19162.0	5.760040954058069e+17
19163.0	5.759180963053567e+17
19164.0	5.7580995834019834e+17
19165.0	5.7570134285352954e+17
19166.0	5.7559102895336096e+17
19167.0	5.7548334732847776e+17
19168.0	5.753750256528041e+17
19169.0	5.752676959300266e+17
19170.0	5.7516106036456096e+17
19171.0	5.7505172932962976e+17
19172.0	5.749449475227647e+17
19173.0	5.7483686037858976e+17
19174.0	5.7472777582892365e+17
19175.0	5.74620890632465e+17
19176.0	5.745129029631999e+17
19177.0	5.7440199039604045e+17
19178.0	5.742967454520662e+17
19179.0	5.7418709516069536e+17
19180.0	5.740789621587966e+17
19181.0	5.7397096875731616e+17
19182.0	5.738641513687721e+17
19183.0	5.7375727463082656e+17
19184.0	5.736476379010388e+17
19185.0	5.7354164175721805e+17
19186.0	5.734339597129045e+17
19187.0	5.7332469648588794e+17
19188.0	5.732183564790441e+17
19189.0	5.731102898869589e+17
19190.0	5.730023749189631e+17
19191.0	5.7289434446779725e+17
19192.0	5.7278744102611616e+17
19193.0	5.7267874004555085e+17
19194.0	5.725713787955881e+17
19195.0	5.7246429353082874e+17
19196.0	5.723566136535721e+17
19197.0	5.722489913081855e+17
19198.0	5.721414947919189e+17
19199.0	5.718996777872041e+17
19200.0	5.718431192754858e+17
19201.0	5.7181879105399456e+17
19202.0	5.717113277426345e+17
19203.0	5.7160351560499194e+17
19204.0	5.7149578777285965e+17
19205.0	5.7138857793727136e+17
19206.0	5.712810935145813e+17
19207.0	5.711723075993599e+17
19208.0	5.7106188213070496e+17
19209.0	5.709586956812288e+17
19210.0	5.7085133044667725e+17
19211.0	5.7074403679491405e+17
19212.0	5.706367140626431e+17
19213.0	5.705265727580842e+17
19214.0	5.7041887030149114e+17
19215.0	5.7031413293820576e+17
19216.0	5.702067674240341e+17
19217.0	5.700998843247273e+17
19218.0	5.6997658667690656e+17
19219.0	5.698821628275369e+17
19220.0	5.6977747383855776e+17
19221.0	5.6966424587578016e+17
19222.0	5.695633923680938e+17
19223.0	5.6945563496611834e+17
19224.0	5.693472493972137e+17
19225.0	5.692385943442772e+17
19226.0	5.691338706823849e+17
19227.0	5.690265839512234e+17
19228.0	5.689199620172458e+17
19229.0	5.6881274505134074e+17
19230.0	5.6870504825705805e+17
19231.0	5.685977794914985e+17
19232.0	5.6849044019172685e+17
19233.0	5.683825711513598e+17
19234.0	5.6827631398202016e+17
19235.0	5.6816923102412794e+17
19236.0	5.680625225476777e+17
19237.0	5.67955068953122e+17
19238.0	5.678463202273962e+17
19239.0	5.677411662998186e+17
19240.0	5.6762956908243616e+17
19241.0	5.6752533902021965e+17
19242.0	5.674192835969024e+17
19243.0	5.67309258264849e+17
19244.0	5.6720553690180256e+17
19245.0	5.670985086795775e+17
19246.0	5.669853701952852e+17
19247.0	5.668617686002347e+17
19248.0	5.667547714857641e+17
19249.0	5.6664765776964256e+17
19250.0	5.665401934796116e+17
19251.0	5.6643197057979725e+17
19252.0	5.6631986354476365e+17
19253.0	5.662189146166611e+17
19254.0	5.661116473890133e+17
19255.0	5.660011056682324e+17
19256.0	5.658975905251328e+17
19257.0	5.6579107337885e+17
19258.0	5.656839618996906e+17
19259.0	5.6557205206685e+17
19260.0	5.654549024298324e+17
19261.0	5.6535005531559245e+17
19262.0	5.65242022277939e+17
19263.0	5.651351177876822e+17
19264.0	5.650189235432105e+17
19265.0	5.649180171872937e+17
19266.0	5.648114278989824e+17
19267.0	5.647076578121045e+17
19268.0	5.6460051592424096e+17
19269.0	5.6449336550795936e+17
19270.0	5.643861865704106e+17
19271.0	5.6427261551356576e+17
19272.0	5.6417113915173536e+17
19273.0	5.6394368309439123e+17
19274.0	5.638991652410708e+17
19275.0	5.638501697585151e+17
19276.0	5.6374252783970976e+17
19277.0	5.636353346415274e+17
19278.0	5.6352812676328096e+17
19279.0	5.634201158855338e+17
19280.0	5.6331195226521594e+17
19281.0	5.6320601015801165e+17
19282.0	5.6309897606376096e+17
19283.0	5.629894790742015e+17
19284.0	5.628800652017664e+17
19285.0	5.627724431359999e+17
19286.0	5.626685075139243e+17
19287.0	5.625616533553151e+17
19288.0	5.6242068125996365e+17
19289.0	5.622356343696039e+17
19290.0	5.622389014527999e+17
19291.0	5.621260836230485e+17
19292.0	5.620235351272105e+17
19293.0	5.6191563532861434e+17
19294.0	5.618077839742292e+17
19295.0	5.617001884723883e+17
19296.0	5.6159231481828685e+17
19297.0	5.614841362382847e+17
19298.0	5.613758536395434e+17
19299.0	5.612683914466645e+17
19300.0	5.6116025439027194e+17
19301.0	5.6105199884479136e+17
19302.0	5.609438090799786e+17
19303.0	5.6083374865558176e+17
19304.0	5.6072618251386874e+17
19305.0	5.606185352123732e+17
19306.0	5.6051089315375776e+17
19307.0	5.604015678510421e+17
19308.0	5.602935389377877e+17
19309.0	5.601809313125717e+17
19310.0	5.600700728519338e+17
19311.0	5.599668596987219e+17
19312.0	5.5985844435025914e+17
19313.0	5.597483503714303e+17
19314.0	5.59545275663428e+17
19315.0	5.594452724110678e+17
19316.0	5.594218841331028e+17
19317.0	5.5931252073212576e+17
19318.0	5.592027972501503e+17
19319.0	5.5908894594389325e+17
19320.0	5.589436196716543e+17
19321.0	5.5883406158506656e+17
19322.0	5.587215011457707e+17
19323.0	5.586115868928681e+17
19324.0	5.5850346423691936e+17
19325.0	5.583891077966505e+17
19326.0	5.5828232291396256e+17
19327.0	5.5817120992897696e+17
19328.0	5.5806057893942605e+17
19329.0	5.5794943848174925e+17
19330.0	5.5783727398475085e+17
19331.0	5.577257208075604e+17
19332.0	5.576148731123027e+17
19333.0	5.5750297054958925e+17
19334.0	5.573903726411774e+17
19335.0	5.5727849384618656e+17
19336.0	5.5716585797932365e+17
19337.0	5.5705292976947194e+17
19338.0	5.5693585101619194e+17
19339.0	5.568265610854399e+17
19340.0	5.567115572543488e+17
19341.0	5.565989973742932e+17
19342.0	5.564770143611561e+17
19343.0	5.56370395992337e+17
19344.0	5.562555351171071e+17
19345.0	5.56097139253794e+17
19346.0	5.560147960485205e+17
19347.0	5.559077609056938e+17
19348.0	5.5579293169745914e+17
19349.0	5.5567577695737165e+17
19350.0	5.555586511579817e+17
19351.0	5.554411149459455e+17
19352.0	5.553223172270761e+17
19353.0	5.552053562638335e+17
19354.0	5.5508641600853325e+17
19355.0	5.54965089194257e+17
19356.0	5.548469521481726e+17
19357.0	5.547263532553556e+17
19358.0	5.546043986935807e+17
19359.0	5.5447711890363725e+17
19360.0	5.543603479423657e+17
19361.0	5.5421197548694176e+17
19362.0	5.540645923979262e+17
19363.0	5.5393994537260365e+17
19364.0	5.538143951039145e+17
19365.0	5.536883332000425e+17
19366.0	5.5356124872485536e+17
19367.0	5.534332628937385e+17
19368.0	5.533043225089364e+17
19369.0	5.53171976139571e+17
19370.0	5.5302909011339936e+17
19371.0	5.5291004143534074e+17
19372.0	5.5277781970670925e+17
19373.0	5.526427370433193e+17
19374.0	5.525073920262143e+17
19375.0	5.523701004326228e+17
19376.0	5.522314572944723e+17
19377.0	5.520395813082452e+17
19378.0	5.5188828919780685e+17
19379.0	5.5174466231773856e+17
19380.0	5.5159923538220365e+17
19381.0	5.514518985703423e+17
19382.0	5.513006848234836e+17
19383.0	5.5114870981044896e+17
19384.0	5.5099711396249594e+17
19385.0	5.5083909083299834e+17
19386.0	5.506086581480105e+17
19387.0	5.5044712927941965e+17
19388.0	5.502827391265451e+17
19389.0	5.5011530831298554e+17
19390.0	5.499445505774933e+17
19391.0	5.496170549870589e+17
19392.0	5.495051620013396e+17
19393.0	5.493234586004138e+17
19394.0	5.4913722940566176e+17
19395.0	5.489467167080447e+17
19396.0	5.486579994154323e+17
19397.0	5.484490736533504e+17
19398.0	5.482425696823977e+17
19399.0	5.4794470475257165e+17
19400.0	5.476586499342335e+17
19401.0	5.474204452738388e+17
19402.0	5.4705696157641363e+17
19403.0	5.468125767488853e+17
19404.0	5.464446672218794e+17
19405.0	5.4615323327856634e+17
19406.0	5.458066473833813e+17
19407.0	5.4552205539846816e+17
19408.0	5.4521848943083514e+17
19409.0	5.449307982746964e+17
19410.0	5.4461908284429645e+17
19411.0	5.442740405228883e+17
19412.0	5.438862541193215e+17
19413.0	5.435291617722367e+17
19414.0	5.431569567186943e+17
19415.0	5.4276605618421754e+17
19416.0	5.423427990410579e+17
19417.0	5.4183130380806816e+17
19418.0	5.4137668438589434e+17
19419.0	5.408939947939156e+17
19420.0	5.4028216195263123e+17
19421.0	5.397313485449898e+17
19422.0	5.390608675198292e+17
19423.0	5.38399906935603e+17
19424.0	5.375897645350911e+17
19425.0	5.3673971403106976e+17
19426.0	5.3577867700032864e+17
19427.0	5.347030573864281e+17
19428.0	5.333858382424747e+17
19429.0	5.319234945024e+17
19430.0	5.301384941404161e+17
19431.0	5.2857875048256845e+17
19432.0	5.2733329483147936e+17
19433.0	5.259623607741099e+17
19434.0	5.2441920377105056e+17
19435.0	5.228201494882985e+17
19436.0	5.209664171365717e+17
19437.0	5.1897639157541523e+17
19438.0	5.164399050358779e+17
19439.0	5.139280835903488e+17
19440.0	5.104465259178667e+17
19441.0	5.056479750346065e+17
19442.0	5.009520801611777e+17
19443.0	4.968090957075796e+17
19444.0	4.9202647800654483e+17
19445.0	4.8607738144139955e+17
19446.0	4.776028841618096e+17
19447.0	4.6800777329158765e+17
19448.0	4.5656806631232864e+17
19449.0	4.389233557678762e+17
19450.0	4.042710168109042e+17
19451.0	3.942205186812578e+17
19452.0	4.2299072320634925e+17
19453.0	4.488782071289179e+17
19454.0	4.625597438711119e+17
19455.0	4.7217160637207866e+17
19456.0	4.8157751260829024e+17
19457.0	4.8830469227151334e+17
19458.0	4.9320444877428077e+17
19459.0	4.9760260594510515e+17
19460.0	5.015575967301625e+17
19461.0	5.065289309880322e+17
19462.0	5.103587799597059e+17
19463.0	5.131982821741909e+17
19464.0	5.1548799523007123e+17
19465.0	5.174455795974145e+17
19466.0	5.191455907774462e+17
19467.0	5.206640775834281e+17
19468.0	5.220286336423254e+17
19469.0	5.232671594643455e+17
19470.0	5.243998042761898e+17
19471.0	5.2551384881780077e+17
19472.0	5.2709048021155866e+17
19473.0	5.2848854903903584e+17
19474.0	5.296563413494441e+17
19475.0	5.305989812540754e+17
19476.0	5.314384697316695e+17
19477.0	5.321490810885459e+17
19478.0	5.327413841319252e+17
19479.0	5.3325800962785274e+17
19480.0	5.337482034588329e+17
19481.0	5.341327406049961e+17
19482.0	5.3450950221059405e+17
19483.0	5.348537151782911e+17
19484.0	5.351179496893098e+17
19485.0	5.3538309974698656e+17
19486.0	5.356598359403177e+17
19487.0	5.358568088447657e+17
19488.0	5.3603312703897594e+17
19489.0	5.3619252058740045e+17
19490.0	5.363095217460564e+17
19491.0	5.365222104978772e+17
19492.0	5.3664392878052685e+17
19493.0	5.36746024431343e+17
19494.0	5.3683617372569594e+17
19495.0	5.3691459008375456e+17
19496.0	5.3700805001216e+17
19497.0	5.371238160880981e+17
19498.0	5.37237003505937e+17
19499.0	5.3712391591253286e+17
19500.0	5.3742018819522554e+17
19501.0	5.3754588274797216e+17
19502.0	5.3756327596741965e+17
19503.0	5.3765099913652896e+17
19504.0	5.377366339616767e+17
19505.0	5.377376737296383e+17
19506.0	5.377322732836181e+17
19507.0	5.378168742128299e+17
19508.0	5.378016761522857e+17
19509.0	5.377816531042303e+17
19510.0	5.3775381921355085e+17
19511.0	5.375507153551357e+17
19512.0	5.377552211596627e+17
19513.0	5.3767692811414163e+17
19514.0	5.376662910795775e+17
19515.0	5.376562457914027e+17
19516.0	5.376238895322453e+17
19517.0	5.3758041550138016e+17
19518.0	5.3759849448953165e+17
19519.0	5.37547475255296e+17
19520.0	5.374937746724181e+17
19521.0	5.3743921803209376e+17
19522.0	5.373814166781951e+17
19523.0	5.3732328649086285e+17
19524.0	5.3726267998644896e+17
19525.0	5.3719957493514234e+17
19526.0	5.3713653405668685e+17
19527.0	5.37071281381922e+17
19528.0	5.3705643606234445e+17
19529.0	5.3699339560331936e+17
19530.0	5.369242242602324e+17
19531.0	5.3685379735224314e+17
19532.0	5.3678224350467405e+17
19533.0	5.367096413607252e+17
19534.0	5.366360013362517e+17
19535.0	5.3656117040906234e+17
19536.0	5.364851729061204e+17
19537.0	5.3640962796858016e+17
19538.0	5.3633189605102925e+17
19539.0	5.3624275443821216e+17
19540.0	5.361751979720704e+17
19541.0	5.360962992690517e+17
19542.0	5.3601607558539936e+17
19543.0	5.359353861242879e+17
19544.0	5.358540397652649e+17
19545.0	5.3576572869454496e+17
19546.0	5.3567022942562976e+17
19547.0	5.3560643294330874e+17
19548.0	5.355475933593599e+17
19549.0	5.3548202128834554e+17
19550.0	5.3539945788211194e+17
19551.0	5.353144789062996e+17
19552.0	5.3522899619457696e+17
19553.0	5.351427826952874e+17
19554.0	5.3505607650508794e+17
19555.0	5.3496996926149965e+17
19556.0	5.348832686637055e+17
19557.0	5.347958413328382e+17
19558.0	5.347082151919615e+17
19559.0	5.3461987860589216e+17
19560.0	5.3453142555798176e+17
19561.0	5.344428414380715e+17
19562.0	5.3435456713741645e+17
19563.0	5.342653849097557e+17
19564.0	5.3417608146670925e+17
19565.0	5.3408646408000845e+17
19566.0	5.339959972069375e+17
19567.0	5.339064614693545e+17
19568.0	5.3381569386468685e+17
19569.0	5.3372557546837325e+17
19570.0	5.336350376416596e+17
19571.0	5.335441184828074e+17
19572.0	5.334524084879359e+17
19573.0	5.333615144949076e+17
19574.0	5.332683529912319e+17
19575.0	5.3317876475494394e+17
19576.0	5.330870493773824e+17
19577.0	5.329935101766313e+17
19578.0	5.329023013311828e+17
19579.0	5.328103201046526e+17
19580.0	5.327181246889982e+17
19581.0	5.326258227380223e+17
19582.0	5.325336220794879e+17
19583.0	5.3244093984494925e+17
19584.0	5.323481338784425e+17
19585.0	5.3225299734691834e+17
19586.0	5.3215926765486074e+17
19587.0	5.3206792591988045e+17
19588.0	5.319664016730794e+17
19589.0	5.318817937533609e+17
19590.0	5.317874789558953e+17
19591.0	5.316957182798506e+17
19592.0	5.316021209879892e+17
19593.0	5.315080933605375e+17
19594.0	5.314096843631273e+17
19595.0	5.313205816874325e+17
19596.0	5.3120210182690125e+17
19597.0	5.3113282828260685e+17
19598.0	5.310331103128234e+17
19599.0	5.3094501399046816e+17
19600.0	5.3085107080833696e+17
19601.0	5.3075556909274445e+17
19602.0	5.306618602323967e+17
19603.0	5.3055855501421216e+17
19604.0	5.3047313738410656e+17
19605.0	5.303736950500011e+17
19606.0	5.3028505053211296e+17
19607.0	5.301907676113578e+17
19608.0	5.300959104204798e+17
19609.0	5.300005895492947e+17
19610.0	5.2990709662569805e+17
19611.0	5.2981233911944525e+17
19612.0	5.2971779069924685e+17
19613.0	5.296227915311785e+17
19614.0	5.295275251859455e+17
19615.0	5.294335731258708e+17
19616.0	5.293375759231658e+17
19617.0	5.292438658744319e+17
19618.0	5.291393194218836e+17
19619.0	5.290402895276713e+17
19620.0	5.289466520403967e+17
19621.0	5.288643737769301e+17
19622.0	5.287694261988009e+17
19623.0	5.286744538742783e+17
19624.0	5.285792701568341e+17
19625.0	5.2848441282614605e+17
19626.0	5.2838942022915405e+17
19627.0	5.282943712187733e+17
19628.0	5.2819626155485856e+17
19629.0	5.281025229848575e+17
19630.0	5.2800776897385805e+17
19631.0	5.277691893426857e+17
19632.0	5.2781885423616e+17
19633.0	5.2772297573225805e+17
19634.0	5.27628635279633e+17
19635.0	5.275327127355391e+17
19636.0	5.274383511016789e+17
19637.0	5.273356849556139e+17
19638.0	5.272478444158975e+17
19639.0	5.2715263028974925e+17
19640.0	5.2705641763962874e+17
19641.0	5.2694830546944006e+17
19642.0	5.268670446043135e+17
19643.0	5.267715554017279e+17
19644.0	5.2667563173915296e+17
19645.0	5.2657639793186125e+17
19646.0	5.2648642962172576e+17
19647.0	5.263912184315902e+17
19648.0	5.2629600661230925e+17
19649.0	5.2620073208818336e+17
19650.0	5.261055762628607e+17
19651.0	5.260102153360724e+17
19652.0	5.259151094229673e+17
19653.0	5.2581989361909754e+17
19654.0	5.2572471808054605e+17
19655.0	5.256294333502805e+17
19656.0	5.2553415721833805e+17
19657.0	5.254390958347604e+17
