# Flux units: erg / (cm m2 s)
# Wavelength units: Angstrom
wave	flux
19000.0	8.528918288706217e+17
19001.0	8.527410862839123e+17
19002.0	8.525965936295935e+17
19003.0	8.524485186202281e+17
19004.0	8.523002276042067e+17
19005.0	8.521518040481792e+17
19006.0	8.52003057111313e+17
19007.0	8.518540559996243e+17
19008.0	8.517029261388456e+17
19009.0	8.515527467073535e+17
19010.0	8.513922821434026e+17
19011.0	8.512548403937279e+17
19012.0	8.511015504663892e+17
19013.0	8.509554836897791e+17
19014.0	8.50803085471471e+17
19015.0	8.506542226320041e+17
19016.0	8.50501564366848e+17
19017.0	8.503508055621631e+17
19018.0	8.50200699810611e+17
19019.0	8.500492388794367e+17
19020.0	8.498961560109055e+17
19021.0	8.497452676022268e+17
19022.0	8.495935726288895e+17
19023.0	8.494412673843199e+17
19024.0	8.492885167046653e+17
19025.0	8.491436388734291e+17
19026.0	8.489910538687828e+17
19027.0	8.48836851540514e+17
19028.0	8.486859227267072e+17
19029.0	8.485325926738601e+17
19030.0	8.483790956877138e+17
19031.0	8.482254391782056e+17
19032.0	8.480715880529917e+17
19033.0	8.479146352399702e+17
19034.0	8.4776335732026e+17
19035.0	8.476072372163923e+17
19036.0	8.473132004278268e+17
19037.0	8.472995925677395e+17
19038.0	8.471452391047165e+17
19039.0	8.469903873583786e+17
19040.0	8.468353548375382e+17
19041.0	8.466801485327017e+17
19042.0	8.465221605654527e+17
19043.0	8.463693615114922e+17
19044.0	8.462136618166952e+17
19045.0	8.460579612830377e+17
19046.0	8.459005524093609e+17
19047.0	8.457454813009236e+17
19048.0	8.455838490427391e+17
19049.0	8.454313641421482e+17
19050.0	8.452757213500758e+17
19051.0	8.450968714739711e+17
19052.0	8.449594729256275e+17
19053.0	8.448071130152957e+17
19054.0	8.446502584887977e+17
19055.0	8.444848500987222e+17
19056.0	8.443361027424255e+17
19057.0	8.441788216552106e+17
19058.0	8.440214217293824e+17
19059.0	8.438638334793043e+17
19060.0	8.43705533875268e+17
19061.0	8.435485107377491e+17
19062.0	8.433905048748031e+17
19063.0	8.432325644429992e+17
19064.0	8.430709137298772e+17
19065.0	8.429102128868009e+17
19066.0	8.427558441844735e+17
19067.0	8.425995786780673e+17
19068.0	8.424410785862995e+17
19069.0	8.422824761535144e+17
19070.0	8.42123436254822e+17
19071.0	8.419648794001404e+17
19072.0	8.418059236671488e+17
19073.0	8.416467104038911e+17
19074.0	8.414877177610237e+17
19075.0	8.413284596187135e+17
19076.0	8.411684543310504e+17
19077.0	8.410092392502612e+17
19078.0	8.408491819532285e+17
19079.0	8.406903839260673e+17
19080.0	8.405303787782143e+17
19081.0	8.403693116325888e+17
19082.0	8.402093938660692e+17
19083.0	8.400469247044266e+17
19084.0	8.398819016310784e+17
19085.0	8.397301800938153e+17
19086.0	8.395562548898472e+17
19087.0	8.394058098191021e+17
19088.0	8.392454906576893e+17
19089.0	8.390804638094675e+17
19090.0	8.389270442781353e+17
19091.0	8.387655360315391e+17
19092.0	8.386032579903488e+17
19093.0	8.38444583695155e+17
19094.0	8.38281916702174e+17
19095.0	8.381203975503871e+17
19096.0	8.37960549409314e+17
19097.0	8.377996342373034e+17
19098.0	8.376382618861567e+17
19099.0	8.374766567511378e+17
19100.0	8.37314997929028e+17
19101.0	8.371531605693782e+17
19102.0	8.369888124993533e+17
19103.0	8.368294025232384e+17
19104.0	8.366673462209192e+17
19105.0	8.365051267601748e+17
19106.0	8.363422578813609e+17
19107.0	8.361800192666281e+17
19108.0	8.360178389527212e+17
19109.0	8.358419952741033e+17
19110.0	8.356915557957631e+17
19111.0	8.355302597809492e+17
19112.0	8.35367566643473e+17
19113.0	8.35204706013457e+17
19114.0	8.350417149405864e+17
19115.0	8.348777377868456e+17
19116.0	8.347154187812864e+17
19117.0	8.345513784333651e+17
19118.0	8.343856770012502e+17
19119.0	8.341580147938642e+17
19120.0	8.3406048212637e+17
19121.0	8.338971560684202e+17
19122.0	8.337344021135357e+17
19123.0	8.335648735188308e+17
19124.0	8.333973820975785e+17
19125.0	8.332341016177321e+17
19126.0	8.330696412801706e+17
19127.0	8.328543219307858e+17
19128.0	8.327378510020604e+17
19129.0	8.325741199141545e+17
19130.0	8.324123425330514e+17
19131.0	8.32247992365875e+17
19132.0	8.320830445103786e+17
19133.0	8.319113357164544e+17
19134.0	8.317520294794579e+17
19135.0	8.315885855615656e+17
19136.0	8.314234458865663e+17
19137.0	8.312533892289875e+17
19138.0	8.310923276757672e+17
19139.0	8.309274234410323e+17
19140.0	8.307619519965866e+17
19141.0	8.305963010359296e+17
19142.0	8.304304848196948e+17
19143.0	8.302631056659795e+17
19144.0	8.300983106229587e+17
19145.0	8.29932534112802e+17
19146.0	8.297477753012221e+17
19147.0	8.295972684343977e+17
19148.0	8.294334227021824e+17
19149.0	8.292668649330003e+17
19150.0	8.290999984630442e+17
19151.0	8.289334197223421e+17
19152.0	8.287664181957974e+17
19153.0	8.285994552568489e+17
19154.0	8.284283697364991e+17
19155.0	8.282648912855039e+17
19156.0	8.280972982222848e+17
19157.0	8.279287666136404e+17
19158.0	8.277542377095165e+17
19159.0	8.275932731845288e+17
19160.0	8.274440227913725e+17
19161.0	8.273010648328873e+17
19162.0	8.271119129072978e+17
19163.0	8.26962617635089e+17
19164.0	8.267959625580543e+17
19165.0	8.266270048081236e+17
19166.0	8.2645513970647e+17
19167.0	8.262873667076093e+17
19168.0	8.261186285993983e+17
19169.0	8.259497231384573e+17
19170.0	8.257812877191849e+17
19171.0	8.256109287920982e+17
19172.0	8.254418523433641e+17
19173.0	8.252720305668093e+17
19174.0	8.251003125454163e+17
19175.0	8.249317364771498e+17
19176.0	8.247613115596799e+17
19177.0	8.245858358613331e+17
19178.0	8.24419283964177e+17
19179.0	8.240874901908137e+17
19180.0	8.239058399177385e+17
19181.0	8.237320803887786e+17
19182.0	8.235624610572969e+17
19183.0	8.233915486218918e+17
19184.0	8.232184372527101e+17
19185.0	8.230472835050154e+17
19186.0	8.228751814251858e+17
19187.0	8.227003323558569e+17
19188.0	8.225299219786409e+17
19189.0	8.223571829238441e+17
19190.0	8.221839645999103e+17
19191.0	8.220105084589395e+17
19192.0	8.218371198462632e+17
19193.0	8.216630435075412e+17
19194.0	8.214892184076285e+17
19195.0	8.213150711851688e+17
19196.0	8.211400543436797e+17
19197.0	8.209646242234365e+17
19198.0	8.207855261843452e+17
19199.0	8.204881512890364e+17
19200.0	8.203431909698218e+17
19201.0	8.202609455617364e+17
19202.0	8.200894098527572e+17
19203.0	8.199146652215977e+17
19204.0	8.197382877478911e+17
19205.0	8.195629163479039e+17
19206.0	8.193861036452522e+17
19207.0	8.192076543251796e+17
19208.0	8.190271355355133e+17
19209.0	8.188554668670975e+17
19210.0	8.186778779385853e+17
19211.0	8.184999702429693e+17
19212.0	8.18321803199556e+17
19213.0	8.181403222365524e+17
19214.0	8.17960491033122e+17
19215.0	8.177849698964819e+17
19216.0	8.176059855230292e+17
19217.0	8.174263715845459e+17
19218.0	8.170134211046058e+17
19219.0	8.168370675384317e+17
19220.0	8.16661997429282e+17
19221.0	8.164712684453889e+17
19222.0	8.162987242859177e+17
19223.0	8.161172196950015e+17
19224.0	8.159337749588649e+17
19225.0	8.157480959169875e+17
19226.0	8.155695171327318e+17
19227.0	8.153863042017962e+17
19228.0	8.152026500300799e+17
19229.0	8.150185878923944e+17
19230.0	8.148340845139283e+17
19231.0	8.146494423039999e+17
19232.0	8.144637169849684e+17
19233.0	8.142762960486399e+17
19234.0	8.140920837548713e+17
19235.0	8.139064816085672e+17
19236.0	8.137196963889151e+17
19237.0	8.135320655975764e+17
19238.0	8.133419844938409e+17
19239.0	8.131569573866153e+17
19240.0	8.129659160668842e+17
19241.0	8.12542350782191e+17
19242.0	8.123065988808701e+17
19243.0	8.121103321574058e+17
19244.0	8.119250371739645e+17
19245.0	8.117334573055999e+17
19246.0	8.115409161027583e+17
19247.0	8.113487838445567e+17
19248.0	8.111560694169599e+17
19249.0	8.109627522678781e+17
19250.0	8.107687831841449e+17
19251.0	8.105705600974845e+17
19252.0	8.103699462575443e+17
19253.0	8.101839034297002e+17
19254.0	8.099877204525053e+17
19255.0	8.097851893962068e+17
19256.0	8.095930256807251e+17
19257.0	8.091846402812588e+17
19258.0	8.088470039822335e+17
19259.0	8.086443236087123e+17
19260.0	8.084434627242664e+17
19261.0	8.082441084338173e+17
19262.0	8.080407445285548e+17
19263.0	8.078366687100925e+17
19264.0	8.076202641544532e+17
19265.0	8.07424696341845e+17
19266.0	8.072210213590355e+17
19267.0	8.070186872952147e+17
19268.0	8.068118158333268e+17
19269.0	8.064748367817386e+17
19270.0	8.059704890621948e+17
19271.0	8.057503236139688e+17
19272.0	8.055463986506409e+17
19273.0	8.05261903204625e+17
19274.0	8.050760117911548e+17
19275.0	8.049067549873492e+17
19276.0	8.046915764267689e+17
19277.0	8.044752591126527e+17
19278.0	8.042580809875453e+17
19279.0	8.038692505518081e+17
19280.0	8.035649753273684e+17
19281.0	8.033456774010195e+17
19282.0	8.031232396186964e+17
19283.0	8.02898463372083e+17
19284.0	8.026724063248383e+17
19285.0	8.024449412497408e+17
19286.0	8.022215829574996e+17
19287.0	8.0199478687389e+17
19288.0	8.017284296955222e+17
19289.0	8.014490441700691e+17
19290.0	8.013019420994217e+17
19291.0	8.010593160134655e+17
19292.0	8.008322674327552e+17
19293.0	8.005954279484072e+17
19294.0	8.003577974183251e+17
19295.0	8.001187770357075e+17
19296.0	7.998785177954985e+17
19297.0	7.996369994252285e+17
19298.0	7.993943283204096e+17
19299.0	7.991503409031846e+17
19300.0	7.989049924343124e+17
19301.0	7.986582701910697e+17
19302.0	7.984100584106664e+17
19303.0	7.981589454301866e+17
19304.0	7.979094736808616e+17
19305.0	7.976587626545151e+17
19306.0	7.974055249794386e+17
19307.0	7.971489900221782e+17
19308.0	7.968782324596733e+17
19309.0	7.966090603440808e+17
19310.0	7.963475220015786e+17
19311.0	7.96091750547456e+17
19312.0	7.958314995766612e+17
19313.0	7.955675113411923e+17
19314.0	7.952491362648063e+17
19315.0	7.949861020936873e+17
19316.0	7.947693355696124e+17
19317.0	7.945006952917673e+17
19318.0	7.942299465373014e+17
19319.0	7.939577160750419e+17
19320.0	7.936836134152873e+17
19321.0	7.934079030788096e+17
19322.0	7.931249936389459e+17
19323.0	7.928421030734506e+17
19324.0	7.925567605178367e+17
19325.0	7.922656211544745e+17
19326.0	7.919768020800851e+17
19327.0	7.916832589611007e+17
19328.0	7.913879368979796e+17
19329.0	7.910898075871913e+17
19330.0	7.907881051488255e+17
19331.0	7.904846733989203e+17
19332.0	7.901801823076351e+17
19333.0	7.898719465417385e+17
19334.0	7.895607589644969e+17
19335.0	7.892472016054954e+17
19336.0	7.889306008595114e+17
19337.0	7.885808793725608e+17
19338.0	7.882318902110888e+17
19339.0	7.879125291936426e+17
19340.0	7.875828328518995e+17
19341.0	7.872516328521727e+17
19342.0	7.869083834559148e+17
19343.0	7.865811852416339e+17
19344.0	7.862407995763369e+17
19345.0	7.858474541121533e+17
19346.0	7.855273009304914e+17
19347.0	7.851977583798953e+17
19348.0	7.848458262151167e+17
19349.0	7.844869731691177e+17
19350.0	7.841245391661738e+17
19351.0	7.837488318687914e+17
19352.0	7.832981158756352e+17
19353.0	7.829249015327402e+17
19354.0	7.825451193292118e+17
19355.0	7.821584629410473e+17
19356.0	7.817717525861715e+17
19357.0	7.813779777650688e+17
19358.0	7.809784616408403e+17
19359.0	7.805721390000809e+17
19360.0	7.801652782301181e+17
19361.0	7.796180933847721e+17
19362.0	7.791957272515922e+17
19363.0	7.787684143562751e+17
19364.0	7.783341534565718e+17
19365.0	7.778919320474963e+17
19366.0	7.774439497618772e+17
19367.0	7.76853737648947e+17
19368.0	7.763382685925375e+17
19369.0	7.758685409378301e+17
19370.0	7.753887750553599e+17
19371.0	7.749107204489215e+17
19372.0	7.741925360664575e+17
19373.0	7.736629730301268e+17
19374.0	7.731543887839232e+17
19375.0	7.726372796148393e+17
19376.0	7.718708214497283e+17
19377.0	7.712506545963007e+17
19378.0	7.70703089886822e+17
19379.0	7.70123726480998e+17
19380.0	7.691806396033705e+17
19381.0	7.685984109286739e+17
19382.0	7.679967459890518e+17
19383.0	7.66951611415484e+17
19384.0	7.662772205999444e+17
19385.0	7.654366246163802e+17
19386.0	7.644191853117437e+17
19387.0	7.63676403293662e+17
19388.0	7.624072252183892e+17
19389.0	7.61647403001446e+17
19390.0	7.602311654976168e+17
19391.0	7.593188038541315e+17
19392.0	7.582975484319062e+17
19393.0	7.574973894535849e+17
19394.0	7.566839462756352e+17
19395.0	7.558628684857343e+17
19396.0	7.550229754675197e+17
19397.0	7.54162984742639e+17
19398.0	7.532846359685802e+17
19399.0	7.523661795819517e+17
19400.0	7.51453428846865e+17
19401.0	7.504758735983955e+17
19402.0	7.494912526254079e+17
19403.0	7.485056167706624e+17
19404.0	7.474983275418964e+17
19405.0	7.464686440852136e+17
19406.0	7.453532898721792e+17
19407.0	7.442391342514175e+17
19408.0	7.431132790390781e+17
19409.0	7.419835529035775e+17
19410.0	7.406835033527636e+17
19411.0	7.394263359466153e+17
19412.0	7.381353000949076e+17
19413.0	7.366461805472425e+17
19414.0	7.352718465171453e+17
19415.0	7.336529065497944e+17
19416.0	7.321224634608296e+17
19417.0	7.303134263115773e+17
19418.0	7.285662468975277e+17
19419.0	7.265818334549331e+17
19420.0	7.245644787875836e+17
19421.0	7.224690425375402e+17
19422.0	7.20250136323686e+17
19423.0	7.178641428796755e+17
19424.0	7.153386516381699e+17
19425.0	7.126795463688188e+17
19426.0	7.100959763202044e+17
19427.0	7.07674409725679e+17
19428.0	7.051233227440127e+17
19429.0	7.024941380315817e+17
19430.0	6.997008225140736e+17
19431.0	6.968024407299412e+17
19432.0	6.93731217130564e+17
19433.0	6.904202674569215e+17
19434.0	6.867966484283391e+17
19435.0	6.829234051874813e+17
19436.0	6.788510410691926e+17
19437.0	6.74538707676911e+17
19438.0	6.697627080283475e+17
19439.0	6.64774002081792e+17
19440.0	6.59440181252369e+17
19441.0	6.536633473389907e+17
19442.0	6.474933085405185e+17
19443.0	6.408392383223124e+17
19444.0	6.336941812001446e+17
19445.0	6.259526084154711e+17
19446.0	6.175976610332672e+17
19447.0	6.085853024266917e+17
19448.0	5.988999293654362e+17
19449.0	5.885106928134825e+17
19450.0	5.770736310419444e+17
19451.0	5.715928730479277e+17
19452.0	5.82868438946065e+17
19453.0	5.935320875575981e+17
19454.0	6.033285416572241e+17
19455.0	6.124447542367572e+17
19456.0	6.208882096821592e+17
19457.0	6.286858633172305e+17
19458.0	6.358584617773738e+17
19459.0	6.425363603259395e+17
19460.0	6.48665277748565e+17
19461.0	6.544002063706794e+17
19462.0	6.596693304803328e+17
19463.0	6.645955986194428e+17
19464.0	6.692280151485098e+17
19465.0	6.734727475451222e+17
19466.0	6.774061629702141e+17
19467.0	6.810996398096383e+17
19468.0	6.845641888104449e+17
19469.0	6.877681055083176e+17
19470.0	6.906902557141673e+17
19471.0	6.93375636200926e+17
19472.0	6.959672306521427e+17
19473.0	6.983873555245737e+17
19474.0	7.007062695346175e+17
19475.0	7.028745964967251e+17
19476.0	7.051240896025943e+17
19477.0	7.075200744379735e+17
19478.0	7.09829051372885e+17
19479.0	7.119476703799982e+17
19480.0	7.139281747312644e+17
19481.0	7.158209682167123e+17
19482.0	7.176767413769551e+17
19483.0	7.192929027577174e+17
19484.0	7.208974920537428e+17
19485.0	7.224051158919852e+17
19486.0	7.237339432615935e+17
19487.0	7.250666626656938e+17
19488.0	7.262434518280874e+17
19489.0	7.27385264689425e+17
19490.0	7.284691744849919e+17
19491.0	7.294576238788607e+17
19492.0	7.304742300549119e+17
19493.0	7.313914159868585e+17
19494.0	7.322280127015594e+17
19495.0	7.330359522536106e+17
19496.0	7.33885600244258e+17
19497.0	7.346553466038953e+17
19498.0	7.353733096669183e+17
19499.0	7.359535361206952e+17
19500.0	7.367726357370195e+17
19501.0	7.374821490950144e+17
19502.0	7.381302719632726e+17
19503.0	7.387530817874602e+17
19504.0	7.393508797186049e+17
19505.0	7.399263048127828e+17
19506.0	7.404828653256703e+17
19507.0	7.410187558890153e+17
19508.0	7.415369399184041e+17
19509.0	7.420575018385407e+17
19510.0	7.427013007988047e+17
19511.0	7.432910267919017e+17
19512.0	7.442131991920639e+17
19513.0	7.449340299007314e+17
19514.0	7.456512437212502e+17
19515.0	7.463831450157055e+17
19516.0	7.468847563713196e+17
19517.0	7.476499295414956e+17
19518.0	7.479923252570794e+17
19519.0	7.486249978473126e+17
19520.0	7.490823056086356e+17
19521.0	7.493753236007593e+17
19522.0	7.498404724735992e+17
19523.0	7.502964496618838e+17
19524.0	7.505513871485608e+17
19525.0	7.507960171331583e+17
19526.0	7.51277193420254e+17
19527.0	7.515604189708287e+17
19528.0	7.517751808972118e+17
19529.0	7.519816037083817e+17
19530.0	7.52331125546462e+17
19531.0	7.526108013177513e+17
19532.0	7.527923198896809e+17
19533.0	7.529648841818111e+17
19534.0	7.531306360853844e+17
19535.0	7.534230214366547e+17
19536.0	7.536195735126016e+17
19537.0	7.537667942820522e+17
19538.0	7.539035726326441e+17
19539.0	7.540244540118355e+17
19540.0	7.541620538867711e+17
19541.0	7.543303466997076e+17
19542.0	7.545199964891817e+17
19543.0	7.54627221074739e+17
19544.0	7.547291230885203e+17
19545.0	7.548138701193215e+17
19546.0	7.548955645356713e+17
19547.0	7.55004886552849e+17
19548.0	7.55087323780437e+17
19549.0	7.551623945519103e+17
19550.0	7.552458458223955e+17
19551.0	7.55388681167394e+17
19552.0	7.554532856124758e+17
19553.0	7.555131751006207e+17
19554.0	7.555689108297044e+17
19555.0	7.556220175690408e+17
19556.0	7.556706839385427e+17
19557.0	7.55716014018833e+17
19558.0	7.557579823644671e+17
19559.0	7.557963715706879e+17
19560.0	7.558307686383615e+17
19561.0	7.558642987433981e+17
19562.0	7.558940805387603e+17
19563.0	7.559206926985897e+17
19564.0	7.55944287895552e+17
19565.0	7.559673972523007e+17
19566.0	7.560276343084372e+17
19567.0	7.56042676900113e+17
19568.0	7.560535327375357e+17
19569.0	7.560633472690858e+17
19570.0	7.56069934703138e+17
19571.0	7.560735703258451e+17
19572.0	7.560739241852928e+17
19573.0	7.560729631304361e+17
19574.0	7.560669297639424e+17
19575.0	7.560636942778365e+17
19576.0	7.560552192671741e+17
19577.0	7.560441400131583e+17
19578.0	7.560302943360339e+17
19579.0	7.560153057110697e+17
19580.0	7.559968948136617e+17
19581.0	7.559742085223763e+17
19582.0	7.559490731769855e+17
19583.0	7.55921756234274e+17
19584.0	7.558927161316692e+17
19585.0	7.558590652306772e+17
19586.0	7.558259210016083e+17
19587.0	7.557957434037587e+17
19588.0	7.557485469979987e+17
19589.0	7.557238935781377e+17
19590.0	7.556846413239635e+17
19591.0	7.556472056228521e+17
19592.0	7.556062316068863e+17
19593.0	7.555638782241449e+17
19594.0	7.555129814635858e+17
19595.0	7.554741216564564e+17
19596.0	7.554124410606932e+17
19597.0	7.553915966281044e+17
19598.0	7.553442075639805e+17
19599.0	7.553000615357097e+17
19600.0	7.5524777981597e+17
19601.0	7.5519213202746e+17
19602.0	7.551376227128659e+17
19603.0	7.550705728487424e+17
19604.0	7.550235517648896e+17
19605.0	7.549578326136147e+17
19606.0	7.549068186921642e+17
19607.0	7.548457960428884e+17
19608.0	7.5478330259101e+17
19609.0	7.547191565833558e+17
19610.0	7.546551502460246e+17
19611.0	7.545891874056874e+17
19612.0	7.545223555055615e+17
19613.0	7.54453697545284e+17
19614.0	7.543815945235114e+17
19615.0	7.543110194866858e+17
19616.0	7.542370108527956e+17
19617.0	7.54163771314449e+17
19618.0	7.540731388362752e+17
19619.0	7.53993097814562e+17
19620.0	7.539166343943506e+17
19621.0	7.538564339684694e+17
19622.0	7.53777107935778e+17
19623.0	7.537903088085672e+17
19624.0	7.538347245305855e+17
19625.0	7.537513694494719e+17
19626.0	7.536671330052777e+17
19627.0	7.5358186518173e+17
19628.0	7.534928705792681e+17
19629.0	7.534056827431594e+17
19630.0	7.533067630193322e+17
19631.0	7.530980901038762e+17
19632.0	7.531419964975786e+17
19633.0	7.532230757493416e+17
19634.0	7.533268206004906e+17
19635.0	7.532321558582611e+17
19636.0	7.531395656187901e+17
19637.0	7.530312569454592e+17
19638.0	7.529490891319977e+17
19639.0	7.528526451660118e+17
19640.0	7.52754007159603e+17
19641.0	7.526434844530003e+17
19642.0	7.525604889635498e+17
19643.0	7.524613954557268e+17
19644.0	7.523599831968425e+17
19645.0	7.522541597884415e+17
19646.0	7.523558301368316e+17
19647.0	7.523561542167212e+17
19648.0	7.522531289683283e+17
19649.0	7.521494492687017e+17
19650.0	7.520454025674751e+17
19651.0	7.519407531447636e+17
19652.0	7.518355767776595e+17
19653.0	7.517298336202751e+17
19654.0	7.516237079423658e+17
19655.0	7.515170192490493e+17
19656.0	7.514100946960381e+17
19657.0	7.513029600083965e+17
19658.0	7.511951619216723e+17
19659.0	7.510868619165692e+17
19660.0	7.509781944904361e+17
19661.0	7.508690408046591e+17
19662.0	7.507594334349994e+17
19663.0	7.507860516066641e+17
19664.0	7.507737309784744e+17
19665.0	7.506626269413375e+17
