# Flux units: erg / (cm m2 s)
# Wavelength units: Angstrom
wave	flux
19000.0	8.574313112272893e+17
19001.0	8.572285557757268e+17
19002.0	8.571197553901565e+17
19003.0	8.569606309063337e+17
19004.0	8.568029956800511e+17
19005.0	8.566448588150098e+17
19006.0	8.564877155805864e+17
19007.0	8.562858358996991e+17
19008.0	8.5614178350749e+17
19009.0	8.559961024670378e+17
19010.0	8.556405588667044e+17
19011.0	8.556875106047315e+17
19012.0	8.554585299877885e+17
19013.0	8.553806207909885e+17
19014.0	8.551908654448637e+17
19015.0	8.55047596408832e+17
19016.0	8.548869744186707e+17
19017.0	8.546802170418514e+17
19018.0	8.545822171288915e+17
19019.0	8.54425912475648e+17
19020.0	8.542458272372051e+17
19021.0	8.541009435339432e+17
19022.0	8.539546717956778e+17
19023.0	8.53774703019076e+17
19024.0	8.536282807052969e+17
19025.0	8.534723671009961e+17
19026.0	8.533041720153428e+17
19027.0	8.531197609115647e+17
19028.0	8.530005888510634e+17
19029.0	8.528326701700434e+17
19030.0	8.526876519694335e+17
19031.0	8.5253137891328e+17
19032.0	8.523708405295786e+17
19033.0	8.521662837642579e+17
19034.0	8.520423362090323e+17
19035.0	8.518709956749992e+17
19036.0	8.485260123701228e+17
19037.0	8.515645889052671e+17
19038.0	8.514009043741352e+17
19039.0	8.512508525892948e+17
19040.0	8.510933936635903e+17
19041.0	8.509303352022356e+17
19042.0	8.507294042729128e+17
19043.0	8.506128124084221e+17
19044.0	8.504480885287592e+17
19045.0	8.50292432314914e+17
19046.0	8.501037918147927e+17
19047.0	8.499707345108991e+17
19048.0	8.4971384499514e+17
19049.0	8.496159594468691e+17
19050.0	8.49467107652403e+17
19051.0	8.487837211732639e+17
19052.0	8.491153850630144e+17
19053.0	8.489978034825897e+17
19054.0	8.488457765999958e+17
19055.0	8.485643618702682e+17
19056.0	8.485157096215891e+17
19057.0	8.483630025626964e+17
19058.0	8.481867788801362e+17
19059.0	8.480439850587475e+17
19060.0	8.478747679610195e+17
19061.0	8.477257311977472e+17
19062.0	8.475619300649641e+17
19063.0	8.474031700661587e+17
19064.0	8.471791237682518e+17
19065.0	8.469884642699945e+17
19066.0	8.468875238703101e+17
19067.0	8.467526982478505e+17
19068.0	8.465976458739711e+17
19069.0	8.464378434508114e+17
19070.0	8.462621320325801e+17
19071.0	8.461114801826473e+17
19072.0	8.459541862329e+17
19073.0	8.457896480210943e+17
19074.0	8.4563331149114e+17
19075.0	8.454720202298707e+17
19076.0	8.453000038536531e+17
19077.0	8.451452130645331e+17
19078.0	8.449582410585428e+17
19079.0	8.448247394380458e+17
19080.0	8.446573215569236e+17
19081.0	8.444786453250047e+17
19082.0	8.443142631413076e+17
19083.0	8.441156062238034e+17
19084.0	8.438896099939668e+17
19085.0	8.438489512498515e+17
19086.0	8.434873815531517e+17
19087.0	8.434353842072233e+17
19088.0	8.433204669885096e+17
19089.0	8.430615591736663e+17
19090.0	8.430260957741055e+17
19091.0	8.428699977602388e+17
19092.0	8.426694492116308e+17
19093.0	8.425596154893651e+17
19094.0	8.423973298984278e+17
19095.0	8.422370273744212e+17
19096.0	8.420685858035028e+17
19097.0	8.419153295704063e+17
19098.0	8.417517248708607e+17
19099.0	8.415880874557439e+17
19100.0	8.414240401173161e+17
19101.0	8.412669441387177e+17
19102.0	8.410673913178792e+17
19103.0	8.409411914214058e+17
19104.0	8.407829807366143e+17
19105.0	8.4061754242717e+17
19106.0	8.404384497008639e+17
19107.0	8.40285597798673e+17
19108.0	8.401314276267347e+17
19109.0	8.395998832011939e+17
19110.0	8.397953623741779e+17
19111.0	8.396456805269503e+17
19112.0	8.394855313746601e+17
19113.0	8.39322228105762e+17
19114.0	8.391586840838144e+17
19115.0	8.389704962889042e+17
19116.0	8.388243398939987e+17
19117.0	8.386623625844054e+17
19118.0	8.384564941204136e+17
19119.0	8.374622644163913e+17
19120.0	8.38149371802419e+17
19121.0	8.38005055308868e+17
19122.0	8.378620011610111e+17
19123.0	8.37692886544111e+17
19124.0	8.375140703622484e+17
19125.0	8.373689316453033e+17
19126.0	8.372058538901503e+17
19127.0	8.362845309763575e+17
19128.0	8.365965188268026e+17
19129.0	8.366754912796668e+17
19130.0	8.3655259062272e+17
19131.0	8.363866243902121e+17
19132.0	8.36231185441314e+17
19133.0	8.358244484033198e+17
19134.0	8.357681497986388e+17
19135.0	8.357409512751101e+17
19136.0	8.35569400746257e+17
19137.0	8.353306041996628e+17
19138.0	8.352189059694591e+17
19139.0	8.350782641056425e+17
19140.0	8.349172021329919e+17
19141.0	8.347552555816275e+17
19142.0	8.345779227852799e+17
19143.0	8.34400661991151e+17
19144.0	8.342442116557481e+17
19145.0	8.340990128204458e+17
19146.0	8.336512094917978e+17
19147.0	8.337353848389631e+17
19148.0	8.336090349262162e+17
19149.0	8.334445610270717e+17
19150.0	8.33279708382276e+17
19151.0	8.331192169747795e+17
19152.0	8.329489577323177e+17
19153.0	8.32784220291072e+17
19154.0	8.325713711071228e+17
19155.0	8.324663534245204e+17
19156.0	8.323001911782058e+17
19157.0	8.321198092626602e+17
19158.0	8.317331218366461e+17
19159.0	8.317947937641811e+17
19160.0	8.316294920492372e+17
19161.0	8.314485395685375e+17
19162.0	8.3074425496972e+17
19163.0	8.311350358966272e+17
19164.0	8.309916916427433e+17
19165.0	8.308166866851155e+17
19166.0	8.306108238135292e+17
19167.0	8.30445394731554e+17
19168.0	8.302782237551272e+17
19169.0	8.301348641221288e+17
19170.0	8.300066459265706e+17
19171.0	8.298160584305322e+17
19172.0	8.296725164851197e+17
19173.0	8.295144756696404e+17
19174.0	8.293244021156524e+17
19175.0	8.291860741095424e+17
19176.0	8.290189503889407e+17
19177.0	8.287845710036991e+17
19178.0	8.286776520430931e+17
19179.0	8.284878705524735e+17
19180.0	8.283213787736745e+17
19181.0	8.281471152291839e+17
19182.0	8.279973693489152e+17
19183.0	8.278592362381311e+17
19184.0	8.276443428902227e+17
19185.0	8.275232120897535e+17
19186.0	8.273674015255209e+17
19187.0	8.271565594558463e+17
19188.0	8.270322725814272e+17
19189.0	8.268582618136575e+17
19190.0	8.266901016805375e+17
19191.0	8.26516840854323e+17
19192.0	8.263680714080255e+17
19193.0	8.2616547030685e+17
19194.0	8.260124861442728e+17
19195.0	8.258666155212799e+17
19196.0	8.25691953238289e+17
19197.0	8.255212109518164e+17
19198.0	8.253140935639039e+17
19199.0	8.218586074054647e+17
19200.0	8.226884117244599e+17
19201.0	8.248225384715604e+17
19202.0	8.246746551418879e+17
19203.0	8.244984025186301e+17
19204.0	8.243280751886335e+17
19205.0	8.241696382910461e+17
19206.0	8.240011775661395e+17
19207.0	8.237997089270442e+17
19208.0	8.235855529377788e+17
19209.0	8.234986100490237e+17
19210.0	8.233345062273024e+17
19211.0	8.231723863113725e+17
19212.0	8.230053050930515e+17
19213.0	8.227714006428326e+17
19214.0	8.225835867002199e+17
19215.0	8.224888036786175e+17
19216.0	8.223237312522921e+17
19217.0	8.221611812803924e+17
19218.0	8.216207165489144e+17
19219.0	8.217437588335272e+17
19220.0	8.216452385472511e+17
19221.0	8.213344861989549e+17
19222.0	8.213192087262548e+17
19223.0	8.211392897220608e+17
19224.0	8.209429132476416e+17
19225.0	8.207384937758717e+17
19226.0	8.206280195833855e+17
19227.0	8.204568986910719e+17
19228.0	8.203016788246527e+17
19229.0	8.201312567033855e+17
19230.0	8.199431874674685e+17
19231.0	8.197741058457597e+17
19232.0	8.196024212389888e+17
19233.0	8.194112018011475e+17
19234.0	8.192638308756136e+17
19235.0	8.190854405554175e+17
19236.0	8.189339113968979e+17
19237.0	8.187525250853545e+17
19238.0	8.185424010805248e+17
19239.0	8.184169382630739e+17
19240.0	8.181380691962536e+17
19241.0	8.180276305155411e+17
19242.0	8.178858752038228e+17
19243.0	8.176316257228114e+17
19244.0	8.175509352830292e+17
19245.0	8.173746632261631e+17
19246.0	8.171952919980714e+17
19247.0	8.170215538600617e+17
19248.0	8.168539073893715e+17
19249.0	8.16662409589555e+17
19250.0	8.164520953031336e+17
19251.0	8.162354543285585e+17
19252.0	8.159460761534463e+17
19253.0	8.159238457830057e+17
19254.0	8.15741658219588e+17
19255.0	8.154789467302565e+17
19256.0	8.153853870473216e+17
19257.0	8.152249500259667e+17
19258.0	8.150480239372969e+17
19259.0	8.148302105149437e+17
19260.0	8.146407651278847e+17
19261.0	8.145067613093888e+17
19262.0	8.143038312349696e+17
19263.0	8.141311018270719e+17
19264.0	8.137435707867131e+17
19265.0	8.13710706177911e+17
19266.0	8.135604905355945e+17
19267.0	8.134330151512745e+17
19268.0	8.132474264267433e+17
19269.0	8.130652527045288e+17
19270.0	8.128834719885992e+17
19271.0	8.12554973260459e+17
19272.0	8.124984540353875e+17
19273.0	8.096986846724064e+17
19274.0	8.107609529778157e+17
19275.0	8.119090648449024e+17
19276.0	8.117161994223612e+17
19277.0	8.11530377774148e+17
19278.0	8.113470106326356e+17
19279.0	8.111339083923456e+17
19280.0	8.109304462005587e+17
19281.0	8.107809301681492e+17
19282.0	8.105972850840918e+17
19283.0	8.103628704666964e+17
19284.0	8.100972098224125e+17
19285.0	8.099052460354217e+17
19286.0	8.097953298251773e+17
19287.0	8.096231419019263e+17
19288.0	8.086646704570362e+17
19289.0	8.071115283540608e+17
19290.0	8.090441248058024e+17
19291.0	8.086659781012143e+17
19292.0	8.085840007091539e+17
19293.0	8.08384982242645e+17
19294.0	8.081856663999827e+17
19295.0	8.079939074348372e+17
19296.0	8.077917008778578e+17
19297.0	8.07579129356834e+17
19298.0	8.073792534347773e+17
19299.0	8.071918833893377e+17
19300.0	8.06990331143782e+17
19301.0	8.067827377023658e+17
19302.0	8.06575562572868e+17
19303.0	8.062586824862376e+17
19304.0	8.060563937209002e+17
19305.0	8.058668208269994e+17
19306.0	8.056598851922604e+17
19307.0	8.05427735359215e+17
19308.0	8.052276007884118e+17
19309.0	8.049244079740242e+17
19310.0	8.046494189180242e+17
19311.0	8.045787931301204e+17
19312.0	8.043454925198675e+17
19313.0	8.040904752016042e+17
19314.0	8.028787302902431e+17
19315.0	8.027158860180157e+17
19316.0	8.034546915562836e+17
19317.0	8.032373653722451e+17
19318.0	8.029969881322836e+17
19319.0	8.027553751105535e+17
19320.0	8.025213185469098e+17
19321.0	8.02299263984162e+17
19322.0	8.020066026476884e+17
19323.0	8.017819358724096e+17
19324.0	8.0159521664314e+17
19325.0	8.012889675792383e+17
19326.0	8.011239882664617e+17
19327.0	8.008837434266963e+17
19328.0	8.006515004801021e+17
19329.0	8.004090553084586e+17
19330.0	8.001540100281683e+17
19331.0	7.999049494604458e+17
19332.0	7.996735197893972e+17
19333.0	7.994133918515197e+17
19334.0	7.991566171198804e+17
19335.0	7.989038248798889e+17
19336.0	7.985907797852156e+17
19337.0	7.983271845560319e+17
19338.0	7.979703559607634e+17
19339.0	7.97795363865668e+17
19340.0	7.975067897386323e+17
19341.0	7.972493089658195e+17
19342.0	7.967961597171027e+17
19343.0	7.966949556355071e+17
19344.0	7.964050654756861e+17
19345.0	7.952823551524844e+17
19346.0	7.955513139178153e+17
19347.0	7.95434222371908e+17
19348.0	7.951663036541608e+17
19349.0	7.948487777845244e+17
19350.0	7.945491343299924e+17
19351.0	7.94234574672145e+17
19352.0	7.939068145609386e+17
19353.0	7.936261167775744e+17
19354.0	7.93257225364002e+17
19355.0	7.928268553803094e+17
19356.0	7.925392007845203e+17
19357.0	7.922006906721619e+17
19358.0	7.918328636331348e+17
19359.0	7.913664445852332e+17
19360.0	7.910632024178688e+17
19361.0	7.906360728136361e+17
19362.0	7.902941500757331e+17
19363.0	7.899241707995135e+17
19364.0	7.895473016799232e+17
19365.0	7.89028729397794e+17
19366.0	7.886049387391658e+17
19367.0	7.88207832662016e+17
19368.0	7.878051466226345e+17
19369.0	7.871415518057811e+17
19370.0	7.864759711257939e+17
19371.0	7.863197286880595e+17
19372.0	7.857665943622999e+17
19373.0	7.852100581763752e+17
19374.0	7.847667536581972e+17
19375.0	7.841040153182205e+17
19376.0	7.83547581193694e+17
19377.0	7.830272889673044e+17
19378.0	7.823891749666816e+17
19379.0	7.818760270381053e+17
19380.0	7.813649009038675e+17
19381.0	7.808374933203626e+17
19382.0	7.802684283289597e+17
19383.0	7.797125000374952e+17
19384.0	7.791979082896723e+17
19385.0	7.786240293557587e+17
19386.0	7.780382648827901e+17
19387.0	7.774167422905e+17
19388.0	7.767692457716394e+17
19389.0	7.761392017517226e+17
19390.0	7.754923637385897e+17
19391.0	7.725494397042652e+17
19392.0	7.741395438316198e+17
19393.0	7.734179006862674e+17
19394.0	7.726674538572458e+17
19395.0	7.719315997108905e+17
19396.0	7.711776706308777e+17
19397.0	7.703711913956691e+17
19398.0	7.69507383574528e+17
19399.0	7.68458813306743e+17
19400.0	7.677976816648191e+17
19401.0	7.668421097422845e+17
19402.0	7.659466161913853e+17
19403.0	7.64894035190306e+17
19404.0	7.638818977655466e+17
19405.0	7.627563610406911e+17
19406.0	7.616441444466687e+17
19407.0	7.603815532462076e+17
19408.0	7.589337063489537e+17
19409.0	7.577722215028051e+17
19410.0	7.562946188148736e+17
19411.0	7.547187750415013e+17
19412.0	7.530186248202922e+17
19413.0	7.513815250545322e+17
19414.0	7.499573852023464e+17
19415.0	7.485460709725523e+17
19416.0	7.470333532919123e+17
19417.0	7.455278930154836e+17
19418.0	7.439737595188563e+17
19419.0	7.423263962912083e+17
19420.0	7.405915436569939e+17
19421.0	7.387648823219543e+17
19422.0	7.368497541677053e+17
19423.0	7.348492849293993e+17
19424.0	7.32708335447791e+17
19425.0	7.304497603455658e+17
19426.0	7.280262689849344e+17
19427.0	7.254233296404481e+17
19428.0	7.227056186195965e+17
19429.0	7.19734467618406e+17
19430.0	7.165627026374656e+17
19431.0	7.128675538086575e+17
19432.0	7.100093514995027e+17
19433.0	7.067421812020566e+17
19434.0	7.032860744264361e+17
19435.0	6.996128008503295e+17
19436.0	6.956291947058516e+17
19437.0	6.914990757205332e+17
19438.0	6.857084743538004e+17
19439.0	6.819198676238337e+17
19440.0	6.766365944490665e+17
19441.0	6.710864437925201e+17
19442.0	6.653151455914669e+17
19443.0	6.5907888502429e+17
19444.0	6.523470875721723e+17
19445.0	6.451249862585005e+17
19446.0	6.37429237083887e+17
19447.0	6.291737756565499e+17
19448.0	6.201193643289262e+17
19449.0	6.090203603839657e+17
19450.0	5.884716887222906e+17
19451.0	5.773131764815206e+17
19452.0	6.002605913625946e+17
19453.0	6.147701957023066e+17
19454.0	6.242358179921915e+17
19455.0	6.32603545698304e+17
19456.0	6.403178434134019e+17
19457.0	6.475330359394301e+17
19458.0	6.538893067987633e+17
19459.0	6.604969670432087e+17
19460.0	6.662150385478312e+17
19461.0	6.715904684807507e+17
19462.0	6.767776488226816e+17
19463.0	6.816243479390888e+17
19464.0	6.861393959583743e+17
19465.0	6.902941977236823e+17
19466.0	6.940389295871314e+17
19467.0	6.975744913702911e+17
19468.0	7.008518687861418e+17
19469.0	7.037755859839654e+17
19470.0	7.068115078742015e+17
19471.0	7.098590670706003e+17
19472.0	7.129272948184404e+17
19473.0	7.156469437475498e+17
19474.0	7.182018248966145e+17
19475.0	7.20422544308087e+17
19476.0	7.227962192210602e+17
19477.0	7.24852469207313e+17
19478.0	7.267598685175807e+17
19479.0	7.285142850633725e+17
19480.0	7.302017731002365e+17
19481.0	7.317545542134441e+17
19482.0	7.332710941633194e+17
19483.0	7.346657438640812e+17
19484.0	7.359756287781545e+17
19485.0	7.372353126268927e+17
19486.0	7.38434769625634e+17
19487.0	7.395851949309948e+17
19488.0	7.406885471431336e+17
19489.0	7.419177301529939e+17
19490.0	7.429657471920804e+17
19491.0	7.446577668947968e+17
19492.0	7.458817828017491e+17
19493.0	7.469572737903272e+17
19494.0	7.479909779068244e+17
19495.0	7.489440515620864e+17
19496.0	7.496525162042705e+17
19497.0	7.506518656155647e+17
19498.0	7.512304915229358e+17
19499.0	7.487144650080224e+17
19500.0	7.527822243397632e+17
19501.0	7.533986884616192e+17
19502.0	7.5405196291386e+17
19503.0	7.545839485801812e+17
19504.0	7.550913694662655e+17
19505.0	7.556702980625748e+17
19506.0	7.561363341705216e+17
19507.0	7.56569326293265e+17
19508.0	7.569989905154045e+17
19509.0	7.574625250006355e+17
19510.0	7.577876143188648e+17
19511.0	7.555704848121839e+17
19512.0	7.580799491986755e+17
19513.0	7.577647809473174e+17
19514.0	7.585004326486007e+17
19515.0	7.593745274197339e+17
19516.0	7.598730419808936e+17
19517.0	7.601322234041684e+17
19518.0	7.60417498571298e+17
19519.0	7.606662325425492e+17
19520.0	7.608937146744832e+17
19521.0	7.611331249875625e+17
19522.0	7.61330630848239e+17
19523.0	7.615537756504063e+17
19524.0	7.618025103207081e+17
19525.0	7.62095496995362e+17
19526.0	7.622822897647615e+17
19527.0	7.626400499149485e+17
19528.0	7.628693339198807e+17
19529.0	7.630117615785299e+17
19530.0	7.633388724114774e+17
19531.0	7.635106492929364e+17
19532.0	7.636273693633193e+17
19533.0	7.638224351177385e+17
19534.0	7.640367116233385e+17
19535.0	7.641225371495084e+17
19536.0	7.642056559514963e+17
19537.0	7.643820288114687e+17
19538.0	7.645166775741101e+17
19539.0	7.643820390176093e+17
19540.0	7.646567636926461e+17
19541.0	7.647272043719338e+17
19542.0	7.648599275296086e+17
19543.0	7.649466295255037e+17
19544.0	7.649889711641939e+17
19545.0	7.648802631931213e+17
19546.0	7.646915664893268e+17
19547.0	7.650905346976425e+17
19548.0	7.65165495857971e+17
19549.0	7.651782848501075e+17
19550.0	7.652398857540947e+17
19551.0	7.652482914189311e+17
19552.0	7.652509429181098e+17
19553.0	7.65241876230963e+17
19554.0	7.652279177270612e+17
19555.0	7.652310312987305e+17
19556.0	7.65253584350959e+17
19557.0	7.652827396571133e+17
19558.0	7.652637011520169e+17
19559.0	7.652335345991679e+17
19560.0	7.652049771211433e+17
19561.0	7.6517750093469e+17
19562.0	7.65156971913762e+17
19563.0	7.651256175340202e+17
19564.0	7.650896255123453e+17
19565.0	7.650489828463958e+17
19566.0	7.649958155692713e+17
19567.0	7.649652086145021e+17
19568.0	7.649440957464572e+17
19569.0	7.649108893018793e+17
19570.0	7.648702757164372e+17
19571.0	7.64816758214929e+17
19572.0	7.647425520293204e+17
19573.0	7.646966280355839e+17
19574.0	7.645949146256723e+17
19575.0	7.645799128585556e+17
19576.0	7.645174831600978e+17
19577.0	7.644344177655807e+17
19578.0	7.643676124293802e+17
19579.0	7.643024420328787e+17
19580.0	7.64233871593745e+17
19581.0	7.641670894660264e+17
19582.0	7.641006235888297e+17
19583.0	7.640249939962538e+17
19584.0	7.63945856148002e+17
19585.0	7.63814500053811e+17
19586.0	7.637170077914455e+17
19587.0	7.637104951558143e+17
19588.0	7.634475125746348e+17
19589.0	7.635549109441874e+17
19590.0	7.634529890773672e+17
19591.0	7.634048230883327e+17
19592.0	7.63360450008405e+17
19593.0	7.632609415441064e+17
19594.0	7.630612030554108e+17
19595.0	7.630774352915114e+17
19596.0	7.62315117743309e+17
19597.0	7.628927142286678e+17
19598.0	7.627021015668051e+17
19599.0	7.627112382988287e+17
19600.0	7.626183552969385e+17
19601.0	7.6250127283869e+17
19602.0	7.62478152856371e+17
19603.0	7.621774978755237e+17
19604.0	7.622702793752575e+17
19605.0	7.620521969582081e+17
19606.0	7.620896407683071e+17
19607.0	7.619896538737322e+17
19608.0	7.618822718619645e+17
19609.0	7.617572335080787e+17
19610.0	7.616806808890024e+17
19611.0	7.615705925724842e+17
19612.0	7.614700639136425e+17
19613.0	7.613567842910207e+17
19614.0	7.612341241075027e+17
19615.0	7.612015332469417e+17
19616.0	7.610728511613608e+17
19617.0	7.60985960841216e+17
19618.0	7.606536106235215e+17
19619.0	7.604714543775736e+17
19620.0	7.603719264796666e+17
19621.0	7.60536677482496e+17
19622.0	7.604288465403903e+17
19623.0	7.603170416350547e+17
19624.0	7.601981772966569e+17
19625.0	7.60088728052258e+17
19626.0	7.599677267159721e+17
19627.0	7.59857661607936e+17
19628.0	7.596618942862678e+17
19629.0	7.59598917231138e+17
19630.0	7.593853575320918e+17
19631.0	7.55941136015905e+17
19632.0	7.592804223374676e+17
19633.0	7.591503099942228e+17
19634.0	7.590927493234684e+17
19635.0	7.589647493715283e+17
19636.0	7.588619487980202e+17
19637.0	7.585376385018541e+17
19638.0	7.586225654682964e+17
19639.0	7.58499957014528e+17
19640.0	7.583543253270527e+17
19641.0	7.580453794654897e+17
19642.0	7.581391425721683e+17
19643.0	7.580099598265e+17
19644.0	7.578726439059453e+17
19645.0	7.576632253830482e+17
19646.0	7.576572258506067e+17
19647.0	7.575350624124925e+17
19648.0	7.574094688725674e+17
19649.0	7.572846958783145e+17
19650.0	7.571643256449706e+17
19651.0	7.570370629118633e+17
19652.0	7.569111005528063e+17
19653.0	7.567895840161792e+17
19654.0	7.566604913082365e+17
19655.0	7.565328735972008e+17
19656.0	7.564122016535892e+17
19657.0	7.562860821479424e+17
19658.0	7.5616313409536e+17
19659.0	7.56036105404416e+17
19660.0	7.559128754946047e+17
19661.0	7.557838996679338e+17
19662.0	7.556595907035135e+17
19663.0	7.555100278347089e+17
19664.0	7.553866069442557e+17
19665.0	7.552782395506687e+17
19666.0	7.551621890310143e+17
