# Flux units: erg / (cm m2 s)
# Wavelength units: Angstrom
wave	flux
19000.0	5.338553010967892e+17
19001.0	5.337553528597162e+17
19002.0	5.3365649660968954e+17
19003.0	5.335570980361556e+17
19004.0	5.334577105076223e+17
19005.0	5.333583668095657e+17
19006.0	5.3325901661033805e+17
19007.0	5.3315967528905376e+17
19008.0	5.3306001268408314e+17
19009.0	5.329609351845204e+17
19010.0	5.3285875592724474e+17
19011.0	5.3276229084992845e+17
19012.0	5.32662375747857e+17
19013.0	5.325639350135466e+17
19014.0	5.324646698188799e+17
19015.0	5.323654442603859e+17
19016.0	5.32265883996433e+17
19017.0	5.3216691722649594e+17
19018.0	5.3206780071990605e+17
19019.0	5.319686540143274e+17
19020.0	5.318694192283647e+17
19021.0	5.3177028510569805e+17
19022.0	5.3167121641417376e+17
19023.0	5.315720965521406e+17
19024.0	5.314729251001685e+17
19025.0	5.3137390715972256e+17
19026.0	5.312746574839806e+17
19027.0	5.31175371317794e+17
19028.0	5.310767420495189e+17
19029.0	5.309777151612244e+17
19030.0	5.3087870861530445e+17
19031.0	5.307797175184041e+17
19032.0	5.3068073564897274e+17
19033.0	5.3058128569521485e+17
19034.0	5.304828252476756e+17
19035.0	5.303838931506515e+17
19036.0	5.302549132694868e+17
19037.0	5.301860811057834e+17
19038.0	5.3008720248613536e+17
19039.0	5.299883374979754e+17
19040.0	5.2988948746949965e+17
19041.0	5.2979065603577165e+17
19042.0	5.29691395105314e+17
19043.0	5.2959304133290656e+17
19044.0	5.2949424611000314e+17
19045.0	5.2939549303985485e+17
19046.0	5.292964619572564e+17
19047.0	5.291980068924075e+17
19048.0	5.290980718673919e+17
19049.0	5.2900027041491616e+17
19050.0	5.2890168350911136e+17
19051.0	5.2879864015530656e+17
19052.0	5.2870440714676896e+17
19053.0	5.2860597899537056e+17
19054.0	5.285073694403242e+17
19055.0	5.2840739324122445e+17
19056.0	5.2831020136093005e+17
19057.0	5.2821163878208845e+17
19058.0	5.2811309885248845e+17
19059.0	5.280145715058005e+17
19060.0	5.2791593112261965e+17
19061.0	5.2781757804926285e+17
19062.0	5.2771908202004474e+17
19063.0	5.276206445013673e+17
19064.0	5.275215807031978e+17
19065.0	5.274231089310378e+17
19066.0	5.2732507420535456e+17
19067.0	5.272270148031828e+17
19068.0	5.2712864809833805e+17
19069.0	5.2703030802732365e+17
19070.0	5.2693192181896525e+17
19071.0	5.2683367297406285e+17
19072.0	5.2673537841124685e+17
19073.0	5.266370760889685e+17
19074.0	5.265388503826432e+17
19075.0	5.26440613351697e+17
19076.0	5.2634226587074554e+17
19077.0	5.2624413180996256e+17
19078.0	5.261458415113557e+17
19079.0	5.2604784768013645e+17
19080.0	5.2594970061701114e+17
19081.0	5.2585157305739936e+17
19082.0	5.2575317678271136e+17
19083.0	5.2565495142591136e+17
19084.0	5.255560885349034e+17
19085.0	5.254592463197525e+17
19086.0	5.253595154874366e+17
19087.0	5.252623874304681e+17
19088.0	5.251648613340501e+17
19089.0	5.250658865250304e+17
19090.0	5.2496923955473056e+17
19091.0	5.2487120105417376e+17
19092.0	5.24772930818321e+17
19093.0	5.2467548077861536e+17
19094.0	5.245774144558421e+17
19095.0	5.2447950206402554e+17
19096.0	5.2438175262091936e+17
19097.0	5.242840398779732e+17
19098.0	5.241862283591679e+17
19099.0	5.240884344564393e+17
19100.0	5.2399066068637e+17
19101.0	5.238929003380736e+17
19102.0	5.237945655798442e+17
19103.0	5.236974442337621e+17
19104.0	5.235997440737278e+17
19105.0	5.2350206027147936e+17
19106.0	5.23404251898402e+17
19107.0	5.2330667442175994e+17
19108.0	5.232091246275242e+17
19109.0	5.231091758312106e+17
19110.0	5.230139208805033e+17
19111.0	5.2291635801402016e+17
19112.0	5.228188061226324e+17
19113.0	5.227212750629546e+17
19114.0	5.226237595222014e+17
19115.0	5.2252608648533325e+17
19116.0	5.224287821277865e+17
19117.0	5.2233125547212794e+17
19118.0	5.222333545447423e+17
19119.0	5.2210809074701645e+17
19120.0	5.2203881042193056e+17
19121.0	5.2194151606080845e+17
19122.0	5.2174819164160006e+17
19123.0	5.215208442866346e+17
19124.0	5.214235940356094e+17
19125.0	5.2132635343148365e+17
19126.0	5.212290985667241e+17
19127.0	5.2112224615574176e+17
19128.0	5.2103440177124685e+17
19129.0	5.2093711537930234e+17
19130.0	5.2084043331665914e+17
19131.0	5.207432971507028e+17
19132.0	5.20646181327121e+17
19133.0	5.2054821839394125e+17
19134.0	5.2045203950796794e+17
19135.0	5.203549754141353e+17
19136.0	5.2025795053704525e+17
19137.0	5.201600222767785e+17
19138.0	5.200638088577023e+17
19139.0	5.1996694476226554e+17
19140.0	5.198699805627732e+17
19141.0	5.1977303670565536e+17
19142.0	5.196760925689172e+17
19143.0	5.195788604932094e+17
19144.0	5.1948229027867296e+17
19145.0	5.193854317756415e+17
19146.0	5.192853812674559e+17
19147.0	5.191912422113279e+17
19148.0	5.1909490030673914e+17
19149.0	5.1899809989481805e+17
19150.0	5.189012694936234e+17
19151.0	5.1880455674265594e+17
19152.0	5.187077889064959e+17
19153.0	5.1861107580600314e+17
19154.0	5.185136605790207e+17
19155.0	5.1841766239764474e+17
19156.0	5.1832096775208954e+17
19157.0	5.182242944974847e+17
19158.0	5.181260896228693e+17
19159.0	5.180309224729258e+17
19160.0	5.179343863021567e+17
19161.0	5.178378413233494e+17
19162.0	5.177376217148074e+17
19163.0	5.176447014535167e+17
19164.0	5.175481666109439e+17
19165.0	5.174515606749183e+17
19166.0	5.173544063336447e+17
19167.0	5.172583016169471e+17
19168.0	5.1716192385105914e+17
19169.0	5.170655125307392e+17
19170.0	5.1696926933210445e+17
19171.0	5.1687261928598176e+17
19172.0	5.1677644347583136e+17
19173.0	5.16680048583202e+17
19174.0	5.1658335883100154e+17
19175.0	5.1648732541747194e+17
19176.0	5.163909847711743e+17
19177.0	5.162938444808192e+17
19178.0	5.161983145235796e+17
19179.0	5.1610171522853536e+17
19180.0	5.16005666226176e+17
19181.0	5.15908793602321e+17
19182.0	5.1581317116067834e+17
19183.0	5.15717035336226e+17
19184.0	5.156206163263487e+17
19185.0	5.155246013677567e+17
19186.0	5.154284423348223e+17
19187.0	5.15332256038912e+17
19188.0	5.1523611776778234e+17
19189.0	5.151400115830783e+17
19190.0	5.1504388337827834e+17
19191.0	5.1494773713797114e+17
19192.0	5.148516884152319e+17
19193.0	5.147555721641983e+17
19194.0	5.1465954000896e+17
19195.0	5.1456350030397434e+17
19196.0	5.1446740942847994e+17
19197.0	5.143713964272298e+17
19198.0	5.142754341770581e+17
19199.0	5.141579201249279e+17
19200.0	5.140702315588266e+17
19201.0	5.1398751303325005e+17
19202.0	5.1389158000339616e+17
19203.0	5.1379564990955514e+17
19204.0	5.136995788870996e+17
19205.0	5.136038230665898e+17
19206.0	5.1350786522043725e+17
19207.0	5.134117949669375e+17
19208.0	5.1331483670937594e+17
19209.0	5.132203313506985e+17
19210.0	5.131244869604693e+17
19211.0	5.1302865473372154e+17
19212.0	5.129328409619113e+17
19213.0	5.1283644690814285e+17
19214.0	5.12740544426803e+17
19215.0	5.1264539020929696e+17
19216.0	5.125496575972692e+17
19217.0	5.1245392924945043e+17
19218.0	5.123537136254975e+17
19219.0	5.122616466953555e+17
19220.0	5.1216672575105696e+17
19221.0	5.1206921230745594e+17
19222.0	5.1197530701387085e+17
19223.0	5.118795916683945e+17
19224.0	5.117838764627283e+17
19225.0	5.116874530488319e+17
19226.0	5.1159258299542176e+17
19227.0	5.114969397220692e+17
19228.0	5.114012928835584e+17
19229.0	5.1130565261612365e+17
19230.0	5.1120999620061856e+17
19231.0	5.1111440752312314e+17
19232.0	5.110187257320788e+17
19233.0	5.109230665203711e+17
19234.0	5.1082744316996256e+17
19235.0	5.1073200171253754e+17
19236.0	5.106364138039977e+17
19237.0	5.105407514465619e+17
19238.0	5.104447519369898e+17
19239.0	5.10349717746483e+17
19240.0	5.102536851019092e+17
19241.0	5.1015942350219936e+17
19242.0	5.1006399644521805e+17
19243.0	5.0996759001825274e+17
19244.0	5.0987290870852256e+17
19245.0	5.097773718306815e+17
19246.0	5.096817519056213e+17
19247.0	5.0958630911999994e+17
19248.0	5.0949078908928e+17
19249.0	5.093952589922303e+17
19250.0	5.0929970792366074e+17
19251.0	5.0920382221953683e+17
19252.0	5.091069806335317e+17
19253.0	5.090131153955498e+17
19254.0	5.089175985804628e+17
19255.0	5.0882104325570554e+17
19256.0	5.0872656054626976e+17
19257.0	5.086311129371989e+17
19258.0	5.085355837489151e+17
19259.0	5.0843965022972576e+17
19260.0	5.0834401080115194e+17
19261.0	5.0824900429305165e+17
19262.0	5.081534787398313e+17
19263.0	5.0805778876989434e+17
19264.0	5.0795955642258765e+17
19265.0	5.0786569551871994e+17
19266.0	5.077700566493865e+17
19267.0	5.0767572933891405e+17
19268.0	5.07580158906641e+17
19269.0	5.0748457966632954e+17
19270.0	5.0738898973054285e+17
19271.0	5.072915345877674e+17
19272.0	5.0719759343288314e+17
19273.0	5.070879745987924e+17
19274.0	5.0699886863755936e+17
19275.0	5.0691089150334285e+17
19276.0	5.0681523271106554e+17
19277.0	5.067195598678698e+17
19278.0	5.0662387304366074e+17
19279.0	5.065281522455892e+17
19280.0	5.064319970574335e+17
19281.0	5.0633669261393914e+17
19282.0	5.062409339273215e+17
19283.0	5.061448307485353e+17
19284.0	5.0604904130368845e+17
19285.0	5.0595254868377594e+17
19286.0	5.058576676552703e+17
19287.0	5.057617924369066e+17
19288.0	5.0565975138194765e+17
19289.0	5.0554827845577376e+17
19290.0	5.054740030641493e+17
19291.0	5.053766388678655e+17
19292.0	5.0528198880570016e+17
19293.0	5.0518588793378125e+17
19294.0	5.050898388615166e+17
19295.0	5.049937138024447e+17
19296.0	5.048975470100479e+17
19297.0	5.0480132862771194e+17
19298.0	5.04705091580723e+17
19299.0	5.044759026466815e+17
19300.0	5.042685771513855e+17
19301.0	5.0417211151482874e+17
19302.0	5.0407564399083514e+17
19303.0	5.039786656006143e+17
19304.0	5.038823220183038e+17
19305.0	5.037859054551039e+17
19306.0	5.0368921269698554e+17
19307.0	5.0359231609569274e+17
19308.0	5.0349560635064314e+17
19309.0	5.033979509997566e+17
19310.0	5.0330059645037216e+17
19311.0	5.0320443951458976e+17
19312.0	5.031075626265258e+17
19313.0	5.030102502998015e+17
19314.0	5.028819770889555e+17
19315.0	5.027881982536363e+17
19316.0	5.0271818119905274e+17
19317.0	5.026206815966549e+17
19318.0	5.025230173678251e+17
19319.0	5.024252700218709e+17
19320.0	5.023273781821439e+17
19321.0	5.02229432865041e+17
19322.0	5.0213085155164154e+17
19323.0	5.020327842501973e+17
19324.0	5.0193481341774496e+17
19325.0	5.0183565608659616e+17
19326.0	5.017377719364266e+17
19327.0	5.016389583284907e+17
19328.0	5.0154018121099936e+17
19329.0	5.0144116599685114e+17
19330.0	5.013417525335382e+17
19331.0	5.0124262505185274e+17
19332.0	5.0114315699268256e+17
19333.0	5.0104347858916685e+17
19334.0	5.009435862761471e+17
19335.0	5.0084357540413434e+17
19336.0	5.0074331601960954e+17
19337.0	5.006428494364671e+17
19338.0	5.0054108219965434e+17
19339.0	5.0043721361653766e+17
19340.0	5.000639641113941e+17
19341.0	4.999628858589183e+17
19342.0	4.998590538361513e+17
19343.0	4.997588647761236e+17
19344.0	4.99656395203106e+17
19345.0	4.9954087421433165e+17
19346.0	4.994478759389865e+17
19347.0	4.9934679335239674e+17
19348.0	4.9924342759642445e+17
19349.0	4.9913934643199994e+17
19350.0	4.990348895977471e+17
19351.0	4.989300722630655e+17
19352.0	4.9882474154557434e+17
19353.0	4.987192018818389e+17
19354.0	4.9861313142893216e+17
19355.0	4.985061496236715e+17
19356.0	4.9839959619665914e+17
19357.0	4.982921072301396e+17
19358.0	4.98030712332834e+17
19359.0	4.979188627581609e+17
19360.0	4.978099749912575e+17
19361.0	4.9769979328157005e+17
19362.0	4.9758934656177485e+17
19363.0	4.9747797520766285e+17
19364.0	4.973658850197503e+17
19365.0	4.972531349979135e+17
19366.0	4.9713958721945594e+17
19367.0	4.9702524958365e+17
19368.0	4.969100800775508e+17
19369.0	4.9679370848392506e+17
19370.0	4.966755247412564e+17
19371.0	4.9655911735623674e+17
19372.0	4.9644016759384736e+17
19373.0	4.9632015024127994e+17
19374.0	4.9619902706046285e+17
19375.0	4.960767112293034e+17
19376.0	4.959531985534975e+17
19377.0	4.9582833726914554e+17
19378.0	4.957021616996351e+17
19379.0	4.955745256734719e+17
19380.0	4.954453740355583e+17
19381.0	4.9531462940098554e+17
19382.0	4.951817368633343e+17
19383.0	4.9504742007985485e+17
19384.0	4.948866007476906e+17
19385.0	4.947112054401706e+17
19386.0	4.9457096014779725e+17
19387.0	4.944284847439872e+17
19388.0	4.9428368038297594e+17
19389.0	4.9413641592285856e+17
19390.0	4.9398654721938765e+17
19391.0	4.938067062292478e+17
19392.0	4.9367839324241914e+17
19393.0	4.935198347100159e+17
19394.0	4.9335793108036256e+17
19395.0	4.9319263460829856e+17
19396.0	4.930236637162153e+17
19397.0	4.928508941129044e+17
19398.0	4.9267395956572154e+17
19399.0	4.924885101619881e+17
19400.0	4.9230664535026336e+17
19401.0	4.9211595649187834e+17
19402.0	4.919199733732692e+17
19403.0	4.917184523053738e+17
19404.0	4.9151113526859085e+17
19405.0	4.9129759115837434e+17
19406.0	4.9107745898495994e+17
19407.0	4.9085035315199994e+17
19408.0	4.906115168993279e+17
19409.0	4.9037399458228896e+17
19410.0	4.9004889498801466e+17
19411.0	4.8976355005562874e+17
19412.0	4.8949353131977376e+17
19413.0	4.892134365375145e+17
19414.0	4.8892245229349536e+17
19415.0	4.8862055691714554e+17
19416.0	4.8830559565469e+17
19417.0	4.8788586172689056e+17
19418.0	4.874921254933845e+17
19419.0	4.8713473360308896e+17
19420.0	4.8676201677455354e+17
19421.0	4.862019196245332e+17
19422.0	4.8576957174688416e+17
19423.0	4.8522787312107514e+17
19424.0	4.8463060059641165e+17
19425.0	4.839366657922387e+17
19426.0	4.8320177822324077e+17
19427.0	4.82313477973606e+17
19428.0	4.812492593168386e+17
19429.0	4.7996711846543424e+17
19430.0	4.782078934996311e+17
19431.0	4.761867013237424e+17
19432.0	4.748971385815039e+17
19433.0	4.737615206372693e+17
19434.0	4.725323695740244e+17
19435.0	4.7120468885722445e+17
19436.0	4.6977618595020794e+17
19437.0	4.682166646603776e+17
19438.0	4.6646939499888614e+17
19439.0	4.6473355397693446e+17
19440.0	4.6272116816172365e+17
19441.0	4.6041172705716896e+17
19442.0	4.5732524444003014e+17
19443.0	4.5224143272017926e+17
19444.0	4.45585077864584e+17
19445.0	4.4080424896430086e+17
19446.0	4.352826097183403e+17
19447.0	4.279642109596998e+17
19448.0	4.147390506336266e+17
19449.0	3.9770600285143123e+17
19450.0	3.514786255994883e+17
19451.0	3.370029768070478e+17
19452.0	3.7792471105317664e+17
19453.0	4.077568825229315e+17
19454.0	4.216520196489208e+17
19455.0	4.3154414232753466e+17
19456.0	4.3747406980491955e+17
19457.0	4.4238760830129466e+17
19458.0	4.475556254973944e+17
19459.0	4.539846763391656e+17
19460.0	4.575906727897766e+17
19461.0	4.600252113179985e+17
19462.0	4.619634995101695e+17
19463.0	4.6370080930747725e+17
19464.0	4.652311606110889e+17
19465.0	4.6671410055086086e+17
19466.0	4.6801330215321574e+17
19467.0	4.6921075930781e+17
19468.0	4.703087581899434e+17
19469.0	4.7130704714137594e+17
19470.0	4.722539902621017e+17
19471.0	4.738024238394025e+17
19472.0	4.755643442746713e+17
19473.0	4.76824914379845e+17
19474.0	4.778374662717444e+17
19475.0	4.785860657894737e+17
19476.0	4.7925197439412896e+17
19477.0	4.797806170603521e+17
19478.0	4.801513622863869e+17
19479.0	4.8065303173311123e+17
19480.0	4.808951305950549e+17
19481.0	4.8121483785229645e+17
19482.0	4.8150045163956896e+17
19483.0	4.8168384164003834e+17
19484.0	4.8185215926927354e+17
19485.0	4.821072902531755e+17
19486.0	4.822845441267029e+17
19487.0	4.824107649247913e+17
19488.0	4.825250630642346e+17
19489.0	4.8262820309674656e+17
19490.0	4.8271276774522874e+17
19491.0	4.828041040276138e+17
19492.0	4.829108881413462e+17
19493.0	4.83037629452561e+17
19494.0	4.8309379621628576e+17
19495.0	4.831422764985002e+17
19496.0	4.8318141669485216e+17
19497.0	4.8321804331472205e+17
19498.0	4.8324567776624634e+17
19499.0	4.832225109475327e+17
19500.0	4.832851999937876e+17
19501.0	4.8329646603414176e+17
19502.0	4.8330265591807994e+17
19503.0	4.833041908935338e+17
19504.0	4.8330128452048205e+17
19505.0	4.8329416776526483e+17
19506.0	4.832830824994132e+17
19507.0	4.832682024370175e+17
19508.0	4.832499800036692e+17
19509.0	4.832283552208213e+17
19510.0	4.832025581540693e+17
19511.0	4.8311713563060896e+17
19512.0	4.831406289059839e+17
19513.0	4.8309811033757e+17
19514.0	4.830685693651626e+17
19515.0	4.830356544946176e+17
19516.0	4.8299840166516045e+17
19517.0	4.829557446847145e+17
19518.0	4.8291184129693005e+17
19519.0	4.828656153133055e+17
19520.0	4.8281750433955834e+17
19521.0	4.827679080928596e+17
19522.0	4.8271657813060256e+17
19523.0	4.827216489742336e+17
19524.0	4.826680993862995e+17
19525.0	4.8261216869198496e+17
19526.0	4.8255517040749216e+17
19527.0	4.8249682959619405e+17
19528.0	4.824373156380671e+17
19529.0	4.8237668515621536e+17
19530.0	4.8231498638513485e+17
19531.0	4.822522736410624e+17
19532.0	4.821886015198548e+17
19533.0	4.821240097275904e+17
19534.0	4.8205854342294176e+17
19535.0	4.8199224839372794e+17
19536.0	4.819251212146004e+17
19537.0	4.81857313509649e+17
19538.0	4.81788602421521e+17
19539.0	4.817160476033024e+17
19540.0	4.816495608943957e+17
19541.0	4.815790354202623e+17
19542.0	4.815078970884095e+17
19543.0	4.81436184346624e+17
19544.0	4.813639241782613e+17
19545.0	4.8128932890105165e+17
19546.0	4.8121217635669325e+17
19547.0	4.811440884722346e+17
19548.0	4.8106985802956794e+17
19549.0	4.809946844976469e+17
19550.0	4.809201513660415e+17
19551.0	4.809316426405204e+17
19552.0	4.8091229655313056e+17
19553.0	4.8083567263088634e+17
19554.0	4.807586563315028e+17
19555.0	4.806817025272489e+17
19556.0	4.806041863367338e+17
19557.0	4.805263383068671e+17
19558.0	4.8044824365192525e+17
19559.0	4.803698243578539e+17
19560.0	4.802912097490261e+17
19561.0	4.802122914725888e+17
19562.0	4.8013313936370336e+17
19563.0	4.8005373979088205e+17
19564.0	4.799741214851071e+17
19565.0	4.798942826987519e+17
19566.0	4.7981411549839354e+17
19567.0	4.797339747221503e+17
19568.0	4.7965354307092474e+17
19569.0	4.79572867031586e+17
19570.0	4.794921106713258e+17
19571.0	4.794111365567829e+17
19572.0	4.793299973264725e+17
19573.0	4.792486230054229e+17
19574.0	4.7916689713179296e+17
19575.0	4.7908565031758496e+17
19576.0	4.790039125600938e+17
19577.0	4.789218242985983e+17
19578.0	4.788398135618217e+17
19579.0	4.7875791774897485e+17
19580.0	4.786756667484843e+17
19581.0	4.7865430005514195e+17
19582.0	4.7876004216395085e+17
19583.0	4.7867719536257696e+17
19584.0	4.785942513232553e+17
19585.0	4.785107829959338e+17
19586.0	4.784273311662079e+17
19587.0	4.783447072221866e+17
19588.0	4.782589631354196e+17
19589.0	4.7817816497192954e+17
19590.0	4.780943443230719e+17
19591.0	4.7801120252231674e+17
19592.0	4.779275840389119e+17
19593.0	4.7784393158164474e+17
19594.0	4.777588283146239e+17
19595.0	4.7767638088089594e+17
19596.0	4.775901288639146e+17
19597.0	4.775086052955476e+17
19598.0	4.774227806781439e+17
19599.0	4.7734060629360634e+17
19600.0	4.772565262270464e+17
19601.0	4.771721812202837e+17
19602.0	4.770879901444778e+17
19603.0	4.770014037016576e+17
19604.0	4.769197009666046e+17
19605.0	4.768337868707157e+17
19606.0	4.7675103444118176e+17
19607.0	4.7666666797356365e+17
19608.0	4.765822127964159e+17
19609.0	4.764976355650217e+17
19610.0	4.764132811210751e+17
19611.0	4.7632871025104205e+17
19612.0	4.7624419306810016e+17
19613.0	4.761595991293952e+17
19614.0	4.7607498009477114e+17
19615.0	4.759903333777408e+17
19616.0	4.7590542570509645e+17
19617.0	4.7582096556468896e+17
19618.0	4.7573338465239034e+17
19619.0	4.756473668173824e+17
19620.0	4.755630566932479e+17
19621.0	4.7548195458252794e+17
19622.0	4.7539714659450874e+17
19623.0	4.753123285401598e+17
19624.0	4.752274897240063e+17
19625.0	4.751426317538645e+17
19626.0	4.750577624591019e+17
19627.0	4.749728784842751e+17
19628.0	4.7488746980201805e+17
19629.0	4.74802595893521e+17
19630.0	4.747179482677247e+17
19631.0	4.74609123205666e+17
19632.0	4.745482496638975e+17
19633.0	4.7446329179941536e+17
19634.0	4.7437833421455354e+17
19635.0	4.742933655147861e+17
19636.0	4.7420838444182176e+17
19637.0	4.7412150306952525e+17
19638.0	4.740383488256682e+17
19639.0	4.7395339564482554e+17
19640.0	4.7386835172720634e+17
19641.0	4.7377808897693e+17
19642.0	4.736983671417514e+17
19643.0	4.736133182608724e+17
19644.0	4.7352815571435514e+17
19645.0	4.73441770737937e+17
19646.0	4.733582746583039e+17
19647.0	4.7327324730818554e+17
19648.0	4.73188218699776e+17
19649.0	4.7310317492196685e+17
19650.0	4.7301815875665914e+17
19651.0	4.729331287501483e+17
19652.0	4.728480987436373e+17
19653.0	4.7276305992908794e+17
19654.0	4.7267804250548896e+17
19655.0	4.725929962110976e+17
