# Flux units: erg / (cm m2 s)
# Wavelength units: Angstrom
wave	flux
19000.0	6.612665550678697e+17
19001.0	6.611346399428607e+17
19002.0	6.610220027478015e+17
19003.0	6.608990500814847e+17
19004.0	6.607764282758484e+17
19005.0	6.606542154148521e+17
19006.0	6.605325088063487e+17
19007.0	6.604083436366506e+17
19008.0	6.602818208486739e+17
19009.0	6.601530622869503e+17
19010.0	6.600034850876073e+17
19011.0	6.599180659195903e+17
19012.0	6.597674647508307e+17
19013.0	6.59677331534643e+17
19014.0	6.595499538077012e+17
19015.0	6.594292666247849e+17
19016.0	6.593066580312064e+17
19017.0	6.59188557685282e+17
19018.0	6.590644013935274e+17
19019.0	6.589431983112192e+17
19020.0	6.588196026580991e+17
19021.0	6.586990923350016e+17
19022.0	6.585762712999252e+17
19023.0	6.584505020186623e+17
19024.0	6.583299559041705e+17
19025.0	6.582069725495295e+17
19026.0	6.580807063830528e+17
19027.0	6.579384882298879e+17
19028.0	6.578413911408639e+17
19029.0	6.577187023661738e+17
19030.0	6.575986463561044e+17
19031.0	6.574760535610708e+17
19032.0	6.573527272521727e+17
19033.0	6.572205822093994e+17
19034.0	6.571010632100522e+17
19035.0	6.569384139729577e+17
19036.0	6.550954418285221e+17
19037.0	6.567069929002324e+17
19038.0	6.566118749634559e+17
19039.0	6.564961833364138e+17
19040.0	6.563753847947263e+17
19041.0	6.562530214281215e+17
19042.0	6.561103454666751e+17
19043.0	6.560100398749012e+17
19044.0	6.558867431358463e+17
19045.0	6.557644429634217e+17
19046.0	6.556389941269844e+17
19047.0	6.555179274294611e+17
19048.0	6.553784276047188e+17
19049.0	6.552427207589887e+17
19050.0	6.551437038671188e+17
19051.0	6.547651244501672e+17
19052.0	6.548303904068948e+17
19053.0	6.547843976265727e+17
19054.0	6.546659417434793e+17
19055.0	6.54516563354146e+17
19056.0	6.544189526026921e+17
19057.0	6.543004728819711e+17
19058.0	6.541648817990312e+17
19059.0	6.540517657542655e+17
19060.0	6.539336486311252e+17
19061.0	6.538135783604224e+17
19062.0	6.536912326098943e+17
19063.0	6.535692674924543e+17
19064.0	6.534368361185279e+17
19065.0	6.533086913931946e+17
19066.0	6.531934458303828e+17
19067.0	6.53080919015424e+17
19068.0	6.529603582208682e+17
19069.0	6.528386081314132e+17
19070.0	6.527140171000489e+17
19071.0	6.525933287986516e+17
19072.0	6.524681467199487e+17
19073.0	6.523510648209408e+17
19074.0	6.522296980209663e+17
19075.0	6.521079084351487e+17
19076.0	6.519845654189395e+17
19077.0	6.518627782797993e+17
19078.0	6.51739638267904e+17
19079.0	6.516208657148585e+17
19080.0	6.514978976694271e+17
19081.0	6.513729918555476e+17
19082.0	6.512523750670335e+17
19083.0	6.511234128019455e+17
19084.0	6.509898873438208e+17
19085.0	6.50888642437666e+17
19086.0	6.50719627715106e+17
19087.0	6.506015620420948e+17
19088.0	6.504974027937107e+17
19089.0	6.503663113601024e+17
19090.0	6.502737500613289e+17
19091.0	6.501550835542698e+17
19092.0	6.500160615306582e+17
19093.0	6.499168935739391e+17
19094.0	6.497968133767167e+17
19095.0	6.496756997029887e+17
19096.0	6.495531232657405e+17
19097.0	6.494327273073321e+17
19098.0	6.493060821854889e+17
19099.0	6.491836603083434e+17
19100.0	6.490651342405631e+17
19101.0	6.489458049635668e+17
19102.0	6.488165391706793e+17
19103.0	6.487044096262143e+17
19104.0	6.485832585532756e+17
19105.0	6.484485313571497e+17
19106.0	6.483338167233193e+17
19107.0	6.482122461500756e+17
19108.0	6.480860364668927e+17
19109.0	6.478701380938409e+17
19110.0	6.478318438886057e+17
19111.0	6.47727467794705e+17
19112.0	6.476083415919274e+17
19113.0	6.474907848977065e+17
19114.0	6.473655977159337e+17
19115.0	6.47238870036207e+17
19116.0	6.471236697718783e+17
19117.0	6.470015866546857e+17
19118.0	6.468665217471828e+17
19119.0	6.462891236524024e+17
19120.0	6.466223685151401e+17
19121.0	6.465081643980116e+17
19122.0	6.463997932295508e+17
19123.0	6.462791696602452e+17
19124.0	6.461472353113427e+17
19125.0	6.460360256476499e+17
19126.0	6.459109315794259e+17
19127.0	6.456418273416532e+17
19128.0	6.456569933856767e+17
19129.0	6.45544627212561e+17
19130.0	6.454312961398102e+17
19131.0	6.453118729104042e+17
19132.0	6.451908464082943e+17
19133.0	6.450635555733503e+17
19134.0	6.449431433270612e+17
19135.0	6.448280909818537e+17
19136.0	6.447076246290432e+17
19137.0	6.445739449603411e+17
19138.0	6.444645933034153e+17
19139.0	6.443457573464744e+17
19140.0	6.442253417447423e+17
19141.0	6.441046625310036e+17
19142.0	6.439814819741693e+17
19143.0	6.438587245527039e+17
19144.0	6.437385491447808e+17
19145.0	6.436218218741759e+17
19146.0	6.434419447431168e+17
19147.0	6.433730935652351e+17
19148.0	6.432548210431316e+17
19149.0	6.43133013631522e+17
19150.0	6.430180936865108e+17
19151.0	6.428973049315327e+17
19152.0	6.427749767271763e+17
19153.0	6.426451990194857e+17
19154.0	6.425241840517119e+17
19155.0	6.4241304876701e+17
19156.0	6.42291404443921e+17
19157.0	6.421559719755775e+17
19158.0	6.419858322008745e+17
19159.0	6.419209143014739e+17
19160.0	6.418053522085204e+17
19161.0	6.416788749287423e+17
19162.0	6.41404301807889e+17
19163.0	6.414149180107434e+17
19164.0	6.413253984212308e+17
19165.0	6.411949373915135e+17
19166.0	6.41074096976691e+17
19167.0	6.409523294109695e+17
19168.0	6.408449000734719e+17
19169.0	6.407254919435604e+17
19170.0	6.406069831423316e+17
19171.0	6.404801993987412e+17
19172.0	6.40364592566545e+17
19173.0	6.402469724684287e+17
19174.0	6.401230590268756e+17
19175.0	6.400072986831529e+17
19176.0	6.398867541065727e+17
19177.0	6.397515548415315e+17
19178.0	6.396391283403433e+17
19179.0	6.395143666008063e+17
19180.0	6.394034504684884e+17
19181.0	6.39274814939682e+17
19182.0	6.391635921338368e+17
19183.0	6.39045842571537e+17
19184.0	6.389252575898282e+17
19185.0	6.388043351064576e+17
19186.0	6.38684955288098e+17
19187.0	6.385576081795753e+17
19188.0	6.384438854287359e+17
19189.0	6.383234490651988e+17
19190.0	6.382016141109929e+17
19191.0	6.380777047938388e+17
19192.0	6.379613592748031e+17
19193.0	6.37837876797986e+17
19194.0	6.377140791891284e+17
19195.0	6.375934036104532e+17
19196.0	6.374638655373311e+17
19197.0	6.37325349626402e+17
19198.0	6.371275677805225e+17
19199.0	6.359774123087186e+17
19200.0	6.360568638210049e+17
19201.0	6.367792996199081e+17
19202.0	6.367278745168553e+17
19203.0	6.366218812391423e+17
19204.0	6.365103351223635e+17
19205.0	6.363954887873876e+17
19206.0	6.362778234606931e+17
19207.0	6.361483392144723e+17
19208.0	6.360216620062035e+17
19209.0	6.359201332155731e+17
19210.0	6.358009747166547e+17
19211.0	6.356809252776618e+17
19212.0	6.355555895476223e+17
19213.0	6.35419940233762e+17
19214.0	6.352950970548223e+17
19215.0	6.351903193563136e+17
19216.0	6.350755973824511e+17
19217.0	6.349532385596756e+17
19218.0	6.347678020883794e+17
19219.0	6.346979562313044e+17
19220.0	6.345928068475561e+17
19221.0	6.344506934121812e+17
19222.0	6.343530639261695e+17
19223.0	6.342343588315135e+17
19224.0	6.341115217182719e+17
19225.0	6.339844385013759e+17
19226.0	6.338740472162986e+17
19227.0	6.337540872557908e+17
19228.0	6.336366780612607e+17
19229.0	6.335163980054527e+17
19230.0	6.333960209913172e+17
19231.0	6.332747608664746e+17
19232.0	6.331548661273939e+17
19233.0	6.330285994016768e+17
19234.0	6.329136025610921e+17
19235.0	6.327921762020009e+17
19236.0	6.326747287693994e+17
19237.0	6.325531136666281e+17
19238.0	6.324242489191082e+17
19239.0	6.323138843377663e+17
19240.0	6.321931759736148e+17
19241.0	6.320710939749033e+17
19242.0	6.319514163609599e+17
19243.0	6.318167921349971e+17
19244.0	6.317122988802047e+17
19245.0	6.315911859055274e+17
19246.0	6.314699217261908e+17
19247.0	6.313506127915689e+17
19248.0	6.312302780699988e+17
19249.0	6.311086991081472e+17
19250.0	6.309849414150825e+17
19251.0	6.308567662111401e+17
19252.0	6.307185980779178e+17
19253.0	6.306246731410089e+17
19254.0	6.3050623760029e+17
19255.0	6.303663641329663e+17
19256.0	6.302627185470122e+17
19257.0	6.301438415557972e+17
19258.0	6.300227973677055e+17
19259.0	6.298938536274602e+17
19260.0	6.297425543867049e+17
19261.0	6.296578481105577e+17
19262.0	6.29532570821154e+17
19263.0	6.294089648919894e+17
19264.0	6.292482427278675e+17
19265.0	6.291560575183529e+17
19266.0	6.290332759097344e+17
19267.0	6.289323545941331e+17
19268.0	6.288103677362175e+17
19269.0	6.286891288625151e+17
19270.0	6.285661183148031e+17
19271.0	6.284172171673599e+17
19272.0	6.283207319573843e+17
19273.0	6.281632531786409e+17
19274.0	6.280256253416788e+17
19275.0	6.279505182894761e+17
19276.0	6.278269869490176e+17
19277.0	6.27705472229922e+17
19278.0	6.275836688728064e+17
19279.0	6.274586669394602e+17
19280.0	6.2733195687581e+17
19281.0	6.272149542491476e+17
19282.0	6.270926525388115e+17
19283.0	6.269603977450836e+17
19284.0	6.268387171412649e+17
19285.0	6.267115703107584e+17
19286.0	6.265958871422292e+17
19287.0	6.264692729184255e+17
19288.0	6.258250291522214e+17
19289.0	6.25069982010571e+17
19290.0	6.260975596470271e+17
19291.0	6.259599262875649e+17
19292.0	6.258635270608212e+17
19293.0	6.257403884470271e+17
19294.0	6.256164243942057e+17
19295.0	6.254939096132265e+17
19296.0	6.253632027273898e+17
19297.0	6.25241946657041e+17
19298.0	6.251188157328041e+17
19299.0	6.249899695800319e+17
19300.0	6.248716383376724e+17
19301.0	6.247347665939113e+17
19302.0	6.246081125941248e+17
19303.0	6.244770206012756e+17
19304.0	6.2435596711581e+17
19305.0	6.24230888706321e+17
19306.0	6.241052199485439e+17
19307.0	6.239739923398655e+17
19308.0	6.238472105536169e+17
19309.0	6.236861847917908e+17
19310.0	6.235432761862825e+17
19311.0	6.234590194696191e+17
19312.0	6.233417810531668e+17
19313.0	6.232093633107284e+17
19314.0	6.209913820807153e+17
19315.0	6.210525311183564e+17
19316.0	6.228110600394067e+17
19317.0	6.226933094984361e+17
19318.0	6.225536896466944e+17
19319.0	6.224267061144234e+17
19320.0	6.222950962648404e+17
19321.0	6.221619804504063e+17
19322.0	6.220267874768212e+17
19323.0	6.218909361373183e+17
19324.0	6.217655172901545e+17
19325.0	6.216135810744319e+17
19326.0	6.215053070740137e+17
19327.0	6.213776639874388e+17
19328.0	6.21223846416657e+17
19329.0	6.210914575450111e+17
19330.0	6.20955789566498e+17
19331.0	6.208207761091241e+17
19332.0	6.206918791353684e+17
19333.0	6.205561441878015e+17
19334.0	6.204227866416467e+17
19335.0	6.202660672416426e+17
19336.0	6.201377202110463e+17
19337.0	6.199828532953087e+17
19338.0	6.198265025047209e+17
19339.0	6.197083293177171e+17
19340.0	6.195601579791702e+17
19341.0	6.194190813757439e+17
19342.0	6.192576613493418e+17
19343.0	6.191391847044436e+17
19344.0	6.18980552282385e+17
19345.0	6.18675405481574e+17
19346.0	6.186185970592425e+17
19347.0	6.185451637440511e+17
19348.0	6.18410746716706e+17
19349.0	6.182629927114068e+17
19350.0	6.181155177671337e+17
19351.0	6.179727568011264e+17
19352.0	6.178121474637823e+17
19353.0	6.17682397438498e+17
19354.0	6.17533921104145e+17
19355.0	6.173747369213952e+17
19356.0	6.172329607779668e+17
19357.0	6.170810751036073e+17
19358.0	6.16926792524322e+17
19359.0	6.167671181672447e+17
19360.0	6.166046239795882e+17
19361.0	6.164512584149674e+17
19362.0	6.162797804475732e+17
19363.0	6.161198714191872e+17
19364.0	6.159583512188244e+17
19365.0	6.157952895418367e+17
19366.0	6.156306550008489e+17
19367.0	6.154644371800064e+17
19368.0	6.152966617344681e+17
19369.0	6.151222882293075e+17
19370.0	6.149355834703872e+17
19371.0	6.147427297918975e+17
19372.0	6.145729877770239e+17
19373.0	6.143939852282538e+17
19374.0	6.142156456591359e+17
19375.0	6.140340829771092e+17
19376.0	6.138499548490409e+17
19377.0	6.136389238958761e+17
19378.0	6.134216383965866e+17
19379.0	6.132287678010708e+17
19380.0	6.13025371320047e+17
19381.0	6.128165499262292e+17
19382.0	6.125732615596713e+17
19383.0	6.123289708942676e+17
19384.0	6.121267878952959e+17
19385.0	6.119142919416489e+17
19386.0	6.116580636579156e+17
19387.0	6.113825988280319e+17
19388.0	6.111544572116991e+17
19389.0	6.109185163569834e+17
19390.0	6.105535538877779e+17
19391.0	6.087904021446636e+17
19392.0	6.099918279497042e+17
19393.0	6.096737710811816e+17
19394.0	6.093905174986751e+17
19395.0	6.090462841886038e+17
19396.0	6.086873718631081e+17
19397.0	6.083958247434921e+17
19398.0	6.080273575837695e+17
19399.0	6.07684955297109e+17
19400.0	6.074408593173162e+17
19401.0	6.07106649694754e+17
19402.0	6.067676952657919e+17
19403.0	6.064449211334655e+17
19404.0	6.061151030170964e+17
19405.0	6.057702372059818e+17
19406.0	6.053223426512212e+17
19407.0	6.049215675367423e+17
19408.0	6.044775292250794e+17
19409.0	6.04107209511185e+17
19410.0	6.035354475823103e+17
19411.0	6.030924440753492e+17
19412.0	6.025700176472748e+17
19413.0	6.019061089566719e+17
19414.0	6.014072106866003e+17
19415.0	6.006333370619222e+17
19416.0	6.000450290931027e+17
19417.0	5.991924619367762e+17
19418.0	5.985534797851306e+17
19419.0	5.974846127909545e+17
19420.0	5.965878489950883e+17
19421.0	5.955370682591914e+17
19422.0	5.942924188232355e+17
19423.0	5.931394054924973e+17
19424.0	5.91843768069871e+17
19425.0	5.907008216279721e+17
19426.0	5.897724243214335e+17
19427.0	5.888119206663508e+17
19428.0	5.877294760110764e+17
19429.0	5.86616131289088e+17
19430.0	5.85137411727906e+17
19431.0	5.83499993824188e+17
19432.0	5.821194959148378e+17
19433.0	5.80274850522726e+17
19434.0	5.781258302215507e+17
19435.0	5.75586441643076e+17
19436.0	5.727556867194881e+17
19437.0	5.698372307866969e+17
19438.0	5.646400424159916e+17
19439.0	5.640321279634091e+17
19440.0	5.615379574773077e+17
19441.0	5.585680411394047e+17
19442.0	5.551273008256343e+17
19443.0	5.51000616346146e+17
19444.0	5.461518748833105e+17
19445.0	5.4029592157661875e+17
19446.0	5.3303513437962234e+17
19447.0	5.238389732627792e+17
19448.0	5.1174219605606445e+17
19449.0	4.942065199393449e+17
19450.0	4.631905170707789e+17
19451.0	4.421328204114628e+17
19452.0	4.8146262789543296e+17
19453.0	5.0385630663802944e+17
19454.0	5.178897428294308e+17
19455.0	5.281366072972628e+17
19456.0	5.3597968846028826e+17
19457.0	5.423283842667858e+17
19458.0	5.4270903301352896e+17
19459.0	5.515016721661961e+17
19460.0	5.551694070240596e+17
19461.0	5.581964734802602e+17
19462.0	5.6074022126878726e+17
19463.0	5.631070636605439e+17
19464.0	5.6575153262646605e+17
19465.0	5.6867740415863424e+17
19466.0	5.713210689366691e+17
19467.0	5.736951943877973e+17
19468.0	5.757572952883198e+17
19469.0	5.774754340405245e+17
19470.0	5.790266375361876e+17
19471.0	5.804056484948654e+17
19472.0	5.815330871268691e+17
19473.0	5.825173847190186e+17
19474.0	5.834782495735809e+17
19475.0	5.84127480926481e+17
19476.0	5.849834595898707e+17
19477.0	5.857569134346237e+17
19478.0	5.866342097879034e+17
19479.0	5.878464347373567e+17
19480.0	5.88769312479641e+17
19481.0	5.895549283379881e+17
19482.0	5.904577536720895e+17
19483.0	5.911531383772495e+17
19484.0	5.917250452193279e+17
19485.0	5.923282032612694e+17
19486.0	5.927318613306025e+17
19487.0	5.932301664561829e+17
19488.0	5.936091304209066e+17
19489.0	5.939224308787884e+17
19490.0	5.942404360874665e+17
19491.0	5.945764556920148e+17
19492.0	5.948493722025985e+17
19493.0	5.951510916278953e+17
19494.0	5.953166085805396e+17
19495.0	5.954657289502719e+17
19496.0	5.956440530703699e+17
19497.0	5.958241970989737e+17
19498.0	5.956610595749888e+17
19499.0	5.936045761757171e+17
19500.0	5.961160385888255e+17
19501.0	5.962776723849215e+17
19502.0	5.963656802074623e+17
19503.0	5.964328531744084e+17
19504.0	5.965213770361516e+17
19505.0	5.966409422427476e+17
19506.0	5.96692341830451e+17
19507.0	5.968892992858793e+17
19508.0	5.96927267803409e+17
19509.0	5.970447529148415e+17
19510.0	5.971016664044884e+17
19511.0	5.934467836630327e+17
19512.0	5.967743615849807e+17
19513.0	5.965623552464204e+17
19514.0	5.967532013213007e+17
19515.0	5.972369973706752e+17
19516.0	5.973715345648297e+17
19517.0	5.973612800507903e+17
19518.0	5.973514620239871e+17
19519.0	5.97332560393011e+17
19520.0	5.973632174697129e+17
19521.0	5.973565329375231e+17
19522.0	5.9733022095005e+17
19523.0	5.973096543201961e+17
19524.0	5.972714511313578e+17
19525.0	5.972770582866602e+17
19526.0	5.972472861381972e+17
19527.0	5.97204049994274e+17
19528.0	5.971574695220563e+17
19529.0	5.971092672522921e+17
19530.0	5.970621171935913e+17
19531.0	5.970103081020074e+17
19532.0	5.969785757455699e+17
19533.0	5.9693332444829e+17
19534.0	5.968759402878292e+17
19535.0	5.968159958543018e+17
19536.0	5.967529069510655e+17
19537.0	5.966942761735508e+17
19538.0	5.966099281608703e+17
19539.0	5.965197053962922e+17
19540.0	5.964962479822163e+17
19541.0	5.964405360208554e+17
19542.0	5.963807848748372e+17
19543.0	5.963028044447744e+17
19544.0	5.962379126898687e+17
19545.0	5.961191059532457e+17
19546.0	5.960152078701908e+17
19547.0	5.960166172262399e+17
19548.0	5.959416914378751e+17
19549.0	5.958551988076543e+17
19550.0	5.957865206448127e+17
19551.0	5.957075450462208e+17
19552.0	5.956272614539263e+17
19553.0	5.955441685867178e+17
19554.0	5.954613630992381e+17
19555.0	5.953797617964371e+17
19556.0	5.953046852927487e+17
19557.0	5.952259305242623e+17
19558.0	5.951414247358463e+17
19559.0	5.950585320767487e+17
19560.0	5.949835111475881e+17
19561.0	5.948999738938708e+17
19562.0	5.948125326518954e+17
19563.0	5.947279134774612e+17
19564.0	5.94639603315507e+17
19565.0	5.945507219592531e+17
19566.0	5.944605423960064e+17
19567.0	5.944003680447146e+17
19568.0	5.94307675394321e+17
19569.0	5.942173983834112e+17
19570.0	5.941282664174932e+17
19571.0	5.940363838969172e+17
19572.0	5.939407260134058e+17
19573.0	5.938493398188031e+17
19574.0	5.937491611746303e+17
19575.0	5.936767732897108e+17
19576.0	5.935924859546282e+17
19577.0	5.934955416780799e+17
19578.0	5.934014909819562e+17
19579.0	5.933072211334484e+17
19580.0	5.932123303881386e+17
19581.0	5.931182497027412e+17
19582.0	5.930239270060032e+17
19583.0	5.929278766055423e+17
19584.0	5.92830616567808e+17
19585.0	5.927235651371005e+17
19586.0	5.926226839470079e+17
19587.0	5.925401262030847e+17
19588.0	5.924207351300095e+17
19589.0	5.923661998806358e+17
19590.0	5.922662271068842e+17
19591.0	5.921782714335232e+17
19592.0	5.920807229674835e+17
19593.0	5.919806038125225e+17
19594.0	5.918623751208959e+17
19595.0	5.91785601671714e+17
19596.0	5.91660931158289e+17
19597.0	5.915876396105727e+17
19598.0	5.914536564839763e+17
19599.0	5.913890402948436e+17
19600.0	5.91290252272162e+17
19601.0	5.911837236614484e+17
19602.0	5.9108196089856e+17
19603.0	5.909396169861801e+17
19604.0	5.908787096103593e+17
19605.0	5.90765428449826e+17
19606.0	5.906974554193917e+17
19607.0	5.905976307045716e+17
19608.0	5.904949972041727e+17
19609.0	5.903906423614121e+17
19610.0	5.902899262870868e+17
19611.0	5.901863937376255e+17
19612.0	5.900911382276778e+17
19613.0	5.899883633792339e+17
19614.0	5.898835721191423e+17
19615.0	5.897845671111337e+17
19616.0	5.896656424446634e+17
19617.0	5.895734610100223e+17
19618.0	5.894240002725203e+17
19619.0	5.893070469289299e+17
19620.0	5.892131633059155e+17
19621.0	5.891619667924307e+17
19622.0	5.890686382855508e+17
19623.0	5.889654907032916e+17
19624.0	5.88860533908002e+17
19625.0	5.887595358366378e+17
19626.0	5.886553226914474e+17
19627.0	5.885475892669098e+17
19628.0	5.884160986054655e+17
19629.0	5.882926366108329e+17
19630.0	5.879801771808084e+17
19631.0	5.869820846626134e+17
19632.0	5.879864179556351e+17
19633.0	5.879167625898666e+17
19634.0	5.878267965865984e+17
19635.0	5.877217020084223e+17
19636.0	5.876147803914237e+17
19637.0	5.874783099726506e+17
19638.0	5.874186427826175e+17
19639.0	5.873208619521364e+17
19640.0	5.872076674738857e+17
19641.0	5.870302197536087e+17
19642.0	5.870092816482304e+17
19643.0	5.869055724486655e+17
19644.0	5.867964486123519e+17
19645.0	5.866763694637055e+17
19646.0	5.865861889217876e+17
19647.0	5.864921982741161e+17
19648.0	5.863885393362943e+17
19649.0	5.862843776412329e+17
19650.0	5.861805731610623e+17
19651.0	5.860758752941396e+17
19652.0	5.859716283148969e+17
19653.0	5.858674652217343e+17
19654.0	5.857633059034452e+17
19655.0	5.856588179614377e+17
19656.0	5.855551600022867e+17
19657.0	5.854515091734527e+17
19658.0	5.853472435994623e+17
19659.0	5.852428270305279e+17
19660.0	5.851386407288831e+17
19661.0	5.850342627475455e+17
19662.0	5.849296726043305e+17
19663.0	5.848205253498196e+17
19664.0	5.847164434164393e+17
19665.0	5.846165097895252e+17
