# Flux units: erg / (cm m2 s)
# Wavelength units: Angstrom
wave	flux
19000.0	7.492225098667348e+17
19001.0	7.490473100137811e+17
19002.0	7.489413358900566e+17
19003.0	7.487982757303636e+17
19004.0	7.486568635127126e+17
19005.0	7.485144273256447e+17
19006.0	7.483734243322536e+17
19007.0	7.482097247016275e+17
19008.0	7.480658983824041e+17
19009.0	7.479330158411775e+17
19010.0	7.476438243125926e+17
19011.0	7.476571911400106e+17
19012.0	7.47476168754244e+17
19013.0	7.473815748957523e+17
19014.0	7.472178949783551e+17
19015.0	7.470865745357481e+17
19016.0	7.469424799208787e+17
19017.0	7.46743617762099e+17
19018.0	7.466701833284266e+17
19019.0	7.465298800847529e+17
19020.0	7.463676574083756e+17
19021.0	7.462372963429033e+17
19022.0	7.461090177493674e+17
19023.0	7.459528604560042e+17
19024.0	7.45819966869777e+17
19025.0	7.45681351553843e+17
19026.0	7.455338136950099e+17
19027.0	7.453876305963688e+17
19028.0	7.452612278353919e+17
19029.0	7.451137576446634e+17
19030.0	7.449826632750419e+17
19031.0	7.448435910595926e+17
19032.0	7.447010944745471e+17
19033.0	7.445267517975208e+17
19034.0	7.444121341919232e+17
19035.0	7.442643527838378e+17
19036.0	7.42536202088174e+17
19037.0	7.439908339712e+17
19038.0	7.438455315365887e+17
19039.0	7.437113159057408e+17
19040.0	7.435718994777428e+17
19041.0	7.434284724562602e+17
19042.0	7.432572590096381e+17
19043.0	7.431475785192787e+17
19044.0	7.430034348310527e+17
19045.0	7.428661211474602e+17
19046.0	7.427029139281236e+17
19047.0	7.425825257990825e+17
19048.0	7.42368396653363e+17
19049.0	7.422758884824403e+17
19050.0	7.421431363840681e+17
19051.0	7.417744098066427e+17
19052.0	7.418540492936535e+17
19053.0	7.417311346556927e+17
19054.0	7.41593944704068e+17
19055.0	7.413641857641133e+17
19056.0	7.413053529609555e+17
19057.0	7.411705378242557e+17
19058.0	7.410204604541608e+17
19059.0	7.408901757250217e+17
19060.0	7.407428768017066e+17
19061.0	7.406108427681791e+17
19062.0	7.404674806185983e+17
19063.0	7.403284973223935e+17
19064.0	7.401407932705452e+17
19065.0	7.399801468136105e+17
19066.0	7.398829387852457e+17
19067.0	7.39760673006114e+17
19068.0	7.396241665862313e+17
19069.0	7.394840140578816e+17
19070.0	7.393328841971028e+17
19071.0	7.392005940314111e+17
19072.0	7.390622640679594e+17
19073.0	7.389186794804564e+17
19074.0	7.387819009900544e+17
19075.0	7.386413186853545e+17
19076.0	7.38492676046848e+17
19077.0	7.383564814035625e+17
19078.0	7.381936856454484e+17
19079.0	7.380774560290131e+17
19080.0	7.379323215063722e+17
19081.0	7.37779886797619e+17
19082.0	7.376342808352084e+17
19083.0	7.374724183097343e+17
19084.0	7.372850024065705e+17
19085.0	7.372304356300118e+17
19086.0	7.369498011806378e+17
19087.0	7.369066545151999e+17
19088.0	7.367858803703807e+17
19089.0	7.365806312652799e+17
19090.0	7.365207814832127e+17
19091.0	7.363816322323795e+17
19092.0	7.362196491905705e+17
19093.0	7.361107752648703e+17
19094.0	7.359692563720872e+17
19095.0	7.358303371089236e+17
19096.0	7.35683116479283e+17
19097.0	7.355506974086484e+17
19098.0	7.354094579963219e+17
19099.0	7.352673071617364e+17
19100.0	7.351272371213654e+17
19101.0	7.349900734540458e+17
19102.0	7.348197655576573e+17
19103.0	7.347081200358738e+17
19104.0	7.345708259257002e+17
19105.0	7.344284940369919e+17
19106.0	7.342801670897663e+17
19107.0	7.341430558512467e+17
19108.0	7.34010341921041e+17
19109.0	7.336960541939025e+17
19110.0	7.337285462086995e+17
19111.0	7.335899844400467e+17
19112.0	7.334506484028756e+17
19113.0	7.333097269187923e+17
19114.0	7.331689069368659e+17
19115.0	7.330117449678847e+17
19116.0	7.328824296822099e+17
19117.0	7.327428689701545e+17
19118.0	7.325739560992768e+17
19119.0	7.316668852906655e+17
19120.0	7.323131779044692e+17
19121.0	7.321832652100948e+17
19122.0	7.320518991893844e+17
19123.0	7.31905140072994e+17
19124.0	7.317625214337023e+17
19125.0	7.316290275027625e+17
19126.0	7.314868731729236e+17
19127.0	7.30773682948232e+17
19128.0	7.31060951807863e+17
19129.0	7.310405122654207e+17
19130.0	7.309280214515711e+17
19131.0	7.307887606322516e+17
19132.0	7.306529999596202e+17
19133.0	7.302895313616899e+17
19134.0	7.303021989986305e+17
19135.0	7.302342894419968e+17
19136.0	7.300973912741203e+17
19137.0	7.299014500286463e+17
19138.0	7.297948889819817e+17
19139.0	7.296780091086164e+17
19140.0	7.29539072229376e+17
19141.0	7.293996949482153e+17
19142.0	7.292505296994304e+17
19143.0	7.291000628183041e+17
19144.0	7.289657209389055e+17
19145.0	7.28840202477022e+17
19146.0	7.28492340464845e+17
19147.0	7.285326386386259e+17
19148.0	7.284224672748884e+17
19149.0	7.282822049955837e+17
19150.0	7.281406340934314e+17
19151.0	7.280045490612906e+17
19152.0	7.278575760353961e+17
19153.0	7.277202255817386e+17
19154.0	7.275439914134185e+17
19155.0	7.274494211828393e+17
19156.0	7.273091754011305e+17
19157.0	7.271669946471764e+17
19158.0	7.2690864006103e+17
19159.0	7.268858010970793e+17
19160.0	7.267390210091689e+17
19161.0	7.265976561871529e+17
19162.0	7.262036634020524e+17
19163.0	7.263326608992938e+17
19164.0	7.261977073505619e+17
19165.0	7.260516779032573e+17
19166.0	7.258798786521769e+17
19167.0	7.257548180684799e+17
19168.0	7.255850617230675e+17
19169.0	7.254693955414697e+17
19170.0	7.253632747569152e+17
19171.0	7.252095301670228e+17
19172.0	7.25082770051345e+17
19173.0	7.249464379746985e+17
19174.0	7.247874495261353e+17
19175.0	7.246683908516522e+17
19176.0	7.245279359139837e+17
19177.0	7.243379709924692e+17
19178.0	7.242475803858259e+17
19179.0	7.240931382831786e+17
19180.0	7.239363247210496e+17
19181.0	7.237998917014867e+17
19182.0	7.23657756246016e+17
19183.0	7.235532525054633e+17
19184.0	7.2336689608349e+17
19185.0	7.23271950602513e+17
19186.0	7.231371026104319e+17
19187.0	7.229671934525439e+17
19188.0	7.22857285910528e+17
19189.0	7.227143960395775e+17
19190.0	7.225749228486655e+17
19191.0	7.224290311143423e+17
19192.0	7.223019042766847e+17
19193.0	7.221355120427007e+17
19194.0	7.220075313845587e+17
19195.0	7.218840147241642e+17
19196.0	7.217419979674964e+17
19197.0	7.216059832598527e+17
19198.0	7.214665912986281e+17
19199.0	7.197245687813457e+17
19200.0	7.201318656191151e+17
19201.0	7.210516233584637e+17
19202.0	7.209163858553513e+17
19203.0	7.207751777604948e+17
19204.0	7.206296054923263e+17
19205.0	7.204959776232787e+17
19206.0	7.203552778780671e+17
19207.0	7.201896425761449e+17
19208.0	7.200118366623059e+17
19209.0	7.199381300183037e+17
19210.0	7.198009589410474e+17
19211.0	7.19665278100002e+17
19212.0	7.19528626697011e+17
19213.0	7.193485202074281e+17
19214.0	7.19198724694562e+17
19215.0	7.191074695020543e+17
19216.0	7.189599221361321e+17
19217.0	7.188321882428755e+17
19218.0	7.184129089776292e+17
19219.0	7.184981759623165e+17
19220.0	7.184090244928854e+17
19221.0	7.181628199665664e+17
19222.0	7.181403672980138e+17
19223.0	7.179930626424832e+17
19224.0	7.178237432037373e+17
19225.0	7.176655835496445e+17
19226.0	7.175750725664768e+17
19227.0	7.174356058068308e+17
19228.0	7.173070165551786e+17
19229.0	7.171680819129002e+17
19230.0	7.170180604668586e+17
19231.0	7.168789450500777e+17
19232.0	7.167294958469119e+17
19233.0	7.165858461078868e+17
19234.0	7.164637001460393e+17
19235.0	7.163202170606931e+17
19236.0	7.161954520356182e+17
19237.0	7.160496064386387e+17
19238.0	7.158839371628543e+17
19239.0	7.157785331848531e+17
19240.0	7.155307707542185e+17
19241.0	7.154603521649322e+17
19242.0	7.153492956632404e+17
19243.0	7.151533015695357e+17
19244.0	7.150806832076116e+17
19245.0	7.149400901375316e+17
19246.0	7.147963823773012e+17
19247.0	7.146568985608191e+17
19248.0	7.145242794218836e+17
19249.0	7.143842724358825e+17
19250.0	7.142380904557225e+17
19251.0	7.140654977821352e+17
19252.0	7.13846728757521e+17
19253.0	7.138184223784957e+17
19254.0	7.13669982884113e+17
19255.0	7.134739049043283e+17
19256.0	7.133937720273577e+17
19257.0	7.132658611344723e+17
19258.0	7.131259457241087e+17
19259.0	7.12958092194611e+17
19260.0	7.128205134310058e+17
19261.0	7.127018761442646e+17
19262.0	7.125440742643028e+17
19263.0	7.124085919536467e+17
19264.0	7.121059326547282e+17
19265.0	7.120815810849449e+17
19266.0	7.119595029310122e+17
19267.0	7.118650371386025e+17
19268.0	7.117215344798378e+17
19269.0	7.115808125048147e+17
19270.0	7.114404650811391e+17
19271.0	7.111876617961473e+17
19272.0	7.111466463963817e+17
19273.0	7.083239220270387e+17
19274.0	7.095200969829016e+17
19275.0	7.107366351448745e+17
19276.0	7.105884738726569e+17
19277.0	7.104471008018432e+17
19278.0	7.103072343250259e+17
19279.0	7.101458393246378e+17
19280.0	7.099922079809535e+17
19281.0	7.098799918940159e+17
19282.0	7.097433020432383e+17
19283.0	7.095756481626111e+17
19284.0	7.093942344482815e+17
19285.0	7.09224467477299e+17
19286.0	7.091509891432445e+17
19287.0	7.090216847627604e+17
19288.0	7.084803588008614e+17
19289.0	7.076605269988672e+17
19290.0	7.085924925396308e+17
19291.0	7.083529747125591e+17
19292.0	7.083050663935999e+17
19293.0	7.081589083209727e+17
19294.0	7.080134435667965e+17
19295.0	7.078736517485908e+17
19296.0	7.077269576439126e+17
19297.0	7.07573521195554e+17
19298.0	7.07428682371345e+17
19299.0	7.072942135443455e+17
19300.0	7.071494997103956e+17
19301.0	7.070005532644692e+17
19302.0	7.06852359835921e+17
19303.0	7.06676484420403e+17
19304.0	7.065415521228116e+17
19305.0	7.064117669352787e+17
19306.0	7.062673952167252e+17
19307.0	7.061038626592084e+17
19308.0	7.059653282933417e+17
19309.0	7.05775126393651e+17
19310.0	7.055976992254632e+17
19311.0	7.055078330466301e+17
19312.0	7.053649626092884e+17
19313.0	7.051792969891841e+17
19314.0	7.04487983764821e+17
19315.0	7.043695958993587e+17
19316.0	7.047758275936255e+17
19317.0	7.046242945204224e+17
19318.0	7.044718844182527e+17
19319.0	7.043267036184575e+17
19320.0	7.041642238312447e+17
19321.0	7.040233916858368e+17
19322.0	7.038193516587692e+17
19323.0	7.036893951339178e+17
19324.0	7.03562609922321e+17
19325.0	7.033707179977385e+17
19326.0	7.032551057828521e+17
19327.0	7.030956186315433e+17
19328.0	7.02932998824482e+17
19329.0	7.027767356249428e+17
19330.0	7.026077324367187e+17
19331.0	7.024501029426516e+17
19332.0	7.023055708618751e+17
19333.0	7.021417611307689e+17
19334.0	7.019732396583593e+17
19335.0	7.018277733662719e+17
19336.0	7.016662607156563e+17
19337.0	7.015025866003798e+17
19338.0	7.01269497103428e+17
19339.0	7.011782847627263e+17
19340.0	7.009972042858495e+17
19341.0	7.008471989179731e+17
19342.0	7.005395065940648e+17
19343.0	7.005159987085311e+17
19344.0	7.003427675220649e+17
19345.0	6.99505498110906e+17
19346.0	6.997849661243391e+17
19347.0	6.998028152646313e+17
19348.0	6.996468117624147e+17
19349.0	6.994602233255252e+17
19350.0	6.992886777599316e+17
19351.0	6.991078090954067e+17
19352.0	6.989176631197695e+17
19353.0	6.987665756913663e+17
19354.0	6.985847746330623e+17
19355.0	6.983682130706432e+17
19356.0	6.982186218902867e+17
19357.0	6.980301421718185e+17
19358.0	6.978159350120448e+17
19359.0	6.974842625938775e+17
19360.0	6.974258692139689e+17
19361.0	6.972301260794536e+17
19362.0	6.97042199519778e+17
19363.0	6.968385722122237e+17
19364.0	6.966367608984918e+17
19365.0	6.964334074789887e+17
19366.0	6.962256852724393e+17
19367.0	6.959943415846228e+17
19368.0	6.957841311771306e+17
19369.0	6.955095514152959e+17
19370.0	6.950202752980308e+17
19371.0	6.951161188493994e+17
19372.0	6.949038129676287e+17
19373.0	6.946412828819455e+17
19374.0	6.944188277631657e+17
19375.0	6.941863142839635e+17
19376.0	6.93948396863488e+17
19377.0	6.936775157088255e+17
19378.0	6.934042198933504e+17
19379.0	6.931399200909994e+17
19380.0	6.928861217772884e+17
19381.0	6.926006858285056e+17
19382.0	6.923041370013695e+17
19383.0	6.920233574290771e+17
19384.0	6.917849686387369e+17
19385.0	6.914996255937876e+17
19386.0	6.912095834603519e+17
19387.0	6.908829508479657e+17
19388.0	6.905678780869289e+17
19389.0	6.902552385814527e+17
19390.0	6.899329448367444e+17
19391.0	6.882415656042473e+17
19392.0	6.892494174289919e+17
19393.0	6.888618368958461e+17
19394.0	6.88500950241553e+17
19395.0	6.881287660197204e+17
19396.0	6.877444854251517e+17
19397.0	6.872891617793364e+17
19398.0	6.868633352754516e+17
19399.0	6.862220228384082e+17
19400.0	6.859408641010346e+17
19401.0	6.85477323673873e+17
19402.0	6.849982072793769e+17
19403.0	6.844234602643455e+17
19404.0	6.839200219398143e+17
19405.0	6.832797293477887e+17
19406.0	6.827035780098728e+17
19407.0	6.8203861508096e+17
19408.0	6.811125296747866e+17
19409.0	6.805569638410921e+17
19410.0	6.798136780870995e+17
19411.0	6.79052381991731e+17
19412.0	6.783449540416852e+17
19413.0	6.776095550472191e+17
19414.0	6.767896693484201e+17
19415.0	6.75979830755328e+17
19416.0	6.750821137339731e+17
19417.0	6.741853456738985e+17
19418.0	6.732358544435881e+17
19419.0	6.72226479107823e+17
19420.0	6.71116257604403e+17
19421.0	6.699693110547795e+17
19422.0	6.687233968264532e+17
19423.0	6.673683619075412e+17
19424.0	6.659217906379434e+17
19425.0	6.643488774247766e+17
19426.0	6.625713857757178e+17
19427.0	6.606112516210684e+17
19428.0	6.584762205820248e+17
19429.0	6.562599947381417e+17
19430.0	6.54254983348224e+17
19431.0	6.519586153999023e+17
19432.0	6.499494767449427e+17
19433.0	6.475194456954198e+17
19434.0	6.448768819221843e+17
19435.0	6.41984010265122e+17
19436.0	6.386668623888383e+17
19437.0	6.351149407928317e+17
19438.0	6.296263202963459e+17
19439.0	6.261534023308631e+17
19440.0	6.217885064101887e+17
19441.0	6.170081818749606e+17
19442.0	6.116419730494807e+17
19443.0	6.054874341616298e+17
19444.0	5.982315020812284e+17
19445.0	5.906044519011674e+17
19446.0	5.821185171739988e+17
19447.0	5.7208354188383526e+17
19448.0	5.6070030708353754e+17
19449.0	5.458963519417002e+17
19450.0	5.155843224545919e+17
19451.0	5.0335091048229555e+17
19452.0	5.330221532883632e+17
19453.0	5.5391971135105766e+17
19454.0	5.662068738184528e+17
19455.0	5.765977947329879e+17
19456.0	5.856299834496344e+17
19457.0	5.932845616857083e+17
19458.0	6.000867162805599e+17
19459.0	6.070614752930478e+17
19460.0	6.12530791085943e+17
19461.0	6.17351418618402e+17
19462.0	6.216245575680001e+17
19463.0	6.25905058359978e+17
19464.0	6.302161797382144e+17
19465.0	6.338885711123798e+17
19466.0	6.370101650172585e+17
19467.0	6.398325332901887e+17
19468.0	6.42344211849762e+17
19469.0	6.443133966832979e+17
19470.0	6.466888342525268e+17
19471.0	6.486175100786004e+17
19472.0	6.503631285824169e+17
19473.0	6.521562522626726e+17
19474.0	6.541704342186665e+17
19475.0	6.557750265206098e+17
19476.0	6.575094900632232e+17
19477.0	6.589175010689024e+17
19478.0	6.6017325786071e+17
19479.0	6.6130187124736e+17
19480.0	6.623074338209791e+17
19481.0	6.632790937654612e+17
19482.0	6.641186981456553e+17
19483.0	6.64936894378803e+17
19484.0	6.656348413143722e+17
19485.0	6.663364322612563e+17
19486.0	6.6695110066176e+17
19487.0	6.675254326504106e+17
19488.0	6.680787441156095e+17
19489.0	6.685785889002836e+17
19490.0	6.686371192941219e+17
19491.0	6.694945822517929e+17
19492.0	6.699941781744298e+17
19493.0	6.705058603335679e+17
19494.0	6.709867734280873e+17
19495.0	6.713468872119636e+17
19496.0	6.716384246846802e+17
19497.0	6.720628768549546e+17
19498.0	6.72299297328333e+17
19499.0	6.704647302894913e+17
19500.0	6.729250068845907e+17
19501.0	6.731207162549587e+17
19502.0	6.733508369536339e+17
19503.0	6.735430864426323e+17
19504.0	6.736881300886868e+17
19505.0	6.738586920899924e+17
19506.0	6.740350869700607e+17
19507.0	6.741418939427497e+17
19508.0	6.742518674751487e+17
19509.0	6.743455750772052e+17
19510.0	6.744085069736617e+17
19511.0	6.729218047432012e+17
19512.0	6.74306842497296e+17
19513.0	6.739528196816882e+17
19514.0	6.742759853522939e+17
19515.0	6.745819488539994e+17
19516.0	6.748106912344746e+17
19517.0	6.748199269520723e+17
19518.0	6.748589892741802e+17
19519.0	6.748697417220095e+17
19520.0	6.748671841053353e+17
19521.0	6.748798270657876e+17
19522.0	6.748827618902015e+17
19523.0	6.748907951707475e+17
19524.0	6.74877136839202e+17
19525.0	6.748627526833491e+17
19526.0	6.748959282298879e+17
19527.0	6.748676263946921e+17
19528.0	6.748402466772308e+17
19529.0	6.748049683163817e+17
19530.0	6.747777379161428e+17
19531.0	6.747654461587456e+17
19532.0	6.747208672083967e+17
19533.0	6.746756958126079e+17
19534.0	6.746255824781312e+17
19535.0	6.745654917332991e+17
19536.0	6.745050917284521e+17
19537.0	6.744819218339156e+17
19538.0	6.744073732532908e+17
19539.0	6.741799796910769e+17
19540.0	6.742901609114281e+17
19541.0	6.742339552105812e+17
19542.0	6.741634068774911e+17
19543.0	6.740991676164776e+17
19544.0	6.740361071646036e+17
19545.0	6.738325138309112e+17
19546.0	6.736055169100457e+17
19547.0	6.738265128304639e+17
19548.0	6.737533002754729e+17
19549.0	6.736340227282259e+17
19550.0	6.73590217487155e+17
19551.0	6.735080529592319e+17
19552.0	6.734227257163775e+17
19553.0	6.733300804616191e+17
19554.0	6.732356900268714e+17
19555.0	6.731561786758483e+17
19556.0	6.730713070742185e+17
19557.0	6.729800999064916e+17
19558.0	6.728880914169855e+17
19559.0	6.727917522386943e+17
19560.0	6.727086851664553e+17
19561.0	6.726139132597587e+17
19562.0	6.725261928169472e+17
19563.0	6.724303196957353e+17
19564.0	6.72334761566754e+17
19565.0	6.722352457624233e+17
19566.0	6.721280893343059e+17
19567.0	6.720380842541055e+17
19568.0	6.719274532645545e+17
19569.0	6.718302511781204e+17
19570.0	6.717370248724479e+17
19571.0	6.716346523975677e+17
19572.0	6.715185963554134e+17
19573.0	6.714231028886185e+17
19574.0	6.712886639110824e+17
19575.0	6.712185143863978e+17
19576.0	6.711148651653801e+17
19577.0	6.709822864315732e+17
19578.0	6.708887294050301e+17
19579.0	6.707872168323753e+17
19580.0	6.706816710868991e+17
19581.0	6.705783511886506e+17
19582.0	6.704763623527763e+17
19583.0	6.703678399097514e+17
19584.0	6.702581923446783e+17
19585.0	6.701162501068116e+17
19586.0	6.699968933571244e+17
19587.0	6.699237026824191e+17
19588.0	6.696638099051863e+17
19589.0	6.697045776313001e+17
19590.0	6.695833119140521e+17
19591.0	6.694976398994089e+17
19592.0	6.693885171116714e+17
19593.0	6.692691793062568e+17
19594.0	6.690758921464488e+17
19595.0	6.690422059433983e+17
19596.0	6.685821493750444e+17
19597.0	6.688190871459158e+17
19598.0	6.686245593109842e+17
19599.0	6.685987025453055e+17
19600.0	6.684878123477674e+17
19601.0	6.683510688798036e+17
19602.0	6.682461847857833e+17
19603.0	6.679908944183292e+17
19604.0	6.680128390168575e+17
19605.0	6.67808735096559e+17
19606.0	6.677959256222377e+17
19607.0	6.676850438133076e+17
19608.0	6.675666017714175e+17
19609.0	6.674359845038762e+17
19610.0	6.673415504483668e+17
19611.0	6.672225075025236e+17
19612.0	6.67111105110562e+17
19613.0	6.669899404061354e+17
19614.0	6.668636387278847e+17
19615.0	6.667620417099092e+17
19616.0	6.666344376303613e+17
19617.0	6.665288315568127e+17
19618.0	6.662389770485756e+17
19619.0	6.660703207991974e+17
19620.0	6.65961750750822e+17
19621.0	6.660585747207507e+17
19622.0	6.65944675459618e+17
19623.0	6.658283807615657e+17
19624.0	6.657073181884415e+17
19625.0	6.655932131267924e+17
19626.0	6.654714423454378e+17
19627.0	6.653579943215101e+17
19628.0	6.651997850348204e+17
19629.0	6.650906090493267e+17
19630.0	6.649627036090368e+17
19631.0	6.632187231906469e+17
19632.0	6.647649072229033e+17
19633.0	6.64632453828881e+17
19634.0	6.645314595323904e+17
19635.0	6.64398466261538e+17
19636.0	6.642913027730089e+17
19637.0	6.640277782178476e+17
19638.0	6.640537850697044e+17
19639.0	6.639334673350655e+17
19640.0	6.637963262470825e+17
19641.0	6.635137563361285e+17
19642.0	6.635788422174035e+17
19643.0	6.634525241114623e+17
19644.0	6.63328376557841e+17
19645.0	6.631461001450835e+17
19646.0	6.631165093303636e+17
19647.0	6.629979062271999e+17
19648.0	6.628770778360489e+17
19649.0	6.627568941094227e+17
19650.0	6.626401903968255e+17
19651.0	6.625187227937449e+17
19652.0	6.62397838828066e+17
19653.0	6.622813670604799e+17
19654.0	6.621587560901289e+17
19655.0	6.620371717455872e+17
19656.0	6.619212920739155e+17
19657.0	6.618011350510249e+17
19658.0	6.616838983821994e+17
19659.0	6.615638590095359e+17
19660.0	6.614465073468756e+17
19661.0	6.613251795539284e+17
19662.0	6.61207311852066e+17
19663.0	6.610712394028372e+17
19664.0	6.609581590795604e+17
19665.0	6.608483369615359e+17
19666.0	6.607225049754281e+17
