# Flux units: erg / (cm m2 s)
# Wavelength units: Angstrom
wave	flux
19000.0	7.077334988008105e+17
19001.0	7.075974471832916e+17
19002.0	7.074700580618239e+17
19003.0	7.073376986901161e+17
19004.0	7.07205213908719e+17
19005.0	7.070746396327935e+17
19006.0	7.069427844164266e+17
19007.0	7.067842488128854e+17
19008.0	7.066763297903955e+17
19009.0	7.065430280983892e+17
19010.0	7.06396068773888e+17
19011.0	7.062788321050623e+17
19012.0	7.060990621384704e+17
19013.0	7.060193921728511e+17
19014.0	7.058842514183508e+17
19015.0	7.057533821430441e+17
19016.0	7.05620838921011e+17
19017.0	7.054897634257577e+17
19018.0	7.053551940752723e+17
19019.0	7.052269275054079e+17
19020.0	7.050932967003476e+17
19021.0	7.049624651737769e+17
19022.0	7.048309970916694e+17
19023.0	7.046969486737407e+17
19024.0	7.045651500804777e+17
19025.0	7.044285811654655e+17
19026.0	7.042958062780415e+17
19027.0	7.04119849353216e+17
19028.0	7.040382132376916e+17
19029.0	7.039055992717311e+17
19030.0	7.037738673679016e+17
19031.0	7.036417766413652e+17
19032.0	7.035095861602985e+17
19033.0	7.033734280773631e+17
19034.0	7.032449977199273e+17
19035.0	7.031085957382141e+17
19036.0	6.996640782439763e+17
19037.0	7.028472594213545e+17
19038.0	7.027152141331113e+17
19039.0	7.025842859977385e+17
19040.0	7.02452154376738e+17
19041.0	7.02319924888644e+17
19042.0	7.021837422690303e+17
19043.0	7.02055786357282e+17
19044.0	7.019231802206889e+17
19045.0	7.017895722745855e+17
19046.0	7.016569549531818e+17
19047.0	7.015262172392105e+17
19048.0	7.01386169848081e+17
19049.0	7.012587017338879e+17
19050.0	7.011283450724351e+17
19051.0	7.005057379729402e+17
19052.0	7.007662579384319e+17
19053.0	7.007272765663913e+17
19054.0	7.006016113038676e+17
19055.0	7.004583799466666e+17
19056.0	7.003364642521087e+17
19057.0	7.002041890461012e+17
19058.0	7.00065794630178e+17
19059.0	6.999408070972756e+17
19060.0	6.998077409154387e+17
19061.0	6.996766241761961e+17
19062.0	6.995442684395519e+17
19063.0	6.994122058847572e+17
19064.0	6.992750773796863e+17
19065.0	6.991402419705172e+17
19066.0	6.990132660578986e+17
19067.0	6.988836659090772e+17
19068.0	6.987516521480191e+17
19069.0	6.98619566035217e+17
19070.0	6.98486398001698e+17
19071.0	6.98353808712226e+17
19072.0	6.982226849125716e+17
19073.0	6.980909899885226e+17
19074.0	6.979591512697513e+17
19075.0	6.97827082703121e+17
19076.0	6.976941233362262e+17
19077.0	6.975623698317311e+17
19078.0	6.974296751254185e+17
19079.0	6.972988610751146e+17
19080.0	6.971664462686889e+17
19081.0	6.97033108295953e+17
19082.0	6.969007877914623e+17
19083.0	6.967655911828137e+17
19084.0	6.966280791086419e+17
19085.0	6.965063996932095e+17
19086.0	6.963543184943785e+17
19087.0	6.961405663466836e+17
19088.0	6.961011169602218e+17
19089.0	6.959165612927658e+17
19090.0	6.958435831294633e+17
19091.0	6.957127660033364e+17
19092.0	6.955555506268842e+17
19093.0	6.954506484973567e+17
19094.0	6.953182060784298e+17
19095.0	6.951860869005311e+17
19096.0	6.950537355679059e+17
19097.0	6.949230737009321e+17
19098.0	6.947913294938111e+17
19099.0	6.94659395284719e+17
19100.0	6.945227333260627e+17
19101.0	6.943940935330473e+17
19102.0	6.942600831434751e+17
19103.0	6.941323897951572e+17
19104.0	6.940005249318911e+17
19105.0	6.938679025773225e+17
19106.0	6.937173546063187e+17
19107.0	6.936039459389439e+17
19108.0	6.934724719848106e+17
19109.0	6.930343145766906e+17
19110.0	6.931985085759485e+17
19111.0	6.930766457995263e+17
19112.0	6.929460187452756e+17
19113.0	6.928145475174399e+17
19114.0	6.926828227439273e+17
19115.0	6.925428632234666e+17
19116.0	6.924183393708713e+17
19117.0	6.92286284435729e+17
19118.0	6.92134733816354e+17
19119.0	6.91881035327078e+17
19120.0	6.918647568837289e+17
19121.0	6.917400464545108e+17
19122.0	6.91629292921378e+17
19123.0	6.914975173268819e+17
19124.0	6.913486292516863e+17
19125.0	6.912309981085693e+17
19126.0	6.911008589217791e+17
19127.0	6.908964661537449e+17
19128.0	6.906793537394003e+17
19129.0	6.907042776219647e+17
19130.0	6.905758152480084e+17
19131.0	6.9043959641757e+17
19132.0	6.90312945213986e+17
19133.0	6.901468583952384e+17
19134.0	6.899797323677696e+17
19135.0	6.899172798103551e+17
19136.0	6.897868856797866e+17
19137.0	6.89648135447074e+17
19138.0	6.895153704861695e+17
19139.0	6.893918778032127e+17
19140.0	6.892607973446996e+17
19141.0	6.891293219924649e+17
19142.0	6.889956961506644e+17
19143.0	6.888640021353812e+17
19144.0	6.887343587153236e+17
19145.0	6.886020119265279e+17
19146.0	6.884422996809044e+17
19147.0	6.883360700541609e+17
19148.0	6.882069395974826e+17
19149.0	6.880759525321385e+17
19150.0	6.879453622479529e+17
19151.0	6.878143056270675e+17
19152.0	6.876793153082708e+17
19153.0	6.875506959275348e+17
19154.0	6.874144884916223e+17
19155.0	6.872873938802004e+17
19156.0	6.871564151335593e+17
19157.0	6.870187446545066e+17
19158.0	6.866838858934952e+17
19159.0	6.867594701875881e+17
19160.0	6.866262061045076e+17
19161.0	6.86484579488017e+17
19162.0	6.858935281647619e+17
19163.0	6.862204892610559e+17
19164.0	6.861049759618387e+17
19165.0	6.859650734140073e+17
19166.0	6.858263512132266e+17
19167.0	6.856658337311402e+17
19168.0	6.855760955484842e+17
19169.0	6.854387170628948e+17
19170.0	6.853163438396756e+17
19171.0	6.851577383310676e+17
19172.0	6.850510822834175e+17
19173.0	6.849211040879955e+17
19174.0	6.847891845589672e+17
19175.0	6.846602330592595e+17
19176.0	6.845287404404735e+17
19177.0	6.843904977185449e+17
19178.0	6.842532437338794e+17
19179.0	6.840960605137578e+17
19180.0	6.839884355119785e+17
19181.0	6.838662587219967e+17
19182.0	6.837375548959401e+17
19183.0	6.836065865651539e+17
19184.0	6.83472785051921e+17
19185.0	6.833453862136489e+17
19186.0	6.832141688810153e+17
19187.0	6.830792801342803e+17
19188.0	6.829492091748351e+17
19189.0	6.828121421163177e+17
19190.0	6.826786123240787e+17
19191.0	6.825501459655337e+17
19192.0	6.824235706089471e+17
19193.0	6.822851318732116e+17
19194.0	6.821565972174164e+17
19195.0	6.820282024416596e+17
19196.0	6.818962497077245e+17
19197.0	6.817621514474836e+17
19198.0	6.816196731775657e+17
19199.0	6.787614871562913e+17
19200.0	6.794400610910217e+17
19201.0	6.812266862564692e+17
19202.0	6.811047745465002e+17
19203.0	6.809686103818237e+17
19204.0	6.808424615859539e+17
19205.0	6.807134194193748e+17
19206.0	6.8058136721053e+17
19207.0	6.804465016722772e+17
19208.0	6.803102862671872e+17
19209.0	6.801862381185706e+17
19210.0	6.800552238601555e+17
19211.0	6.799233269803689e+17
19212.0	6.79791348032034e+17
19213.0	6.796319379161087e+17
19214.0	6.794856854017364e+17
19215.0	6.793838836318207e+17
19216.0	6.792633987541674e+17
19217.0	6.791318320360106e+17
19218.0	6.789634174484479e+17
19219.0	6.788606221178196e+17
19220.0	6.787330570452991e+17
19221.0	6.785883939624276e+17
19222.0	6.784709957429929e+17
19223.0	6.783390732080468e+17
19224.0	6.782052445716479e+17
19225.0	6.780682997770922e+17
19226.0	6.779416266233172e+17
19227.0	6.778090889237844e+17
19228.0	6.776776524387667e+17
19229.0	6.775451903765162e+17
19230.0	6.774066720189097e+17
19231.0	6.772760095926953e+17
19232.0	6.771463933657087e+17
19233.0	6.770112593220948e+17
19234.0	6.768812486208169e+17
19235.0	6.767485563611817e+17
19236.0	6.766167336506707e+17
19237.0	6.764831872909311e+17
19238.0	6.763426353250303e+17
19239.0	6.762180470898687e+17
19240.0	6.760808004452351e+17
19241.0	6.759495609526953e+17
19242.0	6.75818007306786e+17
19243.0	6.756782491828223e+17
19244.0	6.755524720721919e+17
19245.0	6.754191292760063e+17
19246.0	6.752850403131392e+17
19247.0	6.751521678382419e+17
19248.0	6.750179895366995e+17
19249.0	6.748838127031636e+17
19250.0	6.747510285183658e+17
19251.0	6.746117099574612e+17
19252.0	6.744715774918655e+17
19253.0	6.743492860575743e+17
19254.0	6.742150272253951e+17
19255.0	6.740737345454079e+17
19256.0	6.739412914973353e+17
19257.0	6.738124503078228e+17
19258.0	6.736785780506624e+17
19259.0	6.73540996211234e+17
19260.0	6.733540851624616e+17
19261.0	6.732747055824895e+17
19262.0	6.731377750485674e+17
19263.0	6.730022320603136e+17
19264.0	6.728474359584084e+17
19265.0	6.727265510839636e+17
19266.0	6.725924154245119e+17
19267.0	6.724640031025834e+17
19268.0	6.723284483003731e+17
19269.0	6.72192762426163e+17
19270.0	6.720568387349161e+17
19271.0	6.719069032721066e+17
19272.0	6.717832809152511e+17
19273.0	6.715227376014674e+17
19274.0	6.714352809803773e+17
19275.0	6.713756179147434e+17
19276.0	6.71238085288482e+17
19277.0	6.711013895656788e+17
19278.0	6.709650652484948e+17
19279.0	6.708224880629076e+17
19280.0	6.706870985162751e+17
19281.0	6.705518656268969e+17
19282.0	6.704142392579411e+17
19283.0	6.70232780874274e+17
19284.0	6.700831079049897e+17
19285.0	6.699915646337023e+17
19286.0	6.698603958850899e+17
19287.0	6.697229703533908e+17
19288.0	6.686123064907081e+17
19289.0	6.673579491284279e+17
19290.0	6.693053879637332e+17
19291.0	6.691546799101268e+17
19292.0	6.690262968085162e+17
19293.0	6.68885847183633e+17
19294.0	6.687458132142762e+17
19295.0	6.686051519867562e+17
19296.0	6.684641965987155e+17
19297.0	6.683213508378623e+17
19298.0	6.681806942939818e+17
19299.0	6.680396640376148e+17
19300.0	6.678974493097981e+17
19301.0	6.677547823661053e+17
19302.0	6.676114915895978e+17
19303.0	6.67465172525602e+17
19304.0	6.673237372392788e+17
19305.0	6.671808496052905e+17
19306.0	6.670356131610623e+17
19307.0	6.668874753769472e+17
19308.0	6.66713432592657e+17
19309.0	6.664323423622484e+17
19310.0	6.662558091400531e+17
19311.0	6.662253441624746e+17
19312.0	6.660926862262272e+17
19313.0	6.659453240388265e+17
19314.0	6.637383771837796e+17
19315.0	6.636873936011282e+17
19316.0	6.654934615326717e+17
19317.0	6.653538835540649e+17
19318.0	6.652040270140755e+17
19319.0	6.65055033032704e+17
19320.0	6.649044485013504e+17
19321.0	6.647536689348607e+17
19322.0	6.645909960698538e+17
19323.0	6.64408753700864e+17
19324.0	6.642973587887444e+17
19325.0	6.64057478713617e+17
19326.0	6.63991407869952e+17
19327.0	6.6383816701597e+17
19328.0	6.636832917116244e+17
19329.0	6.635278802354175e+17
19330.0	6.633695331658409e+17
19331.0	6.63211802239522e+17
19332.0	6.630542408329897e+17
19333.0	6.628949270462463e+17
19334.0	6.627362658233002e+17
19335.0	6.625750192313684e+17
19336.0	6.624127907528704e+17
19337.0	6.622515981276502e+17
19338.0	6.620793690303145e+17
19339.0	6.619236082384896e+17
19340.0	6.617563380667732e+17
19341.0	6.615914479528617e+17
19342.0	6.614047992578047e+17
19343.0	6.612565724845396e+17
19344.0	6.610868236888746e+17
19345.0	6.608375827660797e+17
19346.0	6.607068430947667e+17
19347.0	6.605687471734783e+17
19348.0	6.603976085252777e+17
19349.0	6.601551851640148e+17
19350.0	6.599394146473299e+17
19351.0	6.597620064933204e+17
19352.0	6.595794916343808e+17
19353.0	6.59401723678993e+17
19354.0	6.59218799665698e+17
19355.0	6.590305827902803e+17
19356.0	6.588478224946516e+17
19357.0	6.58659846791714e+17
19358.0	6.584677531910143e+17
19359.0	6.582717874088617e+17
19360.0	6.58082782913058e+17
19361.0	6.578825305522175e+17
19362.0	6.576769644276394e+17
19363.0	6.57477239710242e+17
19364.0	6.572752911728637e+17
19365.0	6.570235484875434e+17
19366.0	6.567220854740307e+17
19367.0	6.565128311581353e+17
19368.0	6.563011544918697e+17
19369.0	6.560822694947497e+17
19370.0	6.558545261275817e+17
19371.0	6.556473070277971e+17
19372.0	6.554264816058365e+17
19373.0	6.551995178199722e+17
19374.0	6.549710609317887e+17
19375.0	6.545725145306451e+17
19376.0	6.543137989547348e+17
19377.0	6.540725714594474e+17
19378.0	6.53827730571264e+17
19379.0	6.535787356443988e+17
19380.0	6.533254978994173e+17
19381.0	6.52943334379793e+17
19382.0	6.525629916774399e+17
19383.0	6.522913744224255e+17
19384.0	6.520218861961215e+17
19385.0	6.517418327277567e+17
19386.0	6.512090879623163e+17
19387.0	6.508700332195839e+17
19388.0	6.505700723261437e+17
19389.0	6.501879975859539e+17
19390.0	6.495955103427241e+17
19391.0	6.46511908932809e+17
19392.0	6.487703919001599e+17
19393.0	6.481834015719423e+17
19394.0	6.478295030475434e+17
19395.0	6.47080807829777e+17
19396.0	6.465983473167017e+17
19397.0	6.458180606012072e+17
19398.0	6.452504166399999e+17
19399.0	6.445138810590545e+17
19400.0	6.440737428209663e+17
19401.0	6.436265513014611e+17
19402.0	6.431287747979946e+17
19403.0	6.426402718307668e+17
19404.0	6.421489572118527e+17
19405.0	6.416408230144681e+17
19406.0	6.4111711879168e+17
19407.0	6.405780021794132e+17
19408.0	6.399902911998634e+17
19409.0	6.394395077814953e+17
19410.0	6.388396571579732e+17
19411.0	6.381393466621951e+17
19412.0	6.374972117920425e+17
19413.0	6.368350519863977e+17
19414.0	6.361479211821737e+17
19415.0	6.353595147135656e+17
19416.0	6.345443364918612e+17
19417.0	6.337515529175037e+17
19418.0	6.328657302432425e+17
19419.0	6.319717077046612e+17
19420.0	6.309475793240063e+17
19421.0	6.299228885570899e+17
19422.0	6.286676506705919e+17
19423.0	6.273666839653034e+17
19424.0	6.258969503509164e+17
19425.0	6.242141076455418e+17
19426.0	6.221073491514698e+17
19427.0	6.19668612544376e+17
19428.0	6.168185923436539e+17
19429.0	6.149361659893075e+17
19430.0	6.130937958673069e+17
19431.0	6.108007121289221e+17
19432.0	6.092487763776851e+17
19433.0	6.071330979272022e+17
19434.0	6.048314592067581e+17
19435.0	6.023857021037224e+17
19436.0	5.99678986171187e+17
19437.0	5.970634019788113e+17
19438.0	5.90610743287263e+17
19439.0	5.897734700313258e+17
19440.0	5.848927560182432e+17
19441.0	5.783287004572333e+17
19442.0	5.7303255209738266e+17
19443.0	5.6759467589850445e+17
19444.0	5.6127356630903456e+17
19445.0	5.534208476839938e+17
19446.0	5.4297211744638285e+17
19447.0	5.313389371501222e+17
19448.0	5.170337417265159e+17
19449.0	4.968881633711447e+17
19450.0	4.6640526499948755e+17
19451.0	4.5798599356142944e+17
19452.0	4.8206221364865734e+17
19453.0	5.0790840947179584e+17
19454.0	5.244417472462841e+17
19455.0	5.365875788655273e+17
19456.0	5.477999003915616e+17
19457.0	5.565578332864506e+17
19458.0	5.604763358636751e+17
19459.0	5.68731450142448e+17
19460.0	5.738214169335122e+17
19461.0	5.797123248007857e+17
19462.0	5.854029294862328e+17
19463.0	5.895271118536703e+17
19464.0	5.928175847953748e+17
19465.0	5.955884717615785e+17
19466.0	5.979804213968895e+17
19467.0	6.002320083692202e+17
19468.0	6.023950963660118e+17
19469.0	6.043309345953107e+17
19470.0	6.061642903890601e+17
19471.0	6.078946353348608e+17
19472.0	6.094957895658153e+17
19473.0	6.109842706006015e+17
19474.0	6.131804573881684e+17
19475.0	6.156743956496381e+17
19476.0	6.176413939924991e+17
19477.0	6.192469104394236e+17
19478.0	6.206041782659749e+17
19479.0	6.217567143548248e+17
19480.0	6.227358889541631e+17
19481.0	6.235989740268201e+17
19482.0	6.244562585168557e+17
19483.0	6.251071566162602e+17
19484.0	6.25822366188612e+17
19485.0	6.264026125653331e+17
19486.0	6.269154694791167e+17
19487.0	6.275099358745939e+17
19488.0	6.279824930766847e+17
19489.0	6.284080392612521e+17
19490.0	6.287708767562408e+17
19491.0	6.29239082787362e+17
19492.0	6.296542344380415e+17
19493.0	6.299980185381546e+17
19494.0	6.303221581261481e+17
19495.0	6.306255482825386e+17
19496.0	6.308980775889578e+17
19497.0	6.31182533328896e+17
19498.0	6.31033020162594e+17
19499.0	6.274863252985161e+17
19500.0	6.319230145615188e+17
19501.0	6.321572536472916e+17
19502.0	6.323536209641472e+17
19503.0	6.327068458833238e+17
19504.0	6.33013845168401e+17
19505.0	6.335531899508052e+17
19506.0	6.338435936332457e+17
19507.0	6.342416086859771e+17
19508.0	6.345472452416852e+17
19509.0	6.34687872215723e+17
19510.0	6.35131496759296e+17
19511.0	6.308738217891142e+17
19512.0	6.345727249394342e+17
19513.0	6.344886911500269e+17
19514.0	6.348239280974492e+17
19515.0	6.357452696059904e+17
19516.0	6.359385116071252e+17
19517.0	6.361649127271081e+17
19518.0	6.361989280432128e+17
19519.0	6.362231098135892e+17
19520.0	6.362449298412884e+17
19521.0	6.363703352666796e+17
19522.0	6.364949131558911e+17
19523.0	6.365013300215805e+17
19524.0	6.365027028871849e+17
19525.0	6.364991354918227e+17
19526.0	6.364951917974867e+17
19527.0	6.364852935895721e+17
19528.0	6.366053263212541e+17
19529.0	6.366289185822035e+17
19530.0	6.366081829218985e+17
19531.0	6.365841383751679e+17
19532.0	6.365571606118399e+17
19533.0	6.365273729444521e+17
19534.0	6.364948709332308e+17
19535.0	6.364597873978025e+17
19536.0	6.364207153588905e+17
19537.0	6.363827957050025e+17
19538.0	6.364143709847552e+17
19539.0	6.364064053723135e+17
19540.0	6.36379829633024e+17
19541.0	6.363321409557844e+17
19542.0	6.362811491243348e+17
19543.0	6.362282323170644e+17
19544.0	6.361734470871721e+17
19545.0	6.360964999938047e+17
19546.0	6.360226816415059e+17
19547.0	6.360062306724521e+17
19548.0	6.359504822206464e+17
19549.0	6.358833135179091e+17
19550.0	6.358228457750527e+17
19551.0	6.357568284087636e+17
19552.0	6.356892541168298e+17
19553.0	6.356193445063337e+17
19554.0	6.355487015916884e+17
19555.0	6.354781092184063e+17
19556.0	6.354060521941674e+17
19557.0	6.354227819446271e+17
19558.0	6.353509946840403e+17
19559.0	6.352744745708201e+17
19560.0	6.351962984764756e+17
19561.0	6.351184805756928e+17
19562.0	6.350398436671487e+17
19563.0	6.349594736022867e+17
19564.0	6.348782254598826e+17
19565.0	6.347960396808191e+17
19566.0	6.347121142442666e+17
19567.0	6.346289228109139e+17
19568.0	6.345430175230634e+17
19569.0	6.344582975455231e+17
19570.0	6.343722897069396e+17
19571.0	6.342849212361385e+17
19572.0	6.341960201666559e+17
19573.0	6.341076802950484e+17
19574.0	6.340155374480042e+17
19575.0	6.339294866877097e+17
19576.0	6.338389769628329e+17
19577.0	6.337468552271188e+17
19578.0	6.336541050448553e+17
19579.0	6.335624399290367e+17
19580.0	6.334694716429652e+17
19581.0	6.333763115373908e+17
19582.0	6.332828974667092e+17
19583.0	6.331882676071082e+17
19584.0	6.330915331156649e+17
19585.0	6.329926769355433e+17
19586.0	6.328932816475476e+17
19587.0	6.327875091999402e+17
19588.0	6.326875548811264e+17
19589.0	6.32607339655987e+17
19590.0	6.325080134341972e+17
19591.0	6.324141880421033e+17
19592.0	6.323158142768467e+17
19593.0	6.322159286747135e+17
19594.0	6.321046045764265e+17
19595.0	6.320152961002153e+17
19596.0	6.315679136000685e+17
19597.0	6.318025807145642e+17
19598.0	6.317029813037738e+17
19599.0	6.31615133913361e+17
19600.0	6.315136980265642e+17
19601.0	6.314089332604927e+17
19602.0	6.313073814011903e+17
19603.0	6.31146933334835e+17
19604.0	6.310962673309011e+17
19605.0	6.30989026107938e+17
19606.0	6.308982844380502e+17
19607.0	6.307950230503423e+17
19608.0	6.306910368169983e+17
19609.0	6.305846755590141e+17
19610.0	6.304830122011306e+17
19611.0	6.303782981162324e+17
19612.0	6.302738591776768e+17
19613.0	6.301689295055529e+17
19614.0	6.300619565782356e+17
19615.0	6.299573161033727e+17
19616.0	6.298277663561044e+17
19617.0	6.297470998937599e+17
19618.0	6.296174211017385e+17
19619.0	6.295063781616297e+17
19620.0	6.294617562196649e+17
19621.0	6.293833866980009e+17
19622.0	6.292766773826899e+17
19623.0	6.291698112004096e+17
19624.0	6.290627462081193e+17
19625.0	6.28955211244066e+17
19626.0	6.288479696016724e+17
19627.0	6.28739844219426e+17
19628.0	6.285654674287274e+17
19629.0	6.28519403065617e+17
19630.0	6.28207701266705e+17
19631.0	6.253784023957508e+17
19632.0	6.281966125055999e+17
19633.0	6.280885676539903e+17
19634.0	6.279839435369129e+17
19635.0	6.278738613021353e+17
19636.0	6.277670825011882e+17
19637.0	6.276415023830355e+17
19638.0	6.275491290589865e+17
19639.0	6.274388041138175e+17
19640.0	6.273266635942569e+17
19641.0	6.271938711606612e+17
19642.0	6.271129394085887e+17
19643.0	6.270025946802857e+17
19644.0	6.268912566708905e+17
19645.0	6.267729500351146e+17
19646.0	6.266747926959444e+17
19647.0	6.265650378964991e+17
19648.0	6.264551950166697e+17
19649.0	6.263451550744575e+17
19650.0	6.262352713700692e+17
19651.0	6.261251896945322e+17
19652.0	6.260150349682003e+17
19653.0	6.259034504036351e+17
19654.0	6.25794500071697e+17
19655.0	6.256839411542697e+17
19656.0	6.255734126455466e+17
19657.0	6.254632148576938e+17
19658.0	6.253526528644436e+17
19659.0	6.252419958702079e+17
19660.0	6.251313866910378e+17
19661.0	6.250206502147412e+17
19662.0	6.249098472587263e+17
19663.0	6.247955443657386e+17
19664.0	6.246761260995924e+17
19665.0	6.245771447194963e+17
