# Flux units: erg / (cm m2 s)
# Wavelength units: Angstrom
wave	flux
19000.0	6.759084726419456e+17
19001.0	6.757772813839017e+17
19002.0	6.756579576993108e+17
19003.0	6.755317356429311e+17
19004.0	6.754055081339562e+17
19005.0	6.752818775982079e+17
19006.0	6.751564615472468e+17
19007.0	6.75004176924672e+17
19008.0	6.749019300691967e+17
19009.0	6.747741845716991e+17
19010.0	6.746280118889129e+17
19011.0	6.745225953279999e+17
19012.0	6.743293154383186e+17
19013.0	6.742781725420202e+17
19014.0	6.741484518768639e+17
19015.0	6.74024185274914e+17
19016.0	6.738978294202367e+17
19017.0	6.737745352676691e+17
19018.0	6.736448385100458e+17
19019.0	6.735234825453567e+17
19020.0	6.733965717842601e+17
19021.0	6.732727801173332e+17
19022.0	6.731476743050579e+17
19023.0	6.730194283571881e+17
19024.0	6.728940422955008e+17
19025.0	6.727622665611946e+17
19026.0	6.726354097668096e+17
19027.0	6.724476982351187e+17
19028.0	6.723933835362303e+17
19029.0	6.722660712404308e+17
19030.0	6.721418369346217e+17
19031.0	6.720162195570687e+17
19032.0	6.718904198671017e+17
19033.0	6.717591464006996e+17
19034.0	6.716376132965716e+17
19035.0	6.715055690569044e+17
19036.0	6.667223673689427e+17
19037.0	6.712587538399231e+17
19038.0	6.711339372249087e+17
19039.0	6.71009951711232e+17
19040.0	6.708842731667455e+17
19041.0	6.707584353086122e+17
19042.0	6.706261541606739e+17
19043.0	6.705072104800255e+17
19044.0	6.703808330246825e+17
19045.0	6.702530913719635e+17
19046.0	6.701267436961791e+17
19047.0	6.700028245923158e+17
19048.0	6.698661214595754e+17
19049.0	6.697450346293929e+17
19050.0	6.696235684943188e+17
19051.0	6.688102424772599e+17
19052.0	6.692297787135315e+17
19053.0	6.692424664132266e+17
19054.0	6.691232963100672e+17
19055.0	6.689819860140031e+17
19056.0	6.688704619872255e+17
19057.0	6.687449728155647e+17
19058.0	6.686115888452948e+17
19059.0	6.68493788881442e+17
19060.0	6.683668117804372e+17
19061.0	6.682431000150015e+17
19062.0	6.681170383208447e+17
19063.0	6.679913849421823e+17
19064.0	6.678588000567296e+17
19065.0	6.67729493439283e+17
19066.0	6.676100832821247e+17
19067.0	6.67488330186752e+17
19068.0	6.673627368565417e+17
19069.0	6.67237024408098e+17
19070.0	6.671098488466089e+17
19071.0	6.669834079873705e+17
19072.0	6.668583252437673e+17
19073.0	6.667338436837375e+17
19074.0	6.666084534976511e+17
19075.0	6.664827449638911e+17
19076.0	6.663558235073193e+17
19077.0	6.662304710699689e+17
19078.0	6.661040325175978e+17
19079.0	6.659799479484415e+17
19080.0	6.658537455353855e+17
19081.0	6.657263471165439e+17
19082.0	6.656002250943146e+17
19083.0	6.654704848557396e+17
19084.0	6.6533739462656e+17
19085.0	6.652254255142228e+17
19086.0	6.650717879489876e+17
19087.0	6.648338243212628e+17
19088.0	6.648403140280319e+17
19089.0	6.646472651745961e+17
19090.0	6.646022175806804e+17
19091.0	6.644779489514836e+17
19092.0	6.643170679630505e+17
19093.0	6.642292179861504e+17
19094.0	6.641034503127039e+17
19095.0	6.639777254211584e+17
19096.0	6.638512858202111e+17
19097.0	6.637270148841472e+17
19098.0	6.636009981389482e+17
19099.0	6.634752510874964e+17
19100.0	6.6334321278976e+17
19101.0	6.632224318641492e+17
19102.0	6.630936691780265e+17
19103.0	6.629741055093418e+17
19104.0	6.628485176317268e+17
19105.0	6.627208531542013e+17
19106.0	6.625706720449876e+17
19107.0	6.624698741817343e+17
19108.0	6.623445446732457e+17
19109.0	6.6181453109876e+17
19110.0	6.620794360692733e+17
19111.0	6.619675514022569e+17
19112.0	6.618435630923773e+17
19113.0	6.617191214481408e+17
19114.0	6.615936693960704e+17
19115.0	6.614556674271914e+17
19116.0	6.613413934749011e+17
19117.0	6.612154786512895e+17
19118.0	6.610628405886977e+17
19119.0	6.60732749772663e+17
19120.0	6.608017924904275e+17
19121.0	6.606860459180031e+17
19122.0	6.605903490973696e+17
19123.0	6.604648899149824e+17
19124.0	6.603159978551978e+17
19125.0	6.602099420124499e+17
19126.0	6.600872140210173e+17
19127.0	6.598596437387946e+17
19128.0	6.596756547917138e+17
19129.0	6.597079971397631e+17
19130.0	6.595867819638783e+17
19131.0	6.594569450465961e+17
19132.0	6.593365646071124e+17
19133.0	6.591762464243712e+17
19134.0	6.590147462168576e+17
19135.0	6.589589141585919e+17
19136.0	6.588355686258003e+17
19137.0	6.58700496937506e+17
19138.0	6.585776956855636e+17
19139.0	6.584593484349439e+17
19140.0	6.583344696044201e+17
19141.0	6.582092256597332e+17
19142.0	6.580811065895593e+17
19143.0	6.57955502424064e+17
19144.0	6.578318265898324e+17
19145.0	6.577068201126569e+17
19146.0	6.575441531196756e+17
19147.0	6.574516278919165e+17
19148.0	6.573292339767978e+17
19149.0	6.572045452181503e+17
19150.0	6.570812789577044e+17
19151.0	6.56956448781107e+17
19152.0	6.568264090692265e+17
19153.0	6.567038735963476e+17
19154.0	6.565730454951254e+17
19155.0	6.564540038075731e+17
19156.0	6.563294686303572e+17
19157.0	6.561955872156329e+17
19158.0	6.558030387391142e+17
19159.0	6.559502900570793e+17
19160.0	6.558227267321855e+17
19161.0	6.556884810421588e+17
19162.0	6.54952574187384e+17
19163.0	6.554301028980052e+17
19164.0	6.553275996307455e+17
19165.0	6.551894942722729e+17
19166.0	6.550553166697814e+17
19167.0	6.548926803651242e+17
19168.0	6.548234203824127e+17
19169.0	6.54689607684369e+17
19170.0	6.545762404007935e+17
19171.0	6.544139092317523e+17
19172.0	6.543224495669247e+17
19173.0	6.541991052225193e+17
19174.0	6.54073223324194e+17
19175.0	6.539514197573631e+17
19176.0	6.538261086339071e+17
19177.0	6.536915364872191e+17
19178.0	6.535583088945834e+17
19179.0	6.533982823557801e+17
19180.0	6.533128540301993e+17
19181.0	6.531926655500287e+17
19182.0	6.530714527509162e+17
19183.0	6.529475067336019e+17
19184.0	6.528199150272512e+17
19185.0	6.526983148142591e+17
19186.0	6.525732895326207e+17
19187.0	6.524423451093674e+17
19188.0	6.523201431535616e+17
19189.0	6.521897283310931e+17
19190.0	6.520616694491817e+17
19191.0	6.519371853725695e+17
19192.0	6.5181986600605e+17
19193.0	6.516891535977129e+17
19194.0	6.515654778333865e+17
19195.0	6.514424964360873e+17
19196.0	6.513159941302954e+17
19197.0	6.511870955487231e+17
19198.0	6.510465986680148e+17
19199.0	6.47352473808622e+17
19200.0	6.482738086761827e+17
19201.0	6.506727947457876e+17
19202.0	6.505607442639529e+17
19203.0	6.504289558069247e+17
19204.0	6.503111368987988e+17
19205.0	6.501892410572799e+17
19206.0	6.500631083395753e+17
19207.0	6.499323530794323e+17
19208.0	6.498012344527529e+17
19209.0	6.496860541113683e+17
19210.0	6.495620068016127e+17
19211.0	6.494362483556351e+17
19212.0	6.49310329966865e+17
19213.0	6.491481864230228e+17
19214.0	6.490043408100009e+17
19215.0	6.489174734886228e+17
19216.0	6.488069851054079e+17
19217.0	6.486814888034304e+17
19218.0	6.485053007724541e+17
19219.0	6.484200802746365e+17
19220.0	6.483003267437908e+17
19221.0	6.48157432189201e+17
19222.0	6.480510140284925e+17
19223.0	6.479253746308436e+17
19224.0	6.477964313799338e+17
19225.0	6.476645579882495e+17
19226.0	6.475460460412927e+17
19227.0	6.474195791074644e+17
19228.0	6.472945153780393e+17
19229.0	6.471681403693737e+17
19230.0	6.470357111625043e+17
19231.0	6.469102757478399e+17
19232.0	6.467874075967487e+17
19233.0	6.466572347856211e+17
19234.0	6.465342426229417e+17
19235.0	6.464076642604372e+17
19236.0	6.462822394713427e+17
19237.0	6.461545034110294e+17
19238.0	6.460173810576041e+17
19239.0	6.459017464031913e+17
19240.0	6.457711089330857e+17
19241.0	6.456452660417876e+17
19242.0	6.455196089581567e+17
19243.0	6.453837653781161e+17
19244.0	6.452665052910932e+17
19245.0	6.451392194893139e+17
19246.0	6.45010924118562e+17
19247.0	6.448843455463423e+17
19248.0	6.447559249057108e+17
19249.0	6.446273962617513e+17
19250.0	6.445003822508714e+17
19251.0	6.443658970660863e+17
19252.0	6.442298610373972e+17
19253.0	6.441166905365844e+17
19254.0	6.439894941433855e+17
19255.0	6.438514839956138e+17
19256.0	6.437269967732733e+17
19257.0	6.436048614369961e+17
19258.0	6.434769968911702e+17
19259.0	6.433443623032148e+17
19260.0	6.431369822120616e+17
19261.0	6.430910859706365e+17
19262.0	6.429594190785193e+17
19263.0	6.428294534660095e+17
19264.0	6.42672846053922e+17
19265.0	6.42563545567505e+17
19266.0	6.424349923868671e+17
19267.0	6.423162991760723e+17
19268.0	6.421867107713023e+17
19269.0	6.420569780824745e+17
19270.0	6.419269387900244e+17
19271.0	6.417774513487872e+17
19272.0	6.416647495614463e+17
19273.0	6.414188406636541e+17
19274.0	6.413297293896361e+17
19275.0	6.412754457285971e+17
19276.0	6.411435206770687e+17
19277.0	6.410125266212179e+17
19278.0	6.408822553837565e+17
19279.0	6.407447017859753e+17
19280.0	6.406152084520959e+17
19281.0	6.404867630650708e+17
19282.0	6.403551293778602e+17
19283.0	6.401661499080703e+17
19284.0	6.400358875485523e+17
19285.0	6.399472609962666e+17
19286.0	6.398241610399743e+17
19287.0	6.396928479373993e+17
19288.0	6.381760352179524e+17
19289.0	6.365009491088684e+17
19290.0	6.392926496795305e+17
19291.0	6.391441620205568e+17
19292.0	6.390256202940415e+17
19293.0	6.388908805849087e+17
19294.0	6.387567656173568e+17
19295.0	6.386218813445459e+17
19296.0	6.384858364379135e+17
19297.0	6.383486087375529e+17
19298.0	6.382143857666729e+17
19299.0	6.380783718279849e+17
19300.0	6.37942761591057e+17
19301.0	6.378058169363113e+17
19302.0	6.376679917573459e+17
19303.0	6.375259313799165e+17
19304.0	6.373913520330068e+17
19305.0	6.372541996204031e+17
19306.0	6.371135919401641e+17
19307.0	6.369702053238102e+17
19308.0	6.368324977251668e+17
19309.0	6.365648642200915e+17
19310.0	6.363857143114408e+17
19311.0	6.363983330148351e+17
19312.0	6.362763435005268e+17
19313.0	6.361348018885972e+17
19314.0	6.324804251200198e+17
19315.0	6.32514977936182e+17
19316.0	6.356946347797162e+17
19317.0	6.355649010423124e+17
19318.0	6.35420997268275e+17
19319.0	6.352777790532265e+17
19320.0	6.351322692102825e+17
19321.0	6.349865005787817e+17
19322.0	6.348264766963711e+17
19323.0	6.346368679411712e+17
19324.0	6.345421311967231e+17
19325.0	6.342754349088768e+17
19326.0	6.342474498834431e+17
19327.0	6.340998869286911e+17
19328.0	6.339495448980137e+17
19329.0	6.338004808717652e+17
19330.0	6.336467362119679e+17
19331.0	6.334940574646271e+17
19332.0	6.333419248855721e+17
19333.0	6.331875466761555e+17
19334.0	6.330345330835456e+17
19335.0	6.328762629095423e+17
19336.0	6.327204583571455e+17
19337.0	6.325647930556415e+17
19338.0	6.323942295863295e+17
19339.0	6.32246468870144e+17
19340.0	6.320826202718207e+17
19341.0	6.31922387652881e+17
19342.0	6.317342031435091e+17
19343.0	6.315987928350719e+17
19344.0	6.314330327526057e+17
19345.0	6.311577551983954e+17
19346.0	6.310470979245395e+17
19347.0	6.309269543933268e+17
19348.0	6.30763071611426e+17
19349.0	6.305890017039702e+17
19350.0	6.304167421280255e+17
19351.0	6.302444152335018e+17
19352.0	6.300647748009983e+17
19353.0	6.298939211557545e+17
19354.0	6.297157371254099e+17
19355.0	6.295308104717652e+17
19356.0	6.293540081849684e+17
19357.0	6.291707171001684e+17
19358.0	6.289821220383402e+17
19359.0	6.28790628852258e+17
19360.0	6.285779129073663e+17
19361.0	6.283687662452735e+17
19362.0	6.281788096424618e+17
19363.0	6.279836762199378e+17
19364.0	6.27786338341137e+17
19365.0	6.275869372841983e+17
19366.0	6.273851517654356e+17
19367.0	6.271803747991551e+17
19368.0	6.269751959486464e+17
19369.0	6.267603376930815e+17
19370.0	6.265412394855082e+17
19371.0	6.263388766207999e+17
19372.0	6.261253772498259e+17
19373.0	6.259041917468671e+17
19374.0	6.256837963808767e+17
19375.0	6.254582936109055e+17
19376.0	6.252299933799763e+17
19377.0	6.249981120522921e+17
19378.0	6.247632609476607e+17
19379.0	6.245248374145023e+17
19380.0	6.242828402644308e+17
19381.0	6.240371955378858e+17
19382.0	6.237833021532841e+17
19383.0	6.235276458328063e+17
19384.0	6.232636432667987e+17
19385.0	6.229353104233812e+17
19386.0	6.226706668978176e+17
19387.0	6.224007423240873e+17
19388.0	6.221273005468329e+17
19389.0	6.218483996033023e+17
19390.0	6.2156307445405e+17
19391.0	6.173075612281462e+17
19392.0	6.208719496238414e+17
19393.0	6.206825108078591e+17
19394.0	6.203387953545215e+17
19395.0	6.199311383658496e+17
19396.0	6.196116605370365e+17
19397.0	6.192967440138239e+17
19398.0	6.189612458311679e+17
19399.0	6.185823284232191e+17
19400.0	6.181749895725055e+17
19401.0	6.177401610436607e+17
19402.0	6.173745901207551e+17
19403.0	6.170010804289535e+17
19404.0	6.164712395199827e+17
19405.0	6.159906584046249e+17
19406.0	6.155872002637823e+17
19407.0	6.149543859060733e+17
19408.0	6.143981310181376e+17
19409.0	6.13825780908032e+17
19410.0	6.131494603631274e+17
19411.0	6.123836876870998e+17
19412.0	6.116483325930158e+17
19413.0	6.106184297043283e+17
19414.0	6.09566664215757e+17
19415.0	6.08362175729937e+17
19416.0	6.069151291757911e+17
19417.0	6.055226366754815e+17
19418.0	6.04649395515119e+17
19419.0	6.03818165342481e+17
19420.0	6.029653798027263e+17
19421.0	6.020650905545386e+17
19422.0	6.01126227480849e+17
19423.0	6.001531550345898e+17
19424.0	5.991329258886484e+17
19425.0	5.980665401049087e+17
19426.0	5.968863928429225e+17
19427.0	5.957162671013887e+17
19428.0	5.944971745383763e+17
19429.0	5.93109328348228e+17
19430.0	5.916681787058862e+17
19431.0	5.895552666086066e+17
19432.0	5.886380354480809e+17
19433.0	5.868214883975168e+17
19434.0	5.845551066469715e+17
19435.0	5.816837380680355e+17
19436.0	5.777211613948588e+17
19437.0	5.7321129802465286e+17
19438.0	5.6503415564752403e+17
19439.0	5.6644085747111264e+17
19440.0	5.632773243710122e+17
19441.0	5.59618649699123e+17
19442.0	5.554574454685696e+17
19443.0	5.5049052208059757e+17
19444.0	5.435240162699947e+17
19445.0	5.34072599178991e+17
19446.0	5.2564294040726163e+17
19447.0	5.153060322017269e+17
19448.0	5.0017389080739904e+17
19449.0	4.790318939504639e+17
19450.0	4.414030749892594e+17
19451.0	4.304178266505197e+17
19452.0	4.6154348715049075e+17
19453.0	4.9072168658534483e+17
19454.0	5.0821906744825043e+17
19455.0	5.202802942935038e+17
19456.0	5.291206083521198e+17
19457.0	5.378145308551845e+17
19458.0	5.402329250878883e+17
19459.0	5.512808120713239e+17
19460.0	5.558975193939963e+17
19461.0	5.595924069875712e+17
19462.0	5.628674424438784e+17
19463.0	5.6599953007793466e+17
19464.0	5.688780608503807e+17
19465.0	5.7279559097821997e+17
19466.0	5.769935540191237e+17
19467.0	5.79985667872085e+17
19468.0	5.822450525448869e+17
19469.0	5.839902877592233e+17
19470.0	5.855012525004116e+17
19471.0	5.868108310904831e+17
19472.0	5.880228635912873e+17
19473.0	5.891628510915241e+17
19474.0	5.902353807616682e+17
19475.0	5.911596717746857e+17
19476.0	5.921424188724563e+17
19477.0	5.930390990618623e+17
19478.0	5.938535023159977e+17
19479.0	5.946187033782954e+17
19480.0	5.95342658703633e+17
19481.0	5.960328860925951e+17
19482.0	5.966834082425513e+17
19483.0	5.97289160811042e+17
19484.0	5.978791347574099e+17
19485.0	5.987685952913409e+17
19486.0	6.000315059579569e+17
19487.0	6.011294659029677e+17
19488.0	6.020233847723355e+17
19489.0	6.027193287180285e+17
19490.0	6.032436037156863e+17
19491.0	6.039684678767956e+17
19492.0	6.042810380364456e+17
19493.0	6.048636493714772e+17
19494.0	6.050718986622292e+17
19495.0	6.054685300839764e+17
19496.0	6.057099224853161e+17
19497.0	6.058968336738986e+17
19498.0	6.056017838910121e+17
19499.0	6.003128623868573e+17
19500.0	6.065615918508714e+17
19501.0	6.066917203421866e+17
19502.0	6.069461536735232e+17
19503.0	6.070946716013908e+17
19504.0	6.07198052946193e+17
19505.0	6.072961510058665e+17
19506.0	6.073853644111871e+17
19507.0	6.074673766159702e+17
19508.0	6.076468013214376e+17
19509.0	6.077315775026516e+17
19510.0	6.077820585377792e+17
19511.0	6.008151089698112e+17
19512.0	6.06817535830698e+17
19513.0	6.06220510140823e+17
19514.0	6.066542162040129e+17
19515.0	6.079495781307734e+17
19516.0	6.080653834933588e+17
19517.0	6.080922330507946e+17
19518.0	6.081604853519699e+17
19519.0	6.082161851498495e+17
19520.0	6.082334758185641e+17
19521.0	6.082495769826644e+17
19522.0	6.082573881049087e+17
19523.0	6.082650666172415e+17
19524.0	6.082666796067497e+17
19525.0	6.082657795790166e+17
19526.0	6.082625055752191e+17
19527.0	6.082550172046676e+17
19528.0	6.082441681480362e+17
19529.0	6.082309923711658e+17
19530.0	6.082149705493161e+17
19531.0	6.081957927234217e+17
19532.0	6.081738942622378e+17
19533.0	6.081493655530154e+17
19534.0	6.081220646185642e+17
19535.0	6.080922649275049e+17
19536.0	6.080591552315391e+17
19537.0	6.080278461502804e+17
19538.0	6.079835896720042e+17
19539.0	6.079235556900864e+17
19540.0	6.079117564138836e+17
19541.0	6.078709268217855e+17
19542.0	6.078264575524863e+17
19543.0	6.077792722616319e+17
19544.0	6.077322843826857e+17
19545.0	6.076540715881812e+17
19546.0	6.076122286522368e+17
19547.0	6.076199314915327e+17
19548.0	6.075647263419049e+17
19549.0	6.0750279227037e+17
19550.0	6.074503111114751e+17
19551.0	6.073908963486377e+17
19552.0	6.073298430809427e+17
19553.0	6.072660215027028e+17
19554.0	6.07201687240704e+17
19555.0	6.071379380841129e+17
19556.0	6.070725697863679e+17
19557.0	6.070049836105727e+17
19558.0	6.069366418309119e+17
19559.0	6.068668702130176e+17
19560.0	6.067943843910996e+17
19561.0	6.067230199163561e+17
19562.0	6.066514949395795e+17
19563.0	6.06578124399138e+17
19564.0	6.065033523320148e+17
19565.0	6.064276176721235e+17
19566.0	6.063497938993151e+17
19567.0	6.06273303286033e+17
19568.0	6.06193412210688e+17
19569.0	6.061152310132736e+17
19570.0	6.060356820533247e+17
19571.0	6.059544940292778e+17
19572.0	6.058715023147007e+17
19573.0	6.057894241195348e+17
19574.0	6.057025324711933e+17
19575.0	6.056239926607872e+17
19576.0	6.05539640803328e+17
19577.0	6.054535660655956e+17
19578.0	6.053663168528383e+17
19579.0	6.05281049448721e+17
19580.0	6.051941349414227e+17
19581.0	6.051071332625065e+17
19582.0	6.050200112070656e+17
19583.0	6.049313850742102e+17
19584.0	6.048399639969791e+17
19585.0	6.047460577946282e+17
19586.0	6.04651941667362e+17
19587.0	6.04549184295185e+17
19588.0	6.044529389993984e+17
19589.0	6.043864133533695e+17
19590.0	6.042905799382356e+17
19591.0	6.042044808735402e+17
19592.0	6.04112082104047e+17
19593.0	6.040177612248403e+17
19594.0	6.03909019279906e+17
19595.0	6.038282709587284e+17
19596.0	6.033914901910871e+17
19597.0	6.036269309449556e+17
19598.0	6.035275036404393e+17
19599.0	6.034522004346196e+17
19600.0	6.033565647110143e+17
19601.0	6.032564669470036e+17
19602.0	6.031607750896297e+17
19603.0	6.029860755472383e+17
19604.0	6.029589859358038e+17
19605.0	6.028560217844393e+17
19606.0	6.027756324257791e+17
19607.0	6.026781327534761e+17
19608.0	6.025794640587433e+17
19609.0	6.024780067809961e+17
19610.0	6.023826405414227e+17
19611.0	6.022833226383359e+17
19612.0	6.021855058766506e+17
19613.0	6.020862560610986e+17
19614.0	6.019843219608916e+17
19615.0	6.018853979029503e+17
19616.0	6.017506490362538e+17
19617.0	6.016859953780052e+17
19618.0	6.015532828459005e+17
19619.0	6.014458651825491e+17
19620.0	6.013464032750249e+17
19621.0	6.012836731944959e+17
19622.0	6.011837290119167e+17
19623.0	6.010825245807956e+17
19624.0	6.009811152579242e+17
19625.0	6.008791998922751e+17
19626.0	6.007775632381267e+17
19627.0	6.006747024763561e+17
19628.0	6.004834666807296e+17
19629.0	6.004606431657983e+17
19630.0	6.000728302682112e+17
19631.0	5.963955787442865e+17
19632.0	6.001578014146559e+17
19633.0	6.000545019286868e+17
19634.0	5.99958451528226e+17
19635.0	5.998532628578301e+17
19636.0	5.997513224661673e+17
19637.0	5.996265617053012e+17
19638.0	5.995459788494164e+17
19639.0	5.994413741659476e+17
19640.0	5.993327799304191e+17
19641.0	5.991925430266537e+17
19642.0	5.991324760495444e+17
19643.0	5.99027027681826e+17
19644.0	5.989210068615168e+17
19645.0	5.988047737498282e+17
19646.0	5.987154303210836e+17
19647.0	5.986125058058921e+17
19648.0	5.985083322269695e+17
19649.0	5.984038156238847e+17
19650.0	5.982995406127101e+17
19651.0	5.981950240096255e+17
19652.0	5.980904282041001e+17
19653.0	5.979838825365503e+17
19654.0	5.978810041587028e+17
19655.0	5.977759143340714e+17
19656.0	5.976709108421972e+17
19657.0	5.975663636905983e+17
19658.0	5.974610926021289e+17
19659.0	5.973561650271572e+17
19660.0	5.972511319654399e+17
19661.0	5.971459266576383e+17
19662.0	5.970406506059092e+17
19663.0	5.969305737538218e+17
19664.0	5.96814152597504e+17
19665.0	5.967245347913727e+17
