# Flux units: erg / (cm m2 s)
# Wavelength units: Angstrom
wave	flux
19000.0	7.443756426286419e+17
19001.0	7.442340357952854e+17
19002.0	7.440970085826557e+17
19003.0	7.439576006830761e+17
19004.0	7.43818176425711e+17
19005.0	7.436788339572735e+17
19006.0	7.435393983752874e+17
19007.0	7.433999397246292e+17
19008.0	7.43258962456303e+17
19009.0	7.431197652505939e+17
19010.0	7.429707235939667e+17
19011.0	7.428412225006249e+17
19012.0	7.426998070673407e+17
19013.0	7.425628032030036e+17
19014.0	7.424219688206335e+17
19015.0	7.422836170468008e+17
19016.0	7.421426766883497e+17
19017.0	7.420024594279084e+17
19018.0	7.41864666055748e+17
19019.0	7.41725079478818e+17
19020.0	7.415840464262486e+17
19021.0	7.414451709236564e+17
19022.0	7.413060848670036e+17
19023.0	7.411663724609535e+17
19024.0	7.410264461453994e+17
19025.0	7.408869571559423e+17
19026.0	7.407464971851092e+17
19027.0	7.4060655521082e+17
19028.0	7.404678163027284e+17
19029.0	7.403280783114237e+17
19030.0	7.401883302537898e+17
19031.0	7.400485901653332e+17
19032.0	7.399088433659903e+17
19033.0	7.397669914454696e+17
19034.0	7.396293275374931e+17
19035.0	7.394886662400681e+17
19036.0	7.392815751364607e+17
19037.0	7.392099906704723e+17
19038.0	7.390696507965439e+17
19039.0	7.389304559676074e+17
19040.0	7.387907183957332e+17
19041.0	7.386509077031593e+17
19042.0	7.385092653580287e+17
19043.0	7.383713718818131e+17
19044.0	7.382315344855039e+17
19045.0	7.380918355012264e+17
19046.0	7.379509130384723e+17
19047.0	7.37812149523797e+17
19048.0	7.376677912270163e+17
19049.0	7.375312192361811e+17
19050.0	7.37391973236736e+17
19051.0	7.372417964616362e+17
19052.0	7.371122833446228e+17
19053.0	7.369736748793855e+17
19054.0	7.36833938985233e+17
19055.0	7.366882517931348e+17
19056.0	7.365544328036351e+17
19057.0	7.364147011037866e+17
19058.0	7.362749660484947e+17
19059.0	7.361352210666836e+17
19060.0	7.359949308253523e+17
19061.0	7.358557671740756e+17
19062.0	7.357159492113748e+17
19063.0	7.355762994402642e+17
19064.0	7.354339598619987e+17
19065.0	7.35292658234163e+17
19066.0	7.351557291682476e+17
19067.0	7.350175384556883e+17
19068.0	7.348778621206527e+17
19069.0	7.347382197594793e+17
19070.0	7.34598322524433e+17
19071.0	7.344589067954858e+17
19072.0	7.343192561855145e+17
19073.0	7.341794896729427e+17
19074.0	7.340399827877888e+17
19075.0	7.339003601398442e+17
19076.0	7.337602315190272e+17
19077.0	7.336209033112233e+17
19078.0	7.334806959773011e+17
19079.0	7.333419362374995e+17
19080.0	7.332022358551208e+17
19081.0	7.330617695928319e+17
19082.0	7.329220957743786e+17
19083.0	7.327812770507433e+17
19084.0	7.326382781278889e+17
19085.0	7.325045677708628e+17
19086.0	7.323558555069097e+17
19087.0	7.322234020429823e+17
19088.0	7.320843330431658e+17
19089.0	7.319412137437866e+17
19090.0	7.318064952158889e+17
19091.0	7.316668939588948e+17
19092.0	7.315264408387583e+17
19093.0	7.313885986728617e+17
19094.0	7.312480306287956e+17
19095.0	7.311083123507199e+17
19096.0	7.309698448140969e+17
19097.0	7.30830825726498e+17
19098.0	7.306914670400851e+17
19099.0	7.305520223704403e+17
19100.0	7.304126712337747e+17
19101.0	7.302732912962216e+17
19102.0	7.301319261945853e+17
19103.0	7.299945792361812e+17
19104.0	7.298552367677439e+17
19105.0	7.297158917827241e+17
19106.0	7.295761684714836e+17
19107.0	7.294369020597587e+17
19108.0	7.292979321853268e+17
19109.0	7.291517179090259e+17
19110.0	7.290192415162368e+17
19111.0	7.288800924052138e+17
19112.0	7.287408329839956e+17
19113.0	7.28601579434803e+17
19114.0	7.284623397268138e+17
19115.0	7.283225091812008e+17
19116.0	7.281838748510889e+17
19117.0	7.280442166913705e+17
19118.0	7.279033181361492e+17
19119.0	7.27707085526357e+17
19120.0	7.276265196574035e+17
19121.0	7.274874885461332e+17
19122.0	7.273487563489279e+17
19123.0	7.27209447854353e+17
19124.0	7.270704268094121e+17
19125.0	7.269220470139561e+17
19126.0	7.26754323927313e+17
19127.0	7.265771519126185e+17
19128.0	7.264740287971327e+17
19129.0	7.263351261713748e+17
19130.0	7.261980517029203e+17
19131.0	7.260590670086143e+17
19132.0	7.259199514520233e+17
19133.0	7.25771952918801e+17
19134.0	7.256414133157887e+17
19135.0	7.255029678691668e+17
19136.0	7.253639733881513e+17
19137.0	7.252213031589203e+17
19138.0	7.250853492686845e+17
19139.0	7.249469537342803e+17
19140.0	7.248080072081407e+17
19141.0	7.246690342578858e+17
19142.0	7.245300241181352e+17
19143.0	7.243898871087101e+17
19144.0	7.242520099902804e+17
19145.0	7.241132150183254e+17
19146.0	7.239610351834454e+17
19147.0	7.238333576336723e+17
19148.0	7.236963800536403e+17
19149.0	7.235574679207936e+17
19150.0	7.234183431367338e+17
19151.0	7.232796693801642e+17
19152.0	7.231404945440768e+17
19153.0	7.230013838808403e+17
19154.0	7.228600601630036e+17
19155.0	7.227241012396032e+17
19156.0	7.225851425499817e+17
19157.0	7.22446170718208e+17
19158.0	7.223026069624147e+17
19159.0	7.221681175833258e+17
19160.0	7.220293972699817e+17
19161.0	7.218908167667711e+17
19162.0	7.21741154492962e+17
19163.0	7.216129706906964e+17
19164.0	7.214742825336832e+17
19165.0	7.213352194058921e+17
19166.0	7.211941035857235e+17
19167.0	7.210567250302292e+17
19168.0	7.209166482789716e+17
19169.0	7.207786598716756e+17
19170.0	7.206411497548458e+17
19171.0	7.205017337462783e+17
19172.0	7.203634770433363e+17
19173.0	7.202246246094164e+17
19174.0	7.200845285643603e+17
19175.0	7.199469517580969e+17
19176.0	7.198080940113917e+17
19177.0	7.19665784771925e+17
19178.0	7.195301413999955e+17
19179.0	7.193906765976916e+17
19180.0	7.192519223104851e+17
19181.0	7.1911146010269e+17
19182.0	7.189737138465449e+17
19183.0	7.188359076118528e+17
19184.0	7.186951172696745e+17
19185.0	7.185579865975466e+17
19186.0	7.184192482486953e+17
19187.0	7.182787826854569e+17
19188.0	7.181413877721769e+17
19189.0	7.180025802173098e+17
19190.0	7.178636089447764e+17
19191.0	7.177245613359101e+17
19192.0	7.175856848546474e+17
19193.0	7.174463207156394e+17
19194.0	7.173076029188777e+17
19195.0	7.171687471295144e+17
19196.0	7.170294877082964e+17
19197.0	7.168904421965823e+17
19198.0	7.167513903934122e+17
19199.0	7.165472566935551e+17
19200.0	7.164299762641578e+17
19201.0	7.163342759482706e+17
19202.0	7.161954077158057e+17
19203.0	7.160563497609897e+17
19204.0	7.15916649238801e+17
19205.0	7.157780957189458e+17
19206.0	7.156386574805674e+17
19207.0	7.154984445542399e+17
19208.0	7.153560149382484e+17
19209.0	7.152213252112383e+17
19210.0	7.150820490128041e+17
19211.0	7.149426970372777e+17
19212.0	7.148034729880234e+17
19213.0	7.146620498651817e+17
19214.0	7.145220789501951e+17
19215.0	7.143851388392787e+17
19216.0	7.142455596722857e+17
19217.0	7.141064810255699e+17
19218.0	7.139484813142697e+17
19219.0	7.138236707110911e+17
19220.0	7.136873773618516e+17
19221.0	7.135409835693398e+17
19222.0	7.13408718709282e+17
19223.0	7.132690201444352e+17
19224.0	7.131281109636436e+17
19225.0	7.129862161214122e+17
19226.0	7.128499006821716e+17
19227.0	7.127100913876991e+17
19228.0	7.125702367947433e+17
19229.0	7.124303005526697e+17
19230.0	7.122902439340714e+17
19231.0	7.121503601207977e+17
19232.0	7.120095750914047e+17
19233.0	7.118684616480083e+17
19234.0	7.117294302571178e+17
19235.0	7.115898092868948e+17
19236.0	7.114495120550569e+17
19237.0	7.113088188809215e+17
19238.0	7.111666771339945e+17
19239.0	7.110283854785194e+17
19240.0	7.108835523865257e+17
19241.0	7.107459718053888e+17
19242.0	7.106066378653696e+17
19243.0	7.104618316169216e+17
19244.0	7.103251087709523e+17
19245.0	7.101842915852287e+17
19246.0	7.100429937322666e+17
19247.0	7.099022640676863e+17
19248.0	7.097612621927764e+17
19249.0	7.096200573135529e+17
19250.0	7.094786835436883e+17
19251.0	7.093349064376319e+17
19252.0	7.091887385782953e+17
19253.0	7.090542965948415e+17
19254.0	7.089122323027284e+17
19255.0	7.087665210632874e+17
19256.0	7.086286984708096e+17
19257.0	7.084874389258239e+17
19258.0	7.083453690413053e+17
19259.0	7.082014574379007e+17
19260.0	7.080599076470783e+17
19261.0	7.079186585878527e+17
19262.0	7.077754872791039e+17
19263.0	7.076323752498516e+17
19264.0	7.074796985297577e+17
19265.0	7.073437833669289e+17
19266.0	7.072017607382356e+17
19267.0	7.070618629439487e+17
19268.0	7.069185939079165e+17
19269.0	7.067751838034602e+17
19270.0	7.0663159166621e+17
19271.0	7.064806560017066e+17
19272.0	7.063431911833599e+17
19273.0	7.060846019958099e+17
19274.0	7.059954938675199e+17
19275.0	7.059114060414975e+17
19276.0	7.057669038800893e+17
19277.0	7.056221943802538e+17
19278.0	7.05477290963763e+17
19279.0	7.053181587903828e+17
19280.0	7.051366181284522e+17
19281.0	7.049928643706879e+17
19282.0	7.048472256927059e+17
19283.0	7.047003668916905e+17
19284.0	7.045536314032127e+17
19285.0	7.044042837022036e+17
19286.0	7.04261590683921e+17
19287.0	7.041155349523114e+17
19288.0	7.039514596518569e+17
19289.0	7.03775750890018e+17
19290.0	7.036736548896768e+17
19291.0	7.035196323572393e+17
19292.0	7.033777315031721e+17
19293.0	7.032291524782761e+17
19294.0	7.030806808275626e+17
19295.0	7.029317046020778e+17
19296.0	7.027824250585087e+17
19297.0	7.026327824979284e+17
19298.0	7.024828933122729e+17
19299.0	7.023326278975487e+17
19300.0	7.021819812205907e+17
19301.0	7.020308567425023e+17
19302.0	7.018793897295871e+17
19303.0	7.017275383087103e+17
19304.0	7.015790087766015e+17
19305.0	7.014277432300884e+17
19306.0	7.012748679097001e+17
19307.0	7.011201203918163e+17
19308.0	7.00966835986978e+17
19309.0	7.008111962707284e+17
19310.0	7.006551858479104e+17
19311.0	7.005024130782548e+17
19312.0	7.003476517890729e+17
19313.0	7.001902075434323e+17
19314.0	7.000028976163497e+17
19315.0	6.998475480760319e+17
19316.0	6.997045426520061e+17
19317.0	6.994976037317289e+17
19318.0	6.993385859929427e+17
19319.0	6.991789983880531e+17
19320.0	6.990184203681791e+17
19321.0	6.988578152950442e+17
19322.0	6.986935202130601e+17
19323.0	6.985329271635967e+17
19324.0	6.983708965164371e+17
19325.0	6.982053534892031e+17
19326.0	6.980425999537491e+17
19327.0	6.978769317964458e+17
19328.0	6.977111493443583e+17
19329.0	6.97544155856896e+17
19330.0	6.973753453969407e+17
19331.0	6.972064579016019e+17
19332.0	6.970300687537492e+17
19333.0	6.96835968737826e+17
19334.0	6.966638278606845e+17
19335.0	6.964275066525012e+17
19336.0	6.962361047624361e+17
19337.0	6.960610396864511e+17
19338.0	6.958803008356351e+17
19339.0	6.957078409117695e+17
19340.0	6.955281983122089e+17
19341.0	6.953492145679017e+17
19342.0	6.951600227265193e+17
19343.0	6.949858562801663e+17
19344.0	6.948019498909693e+17
19345.0	6.945728268075007e+17
19346.0	6.943991307523412e+17
19347.0	6.941378940502015e+17
19348.0	6.939493356186282e+17
19349.0	6.937568805388287e+17
19350.0	6.935632665029289e+17
19351.0	6.933677692245332e+17
19352.0	6.931692862308352e+17
19353.0	6.929716812447743e+17
19354.0	6.927702730735613e+17
19355.0	6.924500348174336e+17
19356.0	6.922368214280874e+17
19357.0	6.920287498360147e+17
19358.0	6.918173430033066e+17
19359.0	6.915994382150313e+17
19360.0	6.913890691230377e+17
19361.0	6.910599303441066e+17
19362.0	6.908020490152617e+17
19363.0	6.905781847501481e+17
19364.0	6.903512722046975e+17
19365.0	6.901212797119146e+17
19366.0	6.897172993103186e+17
19367.0	6.89423771640354e+17
19368.0	6.891835528052735e+17
19369.0	6.889371161242281e+17
19370.0	6.88599343440418e+17
19371.0	6.883364797677568e+17
19372.0	6.880818126039721e+17
19373.0	6.878215951177044e+17
19374.0	6.875568800792575e+17
19375.0	6.872873866799785e+17
19376.0	6.870130802469546e+17
19377.0	6.867335114304169e+17
19378.0	6.864487255288489e+17
19379.0	6.861355311868585e+17
19380.0	6.857846554274473e+17
19381.0	6.854817738304168e+17
19382.0	6.851707461260628e+17
19383.0	6.848543694258175e+17
19384.0	6.845342103022249e+17
19385.0	6.842040671972009e+17
19386.0	6.838663649077929e+17
19387.0	6.834484966763178e+17
19388.0	6.830587841085439e+17
19389.0	6.826946299516244e+17
19390.0	6.823210746817193e+17
19391.0	6.818810768130047e+17
19392.0	6.814672237887487e+17
19393.0	6.809982500601855e+17
19394.0	6.805805237359955e+17
19395.0	6.801509215895551e+17
19396.0	6.79573123567889e+17
19397.0	6.790747491663872e+17
19398.0	6.786031756683946e+17
19399.0	6.779305874249044e+17
19400.0	6.773946820416852e+17
19401.0	6.767716731977725e+17
19402.0	6.760727604538025e+17
19403.0	6.753932496513705e+17
19404.0	6.7462049576605e+17
19405.0	6.737625677299713e+17
19406.0	6.729153550920361e+17
19407.0	6.719304644952064e+17
19408.0	6.708191659644244e+17
19409.0	6.698710109694633e+17
19410.0	6.690444428356266e+17
19411.0	6.682631396305577e+17
19412.0	6.674474858446848e+17
19413.0	6.66599497610035e+17
19414.0	6.657166861664255e+17
19415.0	6.64759280214562e+17
19416.0	6.637860882306388e+17
19417.0	6.627941428843859e+17
19418.0	6.617590929555456e+17
19419.0	6.606382722362026e+17
19420.0	6.594605840946516e+17
19421.0	6.582761624174592e+17
19422.0	6.569394286450004e+17
19423.0	6.556082013645481e+17
19424.0	6.54077707804126e+17
19425.0	6.525211537746601e+17
19426.0	6.50825794287479e+17
19427.0	6.489477627248641e+17
19428.0	6.468633658829482e+17
19429.0	6.44474062853461e+17
19430.0	6.416880566097242e+17
19431.0	6.384522497796783e+17
19432.0	6.357164165693439e+17
19433.0	6.33188729749504e+17
19434.0	6.305463536713727e+17
19435.0	6.276329076948988e+17
19436.0	6.245114072530945e+17
19437.0	6.211171786948607e+17
19438.0	6.17289051694694e+17
19439.0	6.130415468631384e+17
19440.0	6.079211653562367e+17
19441.0	6.016694737349285e+17
19442.0	5.959174500384769e+17
19443.0	5.898784754106367e+17
19444.0	5.828836115611643e+17
19445.0	5.745203958076763e+17
19446.0	5.646993675605329e+17
19447.0	5.5400441035707686e+17
19448.0	5.4102424303261075e+17
19449.0	5.2498900835805856e+17
19450.0	5.020948998651863e+17
19451.0	4.953989228877142e+17
19452.0	5.138117557572952e+17
19453.0	5.334707526260059e+17
19454.0	5.474432315293689e+17
19455.0	5.5895368677021e+17
19456.0	5.6887297511697094e+17
19457.0	5.777968247515812e+17
19458.0	5.851623799302828e+17
19459.0	5.914239812938412e+17
19460.0	5.968846213087227e+17
19461.0	6.028707619667964e+17
19462.0	6.083184678666241e+17
19463.0	6.127309487254182e+17
19464.0	6.164860524735148e+17
19465.0	6.198188049083052e+17
19466.0	6.228294382212435e+17
19467.0	6.255967743595859e+17
19468.0	6.281106097001812e+17
19469.0	6.304329080242173e+17
19470.0	6.327245268320255e+17
19471.0	6.356056122851325e+17
19472.0	6.38366937706223e+17
19473.0	6.406364688198312e+17
19474.0	6.426423776509955e+17
19475.0	6.44329272263748e+17
19476.0	6.458542537397588e+17
19477.0	6.472621401047039e+17
19478.0	6.485208940063402e+17
19479.0	6.49672012140817e+17
19480.0	6.507720711252649e+17
19481.0	6.517639216802472e+17
19482.0	6.526675493847039e+17
19483.0	6.535976660063572e+17
19484.0	6.54399177368098e+17
19485.0	6.55154823246643e+17
19486.0	6.558725360495274e+17
19487.0	6.565893934241108e+17
19488.0	6.572455413241171e+17
19489.0	6.578505814201684e+17
19490.0	6.583983053034835e+17
19491.0	6.58962670157824e+17
19492.0	6.594700589574826e+17
19493.0	6.601443416298835e+17
19494.0	6.609183510102013e+17
19495.0	6.616229813594794e+17
19496.0	6.622850750349311e+17
19497.0	6.629530099078486e+17
19498.0	6.633742010067628e+17
19499.0	6.638727416425129e+17
19500.0	6.642715053785088e+17
19501.0	6.647763002807636e+17
19502.0	6.650285487292415e+17
19503.0	6.653897212253523e+17
19504.0	6.656898051517097e+17
19505.0	6.658931104066217e+17
19506.0	6.661848315199485e+17
19507.0	6.664266934736212e+17
19508.0	6.665896766472191e+17
19509.0	6.667406460758697e+17
19510.0	6.669741050910036e+17
19511.0	6.670652951319891e+17
19512.0	6.672459828822015e+17
19513.0	6.673346473929385e+17
19514.0	6.674473135986004e+17
19515.0	6.6759150286493e+17
19516.0	6.677376710038867e+17
19517.0	6.678099797562708e+17
19518.0	6.678770138917546e+17
19519.0	6.679356134916095e+17
19520.0	6.679870683742207e+17
19521.0	6.680330289283071e+17
19522.0	6.680722859360255e+17
19523.0	6.681422260950358e+17
19524.0	6.682052885042516e+17
19525.0	6.682262807860564e+17
19526.0	6.682435427237887e+17
19527.0	6.68255270347298e+17
19528.0	6.682622374357674e+17
19529.0	6.682645669522089e+17
19530.0	6.682625014672042e+17
19531.0	6.682562418879145e+17
19532.0	6.68262713139746e+17
19533.0	6.683274499850239e+17
19534.0	6.68309540376849e+17
19535.0	6.682880753270783e+17
19536.0	6.682622736465919e+17
19537.0	6.683966813765632e+17
19538.0	6.6841315115008e+17
19539.0	6.683680848216064e+17
19540.0	6.683418890862592e+17
19541.0	6.683023428812799e+17
19542.0	6.683631688876032e+17
19543.0	6.683512386093055e+17
19544.0	6.683031460904959e+17
19545.0	6.682437026665812e+17
19546.0	6.681801901386409e+17
19547.0	6.681447029713578e+17
19548.0	6.680949874666154e+17
19549.0	6.681397820041897e+17
19550.0	6.680809759047679e+17
19551.0	6.680179172005203e+17
19552.0	6.67952944845073e+17
19553.0	6.678858415734783e+17
19554.0	6.678171987126954e+17
19555.0	6.677479969609043e+17
19556.0	6.676763821561172e+17
19557.0	6.676063813195092e+17
19558.0	6.6762067424925e+17
19559.0	6.675442758407508e+17
19560.0	6.674665532205738e+17
19561.0	6.673885214801919e+17
19562.0	6.673085391787348e+17
19563.0	6.672272672686077e+17
19564.0	6.671449390230185e+17
19565.0	6.670614198747135e+17
19566.0	6.669763554749097e+17
19567.0	6.668910543066452e+17
19568.0	6.668037186912256e+17
19569.0	6.667165530150227e+17
19570.0	6.666280745216681e+17
19571.0	6.665860235482451e+17
19572.0	6.665199216667305e+17
19573.0	6.664288393494527e+17
19574.0	6.663347882338985e+17
19575.0	6.662440314645162e+17
19576.0	6.661502621362858e+17
19577.0	6.660549378397523e+17
19578.0	6.659594869451433e+17
19579.0	6.658638124941311e+17
19580.0	6.657884091143508e+17
19581.0	6.656973250494463e+17
19582.0	6.655996821416617e+17
19583.0	6.655010337893033e+17
19584.0	6.654017243447295e+17
19585.0	6.652993905972563e+17
19586.0	6.651982368473087e+17
19587.0	6.65099968778513e+17
19588.0	6.649885834433876e+17
19589.0	6.648966364004351e+17
19590.0	6.647930088499881e+17
19591.0	6.646917070411091e+17
19592.0	6.645882433481385e+17
19593.0	6.64483889553954e+17
19594.0	6.643937250902015e+17
19595.0	6.643304841434452e+17
19596.0	6.642139078677843e+17
19597.0	6.64119456965154e+17
19598.0	6.640082493986132e+17
19599.0	6.639076620894207e+17
19600.0	6.638009462729385e+17
19601.0	6.636923211393705e+17
19602.0	6.635854704760148e+17
19603.0	6.634691696263167e+17
19604.0	6.633694682939392e+17
19605.0	6.632553400937129e+17
19606.0	6.631534202541396e+17
19607.0	6.630446074254675e+17
19608.0	6.629352291347113e+17
19609.0	6.628251875147775e+17
19610.0	6.627159518303571e+17
19611.0	6.626057413197823e+17
19612.0	6.624955301800617e+17
19613.0	6.623849354013352e+17
19614.0	6.622731061690367e+17
19615.0	6.621630278489428e+17
19616.0	6.620512319613609e+17
19617.0	6.619402185211901e+17
19618.0	6.618168989930836e+17
19619.0	6.617015669577044e+17
19620.0	6.615901261878612e+17
19621.0	6.614920738461012e+17
19622.0	6.613795479399082e+17
19623.0	6.612668393018708e+17
19624.0	6.611539427590143e+17
19625.0	6.61040867259187e+17
19626.0	6.609276281815039e+17
19627.0	6.608142135721983e+17
19628.0	6.60699182408226e+17
19629.0	6.605849001372329e+17
19630.0	6.604708573609983e+17
19631.0	6.602902380478463e+17
19632.0	6.602447748683092e+17
19633.0	6.601304940653225e+17
19634.0	6.600160942839123e+17
19635.0	6.599005423970986e+17
19636.0	6.597868362137599e+17
19637.0	6.596626060323497e+17
19638.0	6.595568930040489e+17
19639.0	6.594417023167146e+17
19640.0	6.593254910853119e+17
19641.0	6.591982493936297e+17
19642.0	6.590961380840788e+17
19643.0	6.589803632700073e+17
19644.0	6.588636083169961e+17
19645.0	6.587434079529641e+17
19646.0	6.586335289322153e+17
19647.0	6.585176423399423e+17
19648.0	6.584016632632659e+17
19649.0	6.582855191407273e+17
19650.0	6.581694870061055e+17
19651.0	6.5805327808157e+17
19652.0	6.579369565399721e+17
19653.0	6.578205162296659e+17
19654.0	6.577040874536959e+17
19655.0	6.575874368689492e+17
19656.0	6.574707586717012e+17
19657.0	6.573542285333844e+17
19658.0	6.572374784737279e+17
19659.0	6.571206178242559e+17
19660.0	6.570139166179327e+17
19661.0	6.569266058887167e+17
19662.0	6.568095793545215e+17
19663.0	6.566915380084735e+17
19664.0	6.56575096230161e+17
19665.0	6.56458160153122e+17
