# Flux units: erg / (cm m2 s)
# Wavelength units: Angstrom
wave	flux
19000.0	4.043384557666304e+17
19001.0	4.0426593177654605e+17
19002.0	4.0419760104188576e+17
19003.0	4.041271379230719e+17
19004.0	4.0405642664127136e+17
19005.0	4.0398515849570976e+17
19006.0	4.039129885747883e+17
19007.0	4.038452704881321e+17
19008.0	4.03773820449587e+17
19009.0	4.0370299011945805e+17
19010.0	4.0362351036552525e+17
19011.0	4.0356328945745914e+17
19012.0	4.0348886055430816e+17
19013.0	4.0342350735605754e+17
19014.0	4.033521269429589e+17
19015.0	4.0328073856068256e+17
19016.0	4.0321059141277e+17
19017.0	4.0314242362682016e+17
19018.0	4.0307186424872954e+17
19019.0	4.0300154848979616e+17
19020.0	4.0293131801504416e+17
19021.0	4.0286147865914016e+17
19022.0	4.027914054707882e+17
19023.0	4.027201625609555e+17
19024.0	4.0264896515932154e+17
19025.0	4.025806978984619e+17
19026.0	4.025101576044544e+17
19027.0	4.024390869407061e+17
19028.0	4.023705167112874e+17
19029.0	4.023002651252053e+17
19030.0	4.022301062332415e+17
19031.0	4.021603581034496e+17
19032.0	4.020901053289812e+17
19033.0	4.020186127182506e+17
19034.0	4.019503870509054e+17
19035.0	4.0187998719617696e+17
19036.0	4.016878355043668e+17
19037.0	4.0174031023199565e+17
19038.0	4.016700145358165e+17
19039.0	4.016004180301142e+17
19040.0	4.0153004327130445e+17
19041.0	4.01460340929331e+17
19042.0	4.012918948145833e+17
19043.0	4.013209984608938e+17
19044.0	4.012512467659434e+17
19045.0	4.011809858824873e+17
19046.0	4.011105492576938e+17
19047.0	4.010415895172436e+17
19048.0	4.009547383439359e+17
19049.0	4.006993240347988e+17
19050.0	4.0083053381768525e+17
19051.0	4.007439984055635e+17
19052.0	4.006916095912619e+17
19053.0	4.006232539703978e+17
19054.0	4.005534253099689e+17
19055.0	4.004496338321408e+17
19056.0	4.0040428278033056e+17
19057.0	4.003445586875733e+17
19058.0	4.0017106151232826e+17
19059.0	4.001632899563519e+17
19060.0	4.0013533540952736e+17
19061.0	4.0006582551620256e+17
19062.0	3.9999596274210125e+17
19063.0	3.9992691932528634e+17
19064.0	3.9985543573230925e+17
19065.0	3.997851738701823e+17
19066.0	3.9967793334626976e+17
19067.0	3.996482989107883e+17
19068.0	3.9957941452799994e+17
19069.0	3.9950992931116365e+17
19070.0	3.9943969268476576e+17
19071.0	3.993707859323562e+17
19072.0	3.9926048307718816e+17
19073.0	3.9923219193746765e+17
19074.0	3.991623101491883e+17
19075.0	3.9909339451883514e+17
19076.0	3.990224874329429e+17
19077.0	3.9895425197888845e+17
19078.0	3.988843425781076e+17
19079.0	3.9881560842130765e+17
19080.0	3.987465003423059e+17
19081.0	3.9867602848535885e+17
19082.0	3.986072569293483e+17
19083.0	3.985377880003923e+17
19084.0	3.984664526061568e+17
19085.0	3.9840005998946976e+17
19086.0	3.9827726195316045e+17
19087.0	3.981758550769662e+17
19088.0	3.981437859179178e+17
19089.0	3.981195496914943e+17
19090.0	3.9805400942728525e+17
19091.0	3.9797789371487565e+17
19092.0	3.978382793856343e+17
19093.0	3.978466591855957e+17
19094.0	3.9777770804346874e+17
19095.0	3.977083893405012e+17
19096.0	3.976391142582954e+17
19097.0	3.9757038017140045e+17
19098.0	3.974604566910291e+17
19099.0	3.973832313754965e+17
19100.0	3.973624189594283e+17
19101.0	3.9729354520221e+17
19102.0	3.9722220351651834e+17
19103.0	3.971560067738282e+17
19104.0	3.970874699590315e+17
19105.0	3.969295628020396e+17
19106.0	3.9694837614291616e+17
19107.0	3.968592718594047e+17
19108.0	3.967792801207638e+17
19109.0	3.967371398785706e+17
19110.0	3.9667372242152096e+17
19111.0	3.9658045116689056e+17
19112.0	3.965055516628308e+17
19113.0	3.9646697734799354e+17
19114.0	3.9638256977619616e+17
19115.0	3.9632512486823245e+17
19116.0	3.962597752351402e+17
19117.0	3.9619194844610554e+17
19118.0	3.961217094429354e+17
19119.0	3.956698120541518e+17
19120.0	3.9598502392627194e+17
19121.0	3.959162597102932e+17
19122.0	3.9584858929889274e+17
19123.0	3.9577989526760096e+17
19124.0	3.957106879234047e+17
19125.0	3.9564242045282976e+17
19126.0	3.9557382121280845e+17
19127.0	3.9546875431703885e+17
19128.0	3.954364091727872e+17
19129.0	3.953669501004459e+17
19130.0	3.9529942795769165e+17
19131.0	3.952309170077695e+17
19132.0	3.9516227079154336e+17
19133.0	3.95093244711185e+17
19134.0	3.950252451867307e+17
19135.0	3.949566565722795e+17
19136.0	3.948882829858132e+17
19137.0	3.9481596535548576e+17
19138.0	3.9475113497722874e+17
19139.0	3.946828596073812e+17
19140.0	3.9461430028315296e+17
19141.0	3.9454577535221754e+17
19142.0	3.944770819500714e+17
19143.0	3.9440784482631674e+17
19144.0	3.9434040957556045e+17
19145.0	3.942722750644223e+17
19146.0	3.941932071911423e+17
19147.0	3.9413234679152634e+17
19148.0	3.9403318694379526e+17
19149.0	3.9395902759458125e+17
19150.0	3.939307916798634e+17
19151.0	3.9386242857915725e+17
19152.0	3.9379420486915405e+17
19153.0	3.9365410400064826e+17
19154.0	3.936484835633834e+17
19155.0	3.935894585911978e+17
19156.0	3.9352119943932576e+17
19157.0	3.934297120920917e+17
19158.0	3.9333075678658554e+17
19159.0	3.933153299966634e+17
19160.0	3.9324848215818234e+17
19161.0	3.931802309754878e+17
19162.0	3.931036222226432e+17
19163.0	3.9304415447176525e+17
19164.0	3.929755923513343e+17
19165.0	3.9283031473302163e+17
19166.0	3.928367146117802e+17
19167.0	3.927700443321685e+17
19168.0	3.927038379425791e+17
19169.0	3.92635653169698e+17
19170.0	3.9256768223641594e+17
19171.0	3.9249905699170976e+17
19172.0	3.924319049962838e+17
19173.0	3.9236393049784314e+17
19174.0	3.922947172117163e+17
19175.0	3.9222786993247565e+17
19176.0	3.9216007453081594e+17
19177.0	3.920895014513323e+17
19178.0	3.9202263355009696e+17
19179.0	3.919539437131093e+17
19180.0	3.9188844888719354e+17
19181.0	3.9181648085210445e+17
19182.0	3.9175175463239674e+17
19183.0	3.916848056412841e+17
19184.0	3.916167420138838e+17
19185.0	3.9154916331793056e+17
19186.0	3.9148155295498234e+17
19187.0	3.9141335126507514e+17
19188.0	3.9134589175726074e+17
19189.0	3.9127826489671674e+17
19190.0	3.9121062475421e+17
19191.0	3.911427603562495e+17
19192.0	3.910751300004523e+17
19193.0	3.9099948446952096e+17
19194.0	3.909271157385898e+17
19195.0	3.908720936004266e+17
19196.0	3.908043808964608e+17
19197.0	3.9073664037027834e+17
19198.0	3.906690017656832e+17
19199.0	3.9054061999226874e+17
19200.0	3.9049564258304e+17
19201.0	3.9046595089530874e+17
19202.0	3.9039906971211085e+17
19203.0	3.90331484025651e+17
19204.0	3.9026349820258976e+17
19205.0	3.9019656389154125e+17
19206.0	3.9012890193865376e+17
19207.0	3.900592655171583e+17
19208.0	3.89988024844288e+17
19209.0	3.899265211083434e+17
19210.0	3.898587452101972e+17
19211.0	3.897916966043647e+17
19212.0	3.8972440437937485e+17
19213.0	3.896552878418603e+17
19214.0	3.895873313789269e+17
19215.0	3.895219405717504e+17
19216.0	3.8945483282623136e+17
19217.0	3.89387565207825e+17
19218.0	3.893048510163625e+17
19219.0	3.8925048465762976e+17
19220.0	3.891851566252031e+17
19221.0	3.8911218342516045e+17
19222.0	3.890509270133418e+17
19223.0	3.8898368442094925e+17
19224.0	3.889158600785919e+17
19225.0	3.888464804883114e+17
19226.0	3.887821626540031e+17
19227.0	3.88714860782114e+17
19228.0	3.88647718293777e+17
19229.0	3.885799222629717e+17
19230.0	3.8851321220737696e+17
19231.0	3.8844632137727994e+17
19232.0	3.8837911010235725e+17
19233.0	3.8831098488859296e+17
19234.0	3.882443939512319e+17
19235.0	3.881773647790079e+17
19236.0	3.8811082878702925e+17
19237.0	3.8804318004619936e+17
19238.0	3.879744131738282e+17
19239.0	3.879097021235199e+17
19240.0	3.878423625028949e+17
19241.0	3.877753802369706e+17
19242.0	3.8770789213798394e+17
19243.0	3.8763934581609805e+17
19244.0	3.87574644342784e+17
19245.0	3.8750776504702285e+17
19246.0	3.874406588394154e+17
19247.0	3.8737394948287136e+17
19248.0	3.873069549835606e+17
19249.0	3.8723864703795194e+17
19250.0	3.871602417947989e+17
19251.0	3.870923335663614e+17
19252.0	3.8703532025227936e+17
19253.0	3.86972082451251e+17
19254.0	3.8690599741685754e+17
19255.0	3.8683616204554234e+17
19256.0	3.867720093270016e+17
19257.0	3.867056008418644e+17
19258.0	3.8663868295850656e+17
19259.0	3.865710015720106e+17
19260.0	3.865009341857791e+17
19261.0	3.864386159859027e+17
19262.0	3.8637090244307616e+17
19263.0	3.863033953998164e+17
19264.0	3.8622703082536954e+17
19265.0	3.861666928962218e+17
19266.0	3.8609404097986554e+17
19267.0	3.860378544330069e+17
19268.0	3.8597098981730976e+17
19269.0	3.8590461355840845e+17
19270.0	3.858380103876608e+17
19271.0	3.8576397358202874e+17
19272.0	3.857042508873728e+17
19273.0	3.8563411772047354e+17
19274.0	3.855651207905278e+17
19275.0	3.8550531232235526e+17
19276.0	3.854383120908287e+17
19277.0	3.853722931167232e+17
19278.0	3.85304818159889e+17
19279.0	3.8523925119194445e+17
19280.0	3.8517153520244045e+17
19281.0	3.851062581308074e+17
19282.0	3.85039910043648e+17
19283.0	3.84972861018385e+17
19284.0	3.849067397731669e+17
19285.0	3.8483803420753914e+17
19286.0	3.847736356328789e+17
19287.0	3.8470754193025696e+17
19288.0	3.846133849784319e+17
19289.0	3.8448795564550803e+17
19290.0	3.845090211878229e+17
19291.0	3.8443866453442566e+17
19292.0	3.843762337174869e+17
19293.0	3.8430991736722765e+17
19294.0	3.842435074839893e+17
19295.0	3.841774670490282e+17
19296.0	3.8407057598054406e+17
19297.0	3.8403796058330445e+17
19298.0	3.8397853827071994e+17
19299.0	3.838664200508757e+17
19300.0	3.8384529536887456e+17
19301.0	3.837802812801023e+17
19302.0	3.83713889152751e+17
19303.0	3.836463106665129e+17
19304.0	3.835812096158378e+17
19305.0	3.8351546145396045e+17
19306.0	3.8344969273999354e+17
19307.0	3.8338220799645e+17
19308.0	3.833169405717163e+17
19309.0	3.832488222785536e+17
19310.0	3.8318224923688954e+17
19311.0	3.831181623689216e+17
19312.0	3.8305262909521914e+17
19313.0	3.8298618985185274e+17
19314.0	3.822766459453433e+17
19315.0	3.822496350470154e+17
19316.0	3.827355193005398e+17
19317.0	3.82722724995618e+17
19318.0	3.8265704932529485e+17
19319.0	3.8259135163487565e+17
19320.0	3.8250897885975885e+17
19321.0	3.824231963252053e+17
19322.0	3.823926181014186e+17
19323.0	3.82327123345408e+17
19324.0	3.822621149189461e+17
19325.0	3.821942109547178e+17
19326.0	3.821304392187904e+17
19327.0	3.8206382751962445e+17
19328.0	3.8191784365042355e+17
19329.0	3.81932846186496e+17
19330.0	3.818664800638293e+17
19331.0	3.81800771817745e+17
19332.0	3.8173568244121594e+17
19333.0	3.816699739854163e+17
19334.0	3.816018438083925e+17
19335.0	3.813742106815149e+17
19336.0	3.8147144862924806e+17
19337.0	3.8140713282218656e+17
19338.0	3.8133756504746656e+17
19339.0	3.812754008484521e+17
19340.0	3.8119967471697914e+17
19341.0	3.8108498755584006e+17
19342.0	3.810549764718591e+17
19343.0	3.810132511861419e+17
19344.0	3.808882015775402e+17
19345.0	3.8080828540627616e+17
19346.0	3.808012354103978e+17
19347.0	3.806763913925972e+17
19348.0	3.8068535804559354e+17
19349.0	3.8061946972405754e+17
19350.0	3.805286234062847e+17
19351.0	3.8048755320094714e+17
19352.0	3.803428646027262e+17
19353.0	3.803575141182122e+17
19354.0	3.8029232610563405e+17
19355.0	3.802253545351851e+17
19356.0	3.801612066400938e+17
19357.0	3.800959644510891e+17
19358.0	3.800305352660308e+17
19359.0	3.799466105285289e+17
19360.0	3.7983780853514234e+17
19361.0	3.798335335606954e+17
19362.0	3.797688333456725e+17
19363.0	3.797034563796991e+17
19364.0	3.796381796575914e+17
19365.0	3.7957281974845434e+17
19366.0	3.795069942715733e+17
19367.0	3.7944206826318496e+17
19368.0	3.79376845787409e+17
19369.0	3.793109681613482e+17
19370.0	3.792461159727104e+17
19371.0	3.791800126231891e+17
19372.0	3.7911557294434976e+17
19373.0	3.790504632953514e+17
19374.0	3.7898494253465594e+17
19375.0	3.7891997101806925e+17
19376.0	3.788546647261183e+17
19377.0	3.787894906246485e+17
19378.0	3.78724292825361e+17
19379.0	3.78659079716864e+17
19380.0	3.7859336266274125e+17
19381.0	3.78527845257489e+17
19382.0	3.784622028619776e+17
19383.0	3.783963526387029e+17
19384.0	3.7833183767210656e+17
19385.0	3.7826788271499936e+17
19386.0	3.7820273979118925e+17
19387.0	3.7813753416253434e+17
19388.0	3.7807219522491725e+17
19389.0	3.780073092721323e+17
19390.0	3.7794216830566394e+17
19391.0	3.777614614713682e+17
19392.0	3.778115422300842e+17
19393.0	3.777466873151487e+17
19394.0	3.776815462088703e+17
19395.0	3.775926113053355e+17
19396.0	3.775455489774933e+17
19397.0	3.7748599153841485e+17
19398.0	3.7740151280325965e+17
19399.0	3.77310956102178e+17
19400.0	3.7727432458895354e+17
19401.0	3.772255403595093e+17
19402.0	3.771606470666922e+17
19403.0	3.770953451787604e+17
19404.0	3.770299422081024e+17
19405.0	3.769643939048106e+17
19406.0	3.7689987446429e+17
19407.0	3.7680502545230496e+17
19408.0	3.767517394763776e+17
19409.0	3.767037539822251e+17
19410.0	3.7663872122879994e+17
19411.0	3.7657326443124045e+17
19412.0	3.765075241686357e+17
19413.0	3.764117772260693e+17
19414.0	3.7637630012511565e+17
19415.0	3.7631140221856416e+17
19416.0	3.76242687705088e+17
19417.0	3.761796229190997e+17
19418.0	3.761142479104682e+17
19419.0	3.7604817832509434e+17
19420.0	3.759821244683604e+17
19421.0	3.7591584929218554e+17
19422.0	3.758487550383444e+17
19423.0	3.7578308286327456e+17
19424.0	3.7571627927470074e+17
19425.0	3.7564914412639565e+17
19426.0	3.755818525305514e+17
19427.0	3.755143516389376e+17
19428.0	3.754460905297237e+17
19429.0	3.7537782396791456e+17
19430.0	3.7530785200209914e+17
19431.0	3.752167993944746e+17
19432.0	3.751678464841045e+17
19433.0	3.750961820467199e+17
19434.0	3.7502307008512e+17
19435.0	3.749460681162751e+17
19436.0	3.7485964881646925e+17
19437.0	3.747912473378815e+17
19438.0	3.744398177905322e+17
19439.0	3.7461722279881376e+17
19440.0	3.745228521471999e+17
19441.0	3.744171486958932e+17
19442.0	3.742963958022144e+17
19443.0	3.741528043640149e+17
19444.0	3.739728120294057e+17
19445.0	3.7372951862968314e+17
19446.0	3.733671496384511e+17
19447.0	3.7274972439183354e+17
19448.0	3.7146551036586675e+17
19449.0	3.675252901718698e+17
19450.0	3.464394891242146e+17
19451.0	3.255556002633041e+17
19452.0	3.5454967230409446e+17
19453.0	3.688757586821122e+17
19454.0	3.7151059221326496e+17
19455.0	3.7241995136423245e+17
19456.0	3.7282055716863994e+17
19457.0	3.7301368040106656e+17
19458.0	3.705481894472409e+17
19459.0	3.731076539919023e+17
19460.0	3.7315903938887674e+17
19461.0	3.7314817299578874e+17
19462.0	3.7312281737953274e+17
19463.0	3.730885202061993e+17
19464.0	3.730469534651733e+17
19465.0	3.730015831195647e+17
19466.0	3.729521070396757e+17
19467.0	3.7290064677437434e+17
19468.0	3.7284695807535776e+17
19469.0	3.7272734826932883e+17
19470.0	3.727346861342719e+17
19471.0	3.7267691497936205e+17
19472.0	3.7261692266086394e+17
19473.0	3.7255760122129056e+17
19474.0	3.724388769027412e+17
19475.0	3.724180217746772e+17
19476.0	3.7237714087226016e+17
19477.0	3.723161371672576e+17
19478.0	3.72256016503057e+17
19479.0	3.7213684626008736e+17
19480.0	3.7213212871666336e+17
19481.0	3.7206752769693e+17
19482.0	3.720080286285823e+17
19483.0	3.7194634013354656e+17
19484.0	3.718835017001642e+17
19485.0	3.718201449207125e+17
19486.0	3.716971887591425e+17
19487.0	3.7169614689402886e+17
19488.0	3.7163382100459514e+17
19489.0	3.715705079857151e+17
19490.0	3.714737133759146e+17
19491.0	3.714445720507733e+17
19492.0	3.7138248006369274e+17
19493.0	3.7131954068739405e+17
19494.0	3.71256384885009e+17
19495.0	3.7119342327889914e+17
19496.0	3.7111943316985165e+17
19497.0	3.710670976232107e+17
19498.0	3.7100034751201274e+17
19499.0	3.707482840323411e+17
19500.0	3.708783933696682e+17
19501.0	3.708210466783231e+17
19502.0	3.707608905722538e+17
19503.0	3.706976608103082e+17
19504.0	3.7063421063768736e+17
19505.0	3.705698701541376e+17
19506.0	3.7050749085723296e+17
19507.0	3.704435227579732e+17
19508.0	3.703806753068374e+17
19509.0	3.7031710776360954e+17
19510.0	3.7024285732809376e+17
19511.0	3.69230882013183e+17
19512.0	3.701021854050985e+17
19513.0	3.7000164297495885e+17
19514.0	3.699601292219732e+17
19515.0	3.6992669943070714e+17
19516.0	3.698678697732778e+17
19517.0	3.6980817818637645e+17
19518.0	3.6973253901680634e+17
19519.0	3.69669041099025e+17
19520.0	3.695688973374803e+17
19521.0	3.695582545707006e+17
19522.0	3.6948815314070176e+17
19523.0	3.694193830526976e+17
19524.0	3.693284994056192e+17
19525.0	3.6930507526635514e+17
19526.0	3.6924251994849274e+17
19527.0	3.6917916281951565e+17
19528.0	3.6911307918322336e+17
19529.0	3.69048130945024e+17
19530.0	3.6899047037992954e+17
19531.0	3.6892721230643194e+17
19532.0	3.688641045987327e+17
19533.0	3.6880071307646285e+17
19534.0	3.687382837275306e+17
19535.0	3.6867536091873274e+17
19536.0	3.6861175387914234e+17
19537.0	3.685490156896255e+17
19538.0	3.6843508825675104e+17
19539.0	3.6841040379904e+17
19540.0	3.68360047055121e+17
19541.0	3.68287965913634e+17
19542.0	3.6823049360288416e+17
19543.0	3.6811865472368634e+17
19544.0	3.6810583728018765e+17
19545.0	3.6803750521733114e+17
19546.0	3.679623922231978e+17
19547.0	3.679204453384191e+17
19548.0	3.678576134761131e+17
19549.0	3.6779324565968205e+17
19550.0	3.67731640701201e+17
19551.0	3.676691668227412e+17
19552.0	3.6760619046666234e+17
19553.0	3.675435984486399e+17
19554.0	3.67479475859183e+17
19555.0	3.6741270225988256e+17
19556.0	3.6735144165375994e+17
19557.0	3.6729229455742285e+17
19558.0	3.6722986919307936e+17
19559.0	3.6716733792256e+17
19560.0	3.670861328416768e+17
19561.0	3.670418164547584e+17
19562.0	3.6696141171698336e+17
19563.0	3.669168213022037e+17
19564.0	3.6685335106682886e+17
19565.0	3.667914311860223e+17
19566.0	3.667281659123029e+17
19567.0	3.666663831153322e+17
19568.0	3.6660387323576314e+17
19569.0	3.6654110093257376e+17
19570.0	3.6647846305682765e+17
19571.0	3.6641595855994874e+17
19572.0	3.663532132401151e+17
19573.0	3.6628550018662394e+17
19574.0	3.662253801515691e+17
19575.0	3.661662925444437e+17
19576.0	3.6610118359449594e+17
19577.0	3.660338850780501e+17
19578.0	3.659780707756714e+17
19579.0	3.6591616047185914e+17
19580.0	3.6585358110665376e+17
19581.0	3.657907927252991e+17
19582.0	3.6572927018489165e+17
19583.0	3.656669812053332e+17
19584.0	3.6560429369698976e+17
19585.0	3.6554034013798394e+17
19586.0	3.6547774707138554e+17
19587.0	3.654172336106154e+17
19588.0	3.653452990600532e+17
19589.0	3.652928541818879e+17
19590.0	3.652272702270122e+17
19591.0	3.6516837639673165e+17
19592.0	3.6510609217071776e+17
19593.0	3.650394369906005e+17
19594.0	3.649736810692606e+17
19595.0	3.6491901027396256e+17
19596.0	3.6485682664133965e+17
19597.0	3.6479497037414394e+17
19598.0	3.6471583881734816e+17
19599.0	3.6467084085602976e+17
19600.0	3.6460846065035936e+17
19601.0	3.6454533162161485e+17
19602.0	3.6448347088049485e+17
19603.0	3.6441279601923405e+17
19604.0	3.6435960378600096e+17
19605.0	3.6429260642058234e+17
19606.0	3.6423577730635085e+17
19607.0	3.6417395270615034e+17
19608.0	3.6411130637189114e+17
19609.0	3.640488884174847e+17
19610.0	3.6396141641728e+17
19611.0	3.63886931799791e+17
19612.0	3.638639341513386e+17
19613.0	3.638014704790187e+17
19614.0	3.6373936744693754e+17
19615.0	3.636780212770133e+17
19616.0	3.6358893670673056e+17
19617.0	3.6351451472418125e+17
19618.0	3.6347855702589434e+17
19619.0	3.63408485655074e+17
19620.0	3.6333943182240416e+17
19621.0	3.632508943990783e+17
19622.0	3.632447023480831e+17
19623.0	3.631807136967338e+17
19624.0	3.631149261083989e+17
19625.0	3.6305908866744314e+17
19626.0	3.6299728021531296e+17
19627.0	3.6293558542882125e+17
19628.0	3.628718286525781e+17
19629.0	3.6267545609284256e+17
19630.0	3.627494146048e+17
19631.0	3.626282512984746e+17
19632.0	3.626266130033321e+17
19633.0	3.625644173470378e+17
19634.0	3.6250322196234234e+17
19635.0	3.6243429123249485e+17
19636.0	3.623155109898921e+17
19637.0	3.622515890279763e+17
19638.0	3.622514089525247e+17
19639.0	3.621945736866474e+17
19640.0	3.62132006764544e+17
19641.0	3.6202513694720006e+17
19642.0	3.620064953630719e+17
19643.0	3.6194480526021965e+17
19644.0	3.6188576211271674e+17
19645.0	3.618193327958699e+17
19646.0	3.6169497273084563e+17
19647.0	3.6170048145981434e+17
19648.0	3.616406748091732e+17
19649.0	3.6157897310207994e+17
19650.0	3.6151753353898656e+17
19651.0	3.6145614283953485e+17
19652.0	3.613946312043178e+17
19653.0	3.6133296417013754e+17
19654.0	3.612717910152533e+17
19655.0	3.6121017053784736e+17
