# Flux units: erg / (cm m2 s)
# Wavelength units: Angstrom
wave	flux
19000.0	5.153096940388352e+17
19001.0	5.1519822293019296e+17
19002.0	5.1512292056323405e+17
19003.0	5.1502862387118074e+17
19004.0	5.149350029514068e+17
19005.0	5.1483788209466016e+17
19006.0	5.147462887014398e+17
19007.0	5.1465487440500045e+17
19008.0	5.1455251765876045e+17
19009.0	5.144490513093972e+17
19010.0	5.142950099025918e+17
19011.0	5.1427541467354445e+17
19012.0	5.141170005650089e+17
19013.0	5.1409596200605005e+17
19014.0	5.139957695905791e+17
19015.0	5.139018384321193e+17
19016.0	5.1380726554514765e+17
19017.0	5.137234912433493e+17
19018.0	5.13626958078498e+17
19019.0	5.135366910640127e+17
19020.0	5.134425620742143e+17
19021.0	5.133519141470207e+17
19022.0	5.132581355214164e+17
19023.0	5.131565894642346e+17
19024.0	5.1305946357432314e+17
19025.0	5.129743568120489e+17
19026.0	5.128752398860287e+17
19027.0	5.127455401923924e+17
19028.0	5.1269965136090445e+17
19029.0	5.1260434468044794e+17
19030.0	5.125155383323306e+17
19031.0	5.1242324218347514e+17
19032.0	5.1232846643199994e+17
19033.0	5.122211039936511e+17
19034.0	5.1213630306604365e+17
19035.0	5.120050950307838e+17
19036.0	5.0848643181881875e+17
19037.0	5.118328065840468e+17
19038.0	5.1176392940148045e+17
19039.0	5.1167771632162125e+17
19040.0	5.1158619982397434e+17
19041.0	5.114932769062911e+17
19042.0	5.1107179465277395e+17
19043.0	5.1131193764085754e+17
19044.0	5.112172910040404e+17
19045.0	5.1112284024122016e+17
19046.0	5.110237147867817e+17
19047.0	5.109377075773439e+17
19048.0	5.1076631838938426e+17
19049.0	5.100886992879608e+17
19050.0	5.106461775145642e+17
19051.0	5.100669668513102e+17
19052.0	5.103767282952875e+17
19053.0	5.1038375130781e+17
19054.0	5.1029355769364474e+17
19055.0	5.100701328517803e+17
19056.0	5.1007424704457376e+17
19057.0	5.1001708413364896e+17
19058.0	5.095866688514725e+17
19059.0	5.097027049007785e+17
19060.0	5.097375859911338e+17
19061.0	5.096483409887232e+17
19062.0	5.0955639345643514e+17
19063.0	5.094644125794303e+17
19064.0	5.093540570857472e+17
19065.0	5.092548148199423e+17
19066.0	5.090564141744128e+17
19067.0	5.0909404029692576e+17
19068.0	5.0900427261433165e+17
19069.0	5.089124138614783e+17
19070.0	5.088157423545002e+17
19071.0	5.0872532392564045e+17
19072.0	5.085076220018687e+17
19073.0	5.0854313377573536e+17
19074.0	5.0845244194816e+17
19075.0	5.083604635178324e+17
19076.0	5.082655205534378e+17
19077.0	5.081734207679146e+17
19078.0	5.0807655499475616e+17
19079.0	5.0799233274129043e+17
19080.0	5.0789857949122554e+17
19081.0	5.078009022600532e+17
19082.0	5.0771089808861856e+17
19083.0	5.0761195075229005e+17
19084.0	5.075026000740351e+17
19085.0	5.0743790419312634e+17
19086.0	5.071238660969812e+17
19087.0	5.069094729198248e+17
19088.0	5.0697547693424614e+17
19089.0	5.0701051573043194e+17
19090.0	5.069738155704319e+17
19091.0	5.068605896349013e+17
19092.0	5.065199121159515e+17
19093.0	5.067071917741396e+17
19094.0	5.066163732086783e+17
19095.0	5.0652537149194234e+17
19096.0	5.0643136497582074e+17
19097.0	5.0634193213849574e+17
19098.0	5.0611237627275936e+17
19099.0	5.0599413304087904e+17
19100.0	5.0605901689651194e+17
19101.0	5.059726547790506e+17
19102.0	5.058632669812051e+17
19103.0	5.0579229236701856e+17
19104.0	5.057020559709525e+17
19105.0	5.0531060689141843e+17
19106.0	5.055028403721556e+17
19107.0	5.053490276947283e+17
19108.0	5.052196367717717e+17
19109.0	5.050658563904851e+17
19110.0	5.0513425101837645e+17
19111.0	5.049757891646803e+17
19112.0	5.0486947019926163e+17
19113.0	5.048788581700947e+17
19114.0	5.047310656471039e+17
19115.0	5.0467186598215674e+17
19116.0	5.046031202910206e+17
19117.0	5.0451016004403194e+17
19118.0	5.043924043999915e+17
19119.0	5.0256239992504045e+17
19120.0	5.042071313667412e+17
19121.0	5.041292137813332e+17
19122.0	5.040598987833343e+17
19123.0	5.039693142600362e+17
19124.0	5.03862606762257e+17
19125.0	5.037856159083177e+17
19126.0	5.036916976822953e+17
19127.0	5.033181085084329e+17
19128.0	5.035010412598612e+17
19129.0	5.034110621843455e+17
19130.0	5.033307777531904e+17
19131.0	5.03241610764834e+17
19132.0	5.031504263162538e+17
19133.0	5.0305177880275616e+17
19134.0	5.0296522367740576e+17
19135.0	5.028772068371114e+17
19136.0	5.0278772527595514e+17
19137.0	5.0267204825907194e+17
19138.0	5.0260403216711674e+17
19139.0	5.025160808977749e+17
19140.0	5.024256529618261e+17
19141.0	5.023346998990163e+17
19142.0	5.0223948821954554e+17
19143.0	5.0214392016404474e+17
19144.0	5.020572016705535e+17
19145.0	5.019718463258623e+17
19146.0	5.0178436673918304e+17
19147.0	5.0177647697373856e+17
19148.0	5.015893516659371e+17
19149.0	5.014805015079594e+17
19150.0	5.0151845031226016e+17
19151.0	5.014283235273387e+17
19152.0	5.013348144556714e+17
19153.0	5.0101722301508224e+17
19154.0	5.011153788862464e+17
19155.0	5.010652031265451e+17
19156.0	5.0097472912315725e+17
19157.0	5.0079748265956704e+17
19158.0	5.0052395923319475e+17
19159.0	5.0069496785797126e+17
19160.0	5.0060881685381114e+17
19161.0	5.005161852305407e+17
19162.0	5.0015465551953926e+17
19163.0	5.0031435245595296e+17
19164.0	5.002492765011966e+17
19165.0	4.999067800524113e+17
19166.0	5.000430919963988e+17
19167.0	4.9995587053595296e+17
19168.0	4.998894106705919e+17
19169.0	4.997967429763072e+17
19170.0	4.997118244683775e+17
19171.0	4.9960510921113594e+17
19172.0	4.995284467012949e+17
19173.0	4.994415992329557e+17
19174.0	4.993435896730964e+17
19175.0	4.9926249462278816e+17
19176.0	4.9917264892613965e+17
19177.0	4.990583542120447e+17
19178.0	4.9897961943640736e+17
19179.0	4.988782236751188e+17
19180.0	4.9881064029552634e+17
19181.0	4.986975641665535e+17
19182.0	4.9862836730811725e+17
19183.0	4.9854355400731296e+17
19184.0	4.9845373739117216e+17
19185.0	4.983614842339328e+17
19186.0	4.9827405662344525e+17
19187.0	4.9817460659978234e+17
19188.0	4.980934799523838e+17
19189.0	4.9800366291681274e+17
19190.0	4.9791279276141216e+17
19191.0	4.9781697241852576e+17
19192.0	4.977335812663977e+17
19193.0	4.976130858330794e+17
19194.0	4.975041654904149e+17
19195.0	4.9746004861255674e+17
19196.0	4.9736345896441165e+17
19197.0	4.972648285077503e+17
19198.0	4.9712679088728736e+17
19199.0	4.952705263643302e+17
19200.0	4.95631772190857e+17
19201.0	4.968638564007936e+17
19202.0	4.9681982396825594e+17
19203.0	4.9673409763737594e+17
19204.0	4.9665029460459514e+17
19205.0	4.96566569795584e+17
19206.0	4.964772100090538e+17
19207.0	4.9637292164601165e+17
19208.0	4.962611938459647e+17
19209.0	4.962110676489556e+17
19210.0	4.9612152128580256e+17
19211.0	4.96035263816226e+17
19212.0	4.9594496240844794e+17
19213.0	4.958285168552617e+17
19214.0	4.9572949583899296e+17
19215.0	4.9566958391132154e+17
19216.0	4.955884169286996e+17
19217.0	4.954966477941417e+17
19218.0	4.9528500384344723e+17
19219.0	4.9529730468850336e+17
19220.0	4.952264619152725e+17
19221.0	4.95095131406336e+17
19222.0	4.9505067772586656e+17
19223.0	4.949615863048874e+17
19224.0	4.948690976374783e+17
19225.0	4.9476489994130765e+17
19226.0	4.946944505937919e+17
19227.0	4.946062784943445e+17
19228.0	4.9452064961112736e+17
19229.0	4.9443152302789965e+17
19230.0	4.9434137750842016e+17
19231.0	4.9425176026152954e+17
19232.0	4.941632038240256e+17
19233.0	4.9406495819475616e+17
19234.0	4.9398274424395085e+17
19235.0	4.9389296824265376e+17
19236.0	4.938088116999509e+17
19237.0	4.9371714336849914e+17
19238.0	4.9361386562300576e+17
19239.0	4.935425218401619e+17
19240.0	4.934533703008255e+17
19241.0	4.933619708941653e+17
19242.0	4.9327404423140685e+17
19243.0	4.931644896400725e+17
19244.0	4.9309894301450234e+17
19245.0	4.930092102844415e+17
19246.0	4.929189144690687e+17
19247.0	4.928313040568318e+17
19248.0	4.9274342667714554e+17
19249.0	4.9264769252720634e+17
19250.0	4.925174124817066e+17
19251.0	4.9241658497870483e+17
19252.0	4.923474951449257e+17
19253.0	4.922963641324886e+17
19254.0	4.922120914075647e+17
19255.0	4.920957121243817e+17
19256.0	4.920317260595198e+17
19257.0	4.919464371945471e+17
19258.0	4.918580875362304e+17
19259.0	4.917580705824766e+17
19260.0	4.915891485540349e+17
19261.0	4.915901505732607e+17
19262.0	4.9149204216763725e+17
19263.0	4.9140032546187936e+17
19264.0	4.9123604226375654e+17
19265.0	4.9120344546126496e+17
19266.0	4.9109070019297286e+17
19267.0	4.9106190496781645e+17
19268.0	4.909729615358633e+17
19269.0	4.908850197736107e+17
19270.0	4.9079559742204576e+17
19271.0	4.90652839112431e+17
19272.0	4.9061458412393805e+17
19273.0	4.904884257510741e+17
19274.0	4.903799030983336e+17
19275.0	4.9035595327296845e+17
19276.0	4.902646523625471e+17
19277.0	4.901774300632405e+17
19278.0	4.900841365787987e+17
19279.0	4.8999745436603725e+17
19280.0	4.8990018684846086e+17
19281.0	4.898226051568981e+17
19282.0	4.8973456035457696e+17
19283.0	4.896259580799658e+17
19284.0	4.89549183722018e+17
19285.0	4.894470002704383e+17
19286.0	4.8937437904240634e+17
19287.0	4.892847560633002e+17
19288.0	4.8825640863225094e+17
19289.0	4.8676735675268717e+17
19290.0	4.890183751871146e+17
19291.0	4.8890239918626125e+17
19292.0	4.8885448122040314e+17
19293.0	4.8876628011035296e+17
19294.0	4.886761580090708e+17
19295.0	4.8859216057029965e+17
19296.0	4.8836131404731757e+17
19297.0	4.883853572658518e+17
19298.0	4.8832372203847674e+17
19299.0	4.88077821669103e+17
19300.0	4.881474575313579e+17
19301.0	4.880636538694314e+17
19302.0	4.879742174669482e+17
19303.0	4.8787530655115936e+17
19304.0	4.877957749276672e+17
19305.0	4.877094200104277e+17
19306.0	4.876214131665578e+17
19307.0	4.875241776655019e+17
19308.0	4.8743990675810976e+17
19309.0	4.872894080002729e+17
19310.0	4.8718020936553805e+17
19311.0	4.8716477908036256e+17
19312.0	4.870874953940991e+17
19313.0	4.869865870109353e+17
19314.0	4.7866585948705856e+17
19315.0	4.7933283253617926e+17
19316.0	4.8652795510784026e+17
19317.0	4.866478624997375e+17
19318.0	4.865649799069695e+17
19319.0	4.8648118868814496e+17
19320.0	4.8633498489760416e+17
19321.0	4.861787523164842e+17
19322.0	4.8620312737437e+17
19323.0	4.8610580903581005e+17
19324.0	4.8603545671652685e+17
19325.0	4.858950744102229e+17
19326.0	4.858628860630357e+17
19327.0	4.8577608431261005e+17
19328.0	4.854251337547778e+17
19329.0	4.8560611314892794e+17
19330.0	4.855126510534655e+17
19331.0	4.8542307540008954e+17
19332.0	4.8534212847861754e+17
19333.0	4.852518179831807e+17
19334.0	4.8515940425400314e+17
19335.0	4.845363015275867e+17
19336.0	4.8498479754554016e+17
19337.0	4.8490299442681165e+17
19338.0	4.847832525002068e+17
19339.0	4.847263573955925e+17
19340.0	4.8459611439977805e+17
19341.0	4.843449944287917e+17
19342.0	4.843415191683072e+17
19343.0	4.8437299644115616e+17
19344.0	4.840869147792728e+17
19345.0	4.837674558947324e+17
19346.0	4.8395992845079885e+17
19347.0	4.837607723412138e+17
19348.0	4.8393395508346874e+17
19349.0	4.838405490518698e+17
19350.0	4.836599242162176e+17
19351.0	4.8365991638685e+17
19352.0	4.8330074373488595e+17
19353.0	4.8349245865984e+17
19354.0	4.8340555519754234e+17
19355.0	4.8330210688368634e+17
19356.0	4.832284122633557e+17
19357.0	4.8313980898945696e+17
19358.0	4.8304976091764045e+17
19359.0	4.828944548582738e+17
19360.0	4.8265992259065165e+17
19361.0	4.8277893037424634e+17
19362.0	4.8269675487122765e+17
19363.0	4.8260795593304723e+17
19364.0	4.8251896293840205e+17
19365.0	4.824288416759807e+17
19366.0	4.823408991447723e+17
19367.0	4.822514221973503e+17
19368.0	4.8216271420566176e+17
19369.0	4.8206436120221e+17
19370.0	4.819779033847125e+17
19371.0	4.8188597255973536e+17
19372.0	4.8180366053212154e+17
19373.0	4.8171116801993376e+17
19374.0	4.816239337668607e+17
19375.0	4.8153361607120205e+17
19376.0	4.814443721173674e+17
19377.0	4.8135221731655674e+17
19378.0	4.812620512449876e+17
19379.0	4.811716391075839e+17
19380.0	4.810797555384319e+17
19381.0	4.809883431993343e+17
19382.0	4.8088644992368634e+17
19383.0	4.8078982965712205e+17
19384.0	4.807104362359466e+17
19385.0	4.806206951871828e+17
19386.0	4.805281022214143e+17
19387.0	4.8043221630757536e+17
19388.0	4.803378218183338e+17
19389.0	4.8024113066803194e+17
19390.0	4.801312387847509e+17
19391.0	4.76829839820932e+17
19392.0	4.798595935677095e+17
19393.0	4.7985708488458234e+17
19394.0	4.7976380845697696e+17
19395.0	4.7958837064717664e+17
19396.0	4.795497162211328e+17
19397.0	4.794766282369706e+17
19398.0	4.793010114002943e+17
19399.0	4.7905693911831885e+17
19400.0	4.791008390807552e+17
19401.0	4.7907023680962554e+17
19402.0	4.789687833067519e+17
19403.0	4.788626766430208e+17
19404.0	4.7876017589234336e+17
19405.0	4.786457752720724e+17
19406.0	4.7853826065039354e+17
19407.0	4.783348441765203e+17
19408.0	4.781836016986797e+17
19409.0	4.781926699237374e+17
19410.0	4.7808096680017914e+17
19411.0	4.779612892561408e+17
19412.0	4.778314361907882e+17
19413.0	4.776076344208042e+17
19414.0	4.7756776944872096e+17
19415.0	4.774295079922346e+17
19416.0	4.772500066009086e+17
19417.0	4.771033906500949e+17
19418.0	4.7698465500692474e+17
19419.0	4.768304491134974e+17
19420.0	4.766746621771776e+17
19421.0	4.765129245021524e+17
19422.0	4.7633621861444256e+17
19423.0	4.761590601613311e+17
19424.0	4.759670800864596e+17
19425.0	4.757680732241919e+17
19426.0	4.7554399931378336e+17
19427.0	4.753115542017364e+17
19428.0	4.75043307069986e+17
19429.0	4.7475506464249165e+17
19430.0	4.74346848902622e+17
19431.0	4.734830073872391e+17
19432.0	4.7364012447716685e+17
19433.0	4.73115848151313e+17
19434.0	4.7257290213949434e+17
19435.0	4.719916518561108e+17
19436.0	4.7126105156485075e+17
19437.0	4.708987610071038e+17
19438.0	4.636152548032514e+17
19439.0	4.6901184926405984e+17
19440.0	4.681189086461951e+17
19441.0	4.6650093057256115e+17
19442.0	4.6450204342572384e+17
19443.0	4.629113416799572e+17
19444.0	4.6082378058519834e+17
19445.0	4.574153329169751e+17
19446.0	4.5171857022429843e+17
19447.0	4.4518146006056896e+17
19448.0	4.368066666998447e+17
19449.0	4.2104056911844525e+17
19450.0	3.91293366697991e+17
19451.0	3.712723612685694e+17
19452.0	4.101027633911132e+17
19453.0	4.2938579123786995e+17
19454.0	4.415159258841075e+17
19455.0	4.4765392460403936e+17
19456.0	4.541999817075369e+17
19457.0	4.583454496085334e+17
19458.0	4.3624772941473344e+17
19459.0	4.617310379005324e+17
19460.0	4.6396443941928954e+17
19461.0	4.657461696921601e+17
19462.0	4.6695390967234554e+17
19463.0	4.678051262627838e+17
19464.0	4.6842038585043616e+17
19465.0	4.6891718025762125e+17
19466.0	4.6930575225432723e+17
19467.0	4.696543869971114e+17
19468.0	4.699831241714347e+17
19469.0	4.70134965945412e+17
19470.0	4.706512931564202e+17
19471.0	4.708797464095403e+17
19472.0	4.710486355826005e+17
19473.0	4.7117758463563085e+17
19474.0	4.710893245257042e+17
19475.0	4.712049168875518e+17
19476.0	4.714073878953983e+17
19477.0	4.714566109888511e+17
19478.0	4.7148330214140576e+17
19479.0	4.713162802025809e+17
19480.0	4.7150314406543354e+17
19481.0	4.714921352058196e+17
19482.0	4.7148875459679565e+17
19483.0	4.714779257427285e+17
19484.0	4.7146033685899936e+17
19485.0	4.7142862086034765e+17
19486.0	4.7121662906204205e+17
19487.0	4.713846295319892e+17
19488.0	4.713573627112106e+17
19489.0	4.7128888601477114e+17
19490.0	4.7101724673966054e+17
19491.0	4.71217528250914e+17
19492.0	4.711736480017066e+17
19493.0	4.711230342168576e+17
19494.0	4.710670873045674e+17
19495.0	4.7100400567145805e+17
19496.0	4.708602767998973e+17
19497.0	4.7086356862948685e+17
19498.0	4.704250010184364e+17
19499.0	4.6559431883051994e+17
19500.0	4.706625835237375e+17
19501.0	4.7061770768657056e+17
19502.0	4.705520593491285e+17
19503.0	4.704867301982207e+17
19504.0	4.704185094941353e+17
19505.0	4.703450661825194e+17
19506.0	4.7027819226944845e+17
19507.0	4.7020025566986234e+17
19508.0	4.701291961909247e+17
19509.0	4.700479330189311e+17
19510.0	4.6987943629291514e+17
19511.0	4.562794421332528e+17
19512.0	4.6899236770064877e+17
19513.0	4.682434539596435e+17
19514.0	4.685919232371357e+17
19515.0	4.6949503147704346e+17
19516.0	4.694979141522772e+17
19517.0	4.6943644585820166e+17
19518.0	4.6932188627380883e+17
19519.0	4.692401263564116e+17
19520.0	4.690301674673489e+17
19521.0	4.6914695310868474e+17
19522.0	4.690368814295721e+17
19523.0	4.689402672447489e+17
19524.0	4.6876857753490797e+17
19525.0	4.6882759761373856e+17
19526.0	4.6875467013160954e+17
19527.0	4.686726419884714e+17
19528.0	4.6858074611602765e+17
19529.0	4.6849237450752e+17
19530.0	4.6843636132522656e+17
19531.0	4.6835692547167565e+17
19532.0	4.682769235967998e+17
19533.0	4.68196588134946e+17
19534.0	4.681161861933738e+17
19535.0	4.6803325914098336e+17
19536.0	4.6794929665474554e+17
19537.0	4.678720490394966e+17
19538.0	4.6759610976392557e+17
19539.0	4.676190776328194e+17
19540.0	4.6762745750268576e+17
19541.0	4.6751130443229856e+17
19542.0	4.674524470924629e+17
19543.0	4.671984761831424e+17
19544.0	4.6729562066780154e+17
19545.0	4.671423533897042e+17
19546.0	4.6699414842682016e+17
19547.0	4.6706470409994234e+17
19548.0	4.6698459813642234e+17
19549.0	4.668887163469823e+17
19550.0	4.668220817888596e+17
19551.0	4.667412311965696e+17
19552.0	4.666596099009194e+17
19553.0	4.6657457073684474e+17
19554.0	4.6648902797666976e+17
19555.0	4.663921075377493e+17
19556.0	4.663183428026366e+17
19557.0	4.6624967841109325e+17
19558.0	4.6616994567072416e+17
19559.0	4.660893263942997e+17
19560.0	4.659370751164414e+17
19561.0	4.6592198953314976e+17
19562.0	4.657767379195219e+17
19563.0	4.6576337535631354e+17
19564.0	4.6568151204932256e+17
19565.0	4.6559966482049696e+17
19566.0	4.6551368815957325e+17
19567.0	4.654365782573055e+17
19568.0	4.653519181185023e+17
19569.0	4.6526989109384525e+17
19570.0	4.6518953591876256e+17
19571.0	4.6510822164616525e+17
19572.0	4.6502303449306445e+17
19573.0	4.6492152940025165e+17
19574.0	4.6484312387747834e+17
19575.0	4.647838226404691e+17
19576.0	4.646911542471338e+17
19577.0	4.6458619591393274e+17
19578.0	4.6453283527939405e+17
19579.0	4.644540712135338e+17
19580.0	4.643726146142208e+17
19581.0	4.6429208509590176e+17
19582.0	4.6421325217355085e+17
19583.0	4.641315316127061e+17
19584.0	4.6404826132643834e+17
19585.0	4.6395013565426336e+17
19586.0	4.638628355506176e+17
19587.0	4.637925415321598e+17
19588.0	4.6364577297858554e+17
19589.0	4.6363654970408954e+17
19590.0	4.635347627540479e+17
19591.0	4.6347610750976e+17
19592.0	4.633952806152874e+17
19593.0	4.632941089696425e+17
19594.0	4.6317736135666336e+17
19595.0	4.631468720521215e+17
19596.0	4.6305073329165645e+17
19597.0	4.629852517477034e+17
19598.0	4.6280729372043923e+17
19599.0	4.628226928279551e+17
19600.0	4.627426373358932e+17
19601.0	4.626507555143679e+17
19602.0	4.625694661279743e+17
19603.0	4.624045494501375e+17
19604.0	4.624046418646358e+17
19605.0	4.622879803746987e+17
19606.0	4.622520537841663e+17
19607.0	4.621717662072832e+17
19608.0	4.620880453828608e+17
19609.0	4.620005087903743e+17
19610.0	4.6183459093217286e+17
19611.0	4.617112787440981e+17
19612.0	4.6176467111553696e+17
19613.0	4.6168160089757e+17
19614.0	4.615957651652606e+17
19615.0	4.615186456160938e+17
19616.0	4.613183685088598e+17
19617.0	4.612186548032854e+17
19618.0	4.611672710141267e+17
19619.0	4.610463534940157e+17
19620.0	4.6094835707630906e+17
19621.0	4.6083955277605523e+17
19622.0	4.609492180271104e+17
19623.0	4.608588533552468e+17
19624.0	4.607586534599338e+17
19625.0	4.607047847553706e+17
19626.0	4.6062125526111565e+17
19627.0	4.605379077996543e+17
19628.0	4.6040799797138765e+17
19629.0	4.598849326809086e+17
19630.0	4.600560421087913e+17
19631.0	4.5828005502648314e+17
19632.0	4.6010027691649696e+17
19633.0	4.600320331437397e+17
19634.0	4.599704091011755e+17
19635.0	4.5986221989560294e+17
19636.0	4.5959417926341946e+17
19637.0	4.594749593179475e+17
19638.0	4.596296295907327e+17
19639.0	4.59566556975377e+17
19640.0	4.594694408022698e+17
19641.0	4.591517335988913e+17
19642.0	4.593092305529514e+17
19643.0	4.5922775521908045e+17
19644.0	4.591523660999337e+17
19645.0	4.5903701155512294e+17
19646.0	4.5876926235716224e+17
19647.0	4.589160594320042e+17
19648.0	4.5883938944232096e+17
19649.0	4.587579001274366e+17
19650.0	4.586778494588244e+17
19651.0	4.585963186203306e+17
19652.0	4.585152184669525e+17
19653.0	4.5843360688810656e+17
19654.0	4.583533748158463e+17
19655.0	4.58271386308881e+17
