# Flux units: erg / (cm m2 s)
# Wavelength units: Angstrom
wave	flux
19000.0	5.642734313056938e+17
19001.0	5.641598315877717e+17
19002.0	5.6406422235818643e+17
19003.0	5.639583484084223e+17
19004.0	5.638530080440319e+17
19005.0	5.6374946333108896e+17
19006.0	5.6364560886879565e+17
19007.0	5.635238271822506e+17
19008.0	5.6343082548155725e+17
19009.0	5.633245137862655e+17
19010.0	5.631888873313619e+17
19011.0	5.631169167796905e+17
19012.0	5.629395106529277e+17
19013.0	5.6291623079772154e+17
19014.0	5.6280690032203085e+17
19015.0	5.627036998216362e+17
19016.0	5.625975310123007e+17
19017.0	5.624978109453653e+17
19018.0	5.6238857274436256e+17
19019.0	5.622882710672726e+17
19020.0	5.6218229610468685e+17
19021.0	5.620795274777941e+17
19022.0	5.6197541115112096e+17
19023.0	5.6186741243685536e+17
19024.0	5.6176392574511776e+17
19025.0	5.616544481891668e+17
19026.0	5.6154740339944096e+17
19027.0	5.613822618370047e+17
19028.0	5.613482365244756e+17
19029.0	5.6124211049704096e+17
19030.0	5.611400095334399e+17
19031.0	5.61035999252753e+17
19032.0	5.609310717476864e+17
19033.0	5.6081884741195085e+17
19034.0	5.6072131893876045e+17
19035.0	5.60608588280627e+17
19036.0	5.5550753706257094e+17
19037.0	5.604065886426452e+17
19038.0	5.603029227842217e+17
19039.0	5.602009157730303e+17
19040.0	5.600966623625215e+17
19041.0	5.5999138631079245e+17
19042.0	5.5987195280534176e+17
19043.0	5.597840115324243e+17
19044.0	5.596781666631678e+17
19045.0	5.5957305537768096e+17
19046.0	5.5946640331461965e+17
19047.0	5.593645201053011e+17
19048.0	5.592415563240788e+17
19049.0	5.5913670110085114e+17
19050.0	5.590498806857726e+17
19051.0	5.582739432538104e+17
19052.0	5.58685265994274e+17
19053.0	5.587375491121151e+17
19054.0	5.586375167093417e+17
19055.0	5.58508682440431e+17
19056.0	5.5842609051293005e+17
19057.0	5.5832434194077e+17
19058.0	5.5820804815148365e+17
19059.0	5.581139910240938e+17
19060.0	5.580106695180287e+17
19061.0	5.579093956012715e+17
19062.0	5.578049053523967e+17
19063.0	5.5770108199785805e+17
19064.0	5.575853806540117e+17
19065.0	5.5747800849885856e+17
19066.0	5.573815442604031e+17
19067.0	5.5728461375515296e+17
19068.0	5.5718143681276576e+17
19069.0	5.5707764561455776e+17
19070.0	5.569716236757673e+17
19071.0	5.5686732566582605e+17
19072.0	5.5676209924669434e+17
19073.0	5.566617988278953e+17
19074.0	5.5655846662635514e+17
19075.0	5.5645465753245005e+17
19076.0	5.5634904111295136e+17
19077.0	5.5624546515244365e+17
19078.0	5.561401422643199e+17
19079.0	5.560392946985643e+17
19080.0	5.5593421270330016e+17
19081.0	5.55828532810001e+17
19082.0	5.557244737355775e+17
19083.0	5.55615671882001e+17
19084.0	5.555013176087894e+17
19085.0	5.5541698854038176e+17
19086.0	5.5527398018034336e+17
19087.0	5.550710020811435e+17
19088.0	5.550902315668821e+17
19089.0	5.549180590227455e+17
19090.0	5.548958030670506e+17
19091.0	5.54791648502306e+17
19092.0	5.54650504929826e+17
19093.0	5.5458860748854605e+17
19094.0	5.544849651182249e+17
19095.0	5.543814070534143e+17
19096.0	5.542763214230867e+17
19097.0	5.541744368855721e+17
19098.0	5.540677667870036e+17
19099.0	5.539637317599231e+17
19100.0	5.538566024549717e+17
19101.0	5.5375801310248954e+17
19102.0	5.536476247534249e+17
19103.0	5.535545313372841e+17
19104.0	5.5345117229219834e+17
19105.0	5.533400514778453e+17
19106.0	5.5321912626817696e+17
19107.0	5.5313752349736954e+17
19108.0	5.5303464553895245e+17
19109.0	5.525713269205669e+17
19110.0	5.52816508875571e+17
19111.0	5.5272433163523405e+17
19112.0	5.5262203689478816e+17
19113.0	5.524821853077503e+17
19114.0	5.523668313920853e+17
19115.0	5.5225039220026016e+17
19116.0	5.5216037125160954e+17
19117.0	5.5205697592579405e+17
19118.0	5.5192554440403616e+17
19119.0	5.513033001817421e+17
19120.0	5.517100898582526e+17
19121.0	5.516168665584979e+17
19122.0	5.5154398528361805e+17
19123.0	5.5144093605778765e+17
19124.0	5.513170184219306e+17
19125.0	5.512307615115945e+17
19126.0	5.5113068520843936e+17
19127.0	5.508637543890943e+17
19128.0	5.508171324631721e+17
19129.0	5.508165795140947e+17
19130.0	5.507182683837779e+17
19131.0	5.5061380323082234e+17
19132.0	5.505142114396841e+17
19133.0	5.5038298411062605e+17
19134.0	5.502616647062868e+17
19135.0	5.502041201136979e+17
19136.0	5.501033737005738e+17
19137.0	5.4998571319732896e+17
19138.0	5.4989236959095456e+17
19139.0	5.497948749518164e+17
19140.0	5.496923744108543e+17
19141.0	5.4958960585386656e+17
19142.0	5.4948350184652794e+17
19143.0	5.4937921432234656e+17
19144.0	5.492780999988564e+17
19145.0	5.491779472894634e+17
19146.0	5.490214734659583e+17
19147.0	5.4896270909986125e+17
19148.0	5.488659308478464e+17
19149.0	5.4876295739910816e+17
19150.0	5.48664989852194e+17
19151.0	5.485629399192917e+17
19152.0	5.484556093576532e+17
19153.0	5.483513272161621e+17
19154.0	5.4824280008949754e+17
19155.0	5.481515950888276e+17
19156.0	5.480501245291177e+17
19157.0	5.4794083047396685e+17
19158.0	5.475939192406012e+17
19159.0	5.477404569676457e+17
19160.0	5.47634440900881e+17
19161.0	5.475290105686698e+17
19162.0	5.468756451699375e+17
19163.0	5.473111182234964e+17
19164.0	5.4723047210352634e+17
19165.0	5.471103452097194e+17
19166.0	5.4699990254441805e+17
19167.0	5.468702453530624e+17
19168.0	5.4681790889765536e+17
19169.0	5.467069417346388e+17
19170.0	5.466164043273556e+17
19171.0	5.4647853147313485e+17
19172.0	5.464089907516756e+17
19173.0	5.4630766000209914e+17
19174.0	5.462027022281385e+17
19175.0	5.461056142267732e+17
19176.0	5.460036817343828e+17
19177.0	5.458876540736853e+17
19178.0	5.4578384672740685e+17
19179.0	5.456480387989504e+17
19180.0	5.455867657497258e+17
19181.0	5.454812011298815e+17
19182.0	5.4538645103356576e+17
19183.0	5.45287225614882e+17
19184.0	5.451831369007104e+17
19185.0	5.4508350931817805e+17
19186.0	5.4498176927443616e+17
19187.0	5.4487267507787085e+17
19188.0	5.4477555771637754e+17
19189.0	5.44670725771537e+17
19190.0	5.4456630850355194e+17
19191.0	5.444624640376832e+17
19192.0	5.443689576923136e+17
19193.0	5.442636714344446e+17
19194.0	5.441612475094356e+17
19195.0	5.4406219286882976e+17
19196.0	5.4395884354054816e+17
19197.0	5.438564314294953e+17
19198.0	5.4374991519197856e+17
19199.0	5.404829054664694e+17
19200.0	5.4130183115898995e+17
19201.0	5.4344504731238394e+17
19202.0	5.4334759909021005e+17
19203.0	5.432372884755796e+17
19204.0	5.4314133014009165e+17
19205.0	5.430423106617342e+17
19206.0	5.4294003745204896e+17
19207.0	5.4282857850688845e+17
19208.0	5.4271824013994656e+17
19209.0	5.426349627932671e+17
19210.0	5.425334100251989e+17
19211.0	5.424322829090815e+17
19212.0	5.423303339190954e+17
19213.0	5.4219317458589005e+17
19214.0	5.4207523306427725e+17
19215.0	5.420110495875071e+17
19216.0	5.4192248105642656e+17
19217.0	5.41820626997521e+17
19218.0	5.416414897416873e+17
19219.0	5.4160382887635616e+17
19220.0	5.4151127393894394e+17
19221.0	5.413833197049173e+17
19222.0	5.413099019086506e+17
19223.0	5.412078174426453e+17
19224.0	5.4110354047412896e+17
19225.0	5.4099205957877754e+17
19226.0	5.409022305894399e+17
19227.0	5.408002119740073e+17
19228.0	5.4070044045694285e+17
19229.0	5.405985391422122e+17
19230.0	5.4049271950868474e+17
19231.0	5.4039092263212365e+17
19232.0	5.4029127344892576e+17
19233.0	5.4018409569976314e+17
19234.0	5.400869685515605e+17
19235.0	5.399847017731411e+17
19236.0	5.398852894982142e+17
19237.0	5.397819192683177e+17
19238.0	5.396680602725035e+17
19239.0	5.3957955332778656e+17
19240.0	5.394742410652329e+17
19241.0	5.393727383491923e+17
19242.0	5.3927200906280954e+17
19243.0	5.3915806394395296e+17
19244.0	5.390700108928341e+17
19245.0	5.3896762884096e+17
19246.0	5.3886444462844576e+17
19247.0	5.3876402453217274e+17
19248.0	5.3866115496236365e+17
19249.0	5.385578326174378e+17
19250.0	5.384549542395903e+17
19251.0	5.3834256583666336e+17
19252.0	5.382312109102421e+17
19253.0	5.3814961156478285e+17
19254.0	5.3804889143596365e+17
19255.0	5.3793277003257165e+17
19256.0	5.378385902916947e+17
19257.0	5.377429843476479e+17
19258.0	5.376411838360234e+17
19259.0	5.375332080506195e+17
19260.0	5.3733922372758163e+17
19261.0	5.3733328263577594e+17
19262.0	5.372271664649556e+17
19263.0	5.371232993498452e+17
19264.0	5.369771010118995e+17
19265.0	5.369061434545492e+17
19266.0	5.3680094178181114e+17
19267.0	5.367206045723305e+17
19268.0	5.3661816694592845e+17
19269.0	5.3651569891082234e+17
19270.0	5.364128483551913e+17
19271.0	5.362791433808554e+17
19272.0	5.3620481486138016e+17
19273.0	5.3598377504058003e+17
19274.0	5.359182102396926e+17
19275.0	5.359000594590378e+17
19276.0	5.357955362149717e+17
19277.0	5.3569323399468365e+17
19278.0	5.355905310785535e+17
19279.0	5.354823275424425e+17
19280.0	5.3537776801764685e+17
19281.0	5.352811852201983e+17
19282.0	5.3517961329814176e+17
19283.0	5.350246565543935e+17
19284.0	5.3493757818961894e+17
19285.0	5.348536877055999e+17
19286.0	5.347638406807551e+17
19287.0	5.3466333208466765e+17
19288.0	5.3301097693620717e+17
19289.0	5.313529680756697e+17
19290.0	5.3435302705889274e+17
19291.0	5.342274768601088e+17
19292.0	5.341462609439402e+17
19293.0	5.340419955097599e+17
19294.0	5.339379817338196e+17
19295.0	5.3383508322331296e+17
19296.0	5.3372751861951136e+17
19297.0	5.336224313813674e+17
19298.0	5.33520504131857e+17
19299.0	5.3341452574392314e+17
19300.0	5.333133798233428e+17
19301.0	5.332092672715434e+17
19302.0	5.3310339171396256e+17
19303.0	5.3299265768434336e+17
19304.0	5.3289222011180365e+17
19305.0	5.3278882331798176e+17
19306.0	5.3268245485977574e+17
19307.0	5.325719920618154e+17
19308.0	5.3246916024074234e+17
19309.0	5.3224424334513466e+17
19310.0	5.321075187515389e+17
19311.0	5.321387968648531e+17
19312.0	5.3205180902714016e+17
19313.0	5.319462278397952e+17
19314.0	5.2593001926492717e+17
19315.0	5.2613720634818906e+17
19316.0	5.3161245148883616e+17
19317.0	5.315211244339198e+17
19318.0	5.3141427635705165e+17
19319.0	5.313089229204138e+17
19320.0	5.312000015291732e+17
19321.0	5.310916037967872e+17
19322.0	5.3097140322304e+17
19323.0	5.308280981159935e+17
19324.0	5.307684486119424e+17
19325.0	5.305454383071232e+17
19326.0	5.3055430548520954e+17
19327.0	5.304452959436799e+17
19328.0	5.303316240138239e+17
19329.0	5.302294818062335e+17
19330.0	5.3011683349626874e+17
19331.0	5.300067247674709e+17
19332.0	5.2989925810066765e+17
19333.0	5.2978812749960525e+17
19334.0	5.2967984049684474e+17
19335.0	5.295570502199979e+17
19336.0	5.2945642956608845e+17
19337.0	5.2934733669771936e+17
19338.0	5.2921722050969594e+17
19339.0	5.2912305495954765e+17
19340.0	5.2900049166445216e+17
19341.0	5.288900234838015e+17
19342.0	5.2874405765010746e+17
19343.0	5.2867250051700045e+17
19344.0	5.2855429608243194e+17
19345.0	5.282670364502696e+17
19346.0	5.2823878494672186e+17
19347.0	5.2820269058402976e+17
19348.0	5.2810014879907834e+17
19349.0	5.279798144969385e+17
19350.0	5.2786151044765005e+17
19351.0	5.2774719539118086e+17
19352.0	5.2761953007479456e+17
19353.0	5.2751494405597856e+17
19354.0	5.273967909317289e+17
19355.0	5.2726891652928845e+17
19356.0	5.2715761382195194e+17
19357.0	5.270373640350378e+17
19358.0	5.269135692922879e+17
19359.0	5.267852422545407e+17
19360.0	5.266631393542143e+17
19361.0	5.265449563805013e+17
19362.0	5.264252892523177e+17
19363.0	5.263004811657215e+17
19364.0	5.261748345678506e+17
19365.0	5.2604877776704845e+17
19366.0	5.259216157671424e+17
19367.0	5.2579293032611834e+17
19368.0	5.256647608543915e+17
19369.0	5.2552664941417805e+17
19370.0	5.25389069881617e+17
19371.0	5.252676718340778e+17
19372.0	5.251394152606377e+17
19373.0	5.2500291142724256e+17
19374.0	5.2487069731826323e+17
19375.0	5.2473375434123936e+17
19376.0	5.245973074804736e+17
19377.0	5.244577431333547e+17
19378.0	5.2431820185490765e+17
19379.0	5.241776166141951e+17
19380.0	5.240349089158485e+17
19381.0	5.2389031713614496e+17
19382.0	5.236844505595903e+17
19383.0	5.235113935765504e+17
19384.0	5.23372087738368e+17
19385.0	5.232219903055189e+17
19386.0	5.230700944250196e+17
19387.0	5.2291545693771085e+17
19388.0	5.22760414630161e+17
19389.0	5.226027877225813e+17
19390.0	5.224421134434302e+17
19391.0	5.178623738773449e+17
19392.0	5.219521907742029e+17
19393.0	5.2195185117538976e+17
19394.0	5.217810863794858e+17
19395.0	5.216016822960126e+17
19396.0	5.214291736483157e+17
19397.0	5.212637405118464e+17
19398.0	5.210789008201044e+17
19399.0	5.207713244687017e+17
19400.0	5.20593694925346e+17
19401.0	5.2041521715391136e+17
19402.0	5.2022455073505274e+17
19403.0	5.200286064836607e+17
19404.0	5.198315306789546e+17
19405.0	5.1962754601669965e+17
19406.0	5.194034478492331e+17
19407.0	5.1904948906666656e+17
19408.0	5.187604560128683e+17
19409.0	5.1860746709674656e+17
19410.0	5.1838045374818976e+17
19411.0	5.1800428298021555e+17
19412.0	5.176908714431828e+17
19413.0	5.1743594535103136e+17
19414.0	5.17012818231296e+17
19415.0	5.166408523229866e+17
19416.0	5.162051297782442e+17
19417.0	5.1567733030693536e+17
19418.0	5.1522151655669766e+17
19419.0	5.14674873615428e+17
19420.0	5.1389712578205005e+17
19421.0	5.130543675648683e+17
19422.0	5.1204151382289024e+17
19423.0	5.1077815233849946e+17
19424.0	5.0985671750669645e+17
19425.0	5.0927733690422605e+17
19426.0	5.086610376185172e+17
19427.0	5.08001453604864e+17
19428.0	5.073086117664085e+17
19429.0	5.065631402207913e+17
19430.0	5.056368224501761e+17
19431.0	5.041001268423346e+17
19432.0	5.0399124550669645e+17
19433.0	5.0300278513773216e+17
19434.0	5.019533044962645e+17
19435.0	5.0062137984286675e+17
19436.0	4.9903414385049606e+17
19437.0	4.976837189610152e+17
19438.0	4.881740033512819e+17
19439.0	4.909649793559209e+17
19440.0	4.8667428095262637e+17
19441.0	4.8380203723216186e+17
19442.0	4.8067155545729715e+17
19443.0	4.772184913696085e+17
19444.0	4.7346523696005094e+17
19445.0	4.6938031411691565e+17
19446.0	4.631586179907586e+17
19447.0	4.51414624672153e+17
19448.0	4.412163691118597e+17
19449.0	4.2233888208759296e+17
19450.0	3.7165169548547296e+17
19451.0	3.528358727690897e+17
19452.0	4.0121215026026054e+17
19453.0	4.342100021739529e+17
19454.0	4.461498913696424e+17
19455.0	4.5698709531743654e+17
19456.0	4.66091962793984e+17
19457.0	4.70563789419315e+17
19458.0	4.606837918444332e+17
19459.0	4.765361215198601e+17
19460.0	4.8078592336199654e+17
19461.0	4.8358322780241914e+17
19462.0	4.8700278240706566e+17
19463.0	4.915908199841781e+17
19464.0	4.943459224562343e+17
19465.0	4.961472632673619e+17
19466.0	4.973881137124688e+17
19467.0	4.9851098272017056e+17
19468.0	4.994118493143039e+17
19469.0	5.0026528322355194e+17
19470.0	5.010154497332564e+17
19471.0	5.017002903775914e+17
19472.0	5.023792486503764e+17
19473.0	5.0294924799290016e+17
19474.0	5.0347771596636154e+17
19475.0	5.038899863399081e+17
19476.0	5.044036129084755e+17
19477.0	5.048155842281472e+17
19478.0	5.053295091515392e+17
19479.0	5.062508344421039e+17
19480.0	5.0721013726795046e+17
19481.0	5.079505982980094e+17
19482.0	5.0850412304356704e+17
19483.0	5.08929969819921e+17
19484.0	5.0940810013354624e+17
19485.0	5.095773260393133e+17
19486.0	5.0995610881010336e+17
19487.0	5.1005153286116685e+17
19488.0	5.103293225238527e+17
19489.0	5.1043365171145376e+17
19490.0	5.103795145714345e+17
19491.0	5.1068972893033824e+17
19492.0	5.108022489645055e+17
19493.0	5.1083748580174496e+17
19494.0	5.10866649846033e+17
19495.0	5.109017855306411e+17
19496.0	5.110221049430014e+17
19497.0	5.110723088744447e+17
19498.0	5.102520118542332e+17
19499.0	5.042783651889146e+17
19500.0	5.1108997451393696e+17
19501.0	5.1108797956314445e+17
19502.0	5.110801923484331e+17
19503.0	5.111031407837183e+17
19504.0	5.111734512997717e+17
19505.0	5.111606756595028e+17
19506.0	5.111436929925119e+17
19507.0	5.1112204017773216e+17
19508.0	5.111019240860331e+17
19509.0	5.1107709716179616e+17
19510.0	5.11029021839633e+17
19511.0	5.003178830113428e+17
19512.0	5.097156555833339e+17
19513.0	5.090177004688699e+17
19514.0	5.093994672772416e+17
19515.0	5.1078905508222285e+17
19516.0	5.108415621059924e+17
19517.0	5.1079794386097485e+17
19518.0	5.107601978512724e+17
19519.0	5.1071268896986445e+17
19520.0	5.10664516899089e+17
19521.0	5.1062507142731085e+17
19522.0	5.105730992472064e+17
19523.0	5.10582343143697e+17
19524.0	5.105425849865557e+17
19525.0	5.1049225802219514e+17
19526.0	5.1043933296612685e+17
19527.0	5.103835294291285e+17
19528.0	5.103261236680021e+17
19529.0	5.102685382508542e+17
19530.0	5.1021095646877e+17
19531.0	5.101510646737578e+17
19532.0	5.1009028095999994e+17
19533.0	5.1002853996625914e+17
19534.0	5.0996549789941766e+17
19535.0	5.0990127282913274e+17
19536.0	5.098339865460735e+17
19537.0	5.097722833010687e+17
19538.0	5.0968808264826874e+17
19539.0	5.09590460362479e+17
19540.0	5.0956867549702816e+17
19541.0	5.0950109596221434e+17
19542.0	5.094321477561002e+17
19543.0	5.093578918679892e+17
19544.0	5.092917827862527e+17
19545.0	5.091729415165268e+17
19546.0	5.0906936730364576e+17
19547.0	5.0907710544500045e+17
19548.0	5.090035267971754e+17
19549.0	5.089222956417023e+17
19550.0	5.0885612867857056e+17
19551.0	5.087816397968724e+17
19552.0	5.087062948577279e+17
19553.0	5.086281597277524e+17
19554.0	5.085510491963391e+17
19555.0	5.084758990826153e+17
19556.0	5.084002192282964e+17
19557.0	5.0832306850146976e+17
19558.0	5.082453500755966e+17
19559.0	5.0816696957883725e+17
19560.0	5.0808439358969165e+17
19561.0	5.0800708564637005e+17
19562.0	5.0792843440728723e+17
19563.0	5.078506116830549e+17
19564.0	5.0777059596697594e+17
19565.0	5.0769024582505805e+17
19566.0	5.076068304158719e+17
19567.0	5.075284305554089e+17
19568.0	5.0744527826889376e+17
19569.0	5.073642621414058e+17
19570.0	5.072839995206314e+17
19571.0	5.072013619451221e+17
19572.0	5.071171437461504e+17
19573.0	5.070340271811242e+17
19574.0	5.0694642704493216e+17
19575.0	5.06871043727906e+17
19576.0	5.0678753017200634e+17
19577.0	5.0670041063314765e+17
19578.0	5.06616598302993e+17
19579.0	5.065343611437055e+17
19580.0	5.064501622385322e+17
19581.0	5.063670579767978e+17
19582.0	5.0628411645405856e+17
19583.0	5.061994939241813e+17
19584.0	5.0611198983755085e+17
19585.0	5.0602020839970125e+17
19586.0	5.0593060590277965e+17
19587.0	5.0583842488756896e+17
19588.0	5.0572974243184634e+17
19589.0	5.0568541122505376e+17
19590.0	5.055911450815145e+17
19591.0	5.05515497034001e+17
19592.0	5.0543057419195725e+17
19593.0	5.0534236979636896e+17
19594.0	5.052361426862079e+17
19595.0	5.0516702544964256e+17
19596.0	5.048687429069483e+17
19597.0	5.0498549051992736e+17
19598.0	5.048727223227732e+17
19599.0	5.0482525510478496e+17
19600.0	5.047391782699006e+17
19601.0	5.0464604291071994e+17
19602.0	5.045594433956521e+17
19603.0	5.043887873021267e+17
19604.0	5.043775201432917e+17
19605.0	5.042771408715775e+17
19606.0	5.0421531249650336e+17
19607.0	5.041286257399125e+17
19608.0	5.0403928154221216e+17
19609.0	5.0394870463856634e+17
19610.0	5.038630486321834e+17
19611.0	5.037738891935743e+17
19612.0	5.0369220211725645e+17
19613.0	5.036055367516159e+17
19614.0	5.035149917945855e+17
19615.0	5.034281380347904e+17
19616.0	5.0330063594673485e+17
19617.0	5.032500123052715e+17
19618.0	5.0311047193559014e+17
19619.0	5.030111412398761e+17
19620.0	5.0292506503413754e+17
19621.0	5.028962448528724e+17
19622.0	5.0281274884314445e+17
19623.0	5.027239993977514e+17
19624.0	5.0263410469765114e+17
19625.0	5.025469506955946e+17
19626.0	5.0245855287268685e+17
19627.0	5.023690385260542e+17
19628.0	5.0219807268317875e+17
19629.0	5.0217147890838176e+17
19630.0	5.0179292388829856e+17
19631.0	4.984819413592755e+17
19632.0	5.0192338037418656e+17
19633.0	5.018278330804906e+17
19634.0	5.017483986949461e+17
19635.0	5.0165530094469114e+17
19636.0	5.0156470404819616e+17
19637.0	5.014465825909417e+17
19638.0	5.013911561917781e+17
19639.0	5.0130149126963194e+17
19640.0	5.0120018953065805e+17
19641.0	5.0103590437519366e+17
19642.0	5.01035750723857e+17
19643.0	5.0094537661480954e+17
19644.0	5.008528076264788e+17
19645.0	5.0074401066625696e+17
19646.0	5.006749658513407e+17
19647.0	5.0059108899880954e+17
19648.0	5.0050239352012794e+17
19649.0	5.004129675334998e+17
19650.0	5.003240194179072e+17
19651.0	5.002343062612649e+17
19652.0	5.001453198376959e+17
19653.0	5.000543770509311e+17
19654.0	4.9996635979120634e+17
19655.0	4.9987674708814496e+17
