# Flux units: erg / (cm m2 s)
# Wavelength units: Angstrom
wave	flux
19000.0	5.993495600824319e+17
19001.0	5.992268522236585e+17
19002.0	5.991309651913386e+17
19003.0	5.990205685934761e+17
19004.0	5.989107051615572e+17
19005.0	5.987989830238207e+17
19006.0	5.986905808874153e+17
19007.0	5.985813143748607e+17
19008.0	5.984700075431252e+17
19009.0	5.983427426429609e+17
19010.0	5.982237558308863e+17
19011.0	5.981259021593257e+17
19012.0	5.979385567204692e+17
19013.0	5.979258657352361e+17
19014.0	5.978150706085887e+17
19015.0	5.977080327394644e+17
19016.0	5.976003020412244e+17
19017.0	5.974930926250665e+17
19018.0	5.973822396170239e+17
19019.0	5.972752376091988e+17
19020.0	5.971656174469119e+17
19021.0	5.970583597263529e+17
19022.0	5.969485365597524e+17
19023.0	5.968322010371412e+17
19024.0	5.96716647752226e+17
19025.0	5.96604999504145e+17
19026.0	5.964788702117887e+17
19027.0	5.963179994994004e+17
19028.0	5.962802918675798e+17
19029.0	5.961763609990484e+17
19030.0	5.960701465417044e+17
19031.0	5.959580149000873e+17
19032.0	5.958396538082643e+17
19033.0	5.957041166221312e+17
19034.0	5.955424116626772e+17
19035.0	5.949883120877567e+17
19036.0	5.897573259455144e+17
19037.0	5.948865015098025e+17
19038.0	5.951155397984255e+17
19039.0	5.950617236624724e+17
19040.0	5.949709247403348e+17
19041.0	5.948691154206719e+17
19042.0	5.945089443146405e+17
19043.0	5.946623964916393e+17
19044.0	5.945528700021417e+17
19045.0	5.94439124881681e+17
19046.0	5.943325405566292e+17
19047.0	5.942208955940863e+17
19048.0	5.940601168767657e+17
19049.0	5.934650661448356e+17
19050.0	5.938140913773225e+17
19051.0	5.929971579792041e+17
19052.0	5.932471754773843e+17
19053.0	5.93523669799185e+17
19054.0	5.934562207072255e+17
19055.0	5.932637522056534e+17
19056.0	5.932294878877011e+17
19057.0	5.931495257888084e+17
19058.0	5.92776908015752e+17
19059.0	5.928370656597331e+17
19060.0	5.92826544038434e+17
19061.0	5.927197403512831e+17
19062.0	5.926132513068371e+17
19063.0	5.925049310292649e+17
19064.0	5.923883954383529e+17
19065.0	5.922739139379199e+17
19066.0	5.920825313416534e+17
19067.0	5.920726348114601e+17
19068.0	5.91966673969698e+17
19069.0	5.91858560401408e+17
19070.0	5.917482872558931e+17
19071.0	5.916369122667178e+17
19072.0	5.914373969149951e+17
19073.0	5.91427218317858e+17
19074.0	5.913197557754537e+17
19075.0	5.912115562938368e+17
19076.0	5.91102645248546e+17
19077.0	5.909932149484202e+17
19078.0	5.908837114576895e+17
19079.0	5.907796364449108e+17
19080.0	5.906700281664852e+17
19081.0	5.90557805997807e+17
19082.0	5.90452057317922e+17
19083.0	5.903345582953812e+17
19084.0	5.902121760544084e+17
19085.0	5.901167389310975e+17
19086.0	5.898106686144511e+17
19087.0	5.8961383433175e+17
19088.0	5.896025527724712e+17
19089.0	5.896268842095956e+17
19090.0	5.895585949286399e+17
19091.0	5.894444370187606e+17
19092.0	5.891440744508078e+17
19093.0	5.892615404781568e+17
19094.0	5.891605445738495e+17
19095.0	5.890557980530003e+17
19096.0	5.88949132218641e+17
19097.0	5.888427767627776e+17
19098.0	5.88625679098402e+17
19099.0	5.88495779336465e+17
19100.0	5.885071236704938e+17
19101.0	5.8840686540445e+17
19102.0	5.882974432133119e+17
19103.0	5.881977116120403e+17
19104.0	5.880884597096445e+17
19105.0	5.877345192422065e+17
19106.0	5.878532135015764e+17
19107.0	5.876841947245224e+17
19108.0	5.8751245090816e+17
19109.0	5.873358782595071e+17
19110.0	5.873392233567571e+17
19111.0	5.872407659850408e+17
19112.0	5.87139620553796e+17
19113.0	5.871221853913087e+17
19114.0	5.869661488239955e+17
19115.0	5.868849775072596e+17
19116.0	5.867997860200448e+17
19117.0	5.866883415452329e+17
19118.0	5.865510330346154e+17
19119.0	5.858811747237879e+17
19120.0	5.863107194082644e+17
19121.0	5.862226051203071e+17
19122.0	5.861607837357395e+17
19123.0	5.860585160485546e+17
19124.0	5.859080690903721e+17
19125.0	5.858426450782889e+17
19126.0	5.857249898179242e+17
19127.0	5.855134183587839e+17
19128.0	5.854914114049364e+17
19129.0	5.854101857020585e+17
19130.0	5.853125692183891e+17
19131.0	5.8520784877213e+17
19132.0	5.851011039450452e+17
19133.0	5.849888522065236e+17
19134.0	5.84879284892467e+17
19135.0	5.84780896866577e+17
19136.0	5.846741878308863e+17
19137.0	5.845594989221206e+17
19138.0	5.844598738561705e+17
19139.0	5.843559471120383e+17
19140.0	5.842499879479977e+17
19141.0	5.841433748919635e+17
19142.0	5.840327240493737e+17
19143.0	5.8392689770496e+17
19144.0	5.838196469749075e+17
19145.0	5.837172638744576e+17
19146.0	5.835496658479786e+17
19147.0	5.834991383958867e+17
19148.0	5.833115950557868e+17
19149.0	5.831902915198976e+17
19150.0	5.831844764669268e+17
19151.0	5.830771669467135e+17
19152.0	5.829613330628607e+17
19153.0	5.826823623540732e+17
19154.0	5.827291407974399e+17
19155.0	5.826368300384255e+17
19156.0	5.825213107273727e+17
19157.0	5.823209000315564e+17
19158.0	5.8209317407075e+17
19159.0	5.821666173823657e+17
19160.0	5.820696750631594e+17
19161.0	5.819166452525738e+17
19162.0	5.81555885825502e+17
19163.0	5.816274544929449e+17
19164.0	5.816432800912724e+17
19165.0	5.813656390467579e+17
19166.0	5.814464715336361e+17
19167.0	5.813321557781162e+17
19168.0	5.812468855777961e+17
19169.0	5.811513085045418e+17
19170.0	5.810471892418559e+17
19171.0	5.809353170179411e+17
19172.0	5.808314033460563e+17
19173.0	5.807346836744874e+17
19174.0	5.806299289747455e+17
19175.0	5.805269725129386e+17
19176.0	5.804205259707731e+17
19177.0	5.80295288946688e+17
19178.0	5.801890972084905e+17
19179.0	5.800801325460138e+17
19180.0	5.799892562389673e+17
19181.0	5.798803718275071e+17
19182.0	5.797795688611839e+17
19183.0	5.796810119446527e+17
19184.0	5.795755569359529e+17
19185.0	5.79467315651106e+17
19186.0	5.793620133150719e+17
19187.0	5.792454963888127e+17
19188.0	5.791443371163648e+17
19189.0	5.790340527161343e+17
19190.0	5.789208799084543e+17
19191.0	5.788059539516073e+17
19192.0	5.786950832575828e+17
19193.0	5.785496334630912e+17
19194.0	5.784052649601706e+17
19195.0	5.782992477050195e+17
19196.0	5.781131267233108e+17
19197.0	5.77827967668497e+17
19198.0	5.771865056346111e+17
19199.0	5.750788154458111e+17
19200.0	5.7521112560435206e+17
19201.0	5.769370231898112e+17
19202.0	5.773236460934484e+17
19203.0	5.773709917465257e+17
19204.0	5.773539114221567e+17
19205.0	5.772914034999296e+17
19206.0	5.772098567230804e+17
19207.0	5.771061824760489e+17
19208.0	5.77009331802385e+17
19209.0	5.769248372686848e+17
19210.0	5.76823570342434e+17
19211.0	5.767223535381162e+17
19212.0	5.766144820510719e+17
19213.0	5.764850705061203e+17
19214.0	5.7637282491924474e+17
19215.0	5.7629226995548154e+17
19216.0	5.7620141839482874e+17
19217.0	5.760944667186516e+17
19218.0	5.7594865810145274e+17
19219.0	5.7587259090315936e+17
19220.0	5.757843014331049e+17
19221.0	5.7567113100219725e+17
19222.0	5.755773057499134e+17
19223.0	5.7547809668901536e+17
19224.0	5.7537069552325965e+17
19225.0	5.752639576866815e+17
19226.0	5.7516509241890125e+17
19227.0	5.750617927232169e+17
19228.0	5.7495995369390074e+17
19229.0	5.7485580367298554e+17
19230.0	5.747495827144703e+17
19231.0	5.746444640190462e+17
19232.0	5.7454027429205325e+17
19233.0	5.744295241842687e+17
19234.0	5.7433100466694816e+17
19235.0	5.74224495350033e+17
19236.0	5.741228982621523e+17
19237.0	5.740166645809152e+17
19238.0	5.739030262054911e+17
19239.0	5.738086032648873e+17
19240.0	5.737053091616085e+17
19241.0	5.735983660837547e+17
19242.0	5.7349564128733856e+17
19243.0	5.7337777589234336e+17
19244.0	5.7328906615302816e+17
19245.0	5.73183692513826e+17
19246.0	5.7307899478671354e+17
19247.0	5.729745399797076e+17
19248.0	5.728691884305066e+17
19249.0	5.727558930792446e+17
19250.0	5.72619895218722e+17
19251.0	5.7250834728441146e+17
19252.0	5.724238496748883e+17
19253.0	5.723465452268202e+17
19254.0	5.722434559453866e+17
19255.0	5.7212039422716576e+17
19256.0	5.7203326581036365e+17
19257.0	5.7192990956148045e+17
19258.0	5.718244786001236e+17
19259.0	5.7170250034053114e+17
19260.0	5.7145973905817574e+17
19261.0	5.715019788451839e+17
19262.0	5.713956735811583e+17
19263.0	5.7128661832171514e+17
19264.0	5.7115767073669114e+17
19265.0	5.7107397556742816e+17
19266.0	5.709667925753856e+17
19267.0	5.708848213349716e+17
19268.0	5.707805656875007e+17
19269.0	5.7067621112436045e+17
19270.0	5.7056780004010656e+17
19271.0	5.7044466911586963e+17
19272.0	5.703588716915369e+17
19273.0	5.7023662136142496e+17
19274.0	5.701137457304915e+17
19275.0	5.7004988619380045e+17
19276.0	5.6994365202322765e+17
19277.0	5.69839862293026e+17
19278.0	5.697289943952042e+17
19279.0	5.6962455867228154e+17
19280.0	5.6951907968614394e+17
19281.0	5.6941422117737805e+17
19282.0	5.6930388427844256e+17
19283.0	5.691854232922795e+17
19284.0	5.690730898347349e+17
19285.0	5.6896535752867834e+17
19286.0	5.688406179490474e+17
19287.0	5.6863796134324896e+17
19288.0	5.664092807932574e+17
19289.0	5.649147157108027e+17
19290.0	5.682931492891306e+17
19291.0	5.682952501460992e+17
19292.0	5.6824725507495245e+17
19293.0	5.6815482519770445e+17
19294.0	5.680525670176085e+17
19295.0	5.679548567213396e+17
19296.0	5.6773237224243226e+17
19297.0	5.677239665076906e+17
19298.0	5.676443595964415e+17
19299.0	5.6740610124895565e+17
19300.0	5.6743581006342835e+17
19301.0	5.6733366100514125e+17
19302.0	5.67227268010257e+17
19303.0	5.671138680111103e+17
19304.0	5.6701554010357754e+17
19305.0	5.669076684767231e+17
19306.0	5.6679755205836794e+17
19307.0	5.6668012049421645e+17
19308.0	5.6655803758673914e+17
19309.0	5.663698239269545e+17
19310.0	5.662280242255188e+17
19311.0	5.661940867836586e+17
19312.0	5.6609365599191034e+17
19313.0	5.6585622371259725e+17
19314.0	5.55439785281673e+17
19315.0	5.561001159513533e+17
19316.0	5.6537585336101555e+17
19317.0	5.6557580121538554e+17
19318.0	5.6551014078436685e+17
19319.0	5.654221167438505e+17
19320.0	5.652735194737321e+17
19321.0	5.651082162907817e+17
19322.0	5.650953599800662e+17
19323.0	5.649790440308735e+17
19324.0	5.648711127050921e+17
19325.0	5.647456740048896e+17
19326.0	5.6467160790903456e+17
19327.0	5.645821652850004e+17
19328.0	5.642725588205569e+17
19329.0	5.6438543355303245e+17
19330.0	5.642793740053161e+17
19331.0	5.6417267734282234e+17
19332.0	5.6407173659361274e+17
19333.0	5.63962509996851e+17
19334.0	5.6385594070138874e+17
19335.0	5.633205024937305e+17
19336.0	5.636402526726826e+17
19337.0	5.6354033344621216e+17
19338.0	5.634145245287764e+17
19339.0	5.633249973895168e+17
19340.0	5.632062813896703e+17
19341.0	5.629425507543725e+17
19342.0	5.629236468864341e+17
19343.0	5.628909318744745e+17
19344.0	5.626196092693165e+17
19345.0	5.624686394911403e+17
19346.0	5.6246858461566285e+17
19347.0	5.622462251969194e+17
19348.0	5.6235240477163514e+17
19349.0	5.6224277985580365e+17
19350.0	5.6205600498210125e+17
19351.0	5.6202572084893005e+17
19352.0	5.616969004875772e+17
19353.0	5.618141521160873e+17
19354.0	5.61704609128994e+17
19355.0	5.615843738124287e+17
19356.0	5.614830256564906e+17
19357.0	5.613740029728084e+17
19358.0	5.6125954055645856e+17
19359.0	5.610987630974291e+17
19360.0	5.608685325778943e+17
19361.0	5.6092529164724896e+17
19362.0	5.608152254906366e+17
19363.0	5.6070311083595085e+17
19364.0	5.6058994704602445e+17
19365.0	5.604762110132223e+17
19366.0	5.60362986475793e+17
19367.0	5.602428643355306e+17
19368.0	5.60131437756416e+17
19369.0	5.6001121194693965e+17
19370.0	5.598969663761066e+17
19371.0	5.597798904889343e+17
19372.0	5.59664131403503e+17
19373.0	5.595403593798996e+17
19374.0	5.5942520063918074e+17
19375.0	5.593114184690345e+17
19376.0	5.5919205591722656e+17
19377.0	5.5906936735225165e+17
19378.0	5.5894660790353914e+17
19379.0	5.588221863919615e+17
19380.0	5.587023789643092e+17
19381.0	5.585741330164394e+17
19382.0	5.5844052129546234e+17
19383.0	5.583126662567253e+17
19384.0	5.581960725047977e+17
19385.0	5.5807003492788896e+17
19386.0	5.5792798349830816e+17
19387.0	5.5778306672994976e+17
19388.0	5.5764261074370554e+17
19389.0	5.574692561747968e+17
19390.0	5.571348956971007e+17
19391.0	5.523141383509296e+17
19392.0	5.56176239842645e+17
19393.0	5.568467708499285e+17
19394.0	5.5676986653846176e+17
19395.0	5.5656554395511475e+17
19396.0	5.5646062553770656e+17
19397.0	5.5632470366399136e+17
19398.0	5.5610831301946016e+17
19399.0	5.5587584309111456e+17
19400.0	5.5575891162781005e+17
19401.0	5.556577635401728e+17
19402.0	5.554828059781802e+17
19403.0	5.5531419607586125e+17
19404.0	5.5513966933879456e+17
19405.0	5.549601627045887e+17
19406.0	5.547677953556479e+17
19407.0	5.54516912223027e+17
19408.0	5.543482653409279e+17
19409.0	5.541693799530496e+17
19410.0	5.5397367708385274e+17
19411.0	5.53776525292339e+17
19412.0	5.535309030752255e+17
19413.0	5.532081121656831e+17
19414.0	5.5304315501281274e+17
19415.0	5.5277727207041696e+17
19416.0	5.524614416083626e+17
19417.0	5.5217086861585043e+17
19418.0	5.519183990576468e+17
19419.0	5.516515470912171e+17
19420.0	5.513139361677311e+17
19421.0	5.509701167655594e+17
19422.0	5.506392074310996e+17
19423.0	5.5019129169510394e+17
19424.0	5.4980140806963194e+17
19425.0	5.4936888158453754e+17
19426.0	5.4883268385832954e+17
19427.0	5.4831849602198176e+17
19428.0	5.4773895337956685e+17
19429.0	5.470829181665279e+17
19430.0	5.461445739282432e+17
19431.0	5.450266965617324e+17
19432.0	5.4498671589676365e+17
19433.0	5.4428526364153165e+17
19434.0	5.433637287755775e+17
19435.0	5.421241369012905e+17
19436.0	5.408679868235774e+17
19437.0	5.396455121136298e+17
19438.0	5.299563851502949e+17
19439.0	5.354387743790416e+17
19440.0	5.355545865923241e+17
19441.0	5.3380992949288934e+17
19442.0	5.316918565142528e+17
19443.0	5.2914453461947725e+17
19444.0	5.261239381568168e+17
19445.0	5.225020582264833e+17
19446.0	5.180734771822592e+17
19447.0	5.123574157279229e+17
19448.0	5.047731929568601e+17
19449.0	4.935718509303124e+17
19450.0	4.726299781584205e+17
19451.0	4.558826101538839e+17
19452.0	4.8522851282234016e+17
19453.0	4.996093359510875e+17
19454.0	5.084326366543869e+17
19455.0	5.1469485842541216e+17
19456.0	5.1944904189105504e+17
19457.0	5.2289087761722016e+17
19458.0	4.9990017772861306e+17
19459.0	5.260175406181097e+17
19460.0	5.3091941489486496e+17
19461.0	5.329338817839104e+17
19462.0	5.345835895575894e+17
19463.0	5.3596612114513914e+17
19464.0	5.371320995588778e+17
19465.0	5.381777826075989e+17
19466.0	5.390976579272702e+17
19467.0	5.3990842423050234e+17
19468.0	5.4064438826762234e+17
19469.0	5.4111754029192506e+17
19470.0	5.418099933883049e+17
19471.0	5.4236988529704954e+17
19472.0	5.427879296193876e+17
19473.0	5.4316506291022496e+17
19474.0	5.434344069922813e+17
19475.0	5.4382911266925216e+17
19476.0	5.44205117272883e+17
19477.0	5.4450915516962125e+17
19478.0	5.4469775114021536e+17
19479.0	5.447785927147517e+17
19480.0	5.451098763908436e+17
19481.0	5.4524021047296e+17
19482.0	5.453931570266111e+17
19483.0	5.454874231701504e+17
19484.0	5.455742310722218e+17
19485.0	5.4565832113520634e+17
19486.0	5.455861761004888e+17
19487.0	5.4580963274915834e+17
19488.0	5.458540720291839e+17
19489.0	5.4586109476208634e+17
19490.0	5.458442725272234e+17
19491.0	5.459546624841044e+17
19492.0	5.459516906799103e+17
19493.0	5.459675975079253e+17
19494.0	5.4596112499780256e+17
19495.0	5.459208633843711e+17
19496.0	5.4583161628480845e+17
19497.0	5.4569507554153805e+17
19498.0	5.436765157807439e+17
19499.0	5.382574529227427e+17
19500.0	5.454393235210239e+17
19501.0	5.457067594044756e+17
19502.0	5.4573956382501536e+17
19503.0	5.457378668795221e+17
19504.0	5.4571814260572154e+17
19505.0	5.456644709635411e+17
19506.0	5.456287535988735e+17
19507.0	5.455828849699497e+17
19508.0	5.455122021395113e+17
19509.0	5.4538315179403936e+17
19510.0	5.449066782304938e+17
19511.0	5.2826159937398534e+17
19512.0	5.428566767785296e+17
19513.0	5.42659682553035e+17
19514.0	5.430728541427016e+17
19515.0	5.4492749351266976e+17
19516.0	5.44989074633523e+17
19517.0	5.449822033149951e+17
19518.0	5.448787577274366e+17
19519.0	5.4480402823249894e+17
19520.0	5.4462741252232506e+17
19521.0	5.447223604499796e+17
19522.0	5.446227830592851e+17
19523.0	5.445281730527233e+17
19524.0	5.44375137230302e+17
19525.0	5.4441933645632845e+17
19526.0	5.4434775981970765e+17
19527.0	5.4426827685014176e+17
19528.0	5.4416767514050554e+17
19529.0	5.440797366637909e+17
19530.0	5.4402355633848314e+17
19531.0	5.43944906707217e+17
19532.0	5.4386141992495776e+17
19533.0	5.437779729885866e+17
19534.0	5.436909453748905e+17
19535.0	5.4360198264913914e+17
19536.0	5.43517681333043e+17
19537.0	5.4343247027240954e+17
19538.0	5.431811749096107e+17
19539.0	5.4322905484711245e+17
19540.0	5.431728472588288e+17
19541.0	5.430542533132287e+17
19542.0	5.4299227841713485e+17
19543.0	5.4275551827503795e+17
19544.0	5.4281624368797005e+17
19545.0	5.426895739595434e+17
19546.0	5.4259109037342714e+17
19547.0	5.425625431714474e+17
19548.0	5.424770383697236e+17
19549.0	5.423803689598974e+17
19550.0	5.4230097476976634e+17
19551.0	5.422109239716522e+17
19552.0	5.4212033944835405e+17
19553.0	5.4202793809237325e+17
19554.0	5.4193649995830605e+17
19555.0	5.4182520116565325e+17
19556.0	5.4174066196261536e+17
19557.0	5.4166166797899085e+17
19558.0	5.4157275069153274e+17
19559.0	5.414825728060074e+17
19560.0	5.413308697935871e+17
19561.0	5.4129823698998605e+17
19562.0	5.411495812093268e+17
19563.0	5.41118301348386e+17
19564.0	5.410261034161492e+17
19565.0	5.4093378489767245e+17
19566.0	5.408386561955156e+17
19567.0	5.407503451247956e+17
19568.0	5.406583786482345e+17
19569.0	5.405661687622313e+17
19570.0	5.4047302249786016e+17
19571.0	5.4038140827293005e+17
19572.0	5.4028609544082765e+17
19573.0	5.401737002571092e+17
19574.0	5.400852757304659e+17
19575.0	5.400077604487167e+17
19576.0	5.39901213872401e+17
19577.0	5.3978512119999136e+17
19578.0	5.3972346255441914e+17
19579.0	5.396297476822356e+17
19580.0	5.395366755172351e+17
19581.0	5.3944750258694816e+17
19582.0	5.393545143080277e+17
19583.0	5.392612213129215e+17
19584.0	5.391637542862847e+17
19585.0	5.390599328890878e+17
19586.0	5.38958756769519e+17
19587.0	5.3887002053618336e+17
19588.0	5.387556149526526e+17
19589.0	5.3869006420268365e+17
19590.0	5.3858885327039136e+17
19591.0	5.385081698910206e+17
19592.0	5.384157776226985e+17
19593.0	5.383034201877161e+17
19594.0	5.381875858844329e+17
19595.0	5.381313954228906e+17
19596.0	5.3800044009444685e+17
19597.0	5.3794270934466554e+17
19598.0	5.3781167495359136e+17
19599.0	5.377555614575273e+17
19600.0	5.3766285978938016e+17
19601.0	5.3756122984611834e+17
19602.0	5.3745726318619296e+17
19603.0	5.3731763823138125e+17
19604.0	5.372569874071551e+17
19605.0	5.371621262316885e+17
19606.0	5.370943845870249e+17
19607.0	5.3700236386413216e+17
19608.0	5.369068832598698e+17
19609.0	5.3680895695694496e+17
19610.0	5.366414537217367e+17
19611.0	5.3651218198691834e+17
19612.0	5.3652906769558176e+17
19613.0	5.364334061071017e+17
19614.0	5.3633463563059194e+17
19615.0	5.3623515107382605e+17
19616.0	5.3602895035105286e+17
19617.0	5.359343276217686e+17
19618.0	5.358954807470761e+17
19619.0	5.357740430633641e+17
19620.0	5.3567427406288186e+17
19621.0	5.355054313766911e+17
19622.0	5.355720734845609e+17
19623.0	5.3546546790836896e+17
19624.0	5.35348026347793e+17
19625.0	5.352734901403647e+17
19626.0	5.351637505802239e+17
19627.0	5.350300758048768e+17
19628.0	5.348401598868139e+17
19629.0	5.342388356644861e+17
19630.0	5.3353099205891386e+17
19631.0	5.321300459388928e+17
19632.0	5.341489507510954e+17
19633.0	5.343688317556054e+17
19634.0	5.343729722327039e+17
19635.0	5.3428874270911123e+17
19636.0	5.340542811854161e+17
19637.0	5.339428023173118e+17
19638.0	5.3404353181341e+17
19639.0	5.3396402577517216e+17
19640.0	5.33853598978321e+17
19641.0	5.3369170786167475e+17
19642.0	5.336722337082026e+17
19643.0	5.335782569017343e+17
19644.0	5.334923019113812e+17
19645.0	5.333896848386729e+17
19646.0	5.331231220695037e+17
19647.0	5.33216845959441e+17
19648.0	5.33126165176866e+17
19649.0	5.330320911324501e+17
19650.0	5.3293850348748794e+17
19651.0	5.3284348453628576e+17
19652.0	5.327491594627754e+17
19653.0	5.3265302573547514e+17
19654.0	5.325607014847828e+17
19655.0	5.324664077986474e+17
19656.0	5.3237258408427514e+17
19657.0	5.3227805635597645e+17
19658.0	5.321832401294677e+17
19659.0	5.320899339223039e+17
