# Flux units: erg / (cm m2 s)
# Wavelength units: Angstrom
wave	flux
19000.0	4.5977077742742176e+17
19001.0	4.596794962302292e+17
19002.0	4.596011331398313e+17
19003.0	4.5951590586122234e+17
19004.0	4.594307960231253e+17
19005.0	4.593456262064811e+17
19006.0	4.592610091991038e+17
19007.0	4.591736440837461e+17
19008.0	4.590869062265514e+17
19009.0	4.590025419259904e+17
19010.0	4.588859091670355e+17
19011.0	4.5883422849105914e+17
19012.0	4.587379281799849e+17
19013.0	4.586663731440297e+17
19014.0	4.5857815854230176e+17
19015.0	4.584941671852713e+17
19016.0	4.5840818570089805e+17
19017.0	4.5832685779681274e+17
19018.0	4.582412875639465e+17
19019.0	4.5815719694172154e+17
19020.0	4.5807123349285536e+17
19021.0	4.579878059201877e+17
19022.0	4.5790329195287885e+17
19023.0	4.578164582558378e+17
19024.0	4.577326612348927e+17
19025.0	4.5764889902667085e+17
19026.0	4.57562422055185e+17
19027.0	4.574727613972478e+17
19028.0	4.573956321312766e+17
19029.0	4.5730969965035514e+17
19030.0	4.572268682280959e+17
19031.0	4.5714266079450445e+17
19032.0	4.57057728794897e+17
19033.0	4.569672934490111e+17
19034.0	4.568879047114751e+17
19035.0	4.568022561150293e+17
19036.0	4.561011215084199e+17
19037.0	4.566348671046997e+17
19038.0	4.5654952056804685e+17
19039.0	4.564663598929236e+17
19040.0	4.5638227842826234e+17
19041.0	4.562973359428949e+17
19042.0	4.5620671688649376e+17
19043.0	4.5612912575774714e+17
19044.0	4.5604396328113485e+17
19045.0	4.559600788089514e+17
19046.0	4.5587176424297805e+17
19047.0	4.557911897757013e+17
19048.0	4.556916945933651e+17
19049.0	4.55617526436113e+17
19050.0	4.5553544544474445e+17
19051.0	4.553635188965374e+17
19052.0	4.553612011241472e+17
19053.0	4.5528556209438714e+17
19054.0	4.552018442059775e+17
19055.0	4.5510081453752314e+17
19056.0	4.550316236210176e+17
19057.0	4.5494898094243834e+17
19058.0	4.5486338023096314e+17
19059.0	4.547807367834282e+17
19060.0	4.5469548028450125e+17
19061.0	4.546131400851455e+17
19062.0	4.5452872090910714e+17
19063.0	4.544448472023039e+17
19064.0	4.5435222921052154e+17
19065.0	4.542656625508351e+17
19066.0	4.541889269202943e+17
19067.0	4.5410807849506125e+17
19068.0	4.5402491264696314e+17
19069.0	4.539410748713642e+17
19070.0	4.5385509240832e+17
19071.0	4.537725696868352e+17
19072.0	4.536890095042559e+17
19073.0	4.5360509196697594e+17
19074.0	4.535215936503806e+17
19075.0	4.534377474162687e+17
19076.0	4.533524137421482e+17
19077.0	4.532691821133823e+17
19078.0	4.531832313173332e+17
19079.0	4.531023268282368e+17
19080.0	4.5301781202206714e+17
19081.0	4.52932064719667e+17
19082.0	4.528480680498517e+17
19083.0	4.5276143358225056e+17
19084.0	4.5266965752709114e+17
19085.0	4.5259924865460896e+17
19086.0	4.524924613951487e+17
19087.0	4.5241664634443085e+17
19088.0	4.5234437212514976e+17
19089.0	4.522461109769557e+17
19090.0	4.521802365665279e+17
19091.0	4.5209685624968525e+17
19092.0	4.520078750689961e+17
19093.0	4.519313652318208e+17
19094.0	4.5184760036720634e+17
19095.0	4.517642180930219e+17
19096.0	4.516794873501012e+17
19097.0	4.51597248303377e+17
19098.0	4.515133283893247e+17
19099.0	4.5142973626013e+17
19100.0	4.5134541257441274e+17
19101.0	4.5126325552633165e+17
19102.0	4.511721107139243e+17
19103.0	4.510964244283392e+17
19104.0	4.51013520724241e+17
19105.0	4.5092932894938445e+17
19106.0	4.508440398746965e+17
19107.0	4.507620894659925e+17
19108.0	4.506800090338644e+17
19109.0	4.505534623383551e+17
19110.0	4.505134658748415e+17
19111.0	4.5043012694179846e+17
19112.0	4.5034704700702714e+17
19113.0	4.502638479540223e+17
19114.0	4.501804349915136e+17
19115.0	4.5009334656040954e+17
19116.0	4.500131728588799e+17
19117.0	4.4993005727252474e+17
19118.0	4.498409473966079e+17
19119.0	4.493146344565411e+17
19120.0	4.496766088336723e+17
19121.0	4.495957456584704e+17
19122.0	4.4951601927946234e+17
19123.0	4.494329288589311e+17
19124.0	4.493473266095445e+17
19125.0	4.4926674291479885e+17
19126.0	4.491835063227732e+17
19127.0	4.489786100984489e+17
19128.0	4.4900026291322874e+17
19129.0	4.4892970814887245e+17
19130.0	4.4885116218682016e+17
19131.0	4.487687316701183e+17
19132.0	4.486861224760661e+17
19133.0	4.4859079097931085e+17
19134.0	4.485122373277013e+17
19135.0	4.4843739081168205e+17
19136.0	4.4835510038473376e+17
19137.0	4.482610176021845e+17
19138.0	4.481878824321023e+17
19139.0	4.481067113949866e+17
19140.0	4.4802401768570874e+17
19141.0	4.4794128622769485e+17
19142.0	4.478568851570687e+17
19143.0	4.4777167968884045e+17
19144.0	4.476908671249066e+17
19145.0	4.476101958391125e+17
19146.0	4.474872814108672e+17
19147.0	4.474385520569002e+17
19148.0	4.4736214525979296e+17
19149.0	4.472791589978112e+17
19150.0	4.4719684025931085e+17
19151.0	4.471145322162859e+17
19152.0	4.470314717850282e+17
19153.0	4.469479279602346e+17
19154.0	4.468586213714602e+17
19155.0	4.467846507659264e+17
19156.0	4.467021539792213e+17
19157.0	4.466193479325013e+17
19158.0	4.465077830112596e+17
19159.0	4.4645359008699725e+17
19160.0	4.4637124499428685e+17
19161.0	4.462886659293183e+17
19162.0	4.461398976015018e+17
19163.0	4.4612502522866336e+17
19164.0	4.460430796434089e+17
19165.0	4.459582397786793e+17
19166.0	4.4586830089857696e+17
19167.0	4.4578976507275936e+17
19168.0	4.4571142029748896e+17
19169.0	4.4562893413635405e+17
19170.0	4.455492357193728e+17
19171.0	4.45462478917905e+17
19172.0	4.453845696512e+17
19173.0	4.45302424277265e+17
19174.0	4.452162030884182e+17
19175.0	4.4513811227825485e+17
19176.0	4.4505581926481914e+17
19177.0	4.4496383929658016e+17
19178.0	4.4489087154913274e+17
19179.0	4.4480333195072845e+17
19180.0	4.4472561037912736e+17
19181.0	4.4463606890932896e+17
19182.0	4.4456196981828256e+17
19183.0	4.444813217409706e+17
19184.0	4.443973795272021e+17
19185.0	4.443165618601983e+17
19186.0	4.44235249684753e+17
19187.0	4.441490067554302e+17
19188.0	4.4407098347356154e+17
19189.0	4.4398882607595514e+17
19190.0	4.4390665029331616e+17
19191.0	4.438230055955114e+17
19192.0	4.4374373639563936e+17
19193.0	4.436609901177514e+17
19194.0	4.435787634442239e+17
19195.0	4.434979372488021e+17
19196.0	4.434150403254955e+17
19197.0	4.4333378714992634e+17
19198.0	4.4325242324473165e+17
19199.0	4.427776418032297e+17
19200.0	4.4283866536127155e+17
19201.0	4.4300713545345696e+17
19202.0	4.429255418402134e+17
19203.0	4.428427488657407e+17
19204.0	4.4276002824301216e+17
19205.0	4.426796629316949e+17
19206.0	4.425975641145343e+17
19207.0	4.4251031448234656e+17
19208.0	4.424186237812734e+17
19209.0	4.423526556980565e+17
19210.0	4.422711466699434e+17
19211.0	4.42190407995665e+17
19212.0	4.4210860019329696e+17
19213.0	4.420187661707946e+17
19214.0	4.4193506645770234e+17
19215.0	4.418626831865172e+17
19216.0	4.41782225670417e+17
19217.0	4.417005715892907e+17
19218.0	4.415636235791017e+17
19219.0	4.415284698589866e+17
19220.0	4.414545784558932e+17
19221.0	4.413523426454187e+17
19222.0	4.412937838002175e+17
19223.0	4.412107388878847e+17
19224.0	4.411276530111828e+17
19225.0	4.410391598377642e+17
19226.0	4.409663356054185e+17
19227.0	4.408850722936149e+17
19228.0	4.408053159952383e+17
19229.0	4.4072387274779296e+17
19230.0	4.4064131395529376e+17
19231.0	4.405598119176875e+17
19232.0	4.404789161667242e+17
19233.0	4.403937666924543e+17
19234.0	4.403153427846484e+17
19235.0	4.402334917110443e+17
19236.0	4.4015435847652685e+17
19237.0	4.400717928333311e+17
19238.0	4.3998516759319885e+17
19239.0	4.3991066165466445e+17
19240.0	4.398250527642965e+17
19241.0	4.397455585400149e+17
19242.0	4.396658061563221e+17
19243.0	4.395748998600019e+17
19244.0	4.395043539735893e+17
19245.0	4.394228463435774e+17
19246.0	4.393407869528746e+17
19247.0	4.3926023918933325e+17
19248.0	4.391796591296511e+17
19249.0	4.3909809949026976e+17
19250.0	4.390158330407593e+17
19251.0	4.389289450274815e+17
19252.0	4.388363814917461e+17
19253.0	4.387719992748714e+17
19254.0	4.386920730372778e+17
19255.0	4.385992786750121e+17
19256.0	4.385282880525653e+17
19257.0	4.3844916649219405e+17
19258.0	4.3836819042030925e+17
19259.0	4.382824820550314e+17
19260.0	4.3819360209687885e+17
19261.0	4.3812409940377594e+17
19262.0	4.380401291580757e+17
19263.0	4.3795903963026765e+17
19264.0	4.378437726066004e+17
19265.0	4.3778667177137485e+17
19266.0	4.3770164721745914e+17
19267.0	4.3763867107109536e+17
19268.0	4.375571416307027e+17
19269.0	4.3747633193287674e+17
19270.0	4.3739548763204256e+17
19271.0	4.372906179384662e+17
19272.0	4.372311046094847e+17
19273.0	4.3701843081734803e+17
19274.0	4.369928397608276e+17
19275.0	4.369903937126399e+17
19276.0	4.3690802604059296e+17
19277.0	4.36827363143407e+17
19278.0	4.367465714111828e+17
19279.0	4.366638754649429e+17
19280.0	4.365786753094996e+17
19281.0	4.3650310995967994e+17
19282.0	4.3642325069114016e+17
19283.0	4.363360749486079e+17
19284.0	4.362545392866644e+17
19285.0	4.3616772278626976e+17
19286.0	4.360072183065257e+17
19287.0	4.3587475344807245e+17
19288.0	4.356597241348095e+17
19289.0	4.3532604600046854e+17
19290.0	4.356317288333311e+17
19291.0	4.355342432119466e+17
19292.0	4.3546967155234125e+17
19293.0	4.3538808360140794e+17
19294.0	4.3530683853482656e+17
19295.0	4.3522648433841485e+17
19296.0	4.351446842955093e+17
19297.0	4.350625302533461e+17
19298.0	4.349810911302997e+17
19299.0	4.349017361569108e+17
19300.0	4.3482050905593165e+17
19301.0	4.347392409206783e+17
19302.0	4.3465774419585696e+17
19303.0	4.3457175830746445e+17
19304.0	4.344933908130475e+17
19305.0	4.344135603453951e+17
19306.0	4.343327723181397e+17
19307.0	4.3424849518919674e+17
19308.0	4.341689035871572e+17
19309.0	4.340746084330155e+17
19310.0	4.339875735491923e+17
19311.0	4.3392355379008845e+17
19312.0	4.338446234899796e+17
19313.0	4.337633859032406e+17
19314.0	4.328625848800593e+17
19315.0	4.328543774659939e+17
19316.0	4.335183838139732e+17
19317.0	4.33437318053888e+17
19318.0	4.333556023863979e+17
19319.0	4.3327498702465696e+17
19320.0	4.331931237176661e+17
19321.0	4.33111563239424e+17
19322.0	4.330240559371604e+17
19323.0	4.3294142374434125e+17
19324.0	4.328657972974932e+17
19325.0	4.327708436376234e+17
19326.0	4.3270251185438714e+17
19327.0	4.3261938508322125e+17
19328.0	4.325378995432106e+17
19329.0	4.3245634353889274e+17
19330.0	4.323713278629204e+17
19331.0	4.3228886798609056e+17
19332.0	4.3220938040279034e+17
19333.0	4.321259952624981e+17
19334.0	4.3204431517668685e+17
19335.0	4.319609439475029e+17
19336.0	4.318789249619285e+17
19337.0	4.317961623262549e+17
19338.0	4.316996943129259e+17
19339.0	4.316303529607168e+17
19340.0	4.31537250037487e+17
19341.0	4.3146198045600416e+17
19342.0	4.3135419327447034e+17
19343.0	4.312976414037333e+17
19344.0	4.312133437926059e+17
19345.0	4.309827482288124e+17
19346.0	4.3099593686821536e+17
19347.0	4.3095795353081165e+17
19348.0	4.3087902749491194e+17
19349.0	4.307926764224512e+17
19350.0	4.3070833686828365e+17
19351.0	4.3062338914003616e+17
19352.0	4.3053601276996256e+17
19353.0	4.304567370689193e+17
19354.0	4.3037177242364576e+17
19355.0	4.302800941656746e+17
19356.0	4.3020089766707194e+17
19357.0	4.3011532792354125e+17
19358.0	4.3002835511541766e+17
19359.0	4.2993558039647565e+17
19360.0	4.298535844096681e+17
19361.0	4.297675407796906e+17
19362.0	4.296835436904447e+17
19363.0	4.295961731224916e+17
19364.0	4.295082981894827e+17
19365.0	4.2942094376959994e+17
19366.0	4.2933277901018445e+17
19367.0	4.292443381257555e+17
19368.0	4.291555672894123e+17
19369.0	4.290615799971838e+17
19370.0	4.289615475944106e+17
19371.0	4.288830367247018e+17
19372.0	4.287960718158506e+17
19373.0	4.287035372208127e+17
19374.0	4.286132101578751e+17
19375.0	4.285214209605631e+17
19376.0	4.2842911125012474e+17
19377.0	4.283352501365418e+17
19378.0	4.2824180656592205e+17
19379.0	4.2807075858459296e+17
19380.0	4.2787966910027085e+17
19381.0	4.277831869661183e+17
19382.0	4.276816218248533e+17
19383.0	4.27581367263778e+17
19384.0	4.274899813487957e+17
19385.0	4.273905722895018e+17
19386.0	4.2729038588586656e+17
19387.0	4.271888629672618e+17
19388.0	4.2708626183290874e+17
19389.0	4.2698247489890976e+17
19390.0	4.268774269474133e+17
19391.0	4.262009665224694e+17
19392.0	4.266605345942186e+17
19393.0	4.265544521176404e+17
19394.0	4.2644316842448205e+17
19395.0	4.2633007048512845e+17
19396.0	4.260132824634707e+17
19397.0	4.258922651888298e+17
19398.0	4.257712012875093e+17
19399.0	4.255982997733374e+17
19400.0	4.255246958198783e+17
19401.0	4.254018756236629e+17
19402.0	4.2527376263522976e+17
19403.0	4.250981457985537e+17
19404.0	4.2476057828611405e+17
19405.0	4.2461888351218336e+17
19406.0	4.2447628633374714e+17
19407.0	4.2432956594476365e+17
19408.0	4.2401587052325555e+17
19409.0	4.2373227167962445e+17
19410.0	4.2356954757420365e+17
19411.0	4.233653095060821e+17
19412.0	4.228943255175167e+17
19413.0	4.227068186678613e+17
19414.0	4.222814899579562e+17
19415.0	4.219315047890943e+17
19416.0	4.2142524320863526e+17
19417.0	4.210190254254758e+17
19418.0	4.203457214939136e+17
19419.0	4.198766299054077e+17
19420.0	4.195176778039295e+17
19421.0	4.192018279082666e+17
19422.0	4.188644246028287e+17
19423.0	4.185111762654549e+17
19424.0	4.181338041789098e+17
19425.0	4.1773169541556896e+17
19426.0	4.1730155360201376e+17
19427.0	4.1684102153939616e+17
19428.0	4.16352419446784e+17
19429.0	4.1576511007184205e+17
19430.0	4.1520258749562874e+17
19431.0	4.1451712651373235e+17
19432.0	4.1398282636055885e+17
19433.0	4.133045858729983e+17
19434.0	4.1255570981082464e+17
19435.0	4.1169065404443296e+17
19436.0	4.1082115070798483e+17
19437.0	4.0986926264265376e+17
19438.0	4.0765656092289696e+17
19439.0	4.0725067798500685e+17
19440.0	4.0515618104934374e+17
19441.0	4.015118984325798e+17
19442.0	3.973385546978643e+17
19443.0	3.946438464285354e+17
19444.0	3.916147520962558e+17
19445.0	3.882503862135466e+17
19446.0	3.844283540264275e+17
19447.0	3.77627607669145e+17
19448.0	3.663035316393305e+17
19449.0	3.526454819160078e+17
19450.0	3.0484138994346675e+17
19451.0	2.8824228244138586e+17
19452.0	3.331628373202271e+17
19453.0	3.6122360461393984e+17
19454.0	3.715126653878276e+17
19455.0	3.8144529784285946e+17
19456.0	3.8578955499165024e+17
19457.0	3.892200819654654e+17
19458.0	3.9004801821136595e+17
19459.0	3.949311881292463e+17
19460.0	3.979487070912509e+17
19461.0	4.0224433289297946e+17
19462.0	4.047445677834238e+17
19463.0	4.06344081132749e+17
19464.0	4.074412872215211e+17
19465.0	4.0833243785024845e+17
19466.0	4.091039004491776e+17
19467.0	4.097808747462655e+17
19468.0	4.1045541991219194e+17
19469.0	4.1096886878207994e+17
19470.0	4.115028356278954e+17
19471.0	4.1196576732173664e+17
19472.0	4.123772499350868e+17
19473.0	4.127867281604608e+17
19474.0	4.1317936164154016e+17
19475.0	4.1343793796655763e+17
19476.0	4.137809215837525e+17
19477.0	4.140444707454976e+17
19478.0	4.14279509545233e+17
19479.0	4.144893747615061e+17
19480.0	4.146772729397248e+17
19481.0	4.148467049256276e+17
19482.0	4.149988741349375e+17
19483.0	4.152931937594027e+17
19484.0	4.156251630643882e+17
19485.0	4.1602881966571514e+17
19486.0	4.163771328451922e+17
19487.0	4.16570209800465e+17
19488.0	4.16858960158174e+17
19489.0	4.1701248049261216e+17
19490.0	4.1697621521203174e+17
19491.0	4.1737866427323725e+17
19492.0	4.173934195550891e+17
19493.0	4.174003311389355e+17
19494.0	4.175766570227029e+17
19495.0	4.176714640916479e+17
19496.0	4.176319173274282e+17
19497.0	4.176464399652181e+17
19498.0	4.175960859475968e+17
19499.0	4.1689651378913197e+17
19500.0	4.178232121229311e+17
19501.0	4.1779534999060474e+17
19502.0	4.17764609097728e+17
19503.0	4.1773266436969805e+17
19504.0	4.176974143204011e+17
19505.0	4.1766085501911034e+17
19506.0	4.1762253809472845e+17
19507.0	4.175800690191019e+17
19508.0	4.177053664411646e+17
19509.0	4.176930907619328e+17
19510.0	4.176325300453375e+17
19511.0	4.1613690373406605e+17
19512.0	4.1742706416462464e+17
19513.0	4.172263386862928e+17
19514.0	4.172695709854375e+17
19515.0	4.1735571241260384e+17
19516.0	4.173400979275776e+17
19517.0	4.172812603708757e+17
19518.0	4.1723069768663034e+17
19519.0	4.171735749012138e+17
19520.0	4.1711439879427405e+17
19521.0	4.170587930886143e+17
19522.0	4.169974200052394e+17
19523.0	4.1694025898175123e+17
19524.0	4.1687979620215456e+17
19525.0	4.1681777230260896e+17
19526.0	4.167576733089792e+17
19527.0	4.166950859745962e+17
19528.0	4.1663245250286925e+17
19529.0	4.1665130778678624e+17
19530.0	4.166690084487167e+17
19531.0	4.1660469369023136e+17
19532.0	4.165399510428329e+17
19533.0	4.1647481594839034e+17
19534.0	4.1640911839778125e+17
19535.0	4.16342098383121e+17
19536.0	4.1627445991833594e+17
19537.0	4.162106422547796e+17
19538.0	4.161386503820629e+17
19539.0	4.1603518410260486e+17
19540.0	4.160071926459049e+17
19541.0	4.1594106028578125e+17
19542.0	4.158728074952704e+17
19543.0	4.1580424768170675e+17
19544.0	4.157363247732053e+17
19545.0	4.156378887225342e+17
19546.0	4.155328057485994e+17
19547.0	4.1552986896684365e+17
19548.0	4.154606301653674e+17
19549.0	4.153845447917568e+17
19550.0	4.153213729811114e+17
19551.0	4.1525169881087994e+17
19552.0	4.1518163394123085e+17
19553.0	4.1511004269445126e+17
19554.0	4.150380517305002e+17
19555.0	4.149697593038165e+17
19556.0	4.149002094946985e+17
19557.0	4.148292242549418e+17
19558.0	4.1475836903860896e+17
19559.0	4.146872246949204e+17
19560.0	4.1461475795708576e+17
19561.0	4.145436071821312e+17
19562.0	4.1447360718438394e+17
19563.0	4.144028745116329e+17
19564.0	4.143314439066964e+17
19565.0	4.1425970460098554e+17
19566.0	4.141861303571796e+17
19567.0	4.1411648785394336e+17
19568.0	4.1404314045207885e+17
19569.0	4.139713645161129e+17
19570.0	4.1390092404654074e+17
19571.0	4.1382860893279565e+17
19572.0	4.1375453409880736e+17
19573.0	4.136833826947072e+17
19574.0	4.1360638897466016e+17
19575.0	4.1354000572525216e+17
19576.0	4.134676346874538e+17
19577.0	4.1339192190784845e+17
19578.0	4.1331982252113914e+17
19579.0	4.132487599663786e+17
19580.0	4.1317642290244256e+17
19581.0	4.1310431946123936e+17
19582.0	4.130329953217195e+17
19583.0	4.129603563378003e+17
19584.0	4.128873159589887e+17
19585.0	4.128075330267818e+17
19586.0	4.127329508917248e+17
19587.0	4.126666985745066e+17
19588.0	4.1256383103194445e+17
19589.0	4.125222279402836e+17
19590.0	4.124431539153578e+17
19591.0	4.123774326669312e+17
19592.0	4.1230482269361485e+17
19593.0	4.122307286357333e+17
19594.0	4.121422040749397e+17
19595.0	4.120841305806165e+17
19596.0	4.119764589521578e+17
19597.0	4.1193878396600314e+17
19598.0	4.1183631026858656e+17
19599.0	4.117934799235753e+17
19600.0	4.1172097445833376e+17
19601.0	4.1164334299436365e+17
19602.0	4.115719012745215e+17
19603.0	4.1146681096055456e+17
19604.0	4.114254719003306e+17
19605.0	4.113349491731114e+17
19606.0	4.1128152066075296e+17
19607.0	4.112090070166187e+17
19608.0	4.1113462613824845e+17
19609.0	4.1105894628392954e+17
19610.0	4.109892006008149e+17
19611.0	4.109150766235647e+17
19612.0	4.1084299674036896e+17
19613.0	4.1076895811720525e+17
19614.0	4.106939476038996e+17
19615.0	4.1062326330545485e+17
19616.0	4.1054496515686394e+17
19617.0	4.1047585700795725e+17
19618.0	4.103644597889706e+17
19619.0	4.1027978804592614e+17
19620.0	4.1020998301341e+17
19621.0	4.101830928411306e+17
19622.0	4.101105997490859e+17
19623.0	4.10037351682321e+17
19624.0	4.0996348306827936e+17
19625.0	4.098907927041364e+17
19626.0	4.098171055636479e+17
19627.0	4.097443262802602e+17
19628.0	4.0966112394171725e+17
19629.0	4.095911572886868e+17
19630.0	4.0951495475418445e+17
19631.0	4.089995552533161e+17
19632.0	4.093779034243072e+17
19633.0	4.093017750590806e+17
19634.0	4.0923164315047245e+17
19635.0	4.091560633303038e+17
19636.0	4.0908427977468576e+17
19637.0	4.089892698412374e+17
19638.0	4.089379531609429e+17
19639.0	4.088647940134229e+17
19640.0	4.087872142792021e+17
19641.0	4.086426551451649e+17
19642.0	4.0864530664434336e+17
19643.0	4.0857167123360416e+17
19644.0	4.084953774030848e+17
19645.0	4.0840696559916365e+17
19646.0	4.0835273212996256e+17
19647.0	4.082800382705663e+17
19648.0	4.082066114565461e+17
19649.0	4.081332309196799e+17
19650.0	4.080604946279082e+17
19651.0	4.0798704278787405e+17
19652.0	4.0791379073652045e+17
19653.0	4.078408514404351e+17
19654.0	4.0776752710724256e+17
19655.0	4.0769402178983245e+17
