# Flux units: erg / (cm m2 s)
# Wavelength units: Angstrom
wave	flux
19000.0	7.008458971458217e+17
19001.0	7.007111059865599e+17
19002.0	7.005850456905044e+17
19003.0	7.004544689679017e+17
19004.0	7.003239104905215e+17
19005.0	7.001935051751423e+17
19006.0	7.000629432025087e+17
19007.0	6.999303195197439e+17
19008.0	6.997990568187219e+17
19009.0	6.996669198150313e+17
19010.0	6.995212257023316e+17
19011.0	6.994081704749737e+17
19012.0	6.992715308859391e+17
19013.0	6.991485167730687e+17
19014.0	6.990146465431551e+17
19015.0	6.988850859606016e+17
19016.0	6.987538260557824e+17
19017.0	6.986242001818963e+17
19018.0	6.984938163972778e+17
19019.0	6.983638354056532e+17
19020.0	6.982314798787241e+17
19021.0	6.981019269857279e+17
19022.0	6.979717462054227e+17
19023.0	6.978398933658281e+17
19024.0	6.977089141997565e+17
19025.0	6.975788660293632e+17
19026.0	6.974469901210963e+17
19027.0	6.973125154220713e+17
19028.0	6.97186761450018e+17
19029.0	6.970558852541097e+17
19030.0	6.969250472263679e+17
19031.0	6.967941752247636e+17
19032.0	6.966632976307539e+17
19033.0	6.965284560000339e+17
19034.0	6.964015035056127e+17
19035.0	6.962687517567657e+17
19036.0	6.957966858474835e+17
19037.0	6.960087106409812e+17
19038.0	6.958768416533161e+17
19039.0	6.957470649942015e+17
19040.0	6.956161705530708e+17
19041.0	6.954852026417151e+17
19042.0	6.953508197280426e+17
19043.0	6.952234798896468e+17
19044.0	6.950924698255359e+17
19045.0	6.949616768166568e+17
19046.0	6.948285765211476e+17
19047.0	6.946990260049235e+17
19048.0	6.945603254048083e+17
19049.0	6.944351812845567e+17
19050.0	6.943053178732541e+17
19051.0	6.941248636059647e+17
19052.0	6.940352497145172e+17
19053.0	6.939144414560255e+17
19054.0	6.937835001785001e+17
19055.0	6.936414622405971e+17
19056.0	6.935208511842985e+17
19057.0	6.933905221353472e+17
19058.0	6.932595719099732e+17
19059.0	6.931291396112383e+17
19060.0	6.929972999137961e+17
19061.0	6.928674690782547e+17
19062.0	6.927363959597737e+17
19063.0	6.926056132968445e+17
19064.0	6.924697288223402e+17
19065.0	6.923361707185491e+17
19066.0	6.922105098600447e+17
19067.0	6.920821968033108e+17
19068.0	6.919514716023465e+17
19069.0	6.918206908268543e+17
19070.0	6.916894340677631e+17
19071.0	6.91559062446626e+17
19072.0	6.914282506332841e+17
19073.0	6.912972116284756e+17
19074.0	6.911666552482474e+17
19075.0	6.910358652452861e+17
19076.0	6.909041818555731e+17
19077.0	6.907737083128489e+17
19078.0	6.906423015374847e+17
19079.0	6.905127746491732e+17
19080.0	6.903816349810687e+17
19081.0	6.902495931181738e+17
19082.0	6.901186065421651e+17
19083.0	6.899854366911146e+17
19084.0	6.898484521205759e+17
19085.0	6.897283382990166e+17
19086.0	6.895809856187049e+17
19087.0	6.894562901491711e+17
19088.0	6.893324515759444e+17
19089.0	6.891926469651113e+17
19090.0	6.890738694488061e+17
19091.0	6.889428605031764e+17
19092.0	6.888091676224169e+17
19093.0	6.886828921585661e+17
19094.0	6.885514348418388e+17
19095.0	6.884206112844457e+17
19096.0	6.882902411313151e+17
19097.0	6.881602674098173e+17
19098.0	6.880298304274431e+17
19099.0	6.878992097345535e+17
19100.0	6.877686458744831e+17
19101.0	6.876379029176319e+17
19102.0	6.875035039956991e+17
19103.0	6.873769492611071e+17
19104.0	6.872463939294548e+17
19105.0	6.871158230788778e+17
19106.0	6.869833945710591e+17
19107.0	6.868540952237396e+17
19108.0	6.867241883314858e+17
19109.0	6.865628392587263e+17
19110.0	6.864621063372799e+17
19111.0	6.863327586156543e+17
19112.0	6.862023026890067e+17
19113.0	6.86071837954321e+17
19114.0	6.859413736390653e+17
19115.0	6.858093213603155e+17
19116.0	6.856794399834111e+17
19117.0	6.855489854548649e+17
19118.0	6.8541448978432e+17
19119.0	6.851437726269437e+17
19120.0	6.851559646298111e+17
19121.0	6.850261951709183e+17
19122.0	6.848979906068479e+17
19123.0	6.847675016151039e+17
19124.0	6.846354622687913e+17
19125.0	6.845065035688617e+17
19126.0	6.843761221610153e+17
19127.0	6.841713442859689e+17
19128.0	6.841020143282857e+17
19129.0	6.839818517129897e+17
19130.0	6.838545924751359e+17
19131.0	6.837246978162687e+17
19132.0	6.835942457343999e+17
19133.0	6.834518917556905e+17
19134.0	6.833276638811476e+17
19135.0	6.832034978725887e+17
19136.0	6.830733235235498e+17
19137.0	6.829360709369855e+17
19138.0	6.828113943418195e+17
19139.0	6.826824325660671e+17
19140.0	6.825522715688959e+17
19141.0	6.824220105375743e+17
19142.0	6.822907041458858e+17
19143.0	6.821593518964735e+17
19144.0	6.820307987158356e+17
19145.0	6.819010909132116e+17
19146.0	6.817459547930624e+17
19147.0	6.816362436143786e+17
19148.0	6.815102410599081e+17
19149.0	6.813800804821674e+17
19150.0	6.812495824726697e+17
19151.0	6.811198186061823e+17
19152.0	6.809892567733587e+17
19153.0	6.808585737251497e+17
19154.0	6.807236532415146e+17
19155.0	6.805990495573334e+17
19156.0	6.804687107915773e+17
19157.0	6.803379816759295e+17
19158.0	6.801870493668691e+17
19159.0	6.800773527284393e+17
19160.0	6.79947529163025e+17
19161.0	6.798164381488468e+17
19162.0	6.796397059768319e+17
19163.0	6.795560092696575e+17
19164.0	6.79427495305762e+17
19165.0	6.792963957631657e+17
19166.0	6.791614608790868e+17
19167.0	6.790324973557075e+17
19168.0	6.789045431915859e+17
19169.0	6.787745229832192e+17
19170.0	6.786464733986815e+17
19171.0	6.785135756181503e+17
19172.0	6.783861393806676e+17
19173.0	6.782559978171049e+17
19174.0	6.781234910855165e+17
19175.0	6.779958057762815e+17
19176.0	6.778656336642047e+17
19177.0	6.777288548941823e+17
19178.0	6.776039640399871e+17
19179.0	6.774712440280404e+17
19180.0	6.773433384479401e+17
19181.0	6.772102042484735e+17
19182.0	6.770829678695763e+17
19183.0	6.769540915178154e+17
19184.0	6.768220551075156e+17
19185.0	6.766934894837759e+17
19186.0	6.765635164613289e+17
19187.0	6.764305649238015e+17
19188.0	6.763029574189055e+17
19189.0	6.761723142864895e+17
19190.0	6.760417360259753e+17
19191.0	6.759118331882153e+17
19192.0	6.757819936844458e+17
19193.0	6.756510296877736e+17
19194.0	6.755211426485588e+17
19195.0	6.753910463135741e+17
19196.0	6.752601563463679e+17
19197.0	6.751296368760148e+17
19198.0	6.749985715169961e+17
19199.0	6.745845332443133e+17
19200.0	6.745394672653654e+17
19201.0	6.746076401543849e+17
19202.0	6.744782079874388e+17
19203.0	6.743480108493481e+17
19204.0	6.742165508063231e+17
19205.0	6.740871592542208e+17
19206.0	6.739560966214996e+17
19207.0	6.738222816864938e+17
19208.0	6.73687301783552e+17
19209.0	6.735651971355988e+17
19210.0	6.734346074106538e+17
19211.0	6.733039578469716e+17
19212.0	6.731733753921535e+17
19213.0	6.730376490429098e+17
19214.0	6.729047007210154e+17
19215.0	6.727801603009193e+17
19216.0	6.726502656420522e+17
19217.0	6.72519800627746e+17
19218.0	6.723533724625578e+17
19219.0	6.722512553508863e+17
19220.0	6.721262654412116e+17
19221.0	6.719826207353513e+17
19222.0	6.718650557923328e+17
19223.0	6.717343918981119e+17
19224.0	6.716017982046207e+17
19225.0	6.714661198102527e+17
19226.0	6.713414184686931e+17
19227.0	6.712093619257343e+17
19228.0	6.71079165137169e+17
19229.0	6.709479428412755e+17
19230.0	6.708165471808168e+17
19231.0	6.706854627377151e+17
19232.0	6.705532572969641e+17
19233.0	6.704195081426259e+17
19234.0	6.702901953036287e+17
19235.0	6.701587390354772e+17
19236.0	6.700281657382228e+17
19237.0	6.698958599837012e+17
19238.0	6.697606586914132e+17
19239.0	6.696332296541523e+17
19240.0	6.694972494796116e+17
19241.0	6.693671958566228e+17
19242.0	6.692368547839999e+17
19243.0	6.690983216065193e+17
19244.0	6.689738122242729e+17
19245.0	6.688417068875775e+17
19246.0	6.687088516093268e+17
19247.0	6.68577224003857e+17
19248.0	6.684449980809215e+17
19249.0	6.6831254566557e+17
19250.0	6.681798470445737e+17
19251.0	6.680416456365396e+17
19252.0	6.679028001931263e+17
19253.0	6.677817717336744e+17
19254.0	6.676487616856063e+17
19255.0	6.675086825575763e+17
19256.0	6.673815151749801e+17
19257.0	6.672504830907732e+17
19258.0	6.671172605313023e+17
19259.0	6.669809402686121e+17
19260.0	6.668445533863936e+17
19261.0	6.667171154711892e+17
19262.0	6.665813924074836e+17
19263.0	6.664470557010602e+17
19264.0	6.662933889155071e+17
19265.0	6.661738356626771e+17
19266.0	6.660409340373674e+17
19267.0	6.659138335539199e+17
19268.0	6.657795248095231e+17
19269.0	6.656450788414804e+17
19270.0	6.655103889746602e+17
19271.0	6.653615953412095e+17
19272.0	6.652393074021716e+17
19273.0	6.649840484919976e+17
19274.0	6.648982342205437e+17
19275.0	6.648353789400403e+17
19276.0	6.646990811867817e+17
19277.0	6.645643549693268e+17
19278.0	6.644285654958079e+17
19279.0	6.642923853228713e+17
19280.0	6.641531279289001e+17
19281.0	6.640199557709823e+17
19282.0	6.638835334468948e+17
19283.0	6.637425462520489e+17
19284.0	6.636044327146836e+17
19285.0	6.634646848667647e+17
19286.0	6.633342426415104e+17
19287.0	6.631980911296511e+17
19288.0	6.629600023019519e+17
19289.0	6.62706751764343e+17
19290.0	6.627843071716009e+17
19291.0	6.62634411135249e+17
19292.0	6.625072487159123e+17
19293.0	6.623680170470057e+17
19294.0	6.622292224245759e+17
19295.0	6.620897961399636e+17
19296.0	6.619500877185023e+17
19297.0	6.618099992930985e+17
19298.0	6.616690525033812e+17
19299.0	6.615292766934355e+17
19300.0	6.61388313895458e+17
19301.0	6.612469028661929e+17
19302.0	6.611048612233215e+17
19303.0	6.60960400515618e+17
19304.0	6.608196481318911e+17
19305.0	6.606782069735423e+17
19306.0	6.605361995841535e+17
19307.0	6.603903678982826e+17
19308.0	6.602475807178751e+17
19309.0	6.600951506228564e+17
19310.0	6.599468294078463e+17
19311.0	6.598132966795946e+17
19312.0	6.596708198077779e+17
19313.0	6.595241201106943e+17
19314.0	6.591607464438444e+17
19315.0	6.590246350574934e+17
19316.0	6.590844794568703e+17
19317.0	6.589352659735891e+17
19318.0	6.58714613846289e+17
19319.0	6.585668298517161e+17
19320.0	6.584175266103295e+17
19321.0	6.582681069770067e+17
19322.0	6.581131458292393e+17
19323.0	6.579627108947284e+17
19324.0	6.578186311696383e+17
19325.0	6.576581925404672e+17
19326.0	6.57514296316177e+17
19327.0	6.573604807726419e+17
19328.0	6.572071117127679e+17
19329.0	6.570524723380223e+17
19330.0	6.568953881034751e+17
19331.0	6.567389330145279e+17
19332.0	6.565836995865258e+17
19333.0	6.564261878125908e+17
19334.0	6.562673646895103e+17
19335.0	6.561083010930004e+17
19336.0	6.559479460702889e+17
19337.0	6.55786619506961e+17
19338.0	6.556156711403519e+17
19339.0	6.554619104023892e+17
19340.0	6.552953536118783e+17
19341.0	6.551318395792041e+17
19342.0	6.549512088016212e+17
19343.0	6.547998169366528e+17
19344.0	6.546316439410003e+17
19345.0	6.543832764820136e+17
19346.0	6.542535962219859e+17
19347.0	6.541174247172778e+17
19348.0	6.539477478539263e+17
19349.0	6.537724884418559e+17
19350.0	6.535969631109119e+17
19351.0	6.534201562103807e+17
19352.0	6.531951984203091e+17
19353.0	6.529556540293119e+17
19354.0	6.52774182293777e+17
19355.0	6.52587419443746e+17
19356.0	6.524061622468607e+17
19357.0	6.522196825123498e+17
19358.0	6.520301906384212e+17
19359.0	6.518348880456361e+17
19360.0	6.516475433058304e+17
19361.0	6.514538942474921e+17
19362.0	6.512596843408041e+17
19363.0	6.510615942834857e+17
19364.0	6.508613017971369e+17
19365.0	6.506588813306538e+17
19366.0	6.504540636097193e+17
19367.0	6.501643277303805e+17
19368.0	6.498907597744809e+17
19369.0	6.496727344698708e+17
19370.0	6.494322976707923e+17
19371.0	6.492253727315284e+17
19372.0	6.490063728104788e+17
19373.0	6.487812653536595e+17
19374.0	6.485546774473385e+17
19375.0	6.483237601804287e+17
19376.0	6.479527916077056e+17
19377.0	6.476591808206163e+17
19378.0	6.474163548760746e+17
19379.0	6.471678041260031e+17
19380.0	6.469164858343423e+17
19381.0	6.466609931616255e+17
19382.0	6.462397304799235e+17
19383.0	6.458885237200211e+17
19384.0	6.456213062199978e+17
19385.0	6.453435975772841e+17
19386.0	6.450061563833004e+17
19387.0	6.444754439678633e+17
19388.0	6.441780074162857e+17
19389.0	6.438742557807956e+17
19390.0	6.433245310746625e+17
19391.0	6.426037729973585e+17
19392.0	6.425532762335914e+17
19393.0	6.418793041494011e+17
19394.0	6.414564121903104e+17
19395.0	6.408916266472792e+17
19396.0	6.402400544533162e+17
19397.0	6.396253896179706e+17
19398.0	6.388974218816169e+17
19399.0	6.382508571972947e+17
19400.0	6.377297487593471e+17
19401.0	6.37285852844305e+17
19402.0	6.368255788012884e+17
19403.0	6.363451038018217e+17
19404.0	6.358156459027113e+17
19405.0	6.353115146791594e+17
19406.0	6.347910750928895e+17
19407.0	6.342553493656915e+17
19408.0	6.336719207705258e+17
19409.0	6.331255619234473e+17
19410.0	6.32533012254993e+17
19411.0	6.319120262539944e+17
19412.0	6.311933744163497e+17
19413.0	6.305359866800809e+17
19414.0	6.298541306325673e+17
19415.0	6.291490842782378e+17
19416.0	6.282871536877569e+17
19417.0	6.275135425566036e+17
19418.0	6.266979347682644e+17
19419.0	6.257083551492778e+17
19420.0	6.248025749979132e+17
19421.0	6.236857607476564e+17
19422.0	6.225338013756072e+17
19423.0	6.212657153572867e+17
19424.0	6.198217157552812e+17
19425.0	6.181647519055872e+17
19426.0	6.1626574630639e+17
19427.0	6.137586530997582e+17
19428.0	6.109521959889569e+17
19429.0	6.088720237199359e+17
19430.0	6.0710507263645e+17
19431.0	6.051853725510316e+17
19432.0	6.032254270701567e+17
19433.0	6.011285042888704e+17
19434.0	5.988698898300928e+17
19435.0	5.964660597587967e+17
19436.0	5.939320308716887e+17
19437.0	5.911834513812138e+17
19438.0	5.876480370278397e+17
19439.0	5.842083176076631e+17
19440.0	5.793182347078307e+17
19441.0	5.7280474204078176e+17
19442.0	5.673922282389505e+17
19443.0	5.620184418440532e+17
19444.0	5.557847532939943e+17
19445.0	5.480440374056283e+17
19446.0	5.377375541220692e+17
19447.0	5.260772315059536e+17
19448.0	5.118643048983217e+17
19449.0	4.915839590116011e+17
19450.0	4.5989495713736896e+17
19451.0	4.509712380854273e+17
19452.0	4.763420233913689e+17
19453.0	5.0272492864580384e+17
19454.0	5.1923957541328154e+17
19455.0	5.3133829870714886e+17
19456.0	5.425153331342e+17
19457.0	5.51124888330786e+17
19458.0	5.5744861090174317e+17
19459.0	5.632601714152791e+17
19460.0	5.6818861919436755e+17
19461.0	5.74281839594701e+17
19462.0	5.797719874469889e+17
19463.0	5.837764318025041e+17
19464.0	5.869737201019564e+17
19465.0	5.897076210663424e+17
19466.0	5.921240165733715e+17
19467.0	5.943082384796329e+17
19468.0	5.96437109833728e+17
19469.0	5.98354063139362e+17
19470.0	6.001808893105492e+17
19471.0	6.019027937088852e+17
19472.0	6.034793938550783e+17
19473.0	6.050245239985487e+17
19474.0	6.074104627767973e+17
19475.0	6.098014397530117e+17
19476.0	6.117113885010611e+17
19477.0	6.132832058824024e+17
19478.0	6.145503333624489e+17
19479.0	6.156707306668031e+17
19480.0	6.16678399549986e+17
19481.0	6.174948819905193e+17
19482.0	6.182984099037183e+17
19483.0	6.189708911924567e+17
19484.0	6.196612832078506e+17
19485.0	6.201973822281044e+17
19486.0	6.207832732991487e+17
19487.0	6.21318167994914e+17
19488.0	6.217706225969833e+17
19489.0	6.221932837994496e+17
19490.0	6.225842416560808e+17
19491.0	6.230726396258985e+17
19492.0	6.234365168888492e+17
19493.0	6.237784008294399e+17
19494.0	6.24100814810863e+17
19495.0	6.244027616373418e+17
19496.0	6.246746892708521e+17
19497.0	6.249574709242537e+17
19498.0	6.251760033901225e+17
19499.0	6.250539108357458e+17
19500.0	6.257206956305065e+17
19501.0	6.259316680032256e+17
19502.0	6.261288778858495e+17
19503.0	6.265590979231745e+17
19504.0	6.267912755085308e+17
19505.0	6.27468079866402e+17
19506.0	6.276048130583209e+17
19507.0	6.28181118746624e+17
19508.0	6.283043707464361e+17
19509.0	6.286236779369811e+17
19510.0	6.288875840339967e+17
19511.0	6.285233645857448e+17
19512.0	6.29177579820373e+17
19513.0	6.293143255252988e+17
19514.0	6.294114169520125e+17
19515.0	6.295411711716012e+17
19516.0	6.29884119346927e+17
19517.0	6.29920144433698e+17
19518.0	6.299542495079081e+17
19519.0	6.299802302152703e+17
19520.0	6.300812598138196e+17
19521.0	6.30243916321041e+17
19522.0	6.302531246358527e+17
19523.0	6.302598444001962e+17
19524.0	6.302615618977791e+17
19525.0	6.302583676556628e+17
19526.0	6.302577323584169e+17
19527.0	6.304228352633514e+17
19528.0	6.304087925238442e+17
19529.0	6.303914767592105e+17
19530.0	6.303710252630015e+17
19531.0	6.30348328346146e+17
19532.0	6.303228463415295e+17
19533.0	6.30293701660945e+17
19534.0	6.30261875352098e+17
19535.0	6.302274791931904e+17
19536.0	6.302694404085076e+17
19537.0	6.303031185025706e+17
19538.0	6.302561951460009e+17
19539.0	6.301954096846166e+17
19540.0	6.301696779091968e+17
19541.0	6.301227558109183e+17
19542.0	6.30072538178082e+17
19543.0	6.300204201061033e+17
19544.0	6.299664461944148e+17
19545.0	6.298900639339859e+17
19546.0	6.298171390383444e+17
19547.0	6.297940051449171e+17
19548.0	6.297331647381504e+17
19549.0	6.296669061294761e+17
19550.0	6.296073690327722e+17
19551.0	6.295422821728255e+17
19552.0	6.29475658310178e+17
19553.0	6.294798396817405e+17
19554.0	6.294349744701439e+17
19555.0	6.293657380454397e+17
19556.0	6.29293754491426e+17
19557.0	6.292204194627583e+17
19558.0	6.291463162473129e+17
19559.0	6.290707892054698e+17
19560.0	6.289935980735146e+17
19561.0	6.289174982994602e+17
19562.0	6.288391600253609e+17
19563.0	6.287598042830164e+17
19564.0	6.286795729797119e+17
19565.0	6.285984115894953e+17
19566.0	6.285155115204608e+17
19567.0	6.284333544723795e+17
19568.0	6.283484781172052e+17
19569.0	6.282648101410131e+17
19570.0	6.281798482220371e+17
19571.0	6.280935262999892e+17
19572.0	6.280056775114751e+17
19573.0	6.279183741921961e+17
19574.0	6.278272995644756e+17
19575.0	6.277423286976511e+17
19576.0	6.276528789433002e+17
19577.0	6.275618324174164e+17
19578.0	6.274701327684948e+17
19579.0	6.273795525793107e+17
19580.0	6.272876646061396e+17
19581.0	6.271955867708074e+17
19582.0	6.271032621006847e+17
19583.0	6.270097265349972e+17
19584.0	6.269153151986346e+17
19585.0	6.268165222825983e+17
19586.0	6.267199570313215e+17
19587.0	6.266288424179027e+17
19588.0	6.26514915823889e+17
19589.0	6.264375869789524e+17
19590.0	6.263384610351786e+17
19591.0	6.262447165931519e+17
19592.0	6.261470878061907e+17
19593.0	6.260482822373376e+17
19594.0	6.259411618802346e+17
19595.0	6.258501601634985e+17
19596.0	6.257177715015679e+17
19597.0	6.25651684090402e+17
19598.0	6.255413670445055e+17
19599.0	6.254539971756031e+17
19600.0	6.253536184631296e+17
19601.0	6.252730936284499e+17
19602.0	6.252146945862314e+17
19603.0	6.250949511217151e+17
19604.0	6.250110743390889e+17
19605.0	6.248993909287594e+17
19606.0	6.248097557162665e+17
19607.0	6.247075247991465e+17
19608.0	6.246045805008212e+17
19609.0	6.244998999703551e+17
19610.0	6.243986489125545e+17
19611.0	6.242949826347008e+17
19612.0	6.2419159758493e+17
19613.0	6.240877169781418e+17
19614.0	6.239817845178368e+17
19615.0	6.238792129533268e+17
19616.0	6.237722922450943e+17
19617.0	6.236701150150656e+17
19618.0	6.235412280377343e+17
19619.0	6.234311406998868e+17
19620.0	6.233268953284608e+17
19621.0	6.232494446389929e+17
19622.0	6.231438665274708e+17
19623.0	6.230381075016362e+17
19624.0	6.229321790259199e+17
19625.0	6.228260578219348e+17
19626.0	6.227198346264575e+17
19627.0	6.226133861968553e+17
19628.0	6.225001440433491e+17
19629.0	6.223962648346623e+17
19630.0	6.222716433246889e+17
19631.0	6.218823027217748e+17
19632.0	6.220789798578857e+17
19633.0	6.219711660425215e+17
19634.0	6.218648486849194e+17
19635.0	6.217556609553748e+17
19636.0	6.216499035373567e+17
19637.0	6.215252962181119e+17
19638.0	6.214340676594346e+17
19639.0	6.21325735567906e+17
19640.0	6.212137113004713e+17
19641.0	6.2108178855581e+17
19642.0	6.210022795116543e+17
19643.0	6.208937218364756e+17
19644.0	6.20782786060834e+17
19645.0	6.206655250650452e+17
19646.0	6.205685626830847e+17
19647.0	6.204599207723007e+17
19648.0	6.203511857479677e+17
19649.0	6.202422533816319e+17
19650.0	6.201334808182783e+17
19651.0	6.200245157363711e+17
19652.0	6.199154726404095e+17
19653.0	6.198062674345984e+17
19654.0	6.196971660378111e+17
19655.0	6.19587704000785e+17
19656.0	6.194782922954068e+17
19657.0	6.193692035514365e+17
19658.0	6.192597568935252e+17
19659.0	6.191501786742783e+17
19660.0	6.190406809856682e+17
19661.0	6.189310571184127e+17
19662.0	6.188213751600467e+17
19663.0	6.187096688208553e+17
19664.0	6.186007311417344e+17
19665.0	6.184920156209151e+17
