# Flux units: erg / (cm m2 s)
# Wavelength units: Angstrom
wave	flux
19000.0	8.1286222853789e+17
19001.0	8.12686155850274e+17
19002.0	8.125652494450688e+17
19003.0	8.124156615502505e+17
19004.0	8.12267394441762e+17
19005.0	8.121173532824914e+17
19006.0	8.119688329778515e+17
19007.0	8.118084851553619e+17
19008.0	8.116529107304447e+17
19009.0	8.115029067606696e+17
19010.0	8.112500802671951e+17
19011.0	8.112141375984979e+17
19012.0	8.11035725747541e+17
19013.0	8.109211602911231e+17
19014.0	8.107539339498836e+17
19015.0	8.106121875860137e+17
19016.0	8.104605035178668e+17
19017.0	8.103070040151379e+17
19018.0	8.101688992858111e+17
19019.0	8.10019904745199e+17
19020.0	8.098608953251156e+17
19021.0	8.097183527425364e+17
19022.0	8.095713402901843e+17
19023.0	8.094095448735743e+17
19024.0	8.092659808381609e+17
19025.0	8.09119541886976e+17
19026.0	8.089626312966144e+17
19027.0	8.088046800994303e+17
19028.0	8.086685029324115e+17
19029.0	8.085135576530943e+17
19030.0	8.083702465342121e+17
19031.0	8.082211685269503e+17
19032.0	8.080698313277439e+17
19033.0	8.078942367907839e+17
19034.0	8.077626581188607e+17
19035.0	8.076054007993683e+17
19036.0	8.062187422263973e+17
19037.0	8.07310118162705e+17
19038.0	8.071565507122514e+17
19039.0	8.070109830578175e+17
19040.0	8.068613944639485e+17
19041.0	8.067078500821672e+17
19042.0	8.065330598729044e+17
19043.0	8.064077846806528e+17
19044.0	8.062525172787881e+17
19045.0	8.061039544718675e+17
19046.0	8.059357159052627e+17
19047.0	8.057978137608191e+17
19048.0	8.055928245627561e+17
19049.0	8.054781075521535e+17
19050.0	8.053327191343103e+17
19051.0	8.049801832693755e+17
19052.0	8.050121077948415e+17
19053.0	8.048875243831293e+17
19054.0	8.047382948216831e+17
19055.0	8.045159887405055e+17
19056.0	8.044275688975018e+17
19057.0	8.042808327099732e+17
19058.0	8.041242544482986e+17
19059.0	8.039783641120765e+17
19060.0	8.03820936503842e+17
19061.0	8.036758704881663e+17
19062.0	8.035225279922175e+17
19063.0	8.033708980305919e+17
19064.0	8.031823688193364e+17
19065.0	8.030141274565288e+17
19066.0	8.028963741892607e+17
19067.0	8.027582654054397e+17
19068.0	8.026099795623935e+17
19069.0	8.024580950065151e+17
19070.0	8.022971687895037e+17
19071.0	8.021508502148434e+17
19072.0	8.020008104536744e+17
19073.0	8.018458769184083e+17
19074.0	8.016961637537108e+17
19075.0	8.015436831872339e+17
19076.0	8.013852650242047e+17
19077.0	8.012356818829311e+17
19078.0	8.010728099282943e+17
19079.0	8.009323077348008e+17
19080.0	8.007759075912361e+17
19081.0	8.006153492146858e+17
19082.0	8.004614976700415e+17
19083.0	8.002867888302761e+17
19084.0	8.000979774821718e+17
19085.0	8.000132033282047e+17
19086.0	7.997498102644735e+17
19087.0	7.996727122460672e+17
19088.0	7.995320611547816e+17
19089.0	7.993320146643626e+17
19090.0	7.992425321245353e+17
19091.0	7.990912416219135e+17
19092.0	7.989217646171475e+17
19093.0	7.987932458298025e+17
19094.0	7.986400160208212e+17
19095.0	7.984867477640531e+17
19096.0	7.983308417094993e+17
19097.0	7.981820448604157e+17
19098.0	7.980283570334377e+17
19099.0	7.978747589645651e+17
19100.0	7.977207237094058e+17
19101.0	7.975695015739391e+17
19102.0	7.973933690475859e+17
19103.0	7.972621845004288e+17
19104.0	7.971111982246569e+17
19105.0	7.969567696835923e+17
19106.0	7.967976421239466e+17
19107.0	7.966456075517951e+17
19108.0	7.964972773889363e+17
19109.0	7.962158011427497e+17
19110.0	7.96185840670037e+17
19111.0	7.96038189285376e+17
19112.0	7.958851725470377e+17
19113.0	7.957319082049535e+17
19114.0	7.955768835134803e+17
19115.0	7.954101249769471e+17
19116.0	7.952648152722088e+17
19117.0	7.951108250359123e+17
19118.0	7.949370280378367e+17
19119.0	7.941829840338935e+17
19120.0	7.946417842683901e+17
19121.0	7.944961293724328e+17
19122.0	7.943508253999101e+17
19123.0	7.941959571559764e+17
19124.0	7.940357962596351e+17
19125.0	7.938878934963538e+17
19126.0	7.937339882646186e+17
19127.0	7.931301197774844e+17
19128.0	7.933479102709757e+17
19129.0	7.932496809295872e+17
19130.0	7.931158229330604e+17
19131.0	7.929643583668221e+17
19132.0	7.928120431957331e+17
19133.0	7.925680861173075e+17
19134.0	7.924678517587965e+17
19135.0	7.92350412784708e+17
19136.0	7.921985371766783e+17
19137.0	7.920012294269609e+17
19138.0	7.918838751778131e+17
19139.0	7.91736256368913e+17
19140.0	7.915829402970794e+17
19141.0	7.914289866910378e+17
19142.0	7.912680288769363e+17
19143.0	7.911049755885567e+17
19144.0	7.909553520421544e+17
19145.0	7.908107984306173e+17
19146.0	7.904945128166744e+17
19147.0	7.90479311959927e+17
19148.0	7.903482856778409e+17
19149.0	7.901932026855424e+17
19150.0	7.900386771162451e+17
19151.0	7.898850824028161e+17
19152.0	7.897287777495722e+17
19153.0	7.895723388786003e+17
19154.0	7.893888584908797e+17
19155.0	7.892689301973672e+17
19156.0	7.89113221554722e+17
19157.0	7.889529861395796e+17
19158.0	7.887197829769896e+17
19159.0	7.886429870882815e+17
19160.0	7.884891535791442e+17
19161.0	7.883310464936617e+17
19162.0	7.879847460208641e+17
19163.0	7.880225181051562e+17
19164.0	7.878764899161428e+17
19165.0	7.877168138813439e+17
19166.0	7.875369965191165e+17
19167.0	7.87393281209139e+17
19168.0	7.872363425169408e+17
19169.0	7.870882289199785e+17
19170.0	7.869465278545917e+17
19171.0	7.867808777327956e+17
19172.0	7.866346503143421e+17
19173.0	7.864813986949802e+17
19174.0	7.863107704935764e+17
19175.0	7.861715629419177e+17
19176.0	7.860143302290089e+17
19177.0	7.858188395915945e+17
19178.0	7.856994351666518e+17
19179.0	7.855345363845117e+17
19180.0	7.853836700658348e+17
19181.0	7.852119474307071e+17
19182.0	7.85072135479842e+17
19183.0	7.849254918466217e+17
19184.0	7.847519603479891e+17
19185.0	7.846102032187392e+17
19186.0	7.844583306865321e+17
19187.0	7.842787922455209e+17
19188.0	7.841449071258281e+17
19189.0	7.839872092646058e+17
19190.0	7.838299414593535e+17
19191.0	7.836668911069866e+17
19192.0	7.835202945897811e+17
19193.0	7.83356954411008e+17
19194.0	7.832004271800319e+17
19195.0	7.830495169609727e+17
19196.0	7.828869925743272e+17
19197.0	7.827299418942121e+17
19198.0	7.825607415736998e+17
19199.0	7.812275093460305e+17
19200.0	7.814183631803736e+17
19201.0	7.820924218070355e+17
19202.0	7.81948025901329e+17
19203.0	7.817912793082536e+17
19204.0	7.816309897865896e+17
19205.0	7.814771853579604e+17
19206.0	7.813176536072191e+17
19207.0	7.8113833774394e+17
19208.0	7.809565476607314e+17
19209.0	7.808456533387945e+17
19210.0	7.806884719362045e+17
19211.0	7.805341966270463e+17
19212.0	7.803756628410367e+17
19213.0	7.801317187649533e+17
19214.0	7.79949498765585e+17
19215.0	7.798256334187177e+17
19216.0	7.796689094748841e+17
19217.0	7.795110020382719e+17
19218.0	7.79134840497766e+17
19219.0	7.791478168354815e+17
19220.0	7.790288312816982e+17
19221.0	7.787881748409002e+17
19222.0	7.787163626242045e+17
19223.0	7.785517276637866e+17
19224.0	7.783808208207871e+17
19225.0	7.781967988086099e+17
19226.0	7.780707125777748e+17
19227.0	7.779101694405289e+17
19228.0	7.777584058204157e+17
19229.0	7.775986308000425e+17
19230.0	7.774314480795647e+17
19231.0	7.772705643648339e+17
19232.0	7.771104276556458e+17
19233.0	7.769347997040637e+17
19234.0	7.767864414393683e+17
19235.0	7.766213007856982e+17
19236.0	7.764709953852756e+17
19237.0	7.763040134321492e+17
19238.0	7.76121476203588e+17
19239.0	7.759857163698175e+17
19240.0	7.757864379962708e+17
19241.0	7.756419774982826e+17
19242.0	7.754918483984383e+17
19243.0	7.752827394151763e+17
19244.0	7.751721029031254e+17
19245.0	7.750071240097791e+17
19246.0	7.748402224474793e+17
19247.0	7.746787424425299e+17
19248.0	7.74517692773171e+17
19249.0	7.743527184935594e+17
19250.0	7.741829452311209e+17
19251.0	7.739886645106003e+17
19252.0	7.737732692443136e+17
19253.0	7.736874681849172e+17
19254.0	7.735224660830889e+17
19255.0	7.733074762661884e+17
19256.0	7.731846154551296e+17
19257.0	7.730288841632425e+17
19258.0	7.728626931160403e+17
19259.0	7.726748025574739e+17
19260.0	7.725048581674323e+17
19261.0	7.72357012726306e+17
19262.0	7.721763599985321e+17
19263.0	7.72010246266334e+17
19264.0	7.717197533850278e+17
19265.0	7.71639288738611e+17
19266.0	7.714835155036842e+17
19267.0	7.712930817987926e+17
19268.0	7.7108109929786e+17
19269.0	7.709117892263933e+17
19270.0	7.707415455028564e+17
19271.0	7.704845275015853e+17
19272.0	7.703875937807016e+17
19273.0	7.692373222664863e+17
19274.0	7.694981902193997e+17
19275.0	7.698814953586687e+17
19276.0	7.697037775252136e+17
19277.0	7.695312207828308e+17
19278.0	7.693581117904212e+17
19279.0	7.691752128730451e+17
19280.0	7.689861116985343e+17
19281.0	7.68831145587507e+17
19282.0	7.686591510216703e+17
19283.0	7.684664399495165e+17
19284.0	7.68269989515537e+17
19285.0	7.680726750549331e+17
19286.0	7.679398696889002e+17
19287.0	7.677719277993983e+17
19288.0	7.672602585027921e+17
19289.0	7.666108457462427e+17
19290.0	7.672327858115923e+17
19291.0	7.669773064208384e+17
19292.0	7.668515855138816e+17
19293.0	7.665575929053183e+17
19294.0	7.66349876291174e+17
19295.0	7.661694297833471e+17
19296.0	7.6598297493504e+17
19297.0	7.657928710422528e+17
19298.0	7.656046888397481e+17
19299.0	7.654268995633148e+17
19300.0	7.65238509183522e+17
19301.0	7.650482208811689e+17
19302.0	7.648565898422953e+17
19303.0	7.646479748082345e+17
19304.0	7.644664310704809e+17
19305.0	7.64281735732702e+17
19306.0	7.64090982142225e+17
19307.0	7.638846804066301e+17
19308.0	7.636957544142164e+17
19309.0	7.633448242686633e+17
19310.0	7.630881479633577e+17
19311.0	7.629401822855164e+17
19312.0	7.627499027912019e+17
19313.0	7.62546229486114e+17
19314.0	7.61830465077248e+17
19315.0	7.616525144599218e+17
19316.0	7.61944388525534e+17
19317.0	7.617409464664063e+17
19318.0	7.615337169507667e+17
19319.0	7.613309121462271e+17
19320.0	7.610056048639999e+17
19321.0	7.607113874407421e+17
19322.0	7.604707491752617e+17
19323.0	7.602742271584938e+17
19324.0	7.600790745819817e+17
19325.0	7.598356800995327e+17
19326.0	7.596462526081705e+17
19327.0	7.594259873355091e+17
19328.0	7.592099785823572e+17
19329.0	7.587516085436415e+17
19330.0	7.585083698096809e+17
19331.0	7.582805694698836e+17
19332.0	7.580634039276883e+17
19333.0	7.578300500497747e+17
19334.0	7.57598590738978e+17
19335.0	7.572871909299539e+17
19336.0	7.568378517869906e+17
19337.0	7.565976300158975e+17
19338.0	7.563025234001919e+17
19339.0	7.561135624552447e+17
19340.0	7.558134070160041e+17
19341.0	7.554275060219901e+17
19342.0	7.550462204400978e+17
19343.0	7.548931252682751e+17
19344.0	7.546338436011348e+17
19345.0	7.539037630540448e+17
19346.0	7.539243351364947e+17
19347.0	7.538350540630696e+17
19348.0	7.535843245817855e+17
19349.0	7.533043633182036e+17
19350.0	7.530329788470612e+17
19351.0	7.527537271199062e+17
19352.0	7.524645884395517e+17
19353.0	7.52202307984862e+17
19354.0	7.51915717763618e+17
19355.0	7.515994184482815e+17
19356.0	7.513304188583935e+17
19357.0	7.510231080763391e+17
19358.0	7.506405612672342e+17
19359.0	7.502941044867071e+17
19360.0	7.500210513816233e+17
19361.0	7.497071972057087e+17
19362.0	7.493978313545044e+17
19363.0	7.490726357805738e+17
19364.0	7.487422686298111e+17
19365.0	7.484062226710527e+17
19366.0	7.48066644688896e+17
19367.0	7.47720806568209e+17
19368.0	7.472531356603732e+17
19369.0	7.468653318504447e+17
19370.0	7.464232773746688e+17
19371.0	7.461441516164435e+17
19372.0	7.457806331062953e+17
19373.0	7.453903666806781e+17
19374.0	7.449743498848938e+17
19375.0	7.444455214110036e+17
19376.0	7.440402318273194e+17
19377.0	7.436237447102463e+17
19378.0	7.432032788763987e+17
19379.0	7.427367755229868e+17
19380.0	7.42122304953822e+17
19381.0	7.416713371626153e+17
19382.0	7.411933850370047e+17
19383.0	7.406434084629161e+17
19384.0	7.399954932127058e+17
19385.0	7.39491601973248e+17
19386.0	7.389465792916138e+17
19387.0	7.381367232222547e+17
19388.0	7.376032990494719e+17
19389.0	7.368772749535913e+17
19390.0	7.360966879958356e+17
19391.0	7.345565603987446e+17
19392.0	7.344419611082751e+17
19393.0	7.337331514146816e+17
19394.0	7.326593603775145e+17
19395.0	7.31718711648802e+17
19396.0	7.306981220024317e+17
19397.0	7.296711349239809e+17
19398.0	7.289102846831272e+17
19399.0	7.280210212115795e+17
19400.0	7.273802815766527e+17
19401.0	7.265919084527615e+17
19402.0	7.257485228376063e+17
19403.0	7.248940536343212e+17
19404.0	7.240387768877053e+17
19405.0	7.231556428322131e+17
19406.0	7.222557161816063e+17
19407.0	7.213351943798781e+17
19408.0	7.20245598506189e+17
19409.0	7.193428148355072e+17
19410.0	7.183533632826025e+17
19411.0	7.173130721514836e+17
19412.0	7.16221462732254e+17
19413.0	7.150125165401428e+17
19414.0	7.138552831803391e+17
19415.0	7.126197964111871e+17
19416.0	7.112551755502931e+17
19417.0	7.099431835577e+17
19418.0	7.084706594728617e+17
19419.0	7.069343542848168e+17
19420.0	7.052996310117032e+17
19421.0	7.03489786179311e+17
19422.0	7.014724719869953e+17
19423.0	6.992832318057126e+17
19424.0	6.9687086954141e+17
19425.0	6.941745416415907e+17
19426.0	6.91311519517901e+17
19427.0	6.890014175308458e+17
19428.0	6.867921277375828e+17
19429.0	6.844113311760381e+17
19430.0	6.819180886796972e+17
19431.0	6.791673883394049e+17
19432.0	6.764966203184467e+17
19433.0	6.734763934438742e+17
19434.0	6.702150872028499e+17
19435.0	6.666799411451219e+17
19436.0	6.627894446347603e+17
19437.0	6.584732784874836e+17
19438.0	6.529096269256017e+17
19439.0	6.481092428518747e+17
19440.0	6.429471911444479e+17
19441.0	6.375116221622952e+17
19442.0	6.313944434780845e+17
19443.0	6.246366672060415e+17
19444.0	6.169870902580563e+17
19445.0	6.084851976022703e+17
19446.0	5.99121810563618e+17
19447.0	5.887406504935418e+17
19448.0	5.770621931050331e+17
19449.0	5.6364576063269523e+17
19450.0	5.447938509635542e+17
19451.0	5.36018495978429e+17
19452.0	5.5492979160951584e+17
19453.0	5.7047796909342765e+17
19454.0	5.826296957370362e+17
19455.0	5.934150843017898e+17
19456.0	6.029797043295578e+17
19457.0	6.116848647711397e+17
19458.0	6.192115931414533e+17
19459.0	6.264382561801559e+17
19460.0	6.326260291250856e+17
19461.0	6.381476124469929e+17
19462.0	6.430738419985066e+17
19463.0	6.482201143148541e+17
19464.0	6.531697645802835e+17
19465.0	6.575250102463145e+17
19466.0	6.613603480240124e+17
19467.0	6.647720287316649e+17
19468.0	6.678867436983635e+17
19469.0	6.706688472121343e+17
19470.0	6.733870860861439e+17
19471.0	6.758669045727232e+17
19472.0	6.781335050562217e+17
19473.0	6.802963529990143e+17
19474.0	6.823339021915478e+17
19475.0	6.84140055057749e+17
19476.0	6.86619654182229e+17
19477.0	6.891061382567254e+17
19478.0	6.914640770498557e+17
19479.0	6.934628889788413e+17
19480.0	6.952472698421244e+17
19481.0	6.968582913829548e+17
19482.0	6.982819214174889e+17
19483.0	6.996666549447337e+17
19484.0	7.008190578644308e+17
19485.0	7.019801927658154e+17
19486.0	7.029962546610175e+17
19487.0	7.040510673813501e+17
19488.0	7.049463320630611e+17
19489.0	7.058320182127274e+17
19490.0	7.064695592714235e+17
19491.0	7.074971980049065e+17
19492.0	7.082434832454995e+17
19493.0	7.089787582982825e+17
19494.0	7.096895190422867e+17
19495.0	7.103409257709565e+17
19496.0	7.109046277854547e+17
19497.0	7.115773754124969e+17
19498.0	7.120859919548416e+17
19499.0	7.113489078987424e+17
19500.0	7.133089692123135e+17
19501.0	7.138459761595732e+17
19502.0	7.143463662736723e+17
19503.0	7.148245885124607e+17
19504.0	7.152783533451945e+17
19505.0	7.159256727246164e+17
19506.0	7.165046101289644e+17
19507.0	7.174434104279039e+17
19508.0	7.179810207956995e+17
19509.0	7.186722191660372e+17
19510.0	7.191080720837294e+17
19511.0	7.18553352870297e+17
19512.0	7.198218882383866e+17
19513.0	7.201991029686264e+17
19514.0	7.206284355611302e+17
19515.0	7.211730892838228e+17
19516.0	7.217195645927423e+17
19517.0	7.219243540021245e+17
19518.0	7.221890081532584e+17
19519.0	7.22593359471138e+17
19520.0	7.227658347042132e+17
19521.0	7.229419654130345e+17
19522.0	7.231371634278399e+17
19523.0	7.234523178379945e+17
19524.0	7.235925904632489e+17
19525.0	7.237169750649514e+17
19526.0	7.238471690573139e+17
19527.0	7.239774360305664e+17
19528.0	7.242240056011433e+17
19529.0	7.24324761870882e+17
19530.0	7.244226889427625e+17
19531.0	7.245128829763583e+17
19532.0	7.2459453740701e+17
19533.0	7.246709386117119e+17
19534.0	7.24747636773137e+17
19535.0	7.24906930287411e+17
19536.0	7.249600118609235e+17
19537.0	7.250218469468841e+17
19538.0	7.25047901683712e+17
19539.0	7.249818332867247e+17
19540.0	7.2514025830045e+17
19541.0	7.251795020262058e+17
19542.0	7.252061085936298e+17
19543.0	7.252291873319593e+17
19544.0	7.252491455081129e+17
19545.0	7.25194422843255e+17
19546.0	7.251346208762538e+17
19547.0	7.253548449049258e+17
19548.0	7.253587456076458e+17
19549.0	7.2533020798266e+17
19550.0	7.253541710200832e+17
19551.0	7.253474193091241e+17
19552.0	7.253365320144212e+17
19553.0	7.25317763203072e+17
19554.0	7.252970617962496e+17
19555.0	7.252843266310143e+17
19556.0	7.252654765899775e+17
19557.0	7.25240172773376e+17
19558.0	7.252122340950015e+17
19559.0	7.251797106229247e+17
19560.0	7.251423133695999e+17
19561.0	7.251143155515391e+17
19562.0	7.252329129923923e+17
19563.0	7.251941165192531e+17
19564.0	7.251653406578003e+17
19565.0	7.251490729099263e+17
19566.0	7.250943008920918e+17
19567.0	7.251444284172972e+17
19568.0	7.252582788846931e+17
19569.0	7.252074756571133e+17
19570.0	7.251567894506153e+17
19571.0	7.25098603548945e+17
19572.0	7.250295992789674e+17
19573.0	7.249726636993194e+17
19574.0	7.249471043097938e+17
19575.0	7.250696855005864e+17
19576.0	7.250029534248957e+17
19577.0	7.249266858786815e+17
19578.0	7.248540982749866e+17
19579.0	7.247857037170003e+17
19580.0	7.247136637495977e+17
19581.0	7.246432840275286e+17
19582.0	7.24572125003776e+17
19583.0	7.245268096035497e+17
19584.0	7.245955429214888e+17
19585.0	7.244864889203369e+17
19586.0	7.243969778592426e+17
19587.0	7.243455590476457e+17
19588.0	7.241514416253612e+17
19589.0	7.241793091403775e+17
19590.0	7.240819580862463e+17
19591.0	7.240134533578751e+17
19592.0	7.239279762385577e+17
19593.0	7.238339652485119e+17
19594.0	7.236847114999122e+17
19595.0	7.236504204083199e+17
19596.0	7.235131051868157e+17
19597.0	7.236117875130368e+17
19598.0	7.234567394732713e+17
19599.0	7.234304143436457e+17
19600.0	7.233374706641577e+17
19601.0	7.232240617171626e+17
19602.0	7.231333931679743e+17
19603.0	7.22931939628373e+17
19604.0	7.229348535511722e+17
19605.0	7.227690823538004e+17
19606.0	7.227500526567424e+17
19607.0	7.226524779063977e+17
19608.0	7.225473411055615e+17
19609.0	7.224356876146004e+17
19610.0	7.223489942869331e+17
19611.0	7.222438075738794e+17
19612.0	7.221433562300415e+17
19613.0	7.220362187461971e+17
19614.0	7.2198266042013e+17
19615.0	7.219390459499859e+17
19616.0	7.218244546286931e+17
19617.0	7.217266735185919e+17
19618.0	7.21481625781316e+17
19619.0	7.213405019919697e+17
19620.0	7.212381630715219e+17
19621.0	7.212956254557526e+17
19622.0	7.211884509222227e+17
19623.0	7.210800617182548e+17
19624.0	7.209676015228244e+17
19625.0	7.208604167831552e+17
19626.0	7.207601501285033e+17
19627.0	7.206597064742228e+17
19628.0	7.205190439185066e+17
19629.0	7.204111337040553e+17
19630.0	7.20252051722513e+17
19631.0	7.189532512354301e+17
19632.0	7.200943872759123e+17
19633.0	7.199727043652266e+17
19634.0	7.198727694800212e+17
19635.0	7.197470695445844e+17
19636.0	7.196417774146899e+17
19637.0	7.194138580964694e+17
19638.0	7.19412973797376e+17
19639.0	7.192959567702697e+17
19640.0	7.191630844351828e+17
19641.0	7.189256961960622e+17
19642.0	7.189499662565375e+17
19643.0	7.188310420794025e+17
19644.0	7.187034032570365e+17
19645.0	7.185341099627858e+17
19646.0	7.184933227331581e+17
19647.0	7.184492716359679e+17
19648.0	7.183301898928127e+17
19649.0	7.18211441037585e+17
19650.0	7.180953337550164e+17
19651.0	7.179749629624317e+17
19652.0	7.178553882487466e+17
19653.0	7.177386957209599e+17
19654.0	7.176169977107795e+17
19655.0	7.174962143384916e+17
19656.0	7.173792263918932e+17
19657.0	7.172590797149526e+17
19658.0	7.171406753518932e+17
19659.0	7.170199435695444e+17
19660.0	7.169007729071444e+17
19661.0	7.167793970195114e+17
19662.0	7.166593937877674e+17
19663.0	7.165253346044586e+17
19664.0	7.16410476106001e+17
19665.0	7.16296078701363e+17
19666.0	7.161705554859348e+17
