# Flux units: erg / (cm m2 s)
# Wavelength units: Angstrom
wave	flux
19000.0	8.854076689918632e+17
19001.0	8.851830389866493e+17
19002.0	8.851069460632914e+17
19003.0	8.849520232934056e+17
19004.0	8.84800170754048e+17
19005.0	8.846437534138367e+17
19006.0	8.844908341231616e+17
19007.0	8.843225726276948e+17
19008.0	8.841379659295401e+17
19009.0	8.839732695924735e+17
19010.0	8.835609039383203e+17
19011.0	8.83701111132433e+17
19012.0	8.834851933956777e+17
19013.0	8.834067397782186e+17
19014.0	8.832011263279103e+17
19015.0	8.830695117247828e+17
19016.0	8.82911752766532e+17
19017.0	8.827348312915965e+17
19018.0	8.826215831262548e+17
19019.0	8.824641299327656e+17
19020.0	8.822868564159145e+17
19021.0	8.821495881706152e+17
19022.0	8.820012220765523e+17
19023.0	8.818108865183743e+17
19024.0	8.816748512586412e+17
19025.0	8.815259376680959e+17
19026.0	8.813552266990931e+17
19027.0	8.811945061427881e+17
19028.0	8.810550356082688e+17
19029.0	8.808837582684157e+17
19030.0	8.807469971144703e+17
19031.0	8.805931433328639e+17
19032.0	8.805605038183766e+17
19033.0	8.803592037903017e+17
19034.0	8.80256545263889e+17
19035.0	8.800751820210173e+17
19036.0	8.779171766818126e+17
19037.0	8.797767698743293e+17
19038.0	8.796119254783318e+17
19039.0	8.794677984275113e+17
19040.0	8.793109781544959e+17
19041.0	8.791451736823124e+17
19042.0	8.789196490320552e+17
19043.0	8.788263481376767e+17
19044.0	8.786588779675645e+17
19045.0	8.785060832477181e+17
19046.0	8.782986259813714e+17
19047.0	8.781708449721001e+17
19048.0	8.778731434803197e+17
19049.0	8.778005484666876e+17
19050.0	8.776568945333588e+17
19051.0	8.771590752479909e+17
19052.0	8.77306354597888e+17
19053.0	8.77202834002193e+17
19054.0	8.770395097617747e+17
19055.0	8.766848346619907e+17
19056.0	8.767003351318527e+17
19057.0	8.765500217622527e+17
19058.0	8.763768834097152e+17
19059.0	8.762262361735165e+17
19060.0	8.760508760981501e+17
19061.0	8.759046179214678e+17
19062.0	8.757361495070036e+17
19063.0	8.755751498896724e+17
19064.0	8.753122428059647e+17
19065.0	8.751004707192831e+17
19066.0	8.750310289833981e+17
19067.0	8.749074587757224e+17
19068.0	8.747526179345748e+17
19069.0	8.745899777851391e+17
19070.0	8.744028602367997e+17
19071.0	8.742557015430484e+17
19072.0	8.740951164627624e+17
19073.0	8.739238858194944e+17
19074.0	8.737666905757011e+17
19075.0	8.736013084699305e+17
19076.0	8.734204890884777e+17
19077.0	8.732607298666493e+17
19078.0	8.730669640668498e+17
19079.0	8.729348531377494e+17
19080.0	8.727580553947817e+17
19081.0	8.725681504518144e+17
19082.0	8.724036048300713e+17
19083.0	8.72165584229717e+17
19084.0	8.718997147090945e+17
19085.0	8.719262520705024e+17
19086.0	8.71445191266577e+17
19087.0	8.715499900065107e+17
19088.0	8.713608825405437e+17
19089.0	8.710909081944067e+17
19090.0	8.710713161809917e+17
19091.0	8.709090609288532e+17
19092.0	8.707085410413225e+17
19093.0	8.705963536154624e+17
19094.0	8.704289739025066e+17
19095.0	8.702644102452562e+17
19096.0	8.700874419339264e+17
19097.0	8.699296295682047e+17
19098.0	8.697590402340179e+17
19099.0	8.695893765827242e+17
19100.0	8.694217629674152e+17
19101.0	8.69256286769425e+17
19102.0	8.69028747035716e+17
19103.0	8.689154221146111e+17
19104.0	8.687527521856169e+17
19105.0	8.685787706381651e+17
19106.0	8.684034483115347e+17
19107.0	8.682278438480553e+17
19108.0	8.680708297981952e+17
19109.0	8.67697325069653e+17
19110.0	8.677151772857683e+17
19111.0	8.675656889357651e+17
19112.0	8.673983610923689e+17
19113.0	8.672269931555497e+17
19114.0	8.670545422494378e+17
19115.0	8.668515682746365e+17
19116.0	8.666993140607658e+17
19117.0	8.665275567527252e+17
19118.0	8.663106132290217e+17
19119.0	8.648184089105728e+17
19120.0	8.660038465880061e+17
19121.0	8.658524997419007e+17
19122.0	8.656964411544915e+17
19123.0	8.655039168686761e+17
19124.0	8.651852957264553e+17
19125.0	8.650241562989907e+17
19126.0	8.648490959765503e+17
19127.0	8.63532379240311e+17
19128.0	8.643713953693693e+17
19129.0	8.642707070473553e+17
19130.0	8.641562995763882e+17
19131.0	8.63994054250769e+17
19132.0	8.638203815439016e+17
19133.0	8.634389066590893e+17
19134.0	8.634167949874518e+17
19135.0	8.633070718550016e+17
19136.0	8.631391812758186e+17
19137.0	8.628535156189862e+17
19138.0	8.62780709212433e+17
19139.0	8.626202250750634e+17
19140.0	8.624486839134889e+17
19141.0	8.622768852216493e+17
19142.0	8.620832631466664e+17
19143.0	8.618887988554412e+17
19144.0	8.617215404976809e+17
19145.0	8.615786222452735e+17
19146.0	8.609646089950556e+17
19147.0	8.611707293969064e+17
19148.0	8.610574145421311e+17
19149.0	8.608807018037247e+17
19150.0	8.607051718590461e+17
19151.0	8.605321787692372e+17
19152.0	8.603545796345853e+17
19153.0	8.601706877856426e+17
19154.0	8.599202073062056e+17
19155.0	8.59835760727381e+17
19156.0	8.596562410209279e+17
19157.0	8.594635112142164e+17
19158.0	8.591849532249427e+17
19159.0	8.591110999201107e+17
19160.0	8.58939701924113e+17
19161.0	8.587583867759272e+17
19162.0	8.582770148944557e+17
19163.0	8.583969231951188e+17
19164.0	8.582522893325654e+17
19165.0	8.580675734426962e+17
19166.0	8.578281547410088e+17
19167.0	8.576919989649407e+17
19168.0	8.574963813799251e+17
19169.0	8.573370028610898e+17
19170.0	8.571912410103807e+17
19171.0	8.56999979349879e+17
19172.0	8.568308377496233e+17
19173.0	8.5666010497024e+17
19174.0	8.564410387092819e+17
19175.0	8.563031652259155e+17
19176.0	8.561213098513747e+17
19177.0	8.558326289093972e+17
19178.0	8.557583249965056e+17
19179.0	8.555217682082476e+17
19180.0	8.552007968576854e+17
19181.0	8.54971368568695e+17
19182.0	8.548314456085842e+17
19183.0	8.546757520654333e+17
19184.0	8.54454336574805e+17
19185.0	8.54302020145425e+17
19186.0	8.541350047776765e+17
19187.0	8.538839201786534e+17
19188.0	8.537702720165203e+17
19189.0	8.535862711156733e+17
19190.0	8.534037817021778e+17
19191.0	8.531996498198527e+17
19192.0	8.5304310525242e+17
19193.0	8.528472348906836e+17
19194.0	8.526574778668374e+17
19195.0	8.524863909483859e+17
19196.0	8.52285239398673e+17
19197.0	8.52094755222323e+17
19198.0	8.518432778966353e+17
19199.0	8.498104038850555e+17
19200.0	8.500847492552026e+17
19201.0	8.51303556256017e+17
19202.0	8.511815309503148e+17
19203.0	8.510086937488041e+17
19204.0	8.508141011118761e+17
19205.0	8.506398602166272e+17
19206.0	8.504519363832489e+17
19207.0	8.501441858983249e+17
19208.0	8.497277057717587e+17
19209.0	8.496588462052691e+17
19210.0	8.494739201807698e+17
19211.0	8.492968937084246e+17
19212.0	8.491075762476374e+17
19213.0	8.488492750689619e+17
19214.0	8.486437232749226e+17
19215.0	8.485358605959165e+17
19216.0	8.483474106570067e+17
19217.0	8.481543186022399e+17
19218.0	8.474014154489847e+17
19219.0	8.476458829742076e+17
19220.0	8.475731681432915e+17
19221.0	8.471742224444073e+17
19222.0	8.472008752889855e+17
19223.0	8.470006027255807e+17
19224.0	8.467800964202493e+17
19225.0	8.46526723548774e+17
19226.0	8.464161611360937e+17
19227.0	8.460806363895123e+17
19228.0	8.459097296863231e+17
19229.0	8.457152424662356e+17
19230.0	8.455085601674582e+17
19231.0	8.453113624483155e+17
19232.0	8.451164681011199e+17
19233.0	8.448771432120319e+17
19234.0	8.447183829336064e+17
19235.0	8.445088868160854e+17
19236.0	8.443423398122834e+17
19237.0	8.441303592686935e+17
19238.0	8.438775896779432e+17
19239.0	8.437467185851049e+17
19240.0	8.434606603414185e+17
19241.0	8.432967838509736e+17
19242.0	8.431292186099711e+17
19243.0	8.427994231428434e+17
19244.0	8.427427838208682e+17
19245.0	8.425361704484863e+17
19246.0	8.423246308660564e+17
19247.0	8.421242830847999e+17
19248.0	8.419301315488425e+17
19249.0	8.417237636830547e+17
19250.0	8.415046209459539e+17
19251.0	8.412176296094373e+17
19252.0	8.408720878862335e+17
19253.0	8.408829890221396e+17
19254.0	8.40677931037491e+17
19255.0	8.40332784976964e+17
19256.0	8.40244032246033e+17
19257.0	8.400609854095357e+17
19258.0	8.398503492801876e+17
19259.0	8.395519204960936e+17
19260.0	8.393557881301672e+17
19261.0	8.391753118427817e+17
19262.0	8.389254707150845e+17
19263.0	8.387157502022996e+17
19264.0	8.381897590352547e+17
19265.0	8.381989168786089e+17
19266.0	8.380260086535508e+17
19267.0	8.378895036317695e+17
19268.0	8.37664228962031e+17
19269.0	8.37443518673715e+17
19270.0	8.372223679834794e+17
19271.0	8.367799799207258e+17
19272.0	8.367451767046144e+17
19273.0	8.342813970967188e+17
19274.0	8.349856478614853e+17
19275.0	8.361024366662995e+17
19276.0	8.358682581882195e+17
19277.0	8.356429597507581e+17
19278.0	8.354194759090175e+17
19279.0	8.351657930784767e+17
19280.0	8.348980221400404e+17
19281.0	8.347230554903891e+17
19282.0	8.345013957514579e+17
19283.0	8.342481180906836e+17
19284.0	8.339580477156009e+17
19285.0	8.336752343252991e+17
19286.0	8.335323213856764e+17
19287.0	8.333299011988136e+17
19288.0	8.325519906264398e+17
19289.0	8.316039211952787e+17
19290.0	8.326158444309161e+17
19291.0	8.32174641818283e+17
19292.0	8.32132125836356e+17
19293.0	8.318850554658815e+17
19294.0	8.31635172814575e+17
19295.0	8.313989127034196e+17
19296.0	8.31146073067793e+17
19297.0	8.30877117657907e+17
19298.0	8.306252593496064e+17
19299.0	8.30394528589414e+17
19300.0	8.300899260694525e+17
19301.0	8.298298356006911e+17
19302.0	8.295634623441576e+17
19303.0	8.292580107572562e+17
19304.0	8.290209608586579e+17
19305.0	8.287745415839743e+17
19306.0	8.285163006634666e+17
19307.0	8.282173877168808e+17
19308.0	8.279614261209769e+17
19309.0	8.276499264875178e+17
19310.0	8.273335950158505e+17
19311.0	8.271372083352914e+17
19312.0	8.268814399569919e+17
19313.0	8.265989491086676e+17
19314.0	8.256555132649472e+17
19315.0	8.254039136053935e+17
19316.0	8.257649158127615e+17
19317.0	8.254783633402536e+17
19318.0	8.25186901434914e+17
19319.0	8.24903629886805e+17
19320.0	8.245280138854399e+17
19321.0	8.242352827837096e+17
19322.0	8.238686491639808e+17
19323.0	8.236071113807187e+17
19324.0	8.23327902994705e+17
19325.0	8.229958258262016e+17
19326.0	8.227172470052179e+17
19327.0	8.224036092553896e+17
19328.0	8.221025340052819e+17
19329.0	8.21786990223906e+17
19330.0	8.214424096953684e+17
19331.0	8.211151647845034e+17
19332.0	8.207727574646783e+17
19333.0	8.203538070328659e+17
19334.0	8.200257555573417e+17
19335.0	8.196948488792745e+17
19336.0	8.193546451069609e+17
19337.0	8.190095310629545e+17
19338.0	8.185234635183441e+17
19339.0	8.183121660870653e+17
19340.0	8.179307422329514e+17
19341.0	8.175049657111892e+17
19342.0	8.168128651460603e+17
19343.0	8.166918282980009e+17
19344.0	8.163084402513236e+17
19345.0	8.148003319709673e+17
19346.0	8.150683586221393e+17
19347.0	8.151327929182888e+17
19348.0	8.145636830478333e+17
19349.0	8.141383416152059e+17
19350.0	8.137428700583254e+17
19351.0	8.133277863553704e+17
19352.0	8.128904998245718e+17
19353.0	8.123019759190016e+17
19354.0	8.118153371101868e+17
19355.0	8.113199660400641e+17
19356.0	8.10947779441459e+17
19357.0	8.104136482488314e+17
19358.0	8.096775182570836e+17
19359.0	8.091388327493631e+17
19360.0	8.087526018034345e+17
19361.0	8.082121432236035e+17
19362.0	8.074010878629204e+17
19363.0	8.069153821469354e+17
19364.0	8.064220082645673e+17
19365.0	8.057242077801126e+17
19366.0	8.049201173408425e+17
19367.0	8.043964952565075e+17
19368.0	8.036915162207569e+17
19369.0	8.026893007017298e+17
19370.0	8.019906003992577e+17
19371.0	8.013987490125137e+17
19372.0	8.0075455229242e+17
19373.0	8.001597511914836e+17
19374.0	7.995890404950012e+17
19375.0	7.989922227727017e+17
19376.0	7.983822809333757e+17
19377.0	7.977489555696298e+17
19378.0	7.970885823976786e+17
19379.0	7.964450689297066e+17
19380.0	7.957910572586322e+17
19381.0	7.951195574370303e+17
19382.0	7.943956469907455e+17
19383.0	7.936879190081535e+17
19384.0	7.93045349118771e+17
19385.0	7.923245892938412e+17
19386.0	7.915281087201276e+17
19387.0	7.90761508787541e+17
19388.0	7.899916353404925e+17
19389.0	7.892099993873064e+17
19390.0	7.884104457868628e+17
19391.0	7.863170187482433e+17
19392.0	7.8663117715101e+17
19393.0	7.858041619043667e+17
19394.0	7.8493256791709e+17
19395.0	7.840155293450239e+17
19396.0	7.829828814940841e+17
19397.0	7.820562202099711e+17
19398.0	7.810941025168042e+17
19399.0	7.796966605280594e+17
19400.0	7.788724919555411e+17
19401.0	7.778524524620458e+17
19402.0	7.765693613211644e+17
19403.0	7.754045343137791e+17
19404.0	7.741223467657897e+17
19405.0	7.727778679313748e+17
19406.0	7.714140912440658e+17
19407.0	7.699537126053204e+17
19408.0	7.681335251785048e+17
19409.0	7.668638281280169e+17
19410.0	7.650825167263059e+17
19411.0	7.634024168161272e+17
19412.0	7.615727989161983e+17
19413.0	7.595466968880472e+17
19414.0	7.577633615948457e+17
19415.0	7.560680630648832e+17
19416.0	7.543793217699839e+17
19417.0	7.526853308841983e+17
19418.0	7.509262476159658e+17
19419.0	7.490782263683753e+17
19420.0	7.471120079563432e+17
19421.0	7.450889202346668e+17
19422.0	7.429463710455126e+17
19423.0	7.406713346981884e+17
19424.0	7.38382891258129e+17
19425.0	7.359119063952042e+17
19426.0	7.333956888996518e+17
19427.0	7.307447675562666e+17
19428.0	7.279139874668541e+17
19429.0	7.249241367205203e+17
19430.0	7.21711791009519e+17
19431.0	7.182276103591255e+17
19432.0	7.148750352242002e+17
19433.0	7.112546397978625e+17
19434.0	7.074285914947583e+17
19435.0	7.033298752634877e+17
19436.0	6.990878669275136e+17
19437.0	6.948210550155945e+17
19438.0	6.896478737225044e+17
19439.0	6.852738898635436e+17
19440.0	6.800917136059049e+17
19441.0	6.745233877019304e+17
19442.0	6.686349600664236e+17
19443.0	6.623600818432681e+17
19444.0	6.55713124185975e+17
19445.0	6.486571512845655e+17
19446.0	6.411655770537983e+17
19447.0	6.331745046276774e+17
19448.0	6.244980280524803e+17
19449.0	6.144556853974356e+17
19450.0	5.997852925536916e+17
19451.0	5.900337566537056e+17
19452.0	6.079918238597116e+17
19453.0	6.194436258835118e+17
19454.0	6.2839505069015e+17
19455.0	6.364524909865641e+17
19456.0	6.439395382351191e+17
19457.0	6.509625088147452e+17
19458.0	6.573613310279683e+17
19459.0	6.637613775585283e+17
19460.0	6.695872259686396e+17
19461.0	6.750621778575359e+17
19462.0	6.801721586089985e+17
19463.0	6.849579950888274e+17
19464.0	6.894740897267711e+17
19465.0	6.9363263588707e+17
19466.0	6.97593977197909e+17
19467.0	7.015044191617024e+17
19468.0	7.051940920470186e+17
19469.0	7.085073301329233e+17
19470.0	7.118909200487766e+17
19471.0	7.150235999884628e+17
19472.0	7.180155086001491e+17
19473.0	7.20846447653683e+17
19474.0	7.234896383355562e+17
19475.0	7.256899560931324e+17
19476.0	7.281988260069375e+17
19477.0	7.303940278321152e+17
19478.0	7.324885128140116e+17
19479.0	7.344767114761556e+17
19480.0	7.363955376084308e+17
19481.0	7.381675856101373e+17
19482.0	7.398899315288745e+17
19483.0	7.414986592048471e+17
19484.0	7.430082454181203e+17
19485.0	7.444547834129066e+17
19486.0	7.458470743769087e+17
19487.0	7.471693015897427e+17
19488.0	7.487163124591272e+17
19489.0	7.502883662594052e+17
19490.0	7.51339670374536e+17
19491.0	7.533683711934463e+17
19492.0	7.548232874502826e+17
19493.0	7.560374927403688e+17
19494.0	7.574564371081894e+17
19495.0	7.584803375983274e+17
19496.0	7.595729865058982e+17
19497.0	7.606298656899073e+17
19498.0	7.616382478144854e+17
19499.0	7.607433161605108e+17
19500.0	7.635559644135421e+17
19501.0	7.643832078303233e+17
19502.0	7.651098791073106e+17
19503.0	7.659953229660157e+17
19504.0	7.666556144888489e+17
19505.0	7.672913514375849e+17
19506.0	7.679666382962687e+17
19507.0	7.686410745501012e+17
19508.0	7.692242595261098e+17
19509.0	7.697732093345791e+17
19510.0	7.702215486952787e+17
19511.0	7.694299505710413e+17
19512.0	7.711093779944783e+17
19513.0	7.711810246759754e+17
19514.0	7.719387995133265e+17
19515.0	7.72598218201498e+17
19516.0	7.733086631144106e+17
19517.0	7.73734586856243e+17
19518.0	7.741662728727212e+17
19519.0	7.745530886444372e+17
19520.0	7.749151350936914e+17
19521.0	7.752967232247126e+17
19522.0	7.756250084627795e+17
19523.0	7.759884732858367e+17
19524.0	7.763224966113961e+17
19525.0	7.766522220336468e+17
19526.0	7.769690776535041e+17
19527.0	7.772593692082173e+17
19528.0	7.775442727600127e+17
19529.0	7.778157734133757e+17
19530.0	7.78085839335151e+17
19531.0	7.786335040088745e+17
19532.0	7.788926174844246e+17
19533.0	7.792929871495167e+17
19534.0	7.798880547285672e+17
19535.0	7.800917655027711e+17
19536.0	7.80386698194671e+17
19537.0	7.8096427412794e+17
19538.0	7.810949431951357e+17
19539.0	7.810284640359771e+17
19540.0	7.816490743671462e+17
19541.0	7.820659838506323e+17
19542.0	7.822186432342697e+17
19543.0	7.823642364739583e+17
19544.0	7.826131629637633e+17
19545.0	7.827045750232398e+17
19546.0	7.825910626167466e+17
19547.0	7.832197197201407e+17
19548.0	7.833369773604863e+17
19549.0	7.835853086785535e+17
19550.0	7.83814795268369e+17
19551.0	7.839131196806484e+17
19552.0	7.840030496129021e+17
19553.0	7.840765813544275e+17
19554.0	7.842485756406442e+17
19555.0	7.844463061762045e+17
19556.0	7.845269534146557e+17
19557.0	7.845935797938858e+17
19558.0	7.846539969254738e+17
19559.0	7.847063664459775e+17
19560.0	7.847455788542633e+17
19561.0	7.849336827630932e+17
19562.0	7.850107832980819e+17
19563.0	7.850554902446079e+17
19564.0	7.850900754967208e+17
19565.0	7.851209622115668e+17
19566.0	7.851307781412182e+17
19567.0	7.851766864762196e+17
19568.0	7.851726132477951e+17
19569.0	7.852002612609024e+17
19570.0	7.853199306260479e+17
19571.0	7.853530213078356e+17
19572.0	7.853343544180735e+17
19573.0	7.853534815627945e+17
19574.0	7.852977486299133e+17
19575.0	7.853645606770003e+17
19576.0	7.853618290666154e+17
19577.0	7.853378310766591e+17
19578.0	7.853201129384617e+17
19579.0	7.853137575892308e+17
19580.0	7.853008658366463e+17
19581.0	7.852947044040701e+17
19582.0	7.852856929419261e+17
19583.0	7.85310948524032e+17
19584.0	7.853124098195455e+17
19585.0	7.8520962294743e+17
19586.0	7.851588999708672e+17
19587.0	7.852170812588032e+17
19588.0	7.848990636769283e+17
19589.0	7.851452339497642e+17
19590.0	7.850791483561299e+17
19591.0	7.850861589954557e+17
19592.0	7.850514892980225e+17
19593.0	7.8499402509626e+17
19594.0	7.847948714333521e+17
19595.0	7.848946768543743e+17
19596.0	7.845709108390572e+17
19597.0	7.848082172892502e+17
19598.0	7.846084221774504e+17
19599.0	7.847163653870932e+17
19600.0	7.846678006595583e+17
19601.0	7.845650925005481e+17
19602.0	7.84518342648354e+17
19603.0	7.842152633597946e+17
19604.0	7.844088640438271e+17
19605.0	7.841957481021441e+17
19606.0	7.843434157047807e+17
19607.0	7.842800414490624e+17
19608.0	7.842065372501331e+17
19609.0	7.841100612676266e+17
19610.0	7.840809150491306e+17
19611.0	7.840043060865704e+17
19612.0	7.839413424532136e+17
19613.0	7.838597152855379e+17
19614.0	7.837633340943016e+17
19615.0	7.837204105658367e+17
19616.0	7.836315117333161e+17
19617.0	7.835661809745919e+17
19618.0	7.83131727975765e+17
19619.0	7.829674851827704e+17
19620.0	7.829006039296678e+17
19621.0	7.832396994270548e+17
19622.0	7.831666682058068e+17
19623.0	7.83086022365457e+17
19624.0	7.82994258683494e+17
19625.0	7.829173366860457e+17
19626.0	7.828214567141373e+17
19627.0	7.827423245981011e+17
19628.0	7.825989757304833e+17
19629.0	7.824916075599186e+17
19630.0	7.822720811838121e+17
19631.0	7.803358470122154e+17
19632.0	7.822705782248787e+17
19633.0	7.821644336726015e+17
19634.0	7.82112722518016e+17
19635.0	7.81987603353873e+17
19636.0	7.819192712910163e+17
19637.0	7.815043662654124e+17
19638.0	7.817296789635072e+17
19639.0	7.81628685296162e+17
19640.0	7.81484916019473e+17
19641.0	7.811140309134002e+17
19642.0	7.813375403403944e+17
19643.0	7.812323353122132e+17
19644.0	7.811005267924308e+17
19645.0	7.808686950274385e+17
19646.0	7.809448675027625e+17
19647.0	7.808440831311871e+17
19648.0	7.807373873075539e+17
19649.0	7.806318906354348e+17
19650.0	7.805328993288191e+17
19651.0	7.804376879289683e+17
19652.0	7.8033707873949e+17
19653.0	7.802390990989993e+17
19654.0	7.801234257870848e+17
19655.0	7.800123919346344e+17
19656.0	7.799124125898068e+17
19657.0	7.79802601796403e+17
19658.0	7.796984407304873e+17
19659.0	7.79587610161971e+17
19660.0	7.79482399121954e+17
19661.0	7.793680633735849e+17
19662.0	7.792607226058067e+17
19663.0	7.791150161199101e+17
19664.0	7.790239903558313e+17
19665.0	7.789254296644264e+17
19666.0	7.788012103183017e+17
