# Flux units: erg / (cm m2 s)
# Wavelength units: Angstrom
wave	flux
19000.0	6.858398308674217e+17
19001.0	6.857055946145791e+17
19002.0	6.855876866473983e+17
19003.0	6.854610587222015e+17
19004.0	6.853351637516287e+17
19005.0	6.852085555396608e+17
19006.0	6.850828778340351e+17
19007.0	6.849550318130516e+17
19008.0	6.848261783901524e+17
19009.0	6.846925241668948e+17
19010.0	6.845467084193791e+17
19011.0	6.844463636108627e+17
19012.0	6.843014302050985e+17
19013.0	6.842024848960169e+17
19014.0	6.840719472503465e+17
19015.0	6.839472321374889e+17
19016.0	6.838212537701716e+17
19017.0	6.836979262029823e+17
19018.0	6.835704078969513e+17
19019.0	6.834448536436736e+17
19020.0	6.833174772449279e+17
19021.0	6.831927646486527e+17
19022.0	6.830660022261076e+17
19023.0	6.829366541549568e+17
19024.0	6.828119844104874e+17
19025.0	6.826848066819411e+17
19026.0	6.825550184185855e+17
19027.0	6.824140489796265e+17
19028.0	6.823066042630143e+17
19029.0	6.821802486180522e+17
19030.0	6.820558141740372e+17
19031.0	6.819290818106707e+17
19032.0	6.818016175412566e+17
19033.0	6.8166620296861e+17
19034.0	6.815401142211923e+17
19035.0	6.813635267526655e+17
19036.0	6.799204389923496e+17
19037.0	6.811262563734868e+17
19038.0	6.810349400140457e+17
19039.0	6.809159919992831e+17
19040.0	6.807914811490303e+17
19041.0	6.80665291039266e+17
19042.0	6.805246163200681e+17
19043.0	6.804140673291604e+17
19044.0	6.80286835773713e+17
19045.0	6.801603608707072e+17
19046.0	6.800315610649939e+17
19047.0	6.799050495317334e+17
19048.0	6.797667398407508e+17
19049.0	6.796320492049748e+17
19050.0	6.795174004916223e+17
19051.0	6.792002348427945e+17
19052.0	6.791989605433343e+17
19053.0	6.791455296542036e+17
19054.0	6.79023819690257e+17
19055.0	6.788756324832598e+17
19056.0	6.787697600015017e+17
19057.0	6.786463303729151e+17
19058.0	6.785116793733119e+17
19059.0	6.783914767024127e+17
19060.0	6.782674060443647e+17
19061.0	6.781425336451071e+17
19062.0	6.780160644743167e+17
19063.0	6.778897519607807e+17
19064.0	6.777558017594708e+17
19065.0	6.776233883511465e+17
19066.0	6.775037665214463e+17
19067.0	6.773852057807529e+17
19068.0	6.772597022785536e+17
19069.0	6.77133667148322e+17
19070.0	6.770058189602815e+17
19071.0	6.768806192655017e+17
19072.0	6.767522975405395e+17
19073.0	6.766291589267456e+17
19074.0	6.765033923018751e+17
19075.0	6.763773054418943e+17
19076.0	6.762501025475242e+17
19077.0	6.761238011488938e+17
19078.0	6.759968099969706e+17
19079.0	6.758730569176403e+17
19080.0	6.757459346238121e+17
19081.0	6.756171505467391e+17
19082.0	6.754924078912852e+17
19083.0	6.753594341239466e+17
19084.0	6.752231143505919e+17
19085.0	6.751151380758527e+17
19086.0	6.7494889404061e+17
19087.0	6.748342816778921e+17
19088.0	6.747160260728147e+17
19089.0	6.745831954011476e+17
19090.0	6.744787412931924e+17
19091.0	6.743557238248787e+17
19092.0	6.742190877310975e+17
19093.0	6.741082900179626e+17
19094.0	6.7398382649344e+17
19095.0	6.738584207884287e+17
19096.0	6.73731876959027e+17
19097.0	6.736068084760573e+17
19098.0	6.734779121314473e+17
19099.0	6.733515239806291e+17
19100.0	6.732267898535933e+17
19101.0	6.731024034343593e+17
19102.0	6.729709722621267e+17
19103.0	6.728521290350591e+17
19104.0	6.7272648963741e+17
19105.0	6.725919732050602e+17
19106.0	6.724702436676948e+17
19107.0	6.723432690832723e+17
19108.0	6.72211647210018e+17
19109.0	6.720211998037331e+17
19110.0	6.719480782651391e+17
19111.0	6.718403707054761e+17
19112.0	6.71717606293504e+17
19113.0	6.715955730885289e+17
19114.0	6.714682246518102e+17
19115.0	6.713380514212521e+17
19116.0	6.712167443901098e+17
19117.0	6.710902498437801e+17
19118.0	6.709528175312896e+17
19119.0	6.704998828911268e+17
19120.0	6.707004686292308e+17
19121.0	6.705808875541844e+17
19122.0	6.704658423392937e+17
19123.0	6.703408557850623e+17
19124.0	6.702058738548735e+17
19125.0	6.700885990877865e+17
19126.0	6.699577408574804e+17
19127.0	6.697200945987583e+17
19128.0	6.696965840568319e+17
19129.0	6.695803689107456e+17
19130.0	6.694617779011583e+17
19131.0	6.69337803362577e+17
19132.0	6.692122991613268e+17
19133.0	6.690817232076799e+17
19134.0	6.689565284761599e+17
19135.0	6.688361687285759e+17
19136.0	6.687108516631891e+17
19137.0	6.685760763723775e+17
19138.0	6.684590096427689e+17
19139.0	6.683355456208895e+17
19140.0	6.682106038059007e+17
19141.0	6.680853851668479e+17
19142.0	6.67958027292945e+17
19143.0	6.678314791993343e+17
19144.0	6.677060258190675e+17
19145.0	6.675832653217791e+17
19146.0	6.674045503624532e+17
19147.0	6.67323918782737e+17
19148.0	6.672010097371817e+17
19149.0	6.67074959647266e+17
19150.0	6.669534930927615e+17
19151.0	6.668284910895103e+17
19152.0	6.667012970031785e+17
19153.0	6.665700837250388e+17
19154.0	6.664436674024788e+17
19155.0	6.663247607016105e+17
19156.0	6.661982574870527e+17
19157.0	6.660607455526911e+17
19158.0	6.659061760830121e+17
19159.0	6.658141164229971e+17
19160.0	6.656933696809642e+17
19161.0	6.655603012621652e+17
19162.0	6.65329966514176e+17
19163.0	6.652886136826537e+17
19164.0	6.651943381019305e+17
19165.0	6.650648408533674e+17
19166.0	6.649383744787796e+17
19167.0	6.648130413352276e+17
19168.0	6.646966642890068e+17
19169.0	6.645734631101779e+17
19170.0	6.644495219862186e+17
19171.0	6.643209973268479e+17
19172.0	6.641983583944703e+17
19173.0	6.64075502826291e+17
19174.0	6.639479179706368e+17
19175.0	6.638264843414185e+17
19176.0	6.637015700690259e+17
19177.0	6.635633653055487e+17
19178.0	6.634459994521599e+17
19179.0	6.633185765665449e+17
19180.0	6.631990184203604e+17
19181.0	6.63068123280179e+17
19182.0	6.629499663111508e+17
19183.0	6.628269034744489e+17
19184.0	6.627016946920106e+17
19185.0	6.625765944721407e+17
19186.0	6.624516458763603e+17
19187.0	6.623207005443412e+17
19188.0	6.622009416308052e+17
19189.0	6.620754105161044e+17
19190.0	6.61948854313506e+17
19191.0	6.618205385304746e+17
19192.0	6.616980320681983e+17
19193.0	6.615702335127551e+17
19194.0	6.614406562927955e+17
19195.0	6.613126666169002e+17
19196.0	6.611757811717459e+17
19197.0	6.610259609124864e+17
19198.0	6.608076776581801e+17
19199.0	6.599549575495679e+17
19200.0	6.59947952013312e+17
19201.0	6.604463190048767e+17
19202.0	6.604045746350761e+17
19203.0	6.603001547806036e+17
19204.0	6.601863948402687e+17
19205.0	6.600674734593364e+17
19206.0	6.599458048791891e+17
19207.0	6.598128615904595e+17
19208.0	6.596852082278397e+17
19209.0	6.595742414842537e+17
19210.0	6.594502512170323e+17
19211.0	6.593261231669245e+17
19212.0	6.592002873360383e+17
19213.0	6.590632067858431e+17
19214.0	6.58936014447138e+17
19215.0	6.588213676911273e+17
19216.0	6.587002172473343e+17
19217.0	6.5857285273245e+17
19218.0	6.583990026065236e+17
19219.0	6.583086101124436e+17
19220.0	6.581976513380351e+17
19221.0	6.580573367697407e+17
19222.0	6.579464171421695e+17
19223.0	6.57822885941521e+17
19224.0	6.576950980116479e+17
19225.0	6.57565467943458e+17
19226.0	6.57447158231859e+17
19227.0	6.573221021919914e+17
19228.0	6.571992026535252e+17
19229.0	6.570737400457897e+17
19230.0	6.56948214173969e+17
19231.0	6.568217865267881e+17
19232.0	6.566967753659732e+17
19233.0	6.565663264298323e+17
19234.0	6.564451135608148e+17
19235.0	6.563182879440895e+17
19236.0	6.56195124863522e+17
19237.0	6.560684639431338e+17
19238.0	6.559358552200532e+17
19239.0	6.558181480901289e+17
19240.0	6.5569225179136e+17
19241.0	6.555616705249279e+17
19242.0	6.554328498175999e+17
19243.0	6.552947032850431e+17
19244.0	6.551825893294079e+17
19245.0	6.550560668909565e+17
19246.0	6.549295671017472e+17
19247.0	6.548043699934548e+17
19248.0	6.546784929884842e+17
19249.0	6.545515411931133e+17
19250.0	6.544230798677334e+17
19251.0	6.542908157067263e+17
19252.0	6.541484915075753e+17
19253.0	6.54045244170786e+17
19254.0	6.539206919367337e+17
19255.0	6.537778338725887e+17
19256.0	6.536660254020947e+17
19257.0	6.535410803714729e+17
19258.0	6.534142451777533e+17
19259.0	6.532803200024575e+17
19260.0	6.531312560461139e+17
19261.0	6.530318564240041e+17
19262.0	6.529012994845353e+17
19263.0	6.527713391848105e+17
19264.0	6.52614848234564e+17
19265.0	6.525096497774591e+17
19266.0	6.523825145511935e+17
19267.0	6.522704008052736e+17
19268.0	6.521430794917203e+17
19269.0	6.520153186850132e+17
19270.0	6.518853806150995e+17
19271.0	6.517373908200106e+17
19272.0	6.516283199717375e+17
19273.0	6.51473529741858e+17
19274.0	6.513365072128681e+17
19275.0	6.512472547306154e+17
19276.0	6.511106921769642e+17
19277.0	6.509792991029929e+17
19278.0	6.50850985836544e+17
19279.0	6.507197067777364e+17
19280.0	6.505883659927551e+17
19281.0	6.504625962221565e+17
19282.0	6.503331660824575e+17
19283.0	6.50194247029009e+17
19284.0	6.500628770237097e+17
19285.0	6.499312520047274e+17
19286.0	6.498049201274879e+17
19287.0	6.496687849734143e+17
19288.0	6.490982203785212e+17
19289.0	6.48534291522081e+17
19290.0	6.492755575089834e+17
19291.0	6.4913731485696e+17
19292.0	6.490308627922944e+17
19293.0	6.489009723277311e+17
19294.0	6.4876986761216e+17
19295.0	6.486355051806719e+17
19296.0	6.484892024744617e+17
19297.0	6.483596191028564e+17
19298.0	6.482280739154602e+17
19299.0	6.480939249041405e+17
19300.0	6.479655860524372e+17
19301.0	6.478331411868329e+17
19302.0	6.476992786464765e+17
19303.0	6.475615833511251e+17
19304.0	6.474319880257535e+17
19305.0	6.472984573946537e+17
19306.0	6.47164591219234e+17
19307.0	6.470260089683968e+17
19308.0	6.468901021242708e+17
19309.0	6.467269000080041e+17
19310.0	6.465617280368639e+17
19311.0	6.464563908881066e+17
19312.0	6.463293209531734e+17
19313.0	6.461874682636969e+17
19314.0	6.445647688018596e+17
19315.0	6.445556401089215e+17
19316.0	6.457680195485693e+17
19317.0	6.456474689601535e+17
19318.0	6.455124933214205e+17
19319.0	6.453770055581695e+17
19320.0	6.452360403135146e+17
19321.0	6.450675705009492e+17
19322.0	6.449232867229695e+17
19323.0	6.447816083767295e+17
19324.0	6.446449877319679e+17
19325.0	6.444932343179945e+17
19326.0	6.443609911285075e+17
19327.0	6.442174933630976e+17
19328.0	6.440702651138047e+17
19329.0	6.439211764110675e+17
19330.0	6.437712813533865e+17
19331.0	6.436253780847273e+17
19332.0	6.434847924944895e+17
19333.0	6.433381652190548e+17
19334.0	6.431933616269994e+17
19335.0	6.430332791641428e+17
19336.0	6.42898412437504e+17
19337.0	6.42750921834496e+17
19338.0	6.425856385045843e+17
19339.0	6.424523518421674e+17
19340.0	6.422943371711828e+17
19341.0	6.421405820256255e+17
19342.0	6.419724553071273e+17
19343.0	6.418443539928403e+17
19344.0	6.416836133737812e+17
19345.0	6.413953564759379e+17
19346.0	6.412875233667753e+17
19347.0	6.411966144839679e+17
19348.0	6.410524446512467e+17
19349.0	6.408916368534185e+17
19350.0	6.40730495258897e+17
19351.0	6.405713516210857e+17
19352.0	6.40400099516962e+17
19353.0	6.402492023701504e+17
19354.0	6.400845690874537e+17
19355.0	6.399103640535039e+17
19356.0	6.397502829887487e+17
19357.0	6.3957409202176e+17
19358.0	6.393819243915945e+17
19359.0	6.392058494670163e+17
19360.0	6.390275022782463e+17
19361.0	6.388583405453311e+17
19362.0	6.38683260719377e+17
19363.0	6.384993128764756e+17
19364.0	6.383158981296127e+17
19365.0	6.381313167370921e+17
19366.0	6.379111154275668e+17
19367.0	6.377154477206185e+17
19368.0	6.375246971360595e+17
19369.0	6.373283473653759e+17
19370.0	6.371324696636074e+17
19371.0	6.36932935717137e+17
19372.0	6.367227809540778e+17
19373.0	6.364762231275519e+17
19374.0	6.362719654161066e+17
19375.0	6.360642773931348e+17
19376.0	6.35853618614545e+17
19377.0	6.356384718607699e+17
19378.0	6.353466312097791e+17
19379.0	6.351278942715904e+17
19380.0	6.349064721399807e+17
19381.0	6.346803704233984e+17
19382.0	6.343798683948371e+17
19383.0	6.340917810167807e+17
19384.0	6.338572395915945e+17
19385.0	6.336129793348947e+17
19386.0	6.332831459792212e+17
19387.0	6.329881976984916e+17
19388.0	6.32727670882304e+17
19389.0	6.32432459129378e+17
19390.0	6.320254245055146e+17
19391.0	6.306162577593672e+17
19392.0	6.313619762096808e+17
19393.0	6.310753501970432e+17
19394.0	6.3078325551104e+17
19395.0	6.304768088954196e+17
19396.0	6.301673929222825e+17
19397.0	6.298506722192041e+17
19398.0	6.295189425487871e+17
19399.0	6.290959565673812e+17
19400.0	6.287769195599188e+17
19401.0	6.28437733745186e+17
19402.0	6.280796347651412e+17
19403.0	6.277098201153535e+17
19404.0	6.272504377114623e+17
19405.0	6.268547625910272e+17
19406.0	6.264430354497536e+17
19407.0	6.260112626810879e+17
19408.0	6.253972622934015e+17
19409.0	6.249777803034623e+17
19410.0	6.245070690844671e+17
19411.0	6.239070155964415e+17
19412.0	6.233414116048895e+17
19413.0	6.228019748274175e+17
19414.0	6.221051887353855e+17
19415.0	6.214586980106239e+17
19416.0	6.208101548031999e+17
19417.0	6.199125510979583e+17
19418.0	6.192457956633258e+17
19419.0	6.184225436161363e+17
19420.0	6.175712406929408e+17
19421.0	6.168026780357975e+17
19422.0	6.156950522473129e+17
19423.0	6.148638438850559e+17
19424.0	6.137859520069631e+17
19425.0	6.127080963396948e+17
19426.0	6.116225143450282e+17
19427.0	6.104405417918463e+17
19428.0	6.092898991516332e+17
19429.0	6.079619127399763e+17
19430.0	6.06611232137762e+17
19431.0	6.049529183513258e+17
19432.0	6.035454629511167e+17
19433.0	6.019331972399104e+17
19434.0	5.999639357904212e+17
19435.0	5.980089794341544e+17
19436.0	5.958417610265943e+17
19437.0	5.933157506001578e+17
19438.0	5.890375952629761e+17
19439.0	5.877462082781183e+17
19440.0	5.847177585404585e+17
19441.0	5.811971361690963e+17
19442.0	5.771189385428992e+17
19443.0	5.723967200078506e+17
19444.0	5.671009123652945e+17
19445.0	5.608331612433069e+17
19446.0	5.5336146766397434e+17
19447.0	5.44168893515912e+17
19448.0	5.32378788788088e+17
19449.0	5.1603623759926605e+17
19450.0	4.8938890140057466e+17
19451.0	4.71175365359481e+17
19452.0	5.048481947320316e+17
19453.0	5.2486451603264915e+17
19454.0	5.3829139805416045e+17
19455.0	5.4838946490395296e+17
19456.0	5.564000396552877e+17
19457.0	5.6298735403007974e+17
19458.0	5.652969942242695e+17
19459.0	5.731196575853233e+17
19460.0	5.774478015463421e+17
19461.0	5.810194637040297e+17
19462.0	5.841299128538454e+17
19463.0	5.869428631666687e+17
19464.0	5.894167420294484e+17
19465.0	5.917439924284073e+17
19466.0	5.938756346096296e+17
19467.0	5.95646217331234e+17
19468.0	5.973539442130944e+17
19469.0	5.988977567858685e+17
19470.0	6.002350298060118e+17
19471.0	6.016640356100778e+17
19472.0	6.027885668204543e+17
19473.0	6.038432381228371e+17
19474.0	6.048811542293161e+17
19475.0	6.05741895734613e+17
19476.0	6.066830064659114e+17
19477.0	6.075033556353024e+17
19478.0	6.084578591287974e+17
19479.0	6.091075171123199e+17
19480.0	6.098410194425171e+17
19481.0	6.105520349904895e+17
19482.0	6.110593262725801e+17
19483.0	6.117822393832788e+17
19484.0	6.122341887115263e+17
19485.0	6.127909922144255e+17
19486.0	6.133181428269055e+17
19487.0	6.13698892935987e+17
19488.0	6.141909053472768e+17
19489.0	6.145221817532415e+17
19490.0	6.147479325463891e+17
19491.0	6.152265477215574e+17
19492.0	6.155063549842772e+17
19493.0	6.15739436372241e+17
19494.0	6.160203396065961e+17
19495.0	6.162803424144042e+17
19496.0	6.164355343887017e+17
19497.0	6.166133128298495e+17
19498.0	6.16524464398882e+17
19499.0	6.151772308854095e+17
19500.0	6.171000825708543e+17
19501.0	6.172488078371498e+17
19502.0	6.173663474046292e+17
19503.0	6.175087943570772e+17
19504.0	6.176257642681683e+17
19505.0	6.177146834430633e+17
19506.0	6.177964527277395e+17
19507.0	6.178681930121215e+17
19508.0	6.179351522792788e+17
19509.0	6.180199554438484e+17
19510.0	6.181116769031508e+17
19511.0	6.155531163708056e+17
19512.0	6.178885229434194e+17
19513.0	6.17846640790732e+17
19514.0	6.180038436541777e+17
19515.0	6.184123115416234e+17
19516.0	6.185632346931199e+17
19517.0	6.186018798217897e+17
19518.0	6.186142714735274e+17
19519.0	6.186174006340266e+17
19520.0	6.187040197225129e+17
19521.0	6.187222948642815e+17
19522.0	6.187080186418516e+17
19523.0	6.186955318493183e+17
19524.0	6.187026556649471e+17
19525.0	6.187322544488447e+17
19526.0	6.187106546221056e+17
19527.0	6.186852826480639e+17
19528.0	6.186563843129343e+17
19529.0	6.18628989845504e+17
19530.0	6.186472405904042e+17
19531.0	6.186116261958995e+17
19532.0	6.185735707863721e+17
19533.0	6.18533164818978e+17
19534.0	6.184910370897919e+17
19535.0	6.184457035142484e+17
19536.0	6.184102436099412e+17
19537.0	6.183878040835412e+17
19538.0	6.183196363674964e+17
19539.0	6.182491426302634e+17
19540.0	6.182272180944895e+17
19541.0	6.181734977284778e+17
19542.0	6.181144055775231e+17
19543.0	6.180486212048212e+17
19544.0	6.179897568744788e+17
19545.0	6.179046859735039e+17
19546.0	6.178278392638121e+17
19547.0	6.178185353887744e+17
19548.0	6.177517591330815e+17
19549.0	6.176741879971837e+17
19550.0	6.176112213579092e+17
19551.0	6.1753882326685e+17
19552.0	6.174649097737556e+17
19553.0	6.173882476134399e+17
19554.0	6.173115786024276e+17
19555.0	6.172351658633898e+17
19556.0	6.171586644847273e+17
19557.0	6.170798760219988e+17
19558.0	6.170110578393087e+17
19559.0	6.169343931624105e+17
19560.0	6.168483895181311e+17
19561.0	6.167678078506324e+17
19562.0	6.166851285417981e+17
19563.0	6.166032716660736e+17
19564.0	6.165186597617663e+17
19565.0	6.164332686955859e+17
19566.0	6.163451342050644e+17
19567.0	6.1626036270749e+17
19568.0	6.161709724423508e+17
19569.0	6.160835930663594e+17
19570.0	6.159967444795392e+17
19571.0	6.159073936408575e+17
19572.0	6.158150423369044e+17
19573.0	6.157255972661929e+17
19574.0	6.156420844792489e+17
19575.0	6.155611284002132e+17
19576.0	6.154687006900223e+17
19577.0	6.153745024243028e+17
19578.0	6.152848035981994e+17
19579.0	6.151955109904383e+17
19580.0	6.151017617948672e+17
19581.0	6.150087460432553e+17
19582.0	6.149204700648788e+17
19583.0	6.148441567308457e+17
19584.0	6.147477607197353e+17
19585.0	6.14642859708689e+17
19586.0	6.145431045494099e+17
19587.0	6.144538956180138e+17
19588.0	6.143306264215551e+17
19589.0	6.142608306864127e+17
19590.0	6.14158961807633e+17
19591.0	6.140683129017684e+17
19592.0	6.13970780234274e+17
19593.0	6.13870019350801e+17
19594.0	6.137585816567808e+17
19595.0	6.136902442811391e+17
19596.0	6.135705451364351e+17
19597.0	6.135030883549183e+17
19598.0	6.133770641997823e+17
19599.0	6.133033298733738e+17
19600.0	6.132038305666388e+17
19601.0	6.130977340391424e+17
19602.0	6.129941686342995e+17
19603.0	6.128635929602729e+17
19604.0	6.12789662130722e+17
19605.0	6.126748412411904e+17
19606.0	6.125954563484329e+17
19607.0	6.124945730611882e+17
19608.0	6.123911685778089e+17
19609.0	6.122984643930793e+17
19610.0	6.121977603424255e+17
19611.0	6.120938121374378e+17
19612.0	6.119950019548499e+17
19613.0	6.118910213838164e+17
19614.0	6.11785206014498e+17
19615.0	6.116840182207828e+17
19616.0	6.115683839158953e+17
19617.0	6.114718485839871e+17
19618.0	6.113289213138259e+17
19619.0	6.112132812767231e+17
19620.0	6.11118559142434e+17
19621.0	6.110542010428074e+17
19622.0	6.109564525084672e+17
19623.0	6.108520258732032e+17
19624.0	6.107462176342015e+17
19625.0	6.106414379783507e+17
19626.0	6.105348390431401e+17
19627.0	6.104240661463039e+17
19628.0	6.102962387200681e+17
19629.0	6.10166674502451e+17
19630.0	6.098449188869459e+17
19631.0	6.091613661036544e+17
19632.0	6.098511624579753e+17
19633.0	6.097911548302676e+17
19634.0	6.097005981291859e+17
19635.0	6.095951568218793e+17
19636.0	6.094890660265983e+17
19637.0	6.093547867821396e+17
19638.0	6.092841202395818e+17
19639.0	6.091785057075199e+17
19640.0	6.090632377051818e+17
19641.0	6.089057623517866e+17
19642.0	6.08860113015057e+17
19643.0	6.087540728310442e+17
19644.0	6.086427942409556e+17
19645.0	6.085251539402751e+17
19646.0	6.084303498073428e+17
19647.0	6.083304354742271e+17
19648.0	6.082241711745706e+17
19649.0	6.081175142880596e+17
19650.0	6.080110587281407e+17
19651.0	6.079038419020458e+17
19652.0	6.077974830208339e+17
19653.0	6.076901997150207e+17
19654.0	6.075832888634025e+17
19655.0	6.074761785027242e+17
19656.0	6.073697492970153e+17
19657.0	6.072632110394025e+17
19658.0	6.07156184355089e+17
19659.0	6.070490219151359e+17
19660.0	6.069419966289238e+17
19661.0	6.068347876321964e+17
19662.0	6.067272985258665e+17
19663.0	6.066163419884201e+17
19664.0	6.065095561270612e+17
19665.0	6.064055464056148e+17
