# Flux units: erg / (cm m2 s)
# Wavelength units: Angstrom
wave	flux
19000.0	6.960148284527955e+17
19001.0	6.958214801959593e+17
19002.0	6.957624557830143e+17
19003.0	6.956324599715155e+17
19004.0	6.955061044663636e+17
19005.0	6.953741303414783e+17
19006.0	6.952462362258089e+17
19007.0	6.951161874262698e+17
19008.0	6.949611177159337e+17
19009.0	6.947528396941993e+17
19010.0	6.94570037944866e+17
19011.0	6.945733686416723e+17
19012.0	6.944071221597524e+17
19013.0	6.943508018845012e+17
19014.0	6.941890720388435e+17
19015.0	6.940749429298518e+17
19016.0	6.939661130443434e+17
19017.0	6.938408414871551e+17
19018.0	6.93713768686114e+17
19019.0	6.935887566864384e+17
19020.0	6.934569541784916e+17
19021.0	6.933445981416106e+17
19022.0	6.932149807262378e+17
19023.0	6.930617439267497e+17
19024.0	6.929469357599402e+17
19025.0	6.928235063410687e+17
19026.0	6.926906756694015e+17
19027.0	6.925599148867583e+17
19028.0	6.924426229929299e+17
19029.0	6.923083914936317e+17
19030.0	6.921992710826665e+17
19031.0	6.920724890167977e+17
19032.0	6.919367421154643e+17
19033.0	6.91733389325107e+17
19034.0	6.916192404329811e+17
19035.0	6.912210355879935e+17
19036.0	6.895088821775017e+17
19037.0	6.910417451701587e+17
19038.0	6.911117286703103e+17
19039.0	6.910323819457194e+17
19040.0	6.909207632674815e+17
19041.0	6.907954652162729e+17
19042.0	6.905906272228691e+17
19043.0	6.905469780798122e+17
19044.0	6.904151734747133e+17
19045.0	6.902885863740755e+17
19046.0	6.901339830703443e+17
19047.0	6.899974556090367e+17
19048.0	6.898319075486377e+17
19049.0	6.896649114047827e+17
19050.0	6.895705787815252e+17
19051.0	6.892307405428052e+17
19052.0	6.892269937011369e+17
19053.0	6.892407561912319e+17
19054.0	6.891346632987988e+17
19055.0	6.888410873244337e+17
19056.0	6.8887545656989e+17
19057.0	6.887668457668607e+17
19058.0	6.886116923102548e+17
19059.0	6.885047728603135e+17
19060.0	6.883862368660137e+17
19061.0	6.882640214884351e+17
19062.0	6.881330983862271e+17
19063.0	6.880029799612415e+17
19064.0	6.878305047980714e+17
19065.0	6.876459942193834e+17
19066.0	6.875740960893609e+17
19067.0	6.874934194208767e+17
19068.0	6.873759314433364e+17
19069.0	6.872493978200746e+17
19070.0	6.871083603634858e+17
19071.0	6.869918867084627e+17
19072.0	6.868612291756031e+17
19073.0	6.867406590137684e+17
19074.0	6.866170840525481e+17
19075.0	6.864898485125119e+17
19076.0	6.863579026292735e+17
19077.0	6.862244607077034e+17
19078.0	6.860869574415699e+17
19079.0	6.859791834021888e+17
19080.0	6.85844031742498e+17
19081.0	6.856909685172905e+17
19082.0	6.855886363077289e+17
19083.0	6.853971887696553e+17
19084.0	6.851817076599466e+17
19085.0	6.852030342976852e+17
19086.0	6.848084074736296e+17
19087.0	6.849208246075391e+17
19088.0	6.847586886134441e+17
19089.0	6.845697811458733e+17
19090.0	6.845514920929962e+17
19091.0	6.84435595923729e+17
19092.0	6.842647229846868e+17
19093.0	6.841980808069119e+17
19094.0	6.840740726439936e+17
19095.0	6.839509145266857e+17
19096.0	6.838214137828691e+17
19097.0	6.836966749022889e+17
19098.0	6.835586772675241e+17
19099.0	6.834295094815402e+17
19100.0	6.833085533039273e+17
19101.0	6.831768816582655e+17
19102.0	6.83022884151842e+17
19103.0	6.829299300564991e+17
19104.0	6.828096376973993e+17
19105.0	6.826542727779668e+17
19106.0	6.825474216951807e+17
19107.0	6.824050123516585e+17
19108.0	6.822664273745236e+17
19109.0	6.821072025070249e+17
19110.0	6.820076250464255e+17
19111.0	6.818988475897171e+17
19112.0	6.817818622995113e+17
19113.0	6.81663970480401e+17
19114.0	6.815299754699434e+17
19115.0	6.813834692001791e+17
19116.0	6.812611971295913e+17
19117.0	6.811216510276948e+17
19118.0	6.808262705938432e+17
19119.0	6.786270616704321e+17
19120.0	6.80660485345553e+17
19121.0	6.806186463941972e+17
19122.0	6.805170681806847e+17
19123.0	6.803915050494633e+17
19124.0	6.802393208804692e+17
19125.0	6.801090080494932e+17
19126.0	6.798768562591059e+17
19127.0	6.792851757902506e+17
19128.0	6.795892273184767e+17
19129.0	6.795466624030035e+17
19130.0	6.794943153919318e+17
19131.0	6.793866791354367e+17
19132.0	6.792625271777961e+17
19133.0	6.791094230581247e+17
19134.0	6.790027902189567e+17
19135.0	6.788846238826493e+17
19136.0	6.787531043504127e+17
19137.0	6.785911297671165e+17
19138.0	6.784915551027197e+17
19139.0	6.783826790798676e+17
19140.0	6.782603540212393e+17
19141.0	6.781347968319488e+17
19142.0	6.779862961007274e+17
19143.0	6.778594356013737e+17
19144.0	6.777209294072489e+17
19145.0	6.776217371934719e+17
19146.0	6.770870949249029e+17
19147.0	6.773468181823487e+17
19148.0	6.772355158245375e+17
19149.0	6.771081270525951e+17
19150.0	6.769934029815807e+17
19151.0	6.768639764769449e+17
19152.0	6.767354978850132e+17
19153.0	6.765734287900671e+17
19154.0	6.764496409679188e+17
19155.0	6.763438079825236e+17
19156.0	6.76221465797154e+17
19157.0	6.760791312520531e+17
19158.0	6.759313624268799e+17
19159.0	6.758261471226537e+17
19160.0	6.756958970664275e+17
19161.0	6.755516381746516e+17
19162.0	6.753621929973075e+17
19163.0	6.752805715618472e+17
19164.0	6.751977076337321e+17
19165.0	6.750575711136425e+17
19166.0	6.749168961847295e+17
19167.0	6.748240687573673e+17
19168.0	6.747106762380628e+17
19169.0	6.745891081114964e+17
19170.0	6.744686324613119e+17
19171.0	6.743397495384746e+17
19172.0	6.74212733710063e+17
19173.0	6.740905158858068e+17
19174.0	6.73948014617122e+17
19175.0	6.738352407576575e+17
19176.0	6.737117426221056e+17
19177.0	6.734883594436605e+17
19178.0	6.734593909238442e+17
19179.0	6.733313648274089e+17
19180.0	6.732003532253866e+17
19181.0	6.730355202938196e+17
19182.0	6.729353111710378e+17
19183.0	6.728310331539456e+17
19184.0	6.727050369608362e+17
19185.0	6.725720014673236e+17
19186.0	6.724517636341759e+17
19187.0	6.722737846353919e+17
19188.0	6.721944293823827e+17
19189.0	6.72065934922001e+17
19190.0	6.719362302651049e+17
19191.0	6.717832914010111e+17
19192.0	6.716707732542803e+17
19193.0	6.715257648403795e+17
19194.0	6.713697145017684e+17
19195.0	6.712271828243795e+17
19196.0	6.710424068161535e+17
19197.0	6.708218148771155e+17
19198.0	6.704780320352938e+17
19199.0	6.698266383089664e+17
19200.0	6.697753056903167e+17
19201.0	6.701251452469247e+17
19202.0	6.70203824448034e+17
19203.0	6.701668275410259e+17
19204.0	6.700886683637076e+17
19205.0	6.699878457540607e+17
19206.0	6.698800838082559e+17
19207.0	6.696780009832447e+17
19208.0	6.695793715751593e+17
19209.0	6.695193615007743e+17
19210.0	6.694061647156564e+17
19211.0	6.692933684166655e+17
19212.0	6.691640307613695e+17
19213.0	6.68972961968947e+17
19214.0	6.688716388390228e+17
19215.0	6.687781462649513e+17
19216.0	6.686469915672575e+17
19217.0	6.684678903125331e+17
19218.0	6.681751426433023e+17
19219.0	6.680979150908072e+17
19220.0	6.681078638400852e+17
19221.0	6.679425721914708e+17
19222.0	6.678651805717844e+17
19223.0	6.677604968256852e+17
19224.0	6.676174883258367e+17
19225.0	6.674974876805802e+17
19226.0	6.673884879956649e+17
19227.0	6.672710697833812e+17
19228.0	6.671647178227712e+17
19229.0	6.670393893628586e+17
19230.0	6.669116516248233e+17
19231.0	6.667791296539306e+17
19232.0	6.66658361381137e+17
19233.0	6.664933912958291e+17
19234.0	6.664026002030591e+17
19235.0	6.662570263270739e+17
19236.0	6.661566385968468e+17
19237.0	6.660229434791252e+17
19238.0	6.658528838156287e+17
19239.0	6.657788132458495e+17
19240.0	6.656521215672319e+17
19241.0	6.655127465230336e+17
19242.0	6.653894527199914e+17
19243.0	6.651571390993746e+17
19244.0	6.651478493451604e+17
19245.0	6.650163813329578e+17
19246.0	6.648895656427519e+17
19247.0	6.647569509777407e+17
19248.0	6.646371836056916e+17
19249.0	6.645089531767466e+17
19250.0	6.643676132409343e+17
19251.0	6.641900153645733e+17
19252.0	6.639171633763668e+17
19253.0	6.639885600773459e+17
19254.0	6.638747177189373e+17
19255.0	6.636093494176422e+17
19256.0	6.636085587214336e+17
19257.0	6.634897879859197e+17
19258.0	6.63362723853107e+17
19259.0	6.63174524384051e+17
19260.0	6.630487287485779e+17
19261.0	6.629599780448937e+17
19262.0	6.627927391906473e+17
19263.0	6.626279818963625e+17
19264.0	6.623702442224297e+17
19265.0	6.623376047079423e+17
19266.0	6.622260030865408e+17
19267.0	6.621985949876223e+17
19268.0	6.620700681611946e+17
19269.0	6.619377176674303e+17
19270.0	6.617795904492884e+17
19271.0	6.615685748752383e+17
19272.0	6.615213663059968e+17
19273.0	6.612638809194495e+17
19274.0	6.610198705034574e+17
19275.0	6.611692830064639e+17
19276.0	6.610334301989545e+17
19277.0	6.609072242207401e+17
19278.0	6.607785809324713e+17
19279.0	6.606276241566376e+17
19280.0	6.604893857688233e+17
19281.0	6.603779484243283e+17
19282.0	6.602579605716991e+17
19283.0	6.601212473726292e+17
19284.0	6.599642358393514e+17
19285.0	6.598165033648125e+17
19286.0	6.596755242090495e+17
19287.0	6.595101922252116e+17
19288.0	6.585708087782054e+17
19289.0	6.580841446637562e+17
19290.0	6.591034459597482e+17
19291.0	6.588828879246684e+17
19292.0	6.589438331890345e+17
19293.0	6.588213386106195e+17
19294.0	6.586862349058047e+17
19295.0	6.585648380466516e+17
19296.0	6.584187626717183e+17
19297.0	6.582813374196393e+17
19298.0	6.58149160849681e+17
19299.0	6.580231208260948e+17
19300.0	6.579018430152703e+17
19301.0	6.577694609943208e+17
19302.0	6.576237515724116e+17
19303.0	6.574586571259901e+17
19304.0	6.573573940445183e+17
19305.0	6.572168313132372e+17
19306.0	6.570848597748393e+17
19307.0	6.569264534257663e+17
19308.0	6.567897283428351e+17
19309.0	6.566437139251199e+17
19310.0	6.564844220885674e+17
19311.0	6.563604245512191e+17
19312.0	6.56237195829794e+17
19313.0	6.560602878465364e+17
19314.0	6.532979158067886e+17
19315.0	6.533250071658514e+17
19316.0	6.556309609862484e+17
19317.0	6.555541626508628e+17
19318.0	6.554302817850707e+17
19319.0	6.553077955952637e+17
19320.0	6.551658131619839e+17
19321.0	6.550154115022847e+17
19322.0	6.548720085980499e+17
19323.0	6.547320044781567e+17
19324.0	6.545981024414378e+17
19325.0	6.54458752143633e+17
19326.0	6.543208431484927e+17
19327.0	6.541808472773972e+17
19328.0	6.540236798558208e+17
19329.0	6.539012458850985e+17
19330.0	6.537491764303188e+17
19331.0	6.535831373567316e+17
19332.0	6.534681245078867e+17
19333.0	6.533109320602964e+17
19334.0	6.531659287494655e+17
19335.0	6.529794804722346e+17
19336.0	6.528693234390356e+17
19337.0	6.527207537814185e+17
19338.0	6.524375013173926e+17
19339.0	6.524125544360617e+17
19340.0	6.522080240249514e+17
19341.0	6.520336305269418e+17
19342.0	6.518294014765736e+17
19343.0	6.517518917872298e+17
19344.0	6.515108361185961e+17
19345.0	6.507536329648808e+17
19346.0	6.50743325532706e+17
19347.0	6.510532333578921e+17
19348.0	6.509917588422655e+17
19349.0	6.508328584041812e+17
19350.0	6.506813802763603e+17
19351.0	6.505222399939923e+17
19352.0	6.503294394433535e+17
19353.0	6.502306244373161e+17
19354.0	6.500698572543316e+17
19355.0	6.49838569770189e+17
19356.0	6.497388333454676e+17
19357.0	6.495688297458345e+17
19358.0	6.493910880747519e+17
19359.0	6.491885289865213e+17
19360.0	6.489953668169727e+17
19361.0	6.488476778233855e+17
19362.0	6.486826772594687e+17
19363.0	6.485061400526847e+17
19364.0	6.483270287316308e+17
19365.0	6.481416571322368e+17
19366.0	6.479609475017385e+17
19367.0	6.4777507321501e+17
19368.0	6.475859577798655e+17
19369.0	6.473622550653609e+17
19370.0	6.471731557083817e+17
19371.0	6.46959604118323e+17
19372.0	6.468034066994516e+17
19373.0	6.465931618986665e+17
19374.0	6.464038268218025e+17
19375.0	6.46206039593233e+17
19376.0	6.459926996757162e+17
19377.0	6.457803499634687e+17
19378.0	6.455691497002323e+17
19379.0	6.453508344294057e+17
19380.0	6.451261113805482e+17
19381.0	6.448987287235242e+17
19382.0	6.446182811303936e+17
19383.0	6.444048957046781e+17
19384.0	6.442031230484479e+17
19385.0	6.439729826365439e+17
19386.0	6.437303847223295e+17
19387.0	6.43477078750003e+17
19388.0	6.432112716546047e+17
19389.0	6.429196280659968e+17
19390.0	6.425390440513533e+17
19391.0	6.408453311780173e+17
19392.0	6.416961211378345e+17
19393.0	6.417988492197887e+17
19394.0	6.415543569481727e+17
19395.0	6.412660086145023e+17
19396.0	6.409797075206143e+17
19397.0	6.406726216231593e+17
19398.0	6.403119906816e+17
19399.0	6.398104330130771e+17
19400.0	6.395932602706601e+17
19401.0	6.393527152585385e+17
19402.0	6.390238946175657e+17
19403.0	6.386611118582442e+17
19404.0	6.38307638776081e+17
19405.0	6.379189339597481e+17
19406.0	6.375244769350996e+17
19407.0	6.370907242452308e+17
19408.0	6.364720891516244e+17
19409.0	6.361981745364991e+17
19410.0	6.358281340933459e+17
19411.0	6.353731308923561e+17
19412.0	6.348842296759636e+17
19413.0	6.343809148037802e+17
19414.0	6.338618471743487e+17
19415.0	6.333226912055295e+17
19416.0	6.326938058620927e+17
19417.0	6.322098435784701e+17
19418.0	6.316260644093951e+17
19419.0	6.310134157060777e+17
19420.0	6.303773304902996e+17
19421.0	6.296991462763178e+17
19422.0	6.289596430155775e+17
19423.0	6.282290012706131e+17
19424.0	6.274491764877993e+17
19425.0	6.266262872479062e+17
19426.0	6.257526513336319e+17
19427.0	6.2482438684672e+17
19428.0	6.238411188862976e+17
19429.0	6.228033656586239e+17
19430.0	6.216363798429696e+17
19431.0	6.203978533918038e+17
19432.0	6.193787794270889e+17
19433.0	6.181065834801834e+17
19434.0	6.167072476233727e+17
19435.0	6.151343864894804e+17
19436.0	6.134503232416425e+17
19437.0	6.116533029131604e+17
19438.0	6.075035286503427e+17
19439.0	6.072227356562771e+17
19440.0	6.057018150354943e+17
19441.0	6.033156204047016e+17
19442.0	6.006130297798657e+17
19443.0	5.97567925789218e+17
19444.0	5.940759380011688e+17
19445.0	5.900544792417622e+17
19446.0	5.853082586622634e+17
19447.0	5.795825097637884e+17
19448.0	5.7241660583226054e+17
19449.0	5.6295404720182605e+17
19450.0	5.486474237575159e+17
19451.0	5.386271755075586e+17
19452.0	5.5675483086738765e+17
19453.0	5.678026499730094e+17
19454.0	5.756979441390929e+17
19455.0	5.818264651300863e+17
19456.0	5.867497985845933e+17
19457.0	5.907970725860691e+17
19458.0	5.883357191733312e+17
19459.0	5.966093714369208e+17
19460.0	6.000567005828435e+17
19461.0	6.024886522041684e+17
19462.0	6.046060702422358e+17
19463.0	6.065189071880191e+17
19464.0	6.082265027182591e+17
19465.0	6.097879131226111e+17
19466.0	6.111914773970943e+17
19467.0	6.12527076610321e+17
19468.0	6.137203219846484e+17
19469.0	6.147642358060371e+17
19470.0	6.158371738615808e+17
19471.0	6.16811885302033e+17
19472.0	6.17647859512115e+17
19473.0	6.184335083656534e+17
19474.0	6.19159545254161e+17
19475.0	6.196125897151827e+17
19476.0	6.204996971746643e+17
19477.0	6.211869189952852e+17
19478.0	6.217690118444371e+17
19479.0	6.222888977825791e+17
19480.0	6.227804086250153e+17
19481.0	6.232512916007593e+17
19482.0	6.236846439443114e+17
19483.0	6.240791085886121e+17
19484.0	6.244358394565972e+17
19485.0	6.247619539326292e+17
19486.0	6.250720134518102e+17
19487.0	6.253933445338452e+17
19488.0	6.256609557392042e+17
19489.0	6.257401917341695e+17
19490.0	6.257775081073321e+17
19491.0	6.263749497323517e+17
19492.0	6.266697956021588e+17
19493.0	6.268776398629546e+17
19494.0	6.270576959509843e+17
19495.0	6.272069083856893e+17
19496.0	6.27206680355362e+17
19497.0	6.273772083828051e+17
19498.0	6.267026254681426e+17
19499.0	6.253463600802474e+17
19500.0	6.276853231430314e+17
19501.0	6.279696965348009e+17
19502.0	6.281073185696425e+17
19503.0	6.282071725047805e+17
19504.0	6.282885452879188e+17
19505.0	6.283665608802304e+17
19506.0	6.284363667516073e+17
19507.0	6.284774041015636e+17
19508.0	6.285267121995773e+17
19509.0	6.285213224490324e+17
19510.0	6.283302644918953e+17
19511.0	6.242666220093423e+17
19512.0	6.276821706342397e+17
19513.0	6.276720667656187e+17
19514.0	6.278892603397458e+17
19515.0	6.285332221089108e+17
19516.0	6.287108418655572e+17
19517.0	6.287446473965567e+17
19518.0	6.287769972244479e+17
19519.0	6.287760967073791e+17
19520.0	6.287521092031827e+17
19521.0	6.287704267773267e+17
19522.0	6.287303711741268e+17
19523.0	6.287411752818004e+17
19524.0	6.287136261843626e+17
19525.0	6.286959242641408e+17
19526.0	6.286701655053652e+17
19527.0	6.286376868424361e+17
19528.0	6.286019433332735e+17
19529.0	6.285599856831146e+17
19530.0	6.285268422929065e+17
19531.0	6.284885384407721e+17
19532.0	6.284425708961791e+17
19533.0	6.284008528805887e+17
19534.0	6.283644530327551e+17
19535.0	6.282974995677183e+17
19536.0	6.282324422077098e+17
19537.0	6.281840922285395e+17
19538.0	6.280156248626516e+17
19539.0	6.2791161493149e+17
19540.0	6.279876748596564e+17
19541.0	6.279584857194495e+17
19542.0	6.278958487524691e+17
19543.0	6.278095536040618e+17
19544.0	6.277398322479103e+17
19545.0	6.274421390049279e+17
19546.0	6.273260725469183e+17
19547.0	6.275416773885951e+17
19548.0	6.27510355304994e+17
19549.0	6.273779548990121e+17
19550.0	6.273801950068735e+17
19551.0	6.273077707014143e+17
19552.0	6.272302912110591e+17
19553.0	6.271448303097172e+17
19554.0	6.27063046414882e+17
19555.0	6.269873931244884e+17
19556.0	6.269270082890409e+17
19557.0	6.268496261764436e+17
19558.0	6.267661434486783e+17
19559.0	6.266833363533823e+17
19560.0	6.265769654484991e+17
19561.0	6.26497292337152e+17
19562.0	6.264199010669907e+17
19563.0	6.263450941172393e+17
19564.0	6.262570176479231e+17
19565.0	6.261689536916138e+17
19566.0	6.260690733323604e+17
19567.0	6.259916731842559e+17
19568.0	6.258845555534505e+17
19569.0	6.258030814778707e+17
19570.0	6.257313052622847e+17
19571.0	6.25640759955729e+17
19572.0	6.255251730464768e+17
19573.0	6.254534954669395e+17
19574.0	6.25300123960388e+17
19575.0	6.252727489964714e+17
19576.0	6.251779709381289e+17
19577.0	6.250689511904596e+17
19578.0	6.249793123429033e+17
19579.0	6.24877069611827e+17
19580.0	6.247849874423805e+17
19581.0	6.247044819714047e+17
19582.0	6.246131507920895e+17
19583.0	6.245161907169961e+17
19584.0	6.244167062301353e+17
19585.0	6.242395484760744e+17
19586.0	6.241226710493868e+17
19587.0	6.240859848004948e+17
19588.0	6.238698205085695e+17
19589.0	6.238753357387092e+17
19590.0	6.237709385334783e+17
19591.0	6.237234720844457e+17
19592.0	6.236328421228543e+17
19593.0	6.235185908897108e+17
19594.0	6.232700606917286e+17
19595.0	6.23329565142767e+17
19596.0	6.232095511456425e+17
19597.0	6.231254630399999e+17
19598.0	6.228517614955177e+17
19599.0	6.229182106654036e+17
19600.0	6.228292025712637e+17
19601.0	6.226904365400064e+17
19602.0	6.225568778070698e+17
19603.0	6.223849925727571e+17
19604.0	6.223540907584169e+17
19605.0	6.221552039930542e+17
19606.0	6.22206667264273e+17
19607.0	6.221118799085565e+17
19608.0	6.220058338525183e+17
19609.0	6.218849852588032e+17
19610.0	6.21798980985378e+17
19611.0	6.216881461526528e+17
19612.0	6.216016479300265e+17
19613.0	6.214887924214441e+17
19614.0	6.213636135583743e+17
19615.0	6.2127737943709e+17
19616.0	6.211457616882345e+17
19617.0	6.21010247361058e+17
19618.0	6.206536986656767e+17
19619.0	6.204671585331882e+17
19620.0	6.204809945634132e+17
19621.0	6.205751972331519e+17
19622.0	6.205284633193129e+17
19623.0	6.204322611549524e+17
19624.0	6.203186513707008e+17
19625.0	6.202187173942612e+17
19626.0	6.200945444651005e+17
19627.0	6.199728780520105e+17
19628.0	6.198111059836928e+17
19629.0	6.195277727094099e+17
19630.0	6.191558408448681e+17
19631.0	6.186935721306793e+17
19632.0	6.192079936596649e+17
19633.0	6.192438207752874e+17
19634.0	6.19226089984273e+17
19635.0	6.19115175879202e+17
19636.0	6.190252672679935e+17
19637.0	6.186743559269039e+17
19638.0	6.188356628469076e+17
19639.0	6.187259114029055e+17
19640.0	6.184926189016403e+17
19641.0	6.181484745108142e+17
19642.0	6.183962458193919e+17
19643.0	6.182923424235517e+17
19644.0	6.181442887352319e+17
19645.0	6.180115188809727e+17
19646.0	6.179634239853907e+17
19647.0	6.178877095979689e+17
19648.0	6.177808686514173e+17
19649.0	6.176741561903785e+17
19650.0	6.175703115846996e+17
19651.0	6.174587305852927e+17
19652.0	6.173493320919721e+17
19653.0	6.172473047384063e+17
19654.0	6.171329090114899e+17
19655.0	6.17021798682897e+17
19656.0	6.169216934390442e+17
19657.0	6.168100419054249e+17
19658.0	6.167064304331433e+17
19659.0	6.165977620283391e+17
19660.0	6.164927017735508e+17
19661.0	6.163806911376041e+17
19662.0	6.162722088200873e+17
19663.0	6.161506916543146e+17
19664.0	6.160475966406656e+17
19665.0	6.15948896838178e+17
