# Flux units: erg / (cm m2 s)
# Wavelength units: Angstrom
wave	flux
19000.0	7.802831392909993e+17
19001.0	7.801190835639634e+17
19002.0	7.79987949348454e+17
19003.0	7.798393550842536e+17
19004.0	7.796913727690067e+17
19005.0	7.795430003834879e+17
19006.0	7.793948167416488e+17
19007.0	7.792398936921427e+17
19008.0	7.790853272982867e+17
19009.0	7.789461695190358e+17
19010.0	7.787238498762748e+17
19011.0	7.786509724461738e+17
19012.0	7.784874682701139e+17
19013.0	7.78357947044113e+17
19014.0	7.781990139603624e+17
19015.0	7.780561446415017e+17
19016.0	7.779072467096915e+17
19017.0	7.77687949202773e+17
19018.0	7.776164086371667e+17
19019.0	7.774685754993321e+17
19020.0	7.773076278913705e+17
19021.0	7.771659690486441e+17
19022.0	7.770266790090068e+17
19023.0	7.768713953891667e+17
19024.0	7.76727653655074e+17
19025.0	7.765812355355987e+17
19026.0	7.764311032201215e+17
19027.0	7.762850830002858e+17
19028.0	7.761394046162259e+17
19029.0	7.759887104038228e+17
19030.0	7.758457051895126e+17
19031.0	7.756989825635667e+17
19032.0	7.755509482389503e+17
19033.0	7.753873866009257e+17
19034.0	7.752514815044264e+17
19035.0	7.751012859947688e+17
19036.0	7.744904103635622e+17
19037.0	7.748098014401876e+17
19038.0	7.746602638770175e+17
19039.0	7.745158601419434e+17
19040.0	7.743692766270803e+17
19041.0	7.742202531457705e+17
19042.0	7.740582935920637e+17
19043.0	7.739257918936403e+17
19044.0	7.737764272756051e+17
19045.0	7.736309981730132e+17
19046.0	7.734727318437887e+17
19047.0	7.733354989704531e+17
19048.0	7.7315280235834e+17
19049.0	7.730280130063017e+17
19050.0	7.728845761981097e+17
19051.0	7.7267823783226e+17
19052.0	7.725930775227049e+17
19053.0	7.724479277607593e+17
19054.0	7.723021882796713e+17
19055.0	7.7211199588707e+17
19056.0	7.720036360432297e+17
19057.0	7.718592228010664e+17
19058.0	7.717075521546922e+17
19059.0	7.71565270737442e+17
19060.0	7.714149094129663e+17
19061.0	7.712714853274964e+17
19062.0	7.711233899058515e+17
19063.0	7.709767725569366e+17
19064.0	7.708070918488063e+17
19065.0	7.706498222260221e+17
19066.0	7.705237821325313e+17
19067.0	7.703853926099625e+17
19068.0	7.702402757033981e+17
19069.0	7.700935280514387e+17
19070.0	7.699411435345234e+17
19071.0	7.697982071067987e+17
19072.0	7.696521320813908e+17
19073.0	7.6950374725277e+17
19074.0	7.693583813443581e+17
19075.0	7.692113142262441e+17
19076.0	7.69060344168448e+17
19077.0	7.68915935260399e+17
19078.0	7.687510283692713e+17
19079.0	7.686224560346451e+17
19080.0	7.684736993110696e+17
19081.0	7.683204936892415e+17
19082.0	7.681681431461887e+17
19083.0	7.680137334794922e+17
19084.0	7.678439139398995e+17
19085.0	7.677391224700928e+17
19086.0	7.675244145104211e+17
19087.0	7.674356195568298e+17
19088.0	7.672880674373632e+17
19089.0	7.671148526086825e+17
19090.0	7.670014082897236e+17
19091.0	7.668548025450496e+17
19092.0	7.66700328985122e+17
19093.0	7.665665136306858e+17
19094.0	7.664173735477247e+17
19095.0	7.662706356824745e+17
19096.0	7.661231470368084e+17
19097.0	7.659805134378323e+17
19098.0	7.658334593220607e+17
19099.0	7.656848650578602e+17
19100.0	7.655396825803434e+17
19101.0	7.653944641716221e+17
19102.0	7.65234121102677e+17
19103.0	7.651003934091945e+17
19104.0	7.649553099172522e+17
19105.0	7.648082525858472e+17
19106.0	7.646594758694228e+17
19107.0	7.645126538384726e+17
19108.0	7.643695634797908e+17
19109.0	7.641690388387154e+17
19110.0	7.640764592248148e+17
19111.0	7.639306106918228e+17
19112.0	7.637843336407721e+17
19113.0	7.636377957040125e+17
19114.0	7.634909268366675e+17
19115.0	7.633368032215039e+17
19116.0	7.631951445185875e+17
19117.0	7.630496123759274e+17
19118.0	7.628892241483092e+17
19119.0	7.62435751938184e+17
19120.0	7.62608472957474e+17
19121.0	7.624663793052328e+17
19122.0	7.623222233137151e+17
19123.0	7.621693926626646e+17
19124.0	7.620270268000936e+17
19125.0	7.618824989136214e+17
19126.0	7.617350551470079e+17
19127.0	7.613215233365329e+17
19128.0	7.613942761958057e+17
19129.0	7.612835316105215e+17
19130.0	7.611518086545405e+17
19131.0	7.61006473364548e+17
19132.0	7.608611926005076e+17
19133.0	7.605838183836332e+17
19134.0	7.605448477070675e+17
19135.0	7.604240637755391e+17
19136.0	7.602793465861459e+17
19137.0	7.601070097651028e+17
19138.0	7.599761407694164e+17
19139.0	7.598416518097577e+17
19140.0	7.596963197353983e+17
19141.0	7.595506793796947e+17
19142.0	7.594007735566335e+17
19143.0	7.592489537328468e+17
19144.0	7.591054495361706e+17
19145.0	7.589669954213204e+17
19146.0	7.587233035627178e+17
19147.0	7.586622077927421e+17
19148.0	7.585303543939071e+17
19149.0	7.583842410605225e+17
19150.0	7.582373681386834e+17
19151.0	7.580934842176851e+17
19152.0	7.579410887955795e+17
19153.0	7.577996023387474e+17
19154.0	7.576367829527209e+17
19155.0	7.57512665248563e+17
19156.0	7.573667841398102e+17
19157.0	7.572203036650154e+17
19158.0	7.570374578754899e+17
19159.0	7.569275711651837e+17
19160.0	7.56774668931345e+17
19161.0	7.566337868737194e+17
19162.0	7.564097409952426e+17
19163.0	7.563484034935464e+17
19164.0	7.562043859140608e+17
19165.0	7.560566047855956e+17
19166.0	7.558973224561322e+17
19167.0	7.557604193949012e+17
19168.0	7.555878685245437e+17
19169.0	7.554594975165096e+17
19170.0	7.553326788203862e+17
19171.0	7.551832557617151e+17
19172.0	7.550412506092883e+17
19173.0	7.548972786079059e+17
19174.0	7.547426031621459e+17
19175.0	7.546069771266728e+17
19176.0	7.544608008787284e+17
19177.0	7.542917849677821e+17
19178.0	7.541705519661055e+17
19179.0	7.540210824904703e+17
19180.0	7.538623494750207e+17
19181.0	7.537206328907092e+17
19182.0	7.53556382687778e+17
19183.0	7.534441888306515e+17
19184.0	7.53269187228467e+17
19185.0	7.531521425189545e+17
19186.0	7.530108320830804e+17
19187.0	7.52850509566225e+17
19188.0	7.527200401478995e+17
19189.0	7.525741021364224e+17
19190.0	7.524286828205395e+17
19191.0	7.522798510189224e+17
19192.0	7.521393394581503e+17
19193.0	7.519748032036861e+17
19194.0	7.518391992582143e+17
19195.0	7.517037299499005e+17
19196.0	7.515579295115948e+17
19197.0	7.514144018268157e+17
19198.0	7.512701153924436e+17
19199.0	7.506070974322003e+17
19200.0	7.506430147952641e+17
19201.0	7.508357215333033e+17
19202.0	7.506918631975596e+17
19203.0	7.50546251363123e+17
19204.0	7.503976070468948e+17
19205.0	7.502534288255658e+17
19206.0	7.501077928039763e+17
19207.0	7.499513249923071e+17
19208.0	7.497857625314644e+17
19209.0	7.496733493122387e+17
19210.0	7.495281773204819e+17
19211.0	7.49383195051076e+17
19212.0	7.49241392623343e+17
19213.0	7.490791513522172e+17
19214.0	7.489316118156628e+17
19215.0	7.488054622508372e+17
19216.0	7.486479946569044e+17
19217.0	7.485152312339113e+17
19218.0	7.48238554949222e+17
19219.0	7.481982687991123e+17
19220.0	7.48076438388736e+17
19221.0	7.478806166809258e+17
19222.0	7.477906717889876e+17
19223.0	7.476412108417705e+17
19224.0	7.474699339213481e+17
19225.0	7.473248147778216e+17
19226.0	7.472055757482666e+17
19227.0	7.470602267568809e+17
19228.0	7.46920359301393e+17
19229.0	7.467746814765738e+17
19230.0	7.466244936564735e+17
19231.0	7.464780769350995e+17
19232.0	7.4631932308794e+17
19233.0	7.461821181766313e+17
19234.0	7.460447274576553e+17
19235.0	7.458974404182015e+17
19236.0	7.457592154521599e+17
19237.0	7.456108637585407e+17
19238.0	7.454535140245503e+17
19239.0	7.453241720351402e+17
19240.0	7.451100606453074e+17
19241.0	7.450099804973738e+17
19242.0	7.448798263508992e+17
19243.0	7.44709096088098e+17
19244.0	7.445964169499987e+17
19245.0	7.444504680333311e+17
19246.0	7.443035766565545e+17
19247.0	7.4415614225722e+17
19248.0	7.440158781603837e+17
19249.0	7.438700461249876e+17
19250.0	7.437209818191187e+17
19251.0	7.435628161531901e+17
19252.0	7.433678190455466e+17
19253.0	7.432838697713661e+17
19254.0	7.431314149299539e+17
19255.0	7.42959101317393e+17
19256.0	7.428459636020563e+17
19257.0	7.427035099387219e+17
19258.0	7.425568242226515e+17
19259.0	7.423981155341654e+17
19260.0	7.422587697102847e+17
19261.0	7.421176572455594e+17
19262.0	7.419628579280211e+17
19263.0	7.418192427220991e+17
19264.0	7.415960506641066e+17
19265.0	7.415046910334291e+17
19266.0	7.413690199790931e+17
19267.0	7.412420206482772e+17
19268.0	7.410940201577129e+17
19269.0	7.409473368184148e+17
19270.0	7.408009248505855e+17
19271.0	7.40601831026415e+17
19272.0	7.405013202632701e+17
19273.0	7.386794356812435e+17
19274.0	7.394017187375775e+17
19275.0	7.400663678626474e+17
19276.0	7.39915867427089e+17
19277.0	7.39768304542242e+17
19278.0	7.396221277350568e+17
19279.0	7.394603913183232e+17
19280.0	7.3931192022685e+17
19281.0	7.391778172829696e+17
19282.0	7.390325130308264e+17
19283.0	7.38876344972083e+17
19284.0	7.387135803916287e+17
19285.0	7.385467062321151e+17
19286.0	7.384332120009385e+17
19287.0	7.382909216358399e+17
19288.0	7.380337291515219e+17
19289.0	7.376691402549923e+17
19290.0	7.378441839400275e+17
19291.0	7.376484364713983e+17
19292.0	7.375449899750739e+17
19293.0	7.373943323929258e+17
19294.0	7.372438539075581e+17
19295.0	7.37096030556433e+17
19296.0	7.369443964005034e+17
19297.0	7.367901882002089e+17
19298.0	7.366392388343122e+17
19299.0	7.364937129831081e+17
19300.0	7.363428221976575e+17
19301.0	7.361895101803178e+17
19302.0	7.360373355184127e+17
19303.0	7.358697316898131e+17
19304.0	7.357230247226025e+17
19305.0	7.355804168486911e+17
19306.0	7.354291028579667e+17
19307.0	7.35267846828851e+17
19308.0	7.351195394550441e+17
19309.0	7.349554749199699e+17
19310.0	7.347901827121152e+17
19311.0	7.346574578767187e+17
19312.0	7.345030119991977e+17
19313.0	7.343088371149484e+17
19314.0	7.340763566309372e+17
19315.0	7.3392819549853e+17
19316.0	7.338895259729919e+17
19317.0	7.337319410783572e+17
19318.0	7.335745520577193e+17
19319.0	7.334205999895892e+17
19320.0	7.332524845957119e+17
19321.0	7.331056443894442e+17
19322.0	7.329195396257108e+17
19323.0	7.327793883556521e+17
19324.0	7.326289773985791e+17
19325.0	7.3245797660317e+17
19326.0	7.323070893129727e+17
19327.0	7.32144491106577e+17
19328.0	7.319861808769705e+17
19329.0	7.318243316334591e+17
19330.0	7.316541084620118e+17
19331.0	7.314885329988266e+17
19332.0	7.313317482375849e+17
19333.0	7.311646459079338e+17
19334.0	7.309878060821161e+17
19335.0	7.308359768910505e+17
19336.0	7.306694198209194e+17
19337.0	7.305000188728659e+17
19338.0	7.302989671475881e+17
19339.0	7.301644807045119e+17
19340.0	7.299870918443007e+17
19341.0	7.298231072806228e+17
19342.0	7.295802249226921e+17
19343.0	7.294788943129258e+17
19344.0	7.293025348747263e+17
19345.0	7.287983427638605e+17
19346.0	7.288678401441795e+17
19347.0	7.287658535452671e+17
19348.0	7.285985465335807e+17
19349.0	7.284131750739968e+17
19350.0	7.282337835734356e+17
19351.0	7.280487167601321e+17
19352.0	7.278583400977747e+17
19353.0	7.276848638241449e+17
19354.0	7.274987056529407e+17
19355.0	7.272953202169174e+17
19356.0	7.271214816952319e+17
19357.0	7.269278892599977e+17
19358.0	7.267201669136383e+17
19359.0	7.264471809174186e+17
19360.0	7.263355799950676e+17
19361.0	7.261316787994624e+17
19362.0	7.259414199970472e+17
19363.0	7.257368623928659e+17
19364.0	7.255290281983997e+17
19365.0	7.253194577018879e+17
19366.0	7.251067389607935e+17
19367.0	7.248911991308287e+17
19368.0	7.246715260938921e+17
19369.0	7.244147653432659e+17
19370.0	7.240152850104317e+17
19371.0	7.239889043761833e+17
19372.0	7.237681307538772e+17
19373.0	7.235292603875327e+17
19374.0	7.23294791663616e+17
19375.0	7.230491430223871e+17
19376.0	7.228026689421311e+17
19377.0	7.225509268160511e+17
19378.0	7.222964894302207e+17
19379.0	7.220352223193769e+17
19380.0	7.217711890650451e+17
19381.0	7.214945108230143e+17
19382.0	7.211981559824383e+17
19383.0	7.209099610204841e+17
19384.0	7.206391988442451e+17
19385.0	7.203427159375871e+17
19386.0	7.200329503692114e+17
19387.0	7.197218807917225e+17
19388.0	7.193988964548607e+17
19389.0	7.190687137136639e+17
19390.0	7.187192338186239e+17
19391.0	7.179747206714702e+17
19392.0	7.180134041780224e+17
19393.0	7.176454318762664e+17
19394.0	7.172681540916564e+17
19395.0	7.168750946790057e+17
19396.0	7.164636948332543e+17
19397.0	7.160511461676372e+17
19398.0	7.156182108078079e+17
19399.0	7.150643775711913e+17
19400.0	7.146917823075667e+17
19401.0	7.14220423488034e+17
19402.0	7.13707697925871e+17
19403.0	7.131768198354259e+17
19404.0	7.126437700741802e+17
19405.0	7.120577177321471e+17
19406.0	7.114769381894825e+17
19407.0	7.108422579257344e+17
19408.0	7.100888201385303e+17
19409.0	7.094807264493568e+17
19410.0	7.087753372106751e+17
19411.0	7.080194300968959e+17
19412.0	7.072194664333311e+17
19413.0	7.063962168328191e+17
19414.0	7.05560724058931e+17
19415.0	7.046693276439892e+17
19416.0	7.037133513905491e+17
19417.0	7.02734965809698e+17
19418.0	7.01700807519983e+17
19419.0	7.005765862686719e+17
19420.0	6.994014350518953e+17
19421.0	6.981395543665321e+17
19422.0	6.967916022289748e+17
19423.0	6.953239616421887e+17
19424.0	6.937625689238188e+17
19425.0	6.920449738932223e+17
19426.0	6.902408405144915e+17
19427.0	6.884770625617919e+17
19428.0	6.866537154958676e+17
19429.0	6.846735081712297e+17
19430.0	6.82529257283038e+17
19431.0	6.801740322745002e+17
19432.0	6.77743975220292e+17
19433.0	6.749889773961216e+17
19434.0	6.719630709445971e+17
19435.0	6.685642763971241e+17
19436.0	6.650458463185578e+17
19437.0	6.616055727609172e+17
19438.0	6.574513751851005e+17
19439.0	6.535962600057516e+17
19440.0	6.48951473705233e+17
19441.0	6.436978296531625e+17
19442.0	6.379635246541482e+17
19443.0	6.320823074466473e+17
19444.0	6.254803936783016e+17
19445.0	6.179257301947734e+17
19446.0	6.097306719879165e+17
19447.0	6.003902856735397e+17
19448.0	5.895540973065562e+17
19449.0	5.7491876115469645e+17
19450.0	5.411915955524897e+17
19451.0	5.271556313142616e+17
19452.0	5.609511865810951e+17
19453.0	5.829859293702831e+17
19454.0	5.947188784573093e+17
19455.0	6.0452250845184e+17
19456.0	6.129252929197399e+17
19457.0	6.206297843520849e+17
19458.0	6.273203403314519e+17
19459.0	6.333875849876822e+17
19460.0	6.38868618757188e+17
19461.0	6.441907296490835e+17
19462.0	6.488592843014145e+17
19463.0	6.530108956693843e+17
19464.0	6.567394124234751e+17
19465.0	6.601163928152746e+17
19466.0	6.632437146015059e+17
19467.0	6.66529577793399e+17
19468.0	6.694520349523968e+17
19469.0	6.718764849212072e+17
19470.0	6.744202137654612e+17
19471.0	6.76543343886336e+17
19472.0	6.784736719186601e+17
19473.0	6.802582245386922e+17
19474.0	6.819095346064042e+17
19475.0	6.833218980413437e+17
19476.0	6.849081112526847e+17
19477.0	6.86402433974272e+17
19478.0	6.87760196588885e+17
19479.0	6.890066712461311e+17
19480.0	6.901233292585641e+17
19481.0	6.911469883665065e+17
19482.0	6.921014775294634e+17
19483.0	6.929714332215978e+17
19484.0	6.937610953949183e+17
19485.0	6.945104302440445e+17
19486.0	6.951884382273536e+17
19487.0	6.958378621687123e+17
19488.0	6.964203580904787e+17
19489.0	6.969566157952342e+17
19490.0	6.973103430522193e+17
19491.0	6.980032884899839e+17
19492.0	6.984670840007338e+17
19493.0	6.988823495267667e+17
19494.0	6.992943544707753e+17
19495.0	6.996329341386751e+17
19496.0	6.999259933747881e+17
19497.0	7.002815372547412e+17
19498.0	7.00553624551424e+17
19499.0	7.001683665442126e+17
19500.0	7.010710289296042e+17
19501.0	7.012871894466559e+17
19502.0	7.01480408588834e+17
19503.0	7.016699846284628e+17
19504.0	7.018275342210387e+17
19505.0	7.019794785457492e+17
19506.0	7.021136054670676e+17
19507.0	7.022405641131348e+17
19508.0	7.023533762805759e+17
19509.0	7.024478266938708e+17
19510.0	7.025092087949993e+17
19511.0	7.021987449449126e+17
19512.0	7.026011834504529e+17
19513.0	7.025212310683642e+17
19514.0	7.026778507138387e+17
19515.0	7.02766713195725e+17
19516.0	7.028760744995497e+17
19517.0	7.028980109191849e+17
19518.0	7.029268251585193e+17
19519.0	7.029377160882858e+17
19520.0	7.029380751906132e+17
19521.0	7.029482384785407e+17
19522.0	7.029391272618666e+17
19523.0	7.029379842441215e+17
19524.0	7.029214133878784e+17
19525.0	7.028880116285439e+17
19526.0	7.028725016515923e+17
19527.0	7.028422887516841e+17
19528.0	7.028097478033405e+17
19529.0	7.027755988287487e+17
19530.0	7.027361327349759e+17
19531.0	7.026925558038527e+17
19532.0	7.02643597161267e+17
19533.0	7.02593414480964e+17
19534.0	7.025386746893652e+17
19535.0	7.02477409399603e+17
19536.0	7.024162827315881e+17
19537.0	7.023627402040659e+17
19538.0	7.02293136707857e+17
19539.0	7.021448292641453e+17
19540.0	7.021595080698538e+17
19541.0	7.020923903279103e+17
19542.0	7.020172524475732e+17
19543.0	7.019408778767017e+17
19544.0	7.018640251551743e+17
19545.0	7.017309240208038e+17
19546.0	7.015547916342612e+17
19547.0	7.016148312085844e+17
19548.0	7.015360405088937e+17
19549.0	7.014310198902783e+17
19550.0	7.013617227879766e+17
19551.0	7.012733464958291e+17
19552.0	7.011826029385044e+17
19553.0	7.010879753857706e+17
19554.0	7.009911621812224e+17
19555.0	7.009023624041811e+17
19556.0	7.008112326213632e+17
19557.0	7.007145149071359e+17
19558.0	7.006168251629565e+17
19559.0	7.005116406868649e+17
19560.0	7.004144077722964e+17
19561.0	7.003139242721279e+17
19562.0	7.002161864332627e+17
19563.0	7.00112731967761e+17
19564.0	7.000121443090431e+17
19565.0	6.999071541690367e+17
19566.0	6.997990092832765e+17
19567.0	6.996970218455039e+17
19568.0	6.995867671549268e+17
19569.0	6.994819244447059e+17
19570.0	6.993787158353236e+17
19571.0	6.992703946489855e+17
19572.0	6.991553499234303e+17
19573.0	6.990506911334399e+17
19574.0	6.989248540442623e+17
19575.0	6.988312180249939e+17
19576.0	6.987215415192234e+17
19577.0	6.985918416158719e+17
19578.0	6.984917846764201e+17
19579.0	6.983813095052628e+17
19580.0	6.982695119399594e+17
19581.0	6.98158023774481e+17
19582.0	6.980471884524201e+17
19583.0	6.979331047118164e+17
19584.0	6.978184953550163e+17
19585.0	6.976840763004244e+17
19586.0	6.975607859926356e+17
19587.0	6.974628799621801e+17
19588.0	6.972749241122816e+17
19589.0	6.972301634087593e+17
19590.0	6.971107587741012e+17
19591.0	6.970057749954559e+17
19592.0	6.968911362785279e+17
19593.0	6.967708421018963e+17
19594.0	6.966140709022376e+17
19595.0	6.965346491695104e+17
19596.0	6.962944343190185e+17
19597.0	6.96298846167586e+17
19598.0	6.961439631037778e+17
19599.0	6.960631109036713e+17
19600.0	6.959448180391935e+17
19601.0	6.958162592661504e+17
19602.0	6.957012477455017e+17
19603.0	6.955195629393235e+17
19604.0	6.954587987989844e+17
19605.0	6.952955431354368e+17
19606.0	6.952224434072234e+17
19607.0	6.951050128916479e+17
19608.0	6.949826543484927e+17
19609.0	6.948545315733501e+17
19610.0	6.94743046623505e+17
19611.0	6.946201479238996e+17
19612.0	6.945007260925951e+17
19613.0	6.943762716557311e+17
19614.0	6.942497955643391e+17
19615.0	6.941349718786047e+17
19616.0	6.940097766577492e+17
19617.0	6.938904356367017e+17
19618.0	6.93690677015347e+17
19619.0	6.93538998539605e+17
19620.0	6.934224291146409e+17
19621.0	6.933994474045439e+17
19622.0	6.932777071717034e+17
19623.0	6.931552588704426e+17
19624.0	6.930304296725161e+17
19625.0	6.929089106892116e+17
19626.0	6.927839054004223e+17
19627.0	6.926625598515881e+17
19628.0	6.92525842178594e+17
19629.0	6.924006445110611e+17
19630.0	6.922836265751892e+17
19631.0	6.916412858346152e+17
19632.0	6.920437936859817e+17
19633.0	6.919122372438698e+17
19634.0	6.917966220929705e+17
19635.0	6.916653719748605e+17
19636.0	6.915468903667027e+17
19637.0	6.913516227963562e+17
19638.0	6.912984889338538e+17
19639.0	6.911737429928618e+17
19640.0	6.910406487790931e+17
19641.0	6.908473859462488e+17
19642.0	6.908011143845204e+17
19643.0	6.906724613794474e+17
19644.0	6.905441941105321e+17
19645.0	6.90388416611396e+17
19646.0	6.903054504820735e+17
19647.0	6.901808119851689e+17
19648.0	6.900552767460691e+17
19649.0	6.899300390928384e+17
19650.0	6.898064669278205e+17
19651.0	6.896804807311359e+17
19652.0	6.89555316478225e+17
19653.0	6.894317007623508e+17
19654.0	6.893048684347391e+17
19655.0	6.891790126110035e+17
19656.0	6.890555323012436e+17
19657.0	6.889302383744339e+17
19658.0	6.888063986827263e+17
19659.0	6.886812031822505e+17
19660.0	6.885568222156116e+17
19661.0	6.884308292381353e+17
19662.0	6.883065133531136e+17
19663.0	6.881737769833811e+17
19664.0	6.880525673299967e+17
19665.0	6.879308689702911e+17
19666.0	6.878028319686655e+17
