# Flux units: erg / (cm m2 s)
# Wavelength units: Angstrom
wave	flux
19000.0	6.73027407880738e+17
19001.0	6.729027637914282e+17
19002.0	6.727780865671168e+17
19003.0	6.726533615277396e+17
19004.0	6.725286163557034e+17
19005.0	6.724038744692052e+17
19006.0	6.722791013351423e+17
19007.0	6.721543063906985e+17
19008.0	6.720290159591423e+17
19009.0	6.719039866230102e+17
19010.0	6.71776213373201e+17
19011.0	6.716545687704916e+17
19012.0	6.715292992405503e+17
19013.0	6.714049247750825e+17
19014.0	6.712799549980671e+17
19015.0	6.711549625718099e+17
19016.0	6.710295128266067e+17
19017.0	6.709048427326121e+17
19018.0	6.707798521937919e+17
19019.0	6.706548231372799e+17
19020.0	6.705296964233897e+17
19021.0	6.704046173148502e+17
19022.0	6.702795527465642e+17
19023.0	6.701544272909652e+17
19024.0	6.700292101898239e+17
19025.0	6.699041368134998e+17
19026.0	6.697787471866537e+17
19027.0	6.696532535410687e+17
19028.0	6.69528641048849e+17
19029.0	6.694034437308415e+17
19030.0	6.69278249558562e+17
19031.0	6.691530372808704e+17
19032.0	6.690278157058047e+17
19033.0	6.689025821769727e+17
19034.0	6.687848098955261e+17
19035.0	6.686634056264361e+17
19036.0	6.68499896836642e+17
19037.0	6.684128397230079e+17
19038.0	6.682875770437631e+17
19039.0	6.681622728409087e+17
19040.0	6.68036960948497e+17
19041.0	6.679116403179519e+17
19042.0	6.677863152833875e+17
19043.0	6.676609873128105e+17
19044.0	6.675356362036564e+17
19045.0	6.674103142449151e+17
19046.0	6.672845948059647e+17
19047.0	6.671595183538175e+17
19048.0	6.670327444668415e+17
19049.0	6.669089284030463e+17
19050.0	6.66783576035601e+17
19051.0	6.666524843922771e+17
19052.0	6.665319029058217e+17
19053.0	6.664075131311443e+17
19054.0	6.662821603442687e+17
19055.0	6.661554723007146e+17
19056.0	6.660314480596308e+17
19057.0	6.659060927561728e+17
19058.0	6.657807296233471e+17
19059.0	6.656553705450153e+17
19060.0	6.655298426459476e+17
19061.0	6.654046658101247e+17
19062.0	6.652792740162217e+17
19063.0	6.651539361191251e+17
19064.0	6.650278768716458e+17
19065.0	6.649027437264896e+17
19066.0	6.647779087963476e+17
19067.0	6.646525593649152e+17
19068.0	6.64527214477312e+17
19069.0	6.644018821726207e+17
19070.0	6.642764695470079e+17
19071.0	6.641512116912127e+17
19072.0	6.640258808545279e+17
19073.0	6.639005122691071e+17
19074.0	6.637752293173929e+17
19075.0	6.636499096655188e+17
19076.0	6.635244335661053e+17
19077.0	6.63399177527842e+17
19078.0	6.632737700752041e+17
19079.0	6.631486648920745e+17
19080.0	6.630233655825748e+17
19081.0	6.628980683702271e+17
19082.0	6.627724447711232e+17
19083.0	6.626473773367295e+17
19084.0	6.625204652474367e+17
19085.0	6.623969270562815e+17
19086.0	6.622692502055593e+17
19087.0	6.621453146740054e+17
19088.0	6.620209896314196e+17
19089.0	6.618940748857343e+17
19090.0	6.617705826921129e+17
19091.0	6.616453076396713e+17
19092.0	6.615198766989311e+17
19093.0	6.613948949681491e+17
19094.0	6.612693368700927e+17
19095.0	6.611440330866687e+17
19096.0	6.610191042740223e+17
19097.0	6.608940049629183e+17
19098.0	6.607688232337408e+17
19099.0	6.606436207427583e+17
19100.0	6.605184295763965e+17
19101.0	6.603932221920595e+17
19102.0	6.602673166658217e+17
19103.0	6.601428817324714e+17
19104.0	6.600177123065855e+17
19105.0	6.598925428806996e+17
19106.0	6.597671859694249e+17
19107.0	6.596421195137023e+17
19108.0	6.59517071303202e+17
19109.0	6.593888247960916e+17
19110.0	6.592666877121876e+17
19111.0	6.591416844506452e+17
19112.0	6.590165642379263e+17
19113.0	6.588914489884672e+17
19114.0	6.587663375138813e+17
19115.0	6.586410010847914e+17
19116.0	6.585161296642045e+17
19117.0	6.583910021813588e+17
19118.0	6.582655754349225e+17
19119.0	6.581100893001044e+17
19120.0	6.580154618871807e+17
19121.0	6.578904744241834e+17
19122.0	6.577656583684095e+17
19123.0	6.57640593170978e+17
19124.0	6.575155418147497e+17
19125.0	6.573904841670655e+17
19126.0	6.572653862540627e+17
19127.0	6.571274495765162e+17
19128.0	6.570152998294868e+17
19129.0	6.568902974767103e+17
19130.0	6.567653265812137e+17
19131.0	6.566402911633407e+17
19132.0	6.565152595203412e+17
19133.0	6.563896603880106e+17
19134.0	6.562652741784915e+17
19135.0	6.561402609205247e+17
19136.0	6.560152717798058e+17
19137.0	6.558890739804841e+17
19138.0	6.557651610282665e+17
19139.0	6.556402875105279e+17
19140.0	6.555153150771199e+17
19141.0	6.553903344648191e+17
19142.0	6.552653413395113e+17
19143.0	6.551399828204201e+17
19144.0	6.550153268472489e+17
19145.0	6.548904323579904e+17
19146.0	6.547611146256384e+17
19147.0	6.546398046584831e+17
19148.0	6.545155096750761e+17
19149.0	6.543905522013524e+17
19150.0	6.542655395725312e+17
19151.0	6.541406443842217e+17
19152.0	6.540156723003391e+17
19153.0	6.538907234948436e+17
19154.0	6.537648156617385e+17
19155.0	6.536408017666048e+17
19156.0	6.535158170998099e+17
19157.0	6.533907838489939e+17
19158.0	6.532638043013119e+17
19159.0	6.531407890000553e+17
19160.0	6.530159453317802e+17
19161.0	6.528910077110954e+17
19162.0	6.527611952605865e+17
19163.0	6.526409307237033e+17
19164.0	6.525161370375508e+17
19165.0	6.523910673661951e+17
19166.0	6.522652538350249e+17
19167.0	6.521407624882857e+17
19168.0	6.520160702343849e+17
19169.0	6.518910566967977e+17
19170.0	6.517662511267839e+17
19171.0	6.516409793598804e+17
19172.0	6.515162589342378e+17
19173.0	6.513912580494676e+17
19174.0	6.512658364760063e+17
19175.0	6.511412461436928e+17
19176.0	6.510162226096809e+17
19177.0	6.508900651455827e+17
19178.0	6.507660107055104e+17
19179.0	6.506407072017065e+17
19180.0	6.505159697192275e+17
19181.0	6.503901329795753e+17
19182.0	6.502657487273983e+17
19183.0	6.501408171185491e+17
19184.0	6.500155817721855e+17
19185.0	6.498905739668136e+17
19186.0	6.4976548542109e+17
19187.0	6.49640330465553e+17
19188.0	6.495152043808084e+17
19189.0	6.493900885721087e+17
19190.0	6.492648990834687e+17
19191.0	6.491396779278335e+17
19192.0	6.490145322696703e+17
19193.0	6.488892927290026e+17
19194.0	6.487640805212159e+17
19195.0	6.486388330812756e+17
19196.0	6.485134693892096e+17
19197.0	6.483881572171775e+17
19198.0	6.482626953084927e+17
19199.0	6.481086391517183e+17
19200.0	6.47992024568081e+17
19201.0	6.478867180377428e+17
19202.0	6.477615339317929e+17
19203.0	6.476361788380499e+17
19204.0	6.475105722957823e+17
19205.0	6.473853182847657e+17
19206.0	6.472597678063615e+17
19207.0	6.471341430887763e+17
19208.0	6.470072591712255e+17
19209.0	6.468832747061247e+17
19210.0	6.467576922111999e+17
19211.0	6.466320774900393e+17
19212.0	6.465064327796052e+17
19213.0	6.463805139714047e+17
19214.0	6.462541854496084e+17
19215.0	6.461291944913577e+17
19216.0	6.460035188129791e+17
19217.0	6.458777173753855e+17
19218.0	6.457458451720873e+17
19219.0	6.456248513156436e+17
19220.0	6.455001050251263e+17
19221.0	6.453717661035178e+17
19222.0	6.452480864245076e+17
19223.0	6.451220776484863e+17
19224.0	6.449959853359104e+17
19225.0	6.448688159260671e+17
19226.0	6.447437084360704e+17
19227.0	6.446175028772864e+17
19228.0	6.444912356622333e+17
19229.0	6.443649060918612e+17
19230.0	6.442385079446186e+17
19231.0	6.441121221705728e+17
19232.0	6.439855574395564e+17
19233.0	6.438589417477459e+17
19234.0	6.437323375902719e+17
19235.0	6.436058712855891e+17
19236.0	6.434791612918441e+17
19237.0	6.433522774441983e+17
19238.0	6.432252702840148e+17
19239.0	6.430986843717631e+17
19240.0	6.429714240154281e+17
19241.0	6.428445862352212e+17
19242.0	6.427175726437716e+17
19243.0	6.423590550721874e+17
19244.0	6.422114173889193e+17
19245.0	6.420838625225385e+17
19246.0	6.419561067489961e+17
19247.0	6.41828490715682e+17
19248.0	6.417006871969791e+17
19249.0	6.415727704320682e+17
19250.0	6.41444734898449e+17
19251.0	6.41315785286178e+17
19252.0	6.411864193892352e+17
19253.0	6.410601258199721e+17
19254.0	6.409317737562111e+17
19255.0	6.408019488626003e+17
19256.0	6.406744356596393e+17
19257.0	6.405459965640701e+17
19258.0	6.404171560736084e+17
19259.0	6.402882107255465e+17
19260.0	6.401584711860223e+17
19261.0	6.400299471557971e+17
19262.0	6.399006265573376e+17
19263.0	6.39770935042594e+17
19264.0	6.396377802910377e+17
19265.0	6.395104375865343e+17
19266.0	6.393805985021951e+17
19267.0	6.392520189673471e+17
19268.0	6.391218734891007e+17
19269.0	6.389915721924607e+17
19270.0	6.388610966224895e+17
19271.0	6.387280430235647e+17
19272.0	6.385994476901716e+17
19273.0	6.384592699959978e+17
19274.0	6.383311914008575e+17
19275.0	6.382063625524563e+17
19276.0	6.380748976859817e+17
19277.0	6.37943241838865e+17
19278.0	6.378113980170239e+17
19279.0	6.376793459479892e+17
19280.0	6.375465524658176e+17
19281.0	6.374146584521385e+17
19282.0	6.372820136580436e+17
19283.0	6.371410317060778e+17
19284.0	6.367072154025983e+17
19285.0	6.365720192832852e+17
19286.0	6.364390330728447e+17
19287.0	6.363045255184383e+17
19288.0	6.361593407340543e+17
19289.0	6.360100769191252e+17
19290.0	6.358993798692863e+17
19291.0	6.357618724088489e+17
19292.0	6.35627881173265e+17
19293.0	6.354912909372074e+17
19294.0	6.353546728090282e+17
19295.0	6.352178420296361e+17
19296.0	6.350806936016212e+17
19297.0	6.349431930617855e+17
19298.0	6.348053753626623e+17
19299.0	6.346671887745023e+17
19300.0	6.345286385401855e+17
19301.0	6.343896790816084e+17
19302.0	6.342504190312447e+17
19303.0	6.341104675498665e+17
19304.0	6.339703650036394e+17
19305.0	6.336603055543635e+17
19306.0	6.333149996908543e+17
19307.0	6.331721270165501e+17
19308.0	6.330290923722068e+17
19309.0	6.328843969931946e+17
19310.0	6.327399072748883e+17
19311.0	6.325964020995411e+17
19312.0	6.324512512890195e+17
19313.0	6.323053735357098e+17
19314.0	6.32126912401681e+17
19315.0	6.319821021686442e+17
19316.0	6.318644159403348e+17
19317.0	6.317163277189119e+17
19318.0	6.315674864102057e+17
19319.0	6.311665909192018e+17
19320.0	6.308210866651135e+17
19321.0	6.306679222872745e+17
19322.0	6.305133403744938e+17
19323.0	6.30358762725922e+17
19324.0	6.302035724992511e+17
19325.0	6.300462421988692e+17
19326.0	6.298897852224852e+17
19327.0	6.297314542310739e+17
19328.0	6.295723881878868e+17
19329.0	6.292305360541012e+17
19330.0	6.289879412856148e+17
19331.0	6.288242646537556e+17
19332.0	6.286593391678804e+17
19333.0	6.284932109653332e+17
19334.0	6.283258872463359e+17
19335.0	6.281574873388372e+17
19336.0	6.279880589879977e+17
19337.0	6.278173685710847e+17
19338.0	6.276439195604308e+17
19339.0	6.27472114716945e+17
19340.0	6.272968109850623e+17
19341.0	6.27121017987618e+17
19342.0	6.269410313153193e+17
19343.0	6.26764468593186e+17
19344.0	6.265837545586687e+17
19345.0	6.263875018861225e+17
19346.0	6.26211498823953e+17
19347.0	6.260311619272703e+17
19348.0	6.25844108272162e+17
19349.0	6.256547217451689e+17
19350.0	6.254634235243178e+17
19351.0	6.252701778881193e+17
19352.0	6.250747737232724e+17
19353.0	6.248775114817535e+17
19354.0	6.246779924949674e+17
19355.0	6.244762437462697e+17
19356.0	6.242721699550548e+17
19357.0	6.240657635016701e+17
19358.0	6.238568220109481e+17
19359.0	6.236454378973865e+17
19360.0	6.234326744869545e+17
19361.0	6.232169896738815e+17
19362.0	6.229988930661034e+17
19363.0	6.22777703997986e+17
19364.0	6.225535805248852e+17
19365.0	6.223263984954025e+17
19366.0	6.220961498005504e+17
19367.0	6.218627392296275e+17
19368.0	6.216260612259839e+17
19369.0	6.213856599386793e+17
19370.0	6.211416176459773e+17
19371.0	6.20895395713297e+17
19372.0	6.206446292522324e+17
19373.0	6.203900640799401e+17
19374.0	6.201316059643903e+17
19375.0	6.198691049592147e+17
19376.0	6.196025290478932e+17
19377.0	6.19331656491554e+17
19378.0	6.190576843445588e+17
19379.0	6.187807584288767e+17
19380.0	6.184993079776596e+17
19381.0	6.182131919923881e+17
19382.0	6.179216720658432e+17
19383.0	6.17625500656162e+17
19384.0	6.173253438188201e+17
19385.0	6.170192358932479e+17
19386.0	6.167078947345748e+17
19387.0	6.163821966830249e+17
19388.0	6.160429941609812e+17
19389.0	6.157149488371028e+17
19390.0	6.153810973381972e+17
19391.0	6.150098086701738e+17
19392.0	6.146951160528895e+17
19393.0	6.1434118551197e+17
19394.0	6.139774994393769e+17
19395.0	6.136092633158996e+17
19396.0	6.132365264945151e+17
19397.0	6.12859444723712e+17
19398.0	6.124779224432639e+17
19399.0	6.120872152662015e+17
19400.0	6.11701649187362e+17
19401.0	6.11307861503727e+17
19402.0	6.108627086955859e+17
19403.0	6.104470790340608e+17
19404.0	6.100386372911101e+17
19405.0	6.096160441761791e+17
19406.0	6.09181103100177e+17
19407.0	6.087383992762367e+17
19408.0	6.082377366721876e+17
19409.0	6.077233017214294e+17
19410.0	6.072520366445908e+17
19411.0	6.067709891925332e+17
19412.0	6.061819244314623e+17
19413.0	6.056163658782035e+17
19414.0	6.050952573004457e+17
19415.0	6.043497770866004e+17
19416.0	6.037829634577748e+17
19417.0	6.029359191512406e+17
19418.0	6.021849353814016e+17
19419.0	6.012953892836692e+17
19420.0	6.001890599545513e+17
19421.0	5.989698230375767e+17
19422.0	5.974864352160421e+17
19423.0	5.956095958843391e+17
19424.0	5.934151755978075e+17
19425.0	5.915463469673129e+17
19426.0	5.903256689573887e+17
19427.0	5.890373446533119e+17
19428.0	5.876768526652756e+17
19429.0	5.863012519553705e+17
19430.0	5.84894152511761e+17
19431.0	5.834267079387818e+17
19432.0	5.818208687401642e+17
19433.0	5.801609221111808e+17
19434.0	5.783868694418771e+17
19435.0	5.76496397993028e+17
19436.0	5.7438677136397664e+17
19437.0	5.718915163007654e+17
19438.0	5.686665509076981e+17
19439.0	5.6437090658112826e+17
19440.0	5.585493438409388e+17
19441.0	5.5416203027415014e+17
19442.0	5.499873013705388e+17
19443.0	5.4536157335825043e+17
19444.0	5.4000729641888403e+17
19445.0	5.331871775500974e+17
19446.0	5.233022820767062e+17
19447.0	5.116688389373945e+17
19448.0	4.9809033331561856e+17
19449.0	4.7700673843691514e+17
19450.0	4.394268937071268e+17
19451.0	4.262183610701112e+17
19452.0	4.5996326417421805e+17
19453.0	4.889095538300254e+17
19454.0	5.051795151082832e+17
19455.0	5.168778989360469e+17
19456.0	5.279422835152212e+17
19457.0	5.3584467234652115e+17
19458.0	5.414891118657536e+17
19459.0	5.4627900430745606e+17
19460.0	5.504331845468158e+17
19461.0	5.542378723781293e+17
19462.0	5.594861823939943e+17
19463.0	5.6437482573878534e+17
19464.0	5.6783032147421856e+17
19465.0	5.7038219279073274e+17
19466.0	5.724492029143719e+17
19467.0	5.7420635065111885e+17
19468.0	5.758299303575552e+17
19469.0	5.772860314353663e+17
19470.0	5.787309720294739e+17
19471.0	5.800370000013993e+17
19472.0	5.812378734865065e+17
19473.0	5.824068061582676e+17
19474.0	5.835515980939264e+17
19475.0	5.846457497507155e+17
19476.0	5.85683173445905e+17
19477.0	5.868506973208573e+17
19478.0	5.888670285780294e+17
19479.0	5.90683255183769e+17
19480.0	5.920533036837541e+17
19481.0	5.931645869053268e+17
19482.0	5.940462924507821e+17
19483.0	5.947605374730243e+17
19484.0	5.95451951850018e+17
19485.0	5.95980164530176e+17
19486.0	5.964351490665129e+17
19487.0	5.968775501316096e+17
19488.0	5.972711738878633e+17
19489.0	5.975574721156436e+17
19490.0	5.979516087653715e+17
19491.0	5.982395326354774e+17
19492.0	5.984877714691412e+17
19493.0	5.987262608528724e+17
19494.0	5.990520713816744e+17
19495.0	5.992705651900415e+17
19496.0	5.994776040745641e+17
19497.0	5.996807001735168e+17
19498.0	5.998616912418132e+17
19499.0	5.999907781476351e+17
19500.0	6.002435055856298e+17
19501.0	6.004350798615892e+17
19502.0	6.00596631449327e+17
19503.0	6.007537337193812e+17
19504.0	6.009062472111444e+17
19505.0	6.01054054134579e+17
19506.0	6.011971672823124e+17
19507.0	6.013354846628521e+17
19508.0	6.01469177963042e+17
19509.0	6.015965328310271e+17
19510.0	6.017119937014442e+17
19511.0	6.017628847996927e+17
19512.0	6.019195127638698e+17
19513.0	6.02009258566178e+17
19514.0	6.02106961662225e+17
19515.0	6.022102255665151e+17
19516.0	6.023092024726867e+17
19517.0	6.023843541243219e+17
19518.0	6.024549635544404e+17
19519.0	6.025199656195412e+17
19520.0	6.025798197357226e+17
19521.0	6.026349872764243e+17
19522.0	6.026852212670463e+17
19523.0	6.02730820272128e+17
19524.0	6.027723340950185e+17
19525.0	6.028112153630035e+17
19526.0	6.028461985147561e+17
19527.0	6.028768902643712e+17
19528.0	6.029035045213524e+17
19529.0	6.029261457937748e+17
19530.0	6.029449371145556e+17
19531.0	6.029599990699348e+17
19532.0	6.029714305056767e+17
19533.0	6.029793510293503e+17
19534.0	6.029838578089983e+17
19535.0	6.029850652792147e+17
19536.0	6.029830122373119e+17
19537.0	6.029779525085865e+17
19538.0	6.029691054631594e+17
19539.0	6.029548630747818e+17
19540.0	6.029447149562538e+17
19541.0	6.029280300149417e+17
19542.0	6.029086553363798e+17
19543.0	6.028868668358655e+17
19544.0	6.028632098428243e+17
19545.0	6.028338439826089e+17
19546.0	6.028024615010303e+17
19547.0	6.027780238781098e+17
19548.0	6.027450457434794e+17
19549.0	6.027099591322282e+17
19550.0	6.026727844566356e+17
19551.0	6.026335892449961e+17
19552.0	6.025924038361087e+17
19553.0	6.025491611211094e+17
19554.0	6.025041492486825e+17
19555.0	6.02457732284416e+17
19556.0	6.024093144973311e+17
19557.0	6.023591929140563e+17
19558.0	6.023074936433321e+17
19559.0	6.022542203901267e+17
19560.0	6.021994425701716e+17
19561.0	6.021432084878676e+17
19562.0	6.020855584784383e+17
19563.0	6.020265154008404e+17
19564.0	6.019661437774505e+17
19565.0	6.01904475275264e+17
19566.0	6.018414055260159e+17
19567.0	6.017774946091008e+17
19568.0	6.017124791222271e+17
19569.0	6.016462416248831e+17
19570.0	6.015790125940736e+17
19571.0	6.015106339744425e+17
19572.0	6.014411897918806e+17
19573.0	6.013706762715135e+17
19574.0	6.012992920835411e+17
19575.0	6.012707194361171e+17
19576.0	6.013896124355924e+17
19577.0	6.013138098978815e+17
19578.0	6.012370343515476e+17
19579.0	6.01159966462225e+17
19580.0	6.010817823987028e+17
19581.0	6.010027509459625e+17
19582.0	6.009232008675327e+17
19583.0	6.008428075242836e+17
19584.0	6.007617084194815e+17
19585.0	6.006799260625577e+17
19586.0	6.005964731143507e+17
19587.0	6.008630416856404e+17
19588.0	6.00824187331106e+17
19589.0	6.007412874717865e+17
19590.0	6.006541253607423e+17
19591.0	6.005673055049044e+17
19592.0	6.004795066286079e+17
19593.0	6.003912495945043e+17
19594.0	6.003007674821289e+17
19595.0	6.00213103382801e+17
19596.0	6.001216299466751e+17
19597.0	6.000333412455764e+17
19598.0	5.999406984374953e+17
19599.0	5.998519005478911e+17
19600.0	5.997605414065492e+17
19601.0	5.99668502298624e+17
19602.0	5.995762787112276e+17
19603.0	5.994808353663657e+17
19604.0	5.997158902442668e+17
19605.0	5.996245204773546e+17
19606.0	5.995318896929449e+17
19607.0	5.994368915734528e+17
19608.0	5.993415381265065e+17
19609.0	5.992457579091284e+17
19610.0	5.991500335458986e+17
19611.0	5.990537974076756e+17
19612.0	5.989573840601087e+17
19613.0	5.988606522949632e+17
19614.0	5.987636567080959e+17
19615.0	5.986664075755519e+17
19616.0	5.985686386988372e+17
19617.0	5.984711868415999e+17
19618.0	5.983691139099305e+17
19619.0	5.982699488193193e+17
19620.0	5.981718004279977e+17
19621.0	5.980780218722986e+17
19622.0	5.979792015534761e+17
19623.0	5.978801685135359e+17
19624.0	5.97780933517858e+17
19625.0	5.976815150213801e+17
19626.0	5.975819051947348e+17
19627.0	5.974821055758335e+17
19628.0	5.973814519966378e+17
19629.0	5.972819373806932e+17
19630.0	5.971797673508863e+17
19631.0	5.970499698600618e+17
19632.0	5.969804845733204e+17
19633.0	5.969236868464641e+17
19634.0	5.970447750747476e+17
19635.0	5.969431331078144e+17
19636.0	5.968413495831209e+17
19637.0	5.967366840123391e+17
19638.0	5.966426549867859e+17
19639.0	5.965477453671081e+17
19640.0	5.964450463656618e+17
19641.0	5.963371100766207e+17
19642.0	5.96240438010402e+17
19643.0	5.961377547375956e+17
19644.0	5.960347582201855e+17
19645.0	5.959301007583914e+17
19646.0	5.958291340044969e+17
19647.0	5.957260505950889e+17
19648.0	5.95622867570961e+17
19649.0	5.955195662674602e+17
19650.0	5.954162158206975e+17
19651.0	5.953127521277267e+17
19652.0	5.952092003543721e+17
19653.0	5.951055438632276e+17
19654.0	5.950018397667327e+17
19655.0	5.948980022214655e+17
19656.0	5.947941020412586e+17
19657.0	5.946901978764628e+17
19658.0	5.945861638979584e+17
19659.0	5.944820440760319e+17
19660.0	5.943778776973312e+17
19661.0	5.942736280616959e+17
19662.0	5.941693140434943e+17
19663.0	5.940646118424576e+17
19664.0	5.939603766771712e+17
