# Flux units: erg / (cm m2 s)
# Wavelength units: Angstrom
wave	flux
19000.0	7.891948136300543e+17
19001.0	7.890472760508416e+17
19002.0	7.889067126205097e+17
19003.0	7.887624275842387e+17
19004.0	7.886180836879017e+17
19005.0	7.884737822938454e+17
19006.0	7.883292980281345e+17
19007.0	7.881829691075242e+17
19008.0	7.88037887013683e+17
19009.0	7.878925381621075e+17
19010.0	7.877351325040639e+17
19011.0	7.876043650105344e+17
19012.0	7.874545482465276e+17
19013.0	7.873155593579177e+17
19014.0	7.871685034246143e+17
19015.0	7.870243163952467e+17
19016.0	7.868779463704573e+17
19017.0	7.867330841979561e+17
19018.0	7.865889069552979e+17
19019.0	7.864436138879658e+17
19020.0	7.862965155921919e+17
19021.0	7.861519741441364e+17
19022.0	7.860068178111145e+17
19023.0	7.858610436571133e+17
19024.0	7.857142792279382e+17
19025.0	7.855690836082688e+17
19026.0	7.854222891199145e+17
19027.0	7.85273508209186e+17
19028.0	7.851314359478952e+17
19029.0	7.849853312827391e+17
19030.0	7.848391989351763e+17
19031.0	7.846929915095721e+17
19032.0	7.845467310959273e+17
19033.0	7.843972184189609e+17
19034.0	7.842540096410964e+17
19035.0	7.841059438591997e+17
19036.0	7.837239026035369e+17
19037.0	7.838144198781609e+17
19038.0	7.837123239477245e+17
19039.0	7.835837812528467e+17
19040.0	7.8343712042298e+17
19041.0	7.832903804605779e+17
19042.0	7.831407573336063e+17
19043.0	7.829968690784938e+17
19044.0	7.828499431686144e+17
19045.0	7.827031317632339e+17
19046.0	7.825545033853609e+17
19047.0	7.82408740975411e+17
19048.0	7.822553357047123e+17
19049.0	7.821128426149204e+17
19050.0	7.819666030329855e+17
19051.0	7.817796212402857e+17
19052.0	7.816668905122472e+17
19053.0	7.815266568940202e+17
19054.0	7.813794603117226e+17
19055.0	7.812231585944918e+17
19056.0	7.810849741733888e+17
19057.0	7.809376608496297e+17
19058.0	7.807903143908691e+17
19059.0	7.806428878209024e+17
19060.0	7.804946861435561e+17
19061.0	7.803481059841363e+17
19062.0	7.802004786468179e+17
19063.0	7.800530333422931e+17
19064.0	7.799015162074454e+17
19065.0	7.797515260788736e+17
19066.0	7.796081658866345e+17
19067.0	7.794627873953106e+17
19068.0	7.793151915152726e+17
19069.0	7.791675675333972e+17
19070.0	7.79019534606882e+17
19071.0	7.788721639609684e+17
19072.0	7.787244267328851e+17
19073.0	7.785764730787156e+17
19074.0	7.784288716062717e+17
19075.0	7.78281054966033e+17
19076.0	7.781324791567702e+17
19077.0	7.779849447931901e+17
19078.0	7.778364566448809e+17
19079.0	7.776895493297492e+17
19080.0	7.77541350728226e+17
19081.0	7.773921765315923e+17
19082.0	7.772440985862143e+17
19083.0	7.770938671453523e+17
19084.0	7.769406267108012e+17
19085.0	7.768015417726291e+17
19086.0	7.766392614944765e+17
19087.0	7.764976574573225e+17
19088.0	7.763537634699944e+17
19089.0	7.761987185060522e+17
19090.0	7.760599436667562e+17
19091.0	7.759116834089642e+17
19092.0	7.757611448052394e+17
19093.0	7.756163897273e+17
19094.0	7.754653617881084e+17
19095.0	7.75308956331759e+17
19096.0	7.751711102511785e+17
19097.0	7.750127780713812e+17
19098.0	7.748146499158015e+17
19099.0	7.746663274425002e+17
19100.0	7.745180267795795e+17
19101.0	7.743696186026666e+17
19102.0	7.74218343199539e+17
19103.0	7.740729536632148e+17
19104.0	7.73924544787251e+17
19105.0	7.737760667052714e+17
19106.0	7.736262422517078e+17
19107.0	7.734785917059072e+17
19108.0	7.7333053599034e+17
19109.0	7.731568983758163e+17
19110.0	7.730324245752488e+17
19111.0	7.728851232751615e+17
19112.0	7.727366324704596e+17
19113.0	7.725880717606911e+17
19114.0	7.7243947707706e+17
19115.0	7.722896250809002e+17
19116.0	7.721421881649833e+17
19117.0	7.719927031704233e+17
19118.0	7.718408727210666e+17
19119.0	7.716075020659368e+17
19120.0	7.715452242012841e+17
19121.0	7.713970525831169e+17
19122.0	7.712499773560148e+17
19123.0	7.711010910284458e+17
19124.0	7.709508742676479e+17
19125.0	7.708033211695103e+17
19126.0	7.706543877259263e+17
19127.0	7.704477196877821e+17
19128.0	7.703459169391956e+17
19129.0	7.702049041590954e+17
19130.0	7.70058762723874e+17
19131.0	7.699100581494783e+17
19132.0	7.697609421138602e+17
19133.0	7.696021661766999e+17
19134.0	7.694582506586113e+17
19135.0	7.693140130179753e+17
19136.0	7.69165002539008e+17
19137.0	7.690103827376809e+17
19138.0	7.688658082944339e+17
19139.0	7.687175526503764e+17
19140.0	7.685684742236841e+17
19141.0	7.684192741621757e+17
19142.0	7.682691807139156e+17
19143.0	7.681190363747668e+17
19144.0	7.679711666066772e+17
19145.0	7.678221994688511e+17
19146.0	7.676527308526932e+17
19147.0	7.675203172346536e+17
19148.0	7.673739163118249e+17
19149.0	7.672245298834088e+17
19150.0	7.670748431428266e+17
19151.0	7.669256784532819e+17
19152.0	7.66775886016239e+17
19153.0	7.666258880582996e+17
19154.0	7.664725761807699e+17
19155.0	7.663273302294525e+17
19156.0	7.661774927735464e+17
19157.0	7.66026849591842e+17
19158.0	7.65861583248862e+17
19159.0	7.657273581109247e+17
19160.0	7.655780963931476e+17
19161.0	7.654273020766889e+17
19162.0	7.652396352143357e+17
19163.0	7.651272963741012e+17
19164.0	7.64979076940868e+17
19165.0	7.648284772401152e+17
19166.0	7.646749587232083e+17
19167.0	7.645254436694697e+17
19168.0	7.643770564640767e+17
19169.0	7.642272438943744e+17
19170.0	7.6407867731258e+17
19171.0	7.63926566543906e+17
19172.0	7.637781473219923e+17
19173.0	7.636279636961961e+17
19174.0	7.634757961646079e+17
19175.0	7.633273245138944e+17
19176.0	7.631768593104893e+17
19177.0	7.630210325282815e+17
19178.0	7.628746250343763e+17
19179.0	7.627223513868969e+17
19180.0	7.625733736235008e+17
19181.0	7.624203953329492e+17
19182.0	7.622719113789439e+17
19183.0	7.621220886031017e+17
19184.0	7.619696476028928e+17
19185.0	7.618201206652927e+17
19186.0	7.6166934298624e+17
19187.0	7.615158760592723e+17
19188.0	7.613670916532904e+17
19189.0	7.612155557838847e+17
19190.0	7.610640157201747e+17
19191.0	7.609130418875049e+17
19192.0	7.607619514531839e+17
19193.0	7.606098202722303e+17
19194.0	7.604586676223999e+17
19195.0	7.603072557645821e+17
19196.0	7.601549668777983e+17
19197.0	7.600026749151913e+17
19198.0	7.59848327324194e+17
19199.0	7.594646084867412e+17
19200.0	7.59379809726191e+17
19201.0	7.593929433503059e+17
19202.0	7.592433037257386e+17
19203.0	7.590917243753812e+17
19204.0	7.589388171083773e+17
19205.0	7.58787396861952e+17
19206.0	7.58634558661154e+17
19207.0	7.584802113497769e+17
19208.0	7.583233952710655e+17
19209.0	7.581772082577407e+17
19210.0	7.580243724337151e+17
19211.0	7.578713959606953e+17
19212.0	7.577183891488765e+17
19213.0	7.575611406374228e+17
19214.0	7.574062918270975e+17
19215.0	7.572577017572009e+17
19216.0	7.571049698121044e+17
19217.0	7.569516354251433e+17
19218.0	7.567699678156115e+17
19219.0	7.566382715633663e+17
19220.0	7.564894411598505e+17
19221.0	7.563253327243944e+17
19222.0	7.56181884591582e+17
19223.0	7.560277890782548e+17
19224.0	7.558720891038377e+17
19225.0	7.557139962789887e+17
19226.0	7.555644086637908e+17
19227.0	7.554097101493587e+17
19228.0	7.552548111471955e+17
19229.0	7.55099718647808e+17
19230.0	7.54944410980625e+17
19231.0	7.547892496946515e+17
19232.0	7.546330775814143e+17
19233.0	7.544754738124115e+17
19234.0	7.5432144694586e+17
19235.0	7.541654930762409e+17
19236.0	7.540101998095017e+17
19237.0	7.538533567474345e+17
19238.0	7.536940386265769e+17
19239.0	7.535408739691177e+17
19240.0	7.533804896561834e+17
19241.0	7.532258337838419e+17
19242.0	7.530698539095382e+17
19243.0	7.529064471811411e+17
19244.0	7.527550491645268e+17
19245.0	7.525972914645672e+17
19246.0	7.524387955671037e+17
19247.0	7.522811111276543e+17
19248.0	7.521228319358975e+17
19249.0	7.519641903562751e+17
19250.0	7.518052149100544e+17
19251.0	7.516418908094463e+17
19252.0	7.514767056961536e+17
19253.0	7.513273259786239e+17
19254.0	7.511673749372927e+17
19255.0	7.510012268118015e+17
19256.0	7.508463483617279e+17
19257.0	7.506872817593002e+17
19258.0	7.505265068168532e+17
19259.0	7.503628798874964e+17
19260.0	7.501562688918868e+17
19261.0	7.499577973626196e+17
19262.0	7.497948974459561e+17
19263.0	7.496317897714344e+17
19264.0	7.494545166740138e+17
19265.0	7.493023038439421e+17
19266.0	7.491407508581033e+17
19267.0	7.489821238187347e+17
19268.0	7.488184188753236e+17
19269.0	7.486543616103764e+17
19270.0	7.484898874316114e+17
19271.0	7.483143876859219e+17
19272.0	7.481589406280361e+17
19273.0	7.47894748689203e+17
19274.0	7.477704778929492e+17
19275.0	7.476630402367487e+17
19276.0	7.474966755453608e+17
19277.0	7.473298279497725e+17
19278.0	7.47162554073088e+17
19279.0	7.469946711834621e+17
19280.0	7.468241114890236e+17
19281.0	7.466580030696105e+17
19282.0	7.464889494099283e+17
19283.0	7.463163592529236e+17
19284.0	7.461451525171881e+17
19285.0	7.45972869103616e+17
19286.0	7.458071295033344e+17
19287.0	7.456369084290386e+17
19288.0	7.453943716817577e+17
19289.0	7.451287808027304e+17
19290.0	7.451196422531752e+17
19291.0	7.449367856982697e+17
19292.0	7.447721375956991e+17
19293.0	7.445972158251007e+17
19294.0	7.444222462394365e+17
19295.0	7.442464042385407e+17
19296.0	7.440699228859049e+17
19297.0	7.438927486342484e+17
19298.0	7.435984080382633e+17
19299.0	7.434180623335424e+17
19300.0	7.432387584939347e+17
19301.0	7.430586160731475e+17
19302.0	7.42877605012002e+17
19303.0	7.426939611862355e+17
19304.0	7.42512995283763e+17
19305.0	7.423315597590527e+17
19306.0	7.421478429523965e+17
19307.0	7.419611481899008e+17
19308.0	7.417762643880617e+17
19309.0	7.415834223138132e+17
19310.0	7.413924106338301e+17
19311.0	7.4121359668893e+17
19312.0	7.410267946920617e+17
19313.0	7.408359944050004e+17
19314.0	7.405165777431212e+17
19315.0	7.403209257648128e+17
19316.0	7.402431751127036e+17
19317.0	7.399781129956008e+17
19318.0	7.396966620550484e+17
19319.0	7.395003673695572e+17
19320.0	7.393026787770365e+17
19321.0	7.391042226268841e+17
19322.0	7.389006102790143e+17
19323.0	7.386999296098303e+17
19324.0	7.385007739895807e+17
19325.0	7.382912283792723e+17
19326.0	7.380924228435965e+17
19327.0	7.378860637858472e+17
19328.0	7.376790322413565e+17
19329.0	7.3747006516538e+17
19330.0	7.370773791855956e+17
19331.0	7.368411292805802e+17
19332.0	7.366283929234089e+17
19333.0	7.36412780531985e+17
19334.0	7.361951231377407e+17
19335.0	7.359762495351466e+17
19336.0	7.357552196408658e+17
19337.0	7.355319836824916e+17
19338.0	7.352998764915369e+17
19339.0	7.348378560102399e+17
19340.0	7.3459240547997e+17
19341.0	7.343613808388778e+17
19342.0	7.341158648774653e+17
19343.0	7.338914745068202e+17
19344.0	7.33652871876881e+17
19345.0	7.333467648600744e+17
19346.0	7.328292538766675e+17
19347.0	7.32611959010099e+17
19348.0	7.323643544251049e+17
19349.0	7.321107469522259e+17
19350.0	7.318551906658985e+17
19351.0	7.314108810526723e+17
19352.0	7.309568040239101e+17
19353.0	7.306929474895871e+17
19354.0	7.304233657303039e+17
19355.0	7.301365720853162e+17
19356.0	7.29430507983121e+17
19357.0	7.291481033976489e+17
19358.0	7.288610385210025e+17
19359.0	7.285040223005357e+17
19360.0	7.280186456976041e+17
19361.0	7.277192442544128e+17
19362.0	7.27379039363618e+17
19363.0	7.270693237074602e+17
19364.0	7.26757794574063e+17
19365.0	7.264416120001875e+17
19366.0	7.261207318058322e+17
19367.0	7.257953487465129e+17
19368.0	7.254649620223316e+17
19369.0	7.251266073788415e+17
19370.0	7.247778561742164e+17
19371.0	7.244398714683391e+17
19372.0	7.240891830545064e+17
19373.0	7.237307972539732e+17
19374.0	7.233662610658644e+17
19375.0	7.229952442586451e+17
19376.0	7.226176636452864e+17
19377.0	7.221592642464426e+17
19378.0	7.217668110505299e+17
19379.0	7.213674626984617e+17
19380.0	7.209600473017e+17
19381.0	7.205428717595306e+17
19382.0	7.201153455139497e+17
19383.0	7.196817010371241e+17
19384.0	7.192452396657322e+17
19385.0	7.186998407550292e+17
19386.0	7.182230967287807e+17
19387.0	7.177564983044778e+17
19388.0	7.172808963872084e+17
19389.0	7.167960987380394e+17
19390.0	7.162333503684608e+17
19391.0	7.154310774609233e+17
19392.0	7.151042073810259e+17
19393.0	7.145766281106771e+17
19394.0	7.139266334643539e+17
19395.0	7.132459358137002e+17
19396.0	7.126658012151807e+17
19397.0	7.119436789405012e+17
19398.0	7.111704884980393e+17
19399.0	7.105200347152381e+17
19400.0	7.095582109029719e+17
19401.0	7.088585882730496e+17
19402.0	7.078098993064613e+17
19403.0	7.069833935279442e+17
19404.0	7.057536500192595e+17
19405.0	7.046610849977686e+17
19406.0	7.034314629141851e+17
19407.0	7.020109056267604e+17
19408.0	7.003430590960978e+17
19409.0	6.989704609486166e+17
19410.0	6.979484030861311e+17
19411.0	6.96920769106193e+17
19412.0	6.95869115605538e+17
19413.0	6.947896891714217e+17
19414.0	6.936819113394175e+17
19415.0	6.925396102610943e+17
19416.0	6.913329586328916e+17
19417.0	6.901304482507432e+17
19418.0	6.888649065671338e+17
19419.0	6.875502244877652e+17
19420.0	6.861145113624573e+17
19421.0	6.847080529483094e+17
19422.0	6.832090521796607e+17
19423.0	6.815997407963817e+17
19424.0	6.799467921539071e+17
19425.0	6.781744790022825e+17
19426.0	6.761951566058835e+17
19427.0	6.740845025121622e+17
19428.0	6.717205142743718e+17
19429.0	6.690782610194426e+17
19430.0	6.662079930258774e+17
19431.0	6.628627576433334e+17
19432.0	6.591071177932788e+17
19433.0	6.559487005556735e+17
19434.0	6.52975364042479e+17
19435.0	6.497686832982696e+17
19436.0	6.463318970247849e+17
19437.0	6.426356866875391e+17
19438.0	6.384516399977811e+17
19439.0	6.340765772939264e+17
19440.0	6.289063550823081e+17
19441.0	6.229794158368077e+17
19442.0	6.162959652880385e+17
19443.0	6.093307473384788e+17
19444.0	6.019608103004838e+17
19445.0	5.93494202157193e+17
19446.0	5.83679688642833e+17
19447.0	5.723594313170937e+17
19448.0	5.59348769585016e+17
19449.0	5.44059755279155e+17
19450.0	5.254679996224816e+17
19451.0	5.189839527171417e+17
19452.0	5.3479407189579117e+17
19453.0	5.519290316182875e+17
19454.0	5.656867173477027e+17
19455.0	5.77580656894498e+17
19456.0	5.878751996936195e+17
19457.0	5.967815921456465e+17
19458.0	6.042785190073686e+17
19459.0	6.111924168512856e+17
19460.0	6.178898818979149e+17
19461.0	6.239191958552573e+17
19462.0	6.29230427561438e+17
19463.0	6.337911230999206e+17
19464.0	6.378020237475837e+17
19465.0	6.414064283899222e+17
19466.0	6.447217139952296e+17
19467.0	6.477681044488191e+17
19468.0	6.506022406804822e+17
19469.0	6.532816086324561e+17
19470.0	6.566541231390716e+17
19471.0	6.599423566719657e+17
19472.0	6.627827124273146e+17
19473.0	6.652578044226214e+17
19474.0	6.674550158087506e+17
19475.0	6.694117856422565e+17
19476.0	6.711904592461824e+17
19477.0	6.727623956059475e+17
19478.0	6.742739507653289e+17
19479.0	6.755893275612499e+17
19480.0	6.769105096933375e+17
19481.0	6.780778014834687e+17
19482.0	6.792341525015209e+17
19483.0	6.803403962668372e+17
19484.0	6.813658181708457e+17
19485.0	6.823336338259965e+17
19486.0	6.832622367233364e+17
19487.0	6.841733962093908e+17
19488.0	6.85025309893154e+17
19489.0	6.858462786311508e+17
19490.0	6.866113228963837e+17
19491.0	6.874098562323796e+17
19492.0	6.881557535697578e+17
19493.0	6.891180674165421e+17
19494.0	6.90352383136017e+17
19495.0	6.915453763627689e+17
19496.0	6.925366925634214e+17
19497.0	6.936352504064681e+17
19498.0	6.943373601188524e+17
19499.0	6.947837246614184e+17
19500.0	6.95810075603763e+17
19501.0	6.963475791566164e+17
19502.0	6.969413620203523e+17
19503.0	6.974467735552e+17
19504.0	6.978083988963325e+17
19505.0	6.984021746297513e+17
19506.0	6.9871542468608e+17
19507.0	6.990134261405012e+17
19508.0	6.995033441260884e+17
19509.0	6.997693031251967e+17
19510.0	7.000146299234985e+17
19511.0	6.999988534684329e+17
19512.0	7.005946594547027e+17
19513.0	7.007640584454141e+17
19514.0	7.009986402757289e+17
19515.0	7.012448441729024e+17
19516.0	7.014469795665236e+17
19517.0	7.01679374696448e+17
19518.0	7.019040973957801e+17
19519.0	7.02064746439202e+17
19520.0	7.022170703484244e+17
19521.0	7.023629057392637e+17
19522.0	7.024992661973674e+17
19523.0	7.026265512301908e+17
19524.0	7.027462481379325e+17
19525.0	7.028673990011562e+17
19526.0	7.03033385086703e+17
19527.0	7.031315899613183e+17
19528.0	7.032232429136554e+17
19529.0	7.033085563852116e+17
19530.0	7.03387762041378e+17
19531.0	7.034610665215315e+17
19532.0	7.035286671676756e+17
19533.0	7.035907582459903e+17
19534.0	7.036475135404713e+17
19535.0	7.036991087225513e+17
19536.0	7.037446456519338e+17
19537.0	7.037881779137193e+17
19538.0	7.038225921780394e+17
19539.0	7.038424577998847e+17
19540.0	7.038864851293526e+17
19541.0	7.039296270412458e+17
19542.0	7.039732533952511e+17
19543.0	7.04227815911151e+17
19544.0	7.042398046300842e+17
19545.0	7.042332364898301e+17
19546.0	7.042803583767892e+17
19547.0	7.046625949472084e+17
19548.0	7.046574149817684e+17
19549.0	7.04645748105762e+17
19550.0	7.046376237389139e+17
19551.0	7.047913206535511e+17
19552.0	7.049509738992978e+17
19553.0	7.049279968029352e+17
19554.0	7.049025942803795e+17
19555.0	7.048760815255551e+17
19556.0	7.048458172454228e+17
19557.0	7.050384108770644e+17
19558.0	7.050638061294931e+17
19559.0	7.05024874320145e+17
19560.0	7.049831558152191e+17
19561.0	7.049410107495764e+17
19562.0	7.048957529511254e+17
19563.0	7.04848415896371e+17
19564.0	7.049287614245545e+17
19565.0	7.049807480051028e+17
19566.0	7.049259576721407e+17
19567.0	7.048704803121833e+17
19568.0	7.048117093051049e+17
19569.0	7.047530604920832e+17
19570.0	7.046922549679446e+17
19571.0	7.046294431683926e+17
19572.0	7.045643479897428e+17
19573.0	7.045017614243155e+17
19574.0	7.046134005148329e+17
19575.0	7.045475928637439e+17
19576.0	7.044771937080659e+17
19577.0	7.044049401107795e+17
19578.0	7.043310828912639e+17
19579.0	7.042572722285225e+17
19580.0	7.041818681496916e+17
19581.0	7.041055265041065e+17
19582.0	7.04028274275123e+17
19583.0	7.039493679524522e+17
19584.0	7.038691914547199e+17
19585.0	7.037845757056339e+17
19586.0	7.037012665521492e+17
19587.0	7.036519667029332e+17
19588.0	7.036643724055892e+17
19589.0	7.035935609498281e+17
19590.0	7.035056866459647e+17
19591.0	7.034210379715926e+17
19592.0	7.033330129524054e+17
19593.0	7.032435102100137e+17
19594.0	7.03146723639296e+17
19595.0	7.030634128080896e+17
19596.0	7.029418161602559e+17
19597.0	7.028791478059007e+17
19598.0	7.02778906456883e+17
19599.0	7.027062754421417e+17
19600.0	7.026141016970582e+17
19601.0	7.025165684703231e+17
19602.0	7.02421316805154e+17
19603.0	7.023102750534313e+17
19604.0	7.022269995941887e+17
19605.0	7.021212061750612e+17
19606.0	7.020329082464938e+17
19607.0	7.019340182323197e+17
19608.0	7.0183422001152e+17
19609.0	7.017332729708543e+17
19610.0	7.016851887707476e+17
19611.0	7.0163437715456e+17
19612.0	7.015325210684073e+17
19613.0	7.014299464280745e+17
19614.0	7.01325338948403e+17
19615.0	7.0122322540189e+17
19616.0	7.011173333467136e+17
19617.0	7.010146490253311e+17
19618.0	7.008916181352447e+17
19619.0	7.007819110110548e+17
19620.0	7.006768146153471e+17
19621.0	7.005919779662505e+17
19622.0	7.004852673227432e+17
19623.0	7.003781164171263e+17
19624.0	7.002705647457619e+17
19625.0	7.001625942032383e+17
19626.0	7.000542513463296e+17
19627.0	6.999454454382591e+17
19628.0	6.99830913606178e+17
19629.0	6.997235638206463e+17
19630.0	6.996001443981993e+17
19631.0	6.992579919522473e+17
19632.0	6.993958920694441e+17
19633.0	6.992858998024874e+17
19634.0	6.991750997125801e+17
19635.0	6.990623446575786e+17
19636.0	6.989522940897962e+17
19637.0	6.988259654980948e+17
19638.0	6.987279558683305e+17
19639.0	6.986152284258303e+17
19640.0	6.985003871939242e+17
19641.0	6.983706014471508e+17
19642.0	6.982766860173311e+17
19643.0	6.981629111872169e+17
19644.0	6.980471314098858e+17
19645.0	6.979263490861737e+17
19646.0	6.978210066945364e+17
19647.0	6.977064901017597e+17
19648.0	6.975917482748586e+17
19649.0	6.974766795019603e+17
19650.0	6.973615743784275e+17
19651.0	6.972461649581396e+17
19652.0	6.97130539880721e+17
19653.0	6.970146415443968e+17
19654.0	6.968986828100948e+17
19655.0	6.967822896158036e+17
19656.0	6.966657954785962e+17
19657.0	6.965494200401919e+17
19658.0	6.964326348881919e+17
19659.0	6.963156096122879e+17
19660.0	6.961985176469504e+17
19661.0	6.960811941560319e+17
19662.0	6.959913961346387e+17
19663.0	6.959145593514665e+17
19664.0	6.957973142241279e+17
19665.0	6.956802037339476e+17
19666.0	6.955615205894825e+17
