# Flux units: erg / (cm m2 s)
# Wavelength units: Angstrom
wave	flux
19000.0	4.556141428211711e+17
19001.0	4.5552238591999994e+17
19002.0	4.554568996924075e+17
19003.0	4.55376483000866e+17
19004.0	4.5529441368364365e+17
19005.0	4.552146578046976e+17
19006.0	4.551232595864232e+17
19007.0	4.550598212976638e+17
19008.0	4.5497310909562874e+17
19009.0	4.548962700754943e+17
19010.0	4.5474583332345146e+17
19011.0	4.547368090686805e+17
19012.0	4.546437575955796e+17
19013.0	4.5458551688833696e+17
19014.0	4.5449882125380256e+17
19015.0	4.544170855934634e+17
19016.0	4.543376719697236e+17
19017.0	4.5426850195483296e+17
19018.0	4.5418771266928634e+17
19019.0	4.541077347019434e+17
19020.0	4.5402958782791674e+17
19021.0	4.5395193357489485e+17
19022.0	4.538736390613675e+17
19023.0	4.5378720081728845e+17
19024.0	4.537058808823807e+17
19025.0	4.536359955289428e+17
19026.0	4.535531229325994e+17
19027.0	4.534724477321215e+17
19028.0	4.5339804637156685e+17
19029.0	4.5331702108651514e+17
19030.0	4.53239698952465e+17
19031.0	4.531620433712468e+17
19032.0	4.53084640776465e+17
19033.0	4.52993026831155e+17
19034.0	4.5292548686260896e+17
19035.0	4.528462033321983e+17
19036.0	4.523554120226128e+17
19037.0	4.5268887925336736e+17
19038.0	4.5260894287953914e+17
19039.0	4.525314865976661e+17
19040.0	4.5245311560799565e+17
19041.0	4.523738738109098e+17
19042.0	4.520472687411197e+17
19043.0	4.522190956047018e+17
19044.0	4.521402362582357e+17
19045.0	4.5206018363228154e+17
19046.0	4.5197365611943245e+17
19047.0	4.5190374525064525e+17
19048.0	4.517633369396564e+17
19049.0	4.5124100970687085e+17
19050.0	4.5166176837304314e+17
19051.0	4.5149558326777146e+17
19052.0	4.515079506624511e+17
19053.0	4.514336176690516e+17
19054.0	4.513540837386923e+17
19055.0	4.511734212242092e+17
19056.0	4.5117383715935546e+17
19057.0	4.5111967555256314e+17
19058.0	4.5078566655754195e+17
19059.0	4.5086101079763616e+17
19060.0	4.508823263204692e+17
19061.0	4.5080496888436045e+17
19062.0	4.5072523509541536e+17
19063.0	4.506498082275327e+17
19064.0	4.5055596843499514e+17
19065.0	4.5047409191594656e+17
19066.0	4.503152417396053e+17
19067.0	4.503314648181418e+17
19068.0	4.502590987436031e+17
19069.0	4.501805016110422e+17
19070.0	4.5009614157469e+17
19071.0	4.5002193224335354e+17
19072.0	4.4984832860269203e+17
19073.0	4.4986763309656736e+17
19074.0	4.497871253187242e+17
19075.0	4.4971193675721376e+17
19076.0	4.496257952601429e+17
19077.0	4.495529514543785e+17
19078.0	4.494700499173374e+17
19079.0	4.493977445903017e+17
19080.0	4.4931990998220794e+17
19081.0	4.4923654329685325e+17
19082.0	4.491593037905919e+17
19083.0	4.490785375038123e+17
19084.0	4.4898664205079885e+17
19085.0	4.489286364342953e+17
19086.0	4.486881179161939e+17
19087.0	4.485539352805373e+17
19088.0	4.485663962081959e+17
19089.0	4.48593476522257e+17
19090.0	4.485391420402346e+17
19091.0	4.484472669295958e+17
19092.0	4.4818209883641216e+17
19093.0	4.4830785623381325e+17
19094.0	4.4823039967232e+17
19095.0	4.4815122519381325e+17
19096.0	4.4807262281837216e+17
19097.0	4.4799676079144954e+17
19098.0	4.4781799522085523e+17
19099.0	4.477175712798039e+17
19100.0	4.4775993689593165e+17
19101.0	4.4768396371995296e+17
19102.0	4.475887919562751e+17
19103.0	4.4752845332807674e+17
19104.0	4.474539394203647e+17
19105.0	4.4715244173393984e+17
19106.0	4.4729374699683834e+17
19107.0	4.471647271299753e+17
19108.0	4.470574805243221e+17
19109.0	4.470426719748095e+17
19110.0	4.469866408968192e+17
19111.0	4.4684544237895654e+17
19112.0	4.467484028218025e+17
19113.0	4.4675310337829536e+17
19114.0	4.466326308039338e+17
19115.0	4.465778727671125e+17
19116.0	4.465109048317268e+17
19117.0	4.4643216767931725e+17
19118.0	4.4628897714667514e+17
19119.0	4.4465149527981875e+17
19120.0	4.4616955168030714e+17
19121.0	4.461227303851348e+17
19122.0	4.460556211716095e+17
19123.0	4.4598049098082976e+17
19124.0	4.459010979790847e+17
19125.0	4.4582600868276896e+17
19126.0	4.457491827348819e+17
19127.0	4.454234930020347e+17
19128.0	4.455925194686463e+17
19129.0	4.4550879549849594e+17
19130.0	4.4543983163364685e+17
19131.0	4.4536335653928954e+17
19132.0	4.4528485559610016e+17
19133.0	4.452040926647636e+17
19134.0	4.4513114833551354e+17
19135.0	4.45054464364817e+17
19136.0	4.4497605513707514e+17
19137.0	4.448766593597439e+17
19138.0	4.448220600074238e+17
19139.0	4.4474739098036896e+17
19140.0	4.446702181635413e+17
19141.0	4.4459274104995834e+17
19142.0	4.4451162691556685e+17
19143.0	4.444290484797439e+17
19144.0	4.443572636658346e+17
19145.0	4.4428374422760096e+17
19146.0	4.441323819324757e+17
19147.0	4.4410786944122874e+17
19148.0	4.439716470456321e+17
19149.0	4.4387747960804685e+17
19150.0	4.438996263021226e+17
19151.0	4.438221791079082e+17
19152.0	4.437463040786431e+17
19153.0	4.434908312589649e+17
19154.0	4.435628770284884e+17
19155.0	4.4351659889568416e+17
19156.0	4.434388871806976e+17
19157.0	4.433080483140951e+17
19158.0	4.4314670001029126e+17
19159.0	4.431992234617515e+17
19160.0	4.431304461735252e+17
19161.0	4.4305484740908365e+17
19162.0	4.4294392987866445e+17
19163.0	4.429020917661696e+17
19164.0	4.428247605444607e+17
19165.0	4.425555871006716e+17
19166.0	4.42650461278481e+17
19167.0	4.42586469900834e+17
19168.0	4.4251871958794234e+17
19169.0	4.4244008058224634e+17
19170.0	4.423657306718207e+17
19171.0	4.4228385366343674e+17
19172.0	4.4221201607120205e+17
19173.0	4.4213679870880416e+17
19174.0	4.420513046724608e+17
19175.0	4.4198221316096e+17
19176.0	4.419067991556095e+17
19177.0	4.418111902056446e+17
19178.0	4.4174583183441914e+17
19179.0	4.416630808728917e+17
19180.0	4.415989389896362e+17
19181.0	4.4149792337210016e+17
19182.0	4.4144293835352736e+17
19183.0	4.4137126503819936e+17
19184.0	4.412930091122688e+17
19185.0	4.4121721538259616e+17
19186.0	4.4114237334050125e+17
19187.0	4.4105962049153696e+17
19188.0	4.409887094210559e+17
19189.0	4.4091457083364685e+17
19190.0	4.4083857046459725e+17
19191.0	4.407560356495359e+17
19192.0	4.406855810591402e+17
19193.0	4.405875203287723e+17
19194.0	4.404962091423062e+17
19195.0	4.4045708705136634e+17
19196.0	4.4037840365595296e+17
19197.0	4.4030237134028794e+17
19198.0	4.4022695118329165e+17
19199.0	4.3984871353221094e+17
19200.0	4.39888731107055e+17
19201.0	4.399985047808682e+17
19202.0	4.399243050964308e+17
19203.0	4.398473618478419e+17
19204.0	4.3976978337191245e+17
19205.0	4.396951386019157e+17
19206.0	4.396184127580842e+17
19207.0	4.395311504031743e+17
19208.0	4.39428543816226e+17
19209.0	4.393914125516799e+17
19210.0	4.3931363218991776e+17
19211.0	4.392399829379753e+17
19212.0	4.391644791745194e+17
19213.0	4.390766684842665e+17
19214.0	4.389981812424704e+17
19215.0	4.389368702347946e+17
19216.0	4.388621154342228e+17
19217.0	4.387861702202708e+17
19218.0	4.386030431327571e+17
19219.0	4.386179140375893e+17
19220.0	4.38556242809105e+17
19221.0	4.384397260226559e+17
19222.0	4.384052290606419e+17
19223.0	4.3832801681735674e+17
19224.0	4.382496931534164e+17
19225.0	4.3816007150250656e+17
19226.0	4.3810248433773216e+17
19227.0	4.3802662112242336e+17
19228.0	4.3795372852292256e+17
19229.0	4.378743383173802e+17
19230.0	4.378004232164693e+17
19231.0	4.377259660017663e+17
19232.0	4.3765121490616314e+17
19233.0	4.375674143200597e+17
19234.0	4.37495461384465e+17
19235.0	4.374201903349759e+17
19236.0	4.3734898559330976e+17
19237.0	4.372694954235221e+17
19238.0	4.371842231959551e+17
19239.0	4.371228031363753e+17
19240.0	4.3704505339303245e+17
19241.0	4.369699301228542e+17
19242.0	4.368919900280148e+17
19243.0	4.368036667239081e+17
19244.0	4.367443662558548e+17
19245.0	4.366678338393429e+17
19246.0	4.365925077046612e+17
19247.0	4.36518882849587e+17
19248.0	4.364439632128682e+17
19249.0	4.363633256912212e+17
19250.0	4.362561411612672e+17
19251.0	4.3617481276784614e+17
19252.0	4.3610961189273594e+17
19253.0	4.3606352725715616e+17
19254.0	4.359930102415359e+17
19255.0	4.35893967135266e+17
19256.0	4.358393442249386e+17
19257.0	4.3576659031709005e+17
19258.0	4.3569118414110714e+17
19259.0	4.356090806403072e+17
19260.0	4.3552283386620576e+17
19261.0	4.354652897629525e+17
19262.0	4.353831478842709e+17
19263.0	4.3530652948452685e+17
19264.0	4.351645374043476e+17
19265.0	4.351312686743551e+17
19266.0	4.350316215184042e+17
19267.0	4.350131760878932e+17
19268.0	4.349360795374933e+17
19269.0	4.348625347936255e+17
19270.0	4.3478724479986336e+17
19271.0	4.3466254038248115e+17
19272.0	4.346335194338644e+17
19273.0	4.3453955073638406e+17
19274.0	4.344398206730238e+17
19275.0	4.3441369826809165e+17
19276.0	4.3433617487735456e+17
19277.0	4.342627111534591e+17
19278.0	4.3418472149592736e+17
19279.0	4.3411118409209165e+17
19280.0	4.3402679092073805e+17
19281.0	4.33962839319074e+17
19282.0	4.338894224315733e+17
19283.0	4.338116060687017e+17
19284.0	4.3373717688593056e+17
19285.0	4.3364096269789843e+17
19286.0	4.33585191387136e+17
19287.0	4.335139793054378e+17
19288.0	4.333556882298197e+17
19289.0	4.330613879690574e+17
19290.0	4.33291626877201e+17
19291.0	4.331878427394049e+17
19292.0	4.331416446479018e+17
19293.0	4.330657568959146e+17
19294.0	4.329912278887081e+17
19295.0	4.329173094323541e+17
19296.0	4.327341599752195e+17
19297.0	4.327501671869098e+17
19298.0	4.3268992418884256e+17
19299.0	4.3249888552550406e+17
19300.0	4.3254242128254304e+17
19301.0	4.3246868653670394e+17
19302.0	4.3239496213681485e+17
19303.0	4.323095855409834e+17
19304.0	4.322420115286698e+17
19305.0	4.3216891305874765e+17
19306.0	4.320962073853951e+17
19307.0	4.3201401265848314e+17
19308.0	4.319430829932544e+17
19309.0	4.3185977300090874e+17
19310.0	4.3178327015423994e+17
19311.0	4.3171514990373536e+17
19312.0	4.316390600562004e+17
19313.0	4.3154659117192525e+17
19314.0	4.297348380011167e+17
19315.0	4.2974022446612685e+17
19316.0	4.311865716899841e+17
19317.0	4.312653972723028e+17
19318.0	4.3119932768692896e+17
19319.0	4.3112699320948045e+17
19320.0	4.310146779971582e+17
19321.0	4.308853852908202e+17
19322.0	4.308997275036329e+17
19323.0	4.3083018258786976e+17
19324.0	4.307593225480874e+17
19325.0	4.306750055732565e+17
19326.0	4.306115240132607e+17
19327.0	4.3053563570203296e+17
19328.0	4.302607059255298e+17
19329.0	4.303893803215529e+17
19330.0	4.303107239794006e+17
19331.0	4.3023646040173216e+17
19332.0	4.301677268740778e+17
19333.0	4.30092250583313e+17
19334.0	4.3001348337172474e+17
19335.0	4.295328964542468e+17
19336.0	4.2986767028060154e+17
19337.0	4.2979661240948045e+17
19338.0	4.296967126865236e+17
19339.0	4.296466610083158e+17
19340.0	4.2952370191073274e+17
19341.0	4.2934601329759597e+17
19342.0	4.293365458447018e+17
19343.0	4.293528593104895e+17
19344.0	4.291273112420354e+17
19345.0	4.28805428399308e+17
19346.0	4.290534351481516e+17
19347.0	4.2886168331332256e+17
19348.0	4.2898390763874976e+17
19349.0	4.2890568540706125e+17
19350.0	4.2876181952157005e+17
19351.0	4.287548899022164e+17
19352.0	4.284784407390888e+17
19353.0	4.286133057181013e+17
19354.0	4.2854056858746874e+17
19355.0	4.284547959794346e+17
19356.0	4.2839156761559034e+17
19357.0	4.283185447130453e+17
19358.0	4.282446923868842e+17
19359.0	4.2812515661032083e+17
19360.0	4.2793223833954976e+17
19361.0	4.2801701913449805e+17
19362.0	4.279494573555712e+17
19363.0	4.2787595707132576e+17
19364.0	4.278025108236969e+17
19365.0	4.277275394572287e+17
19366.0	4.2765193013712205e+17
19367.0	4.2758005982931616e+17
19368.0	4.2750713891826336e+17
19369.0	4.274281779997355e+17
19370.0	4.2735776661067085e+17
19371.0	4.2727832614338554e+17
19372.0	4.2721055003552416e+17
19373.0	4.271347617584468e+17
19374.0	4.270621122188628e+17
19375.0	4.269904399521109e+17
19376.0	4.269171762266111e+17
19377.0	4.268421804632746e+17
19378.0	4.267693292475732e+17
19379.0	4.266956724458836e+17
19380.0	4.2661872136792736e+17
19381.0	4.265439022546943e+17
19382.0	4.2646450037500576e+17
19383.0	4.2638638237177165e+17
19384.0	4.263212029575168e+17
19385.0	4.2625083581835936e+17
19386.0	4.261786008158207e+17
19387.0	4.261041707242836e+17
19388.0	4.2602965213293216e+17
19389.0	4.259565577874089e+17
19390.0	4.258828340865706e+17
19391.0	4.254194011734008e+17
19392.0	4.257323828641791e+17
19393.0	4.2565991284080634e+17
19394.0	4.255855174221823e+17
19395.0	4.254519816181079e+17
19396.0	4.254247181527723e+17
19397.0	4.2536330704104083e+17
19398.0	4.25237526015727e+17
19399.0	4.2503052313231334e+17
19400.0	4.250927140350634e+17
19401.0	4.2506535927371085e+17
19402.0	4.2499241242787834e+17
19403.0	4.249159525029206e+17
19404.0	4.2484136051124896e+17
19405.0	4.247636685094912e+17
19406.0	4.2469169341399034e+17
19407.0	4.245454996198739e+17
19408.0	4.244240975178414e+17
19409.0	4.24465442869521e+17
19410.0	4.243917629292544e+17
19411.0	4.243154651141461e+17
19412.0	4.242381937311743e+17
19413.0	4.240888988783958e+17
19414.0	4.240809789139627e+17
19415.0	4.2400836705320954e+17
19416.0	4.2391103060923725e+17
19417.0	4.238491951737514e+17
19418.0	4.237769344461481e+17
19419.0	4.2369795682030925e+17
19420.0	4.2361983000903674e+17
19421.0	4.235396250599424e+17
19422.0	4.23453769474594e+17
19423.0	4.2337751486081696e+17
19424.0	4.232961207566334e+17
19425.0	4.232119421239295e+17
19426.0	4.231282995232767e+17
19427.0	4.230425466284714e+17
19428.0	4.2295383814744736e+17
19429.0	4.228650564758186e+17
19430.0	4.2276902984308045e+17
19431.0	4.225703464315565e+17
19432.0	4.225777967038464e+17
19433.0	4.2247321026559994e+17
19434.0	4.223649171810986e+17
19435.0	4.222411462759765e+17
19436.0	4.220676438578516e+17
19437.0	4.219901221448362e+17
19438.0	4.209432762253309e+17
19439.0	4.2166975631196166e+17
19440.0	4.2147345750207136e+17
19441.0	4.212423019287891e+17
19442.0	4.209623081593514e+17
19443.0	4.2060633247580154e+17
19444.0	4.201214014477652e+17
19445.0	4.1946116521983994e+17
19446.0	4.1849500715362976e+17
19447.0	4.170031316686164e+17
19448.0	4.1456099285183155e+17
19449.0	4.1053024314982394e+17
19450.0	4.0501732896494906e+17
19451.0	4.0227757883391994e+17
19452.0	4.0629672429486074e+17
19453.0	4.114529516519424e+17
19454.0	4.1486955039074963e+17
19455.0	4.1685878455664634e+17
19456.0	4.18024366468847e+17
19457.0	4.1868814821184845e+17
19458.0	4.129219964218112e+17
19459.0	4.1895527511490675e+17
19460.0	4.1968172793856e+17
19461.0	4.198358293239125e+17
19462.0	4.1991783523723936e+17
19463.0	4.1996643841256096e+17
19464.0	4.1998379024820896e+17
19465.0	4.19988767838481e+17
19466.0	4.19973910425327e+17
19467.0	4.199560130505386e+17
19468.0	4.1992557533593594e+17
19469.0	4.197054817501181e+17
19470.0	4.1984556772884486e+17
19471.0	4.198007490740223e+17
19472.0	4.197442746580991e+17
19473.0	4.1968954073852576e+17
19474.0	4.1949221705045306e+17
19475.0	4.194431243299495e+17
19476.0	4.195189182693375e+17
19477.0	4.1946082876675405e+17
19478.0	4.194054579421182e+17
19479.0	4.191997515180711e+17
19480.0	4.192759625110868e+17
19481.0	4.192016230165162e+17
19482.0	4.1914512769897805e+17
19483.0	4.190850087124991e+17
19484.0	4.19015808848145e+17
19485.0	4.189427467987625e+17
19486.0	4.187271811738287e+17
19487.0	4.1881505540778656e+17
19488.0	4.187509790255786e+17
19489.0	4.186809488288425e+17
19490.0	4.1838069566231834e+17
19491.0	4.1854059070969165e+17
19492.0	4.184769643763029e+17
19493.0	4.184079345210708e+17
19494.0	4.183375445928619e+17
19495.0	4.1826927152988154e+17
19496.0	4.1812808377739936e+17
19497.0	4.1812737221372576e+17
19498.0	4.180549038680747e+17
19499.0	4.173346160421537e+17
19500.0	4.179214893492906e+17
19501.0	4.1787618247748256e+17
19502.0	4.1781811422603936e+17
19503.0	4.1774756624247456e+17
19504.0	4.1767516899027616e+17
19505.0	4.176002320171006e+17
19506.0	4.175333841786197e+17
19507.0	4.1745712956484256e+17
19508.0	4.173877631866196e+17
19509.0	4.173103760408576e+17
19510.0	4.1715479050103443e+17
19511.0	4.145468493092161e+17
19512.0	4.169681269161979e+17
19513.0	4.167846524005029e+17
19514.0	4.168300718893737e+17
19515.0	4.168176610836484e+17
19516.0	4.168003699955028e+17
19517.0	4.167343164882943e+17
19518.0	4.166378951715497e+17
19519.0	4.165652452824404e+17
19520.0	4.1639298298019814e+17
19521.0	4.164671090546004e+17
19522.0	4.163717667924651e+17
19523.0	4.1629214030779744e+17
19524.0	4.161449621105326e+17
19525.0	4.161786391560191e+17
19526.0	4.161105860143786e+17
19527.0	4.160378894985898e+17
19528.0	4.1595762792639136e+17
19529.0	4.1588145552097274e+17
19530.0	4.1582758346096634e+17
19531.0	4.157563532738559e+17
19532.0	4.1568482053761696e+17
19533.0	4.156126871770453e+17
19534.0	4.1554362614415354e+17
19535.0	4.1547115171676154e+17
19536.0	4.153960095722154e+17
19537.0	4.153298029729108e+17
19538.0	4.1512425124877664e+17
19539.0	4.1509780315613914e+17
19540.0	4.151156976648191e+17
19541.0	4.1501841707499514e+17
19542.0	4.1496375257115296e+17
19543.0	4.147646517564757e+17
19544.0	4.14826377580817e+17
19545.0	4.1471705787050624e+17
19546.0	4.1454265975876275e+17
19547.0	4.1462428951292576e+17
19548.0	4.1455331685608096e+17
19549.0	4.144699932322473e+17
19550.0	4.144084372772181e+17
19551.0	4.1434131051752096e+17
19552.0	4.1426824755937274e+17
19553.0	4.1419706812334074e+17
19554.0	4.141198612627456e+17
19555.0	4.140396879806464e+17
19556.0	4.139756513045162e+17
19557.0	4.139146902416043e+17
19558.0	4.13845565804817e+17
19559.0	4.137754593416533e+17
19560.0	4.136532898217983e+17
19561.0	4.13631268327697e+17
19562.0	4.135154306689706e+17
19563.0	4.1349425684370765e+17
19564.0	4.1341986317271034e+17
19565.0	4.1335186693379405e+17
19566.0	4.1327605013544954e+17
19567.0	4.1321189958396576e+17
19568.0	4.131392668915027e+17
19569.0	4.1306832967652685e+17
19570.0	4.1299984633910605e+17
19571.0	4.129294475329536e+17
19572.0	4.1285600778649594e+17
19573.0	4.127722148200448e+17
19574.0	4.127032745132031e+17
19575.0	4.126491546397355e+17
19576.0	4.125710106318164e+17
19577.0	4.1248378015361696e+17
19578.0	4.124321939892906e+17
19579.0	4.123646814235305e+17
19580.0	4.1229457349236045e+17
19581.0	4.122224346791936e+17
19582.0	4.12157366833425e+17
19583.0	4.1208801884023456e+17
19584.0	4.120161964173995e+17
19585.0	4.1193356317600416e+17
19586.0	4.118606863051435e+17
19587.0	4.1180502572400634e+17
19588.0	4.1166934663058784e+17
19589.0	4.1166440979496954e+17
19590.0	4.115757929594879e+17
19591.0	4.1152528032727034e+17
19592.0	4.11454626926865e+17
19593.0	4.1137183164552525e+17
19594.0	4.112728115380222e+17
19595.0	4.1124317542481914e+17
19596.0	4.111724054227625e+17
19597.0	4.1110464756012365e+17
19598.0	4.109406694976169e+17
19599.0	4.109651059321514e+17
19600.0	4.108949161421482e+17
19601.0	4.1081729055020365e+17
19602.0	4.107508850010795e+17
19603.0	4.106238050697214e+17
19604.0	4.10612900368657e+17
19605.0	4.1050754609315834e+17
19606.0	4.104742277305685e+17
19607.0	4.104069117378559e+17
19608.0	4.1033224299042125e+17
19609.0	4.1025979659496083e+17
19610.0	4.101307096891393e+17
19611.0	4.1002442707435526e+17
19612.0	4.1005805952040954e+17
19613.0	4.0998497747817805e+17
19614.0	4.099135490402986e+17
19615.0	4.0984878870691846e+17
19616.0	4.0971015549528755e+17
19617.0	4.0960538877187405e+17
19618.0	4.0955993433047034e+17
19619.0	4.0943946462221626e+17
19620.0	4.093673257391441e+17
19621.0	4.092819297097044e+17
19622.0	4.093606538597717e+17
19623.0	4.0928561112023034e+17
19624.0	4.092027751541418e+17
19625.0	4.091519774490623e+17
19626.0	4.090805216783018e+17
19627.0	4.0901327216530765e+17
19628.0	4.089372030096725e+17
19629.0	4.085187036752552e+17
19630.0	4.088033573863423e+17
19631.0	4.084975485845501e+17
19632.0	4.086636635051349e+17
19633.0	4.0859006535379616e+17
19634.0	4.085253594065579e+17
19635.0	4.084393109531305e+17
19636.0	4.0821892900891283e+17
19637.0	4.081228581262676e+17
19638.0	4.082362828718078e+17
19639.0	4.081764686015146e+17
19640.0	4.081031852326912e+17
19641.0	4.077894167603893e+17
19642.0	4.079608457942357e+17
19643.0	4.078902011319636e+17
19644.0	4.078243856515072e+17
19645.0	4.0772309579639456e+17
19646.0	4.075185842596519e+17
19647.0	4.0761949802550605e+17
19648.0	4.0755561108602874e+17
19649.0	4.07484196978688e+17
19650.0	4.0741662953745056e+17
19651.0	4.0734743239939405e+17
19652.0	4.0727810544762874e+17
19653.0	4.072084976872106e+17
19654.0	4.0714002029172045e+17
19655.0	4.0706812104321696e+17
