# Flux units: erg / (cm m2 s)
# Wavelength units: Angstrom
wave	flux
19000.0	7.45891225997585e+17
19001.0	7.457493816268115e+17
19002.0	7.456092353899178e+17
19003.0	7.454682150600705e+17
19004.0	7.453271909553494e+17
19005.0	7.451862079548074e+17
19006.0	7.450451888832511e+17
19007.0	7.44904177361442e+17
19008.0	7.447625330589696e+17
19009.0	7.446219104889514e+17
19010.0	7.444770628567037e+17
19011.0	7.443398674524841e+17
19012.0	7.441981463942484e+17
19013.0	7.440580922922323e+17
19014.0	7.439166022003369e+17
19015.0	7.437760788955136e+17
19016.0	7.436345915998207e+17
19017.0	7.434917534586195e+17
19018.0	7.433530571926186e+17
19019.0	7.432120913887232e+17
19020.0	7.430706168157523e+17
19021.0	7.429297458031274e+17
19022.0	7.427891651761491e+17
19023.0	7.426481939196586e+17
19024.0	7.425071488434175e+17
19025.0	7.423662803473747e+17
19026.0	7.422250529587197e+17
19027.0	7.420841049107113e+17
19028.0	7.419434705966419e+17
19029.0	7.41802551489331e+17
19030.0	7.416616424483497e+17
19031.0	7.415207434736982e+17
19032.0	7.413798470156287e+17
19033.0	7.412381905496745e+17
19034.0	7.410980686397441e+17
19035.0	7.409572215346515e+17
19036.0	7.407919933598378e+17
19037.0	7.406755243884541e+17
19038.0	7.405347023093757e+17
19039.0	7.403938840051711e+17
19040.0	7.402530767459667e+17
19041.0	7.401122801123328e+17
19042.0	7.39970787643665e+17
19043.0	7.398307254326611e+17
19044.0	7.396899443179517e+17
19045.0	7.395492298926761e+17
19046.0	7.394080725488982e+17
19047.0	7.392677585398441e+17
19048.0	7.391253234712575e+17
19049.0	7.389858017662291e+17
19050.0	7.388456967733247e+17
19051.0	7.387013551139497e+17
19052.0	7.385641756480851e+17
19053.0	7.38423727141683e+17
19054.0	7.382831276403369e+17
19055.0	7.381403257099607e+17
19056.0	7.38001937445683e+17
19057.0	7.378613622713e+17
19058.0	7.377207996798292e+17
19059.0	7.37580254564625e+17
19060.0	7.3743951986688e+17
19061.0	7.372992129881428e+17
19062.0	7.371586822733824e+17
19063.0	7.370182245395113e+17
19064.0	7.368767896726186e+17
19065.0	7.367357117409961e+17
19066.0	7.365963140475561e+17
19067.0	7.364564770706772e+17
19068.0	7.363160738627583e+17
19069.0	7.361757046287017e+17
19070.0	7.36035248153122e+17
19071.0	7.358950013927424e+17
19072.0	7.357546728434344e+17
19073.0	7.356143166117203e+17
19074.0	7.354740660764671e+17
19075.0	7.353337891170985e+17
19076.0	7.351933352979113e+17
19077.0	7.350532240135508e+17
19078.0	7.349125070716927e+17
19079.0	7.347728641512787e+17
19080.0	7.346326555590653e+17
19081.0	7.344921021950633e+17
19082.0	7.343519107994964e+17
19083.0	7.342113347862527e+17
19084.0	7.34069890552081e+17
19085.0	7.339320160900436e+17
19086.0	7.337884689716564e+17
19087.0	7.336512053400916e+17
19088.0	7.335112491051689e+17
19089.0	7.333699199347369e+17
19090.0	7.332318036011689e+17
19091.0	7.330915972459177e+17
19092.0	7.329512470260394e+17
19093.0	7.328119227329194e+17
19094.0	7.326700044025853e+17
19095.0	7.325295456900436e+17
19096.0	7.32391990694161e+17
19097.0	7.322522967430484e+17
19098.0	7.321124916428799e+17
19099.0	7.319725984623272e+17
19100.0	7.318328487269716e+17
19101.0	7.316930606836394e+17
19102.0	7.315525558337535e+17
19103.0	7.314135248622931e+17
19104.0	7.312737805795327e+17
19105.0	7.311340576877225e+17
19106.0	7.309942391657811e+17
19107.0	7.30854549828403e+17
19108.0	7.307150190357161e+17
19109.0	7.305726930190335e+17
19110.0	7.304357340337492e+17
19111.0	7.302961523501736e+17
19112.0	7.301565716452692e+17
19113.0	7.300170093953023e+17
19114.0	7.298774622448297e+17
19115.0	7.297377120900438e+17
19116.0	7.295984258252799e+17
19117.0	7.294587910138538e+17
19118.0	7.293186138789204e+17
19119.0	7.291615592841215e+17
19120.0	7.290404024789674e+17
19121.0	7.28901041136162e+17
19122.0	7.287617716486143e+17
19123.0	7.286222114957994e+17
19124.0	7.284830038043306e+17
19125.0	7.283436648311464e+17
19126.0	7.282042457467561e+17
19127.0	7.280511708474025e+17
19128.0	7.279250565147305e+17
19129.0	7.277856827288233e+17
19130.0	7.276472550380884e+17
19131.0	7.275080253964288e+17
19132.0	7.273687944964777e+17
19133.0	7.272244582896982e+17
19134.0	7.270904685920255e+17
19135.0	7.26947589067025e+17
19136.0	7.268078267487572e+17
19137.0	7.266673532163411e+17
19138.0	7.26529165579605e+17
19139.0	7.263905132139862e+17
19140.0	7.262514632283476e+17
19141.0	7.261124178564436e+17
19142.0	7.259733779371348e+17
19143.0	7.258338981751466e+17
19144.0	7.25695344934912e+17
19145.0	7.255564024632659e+17
19146.0	7.254125685942953e+17
19147.0	7.252777734504447e+17
19148.0	7.251395470863017e+17
19149.0	7.250006343942143e+17
19150.0	7.248616449463636e+17
19151.0	7.2472287262365e+17
19152.0	7.245837742637053e+17
19153.0	7.244451565709994e+17
19154.0	7.24305236267281e+17
19155.0	7.24167505809681e+17
19156.0	7.240286772832936e+17
19157.0	7.238898693089961e+17
19158.0	7.237487293016745e+17
19159.0	7.236106939181736e+17
19160.0	7.234718368705193e+17
19161.0	7.233333849926314e+17
19162.0	7.231904905079466e+17
19163.0	7.230559656170835e+17
19164.0	7.229173065405782e+17
19165.0	7.227785602225491e+17
19166.0	7.22639108842018e+17
19167.0	7.225009480488276e+17
19168.0	7.223612051641684e+17
19169.0	7.222232810695338e+17
19170.0	7.220854705007274e+17
19171.0	7.219466801425066e+17
19172.0	7.218083041815208e+17
19173.0	7.21669736960273e+17
19174.0	7.215307222067881e+17
19175.0	7.213926411053738e+17
19176.0	7.212541040831145e+17
19177.0	7.211143003810474e+17
19178.0	7.209770059912532e+17
19179.0	7.208382718367059e+17
19180.0	7.206994101753172e+17
19181.0	7.20560751518242e+17
19182.0	7.204219765391357e+17
19183.0	7.202845693225642e+17
19184.0	7.201448440539817e+17
19185.0	7.200076290763433e+17
19186.0	7.198692719897257e+17
19187.0	7.197302382220628e+17
19188.0	7.195923932599636e+17
19189.0	7.1945401939613e+17
19190.0	7.193155981366612e+17
19191.0	7.191771487753556e+17
19192.0	7.190387317101906e+17
19193.0	7.188998156626602e+17
19194.0	7.187617888075773e+17
19195.0	7.186236059243859e+17
19196.0	7.184851462171305e+17
19197.0	7.183467635452586e+17
19198.0	7.182084253330089e+17
19199.0	7.180446149727574e+17
19200.0	7.179150504056147e+17
19201.0	7.177933434475862e+17
19202.0	7.176550283040084e+17
19203.0	7.175166849187839e+17
19204.0	7.173781112662697e+17
19205.0	7.172396051420502e+17
19206.0	7.17101007582003e+17
19207.0	7.169626918791849e+17
19208.0	7.168227040471722e+17
19209.0	7.166860193693693e+17
19210.0	7.165476284486995e+17
19211.0	7.164091631490387e+17
19212.0	7.162708977778687e+17
19213.0	7.161316962380457e+17
19214.0	7.159931797678761e+17
19215.0	7.15855643087121e+17
19216.0	7.157168875416233e+17
19217.0	7.15578913394961e+17
19218.0	7.154336970833917e+17
19219.0	7.153006308316499e+17
19220.0	7.1516366583453e+17
19221.0	7.150224898960041e+17
19222.0	7.148867753607168e+17
19223.0	7.147482783241555e+17
19224.0	7.146090864312319e+17
19225.0	7.144699335453353e+17
19226.0	7.143328333518164e+17
19227.0	7.141943261091156e+17
19228.0	7.140557945394516e+17
19229.0	7.13917236126242e+17
19230.0	7.137786192723965e+17
19231.0	7.136400804326058e+17
19232.0	7.13500789833728e+17
19233.0	7.133621907357696e+17
19234.0	7.132239615754239e+17
19235.0	7.130855133325993e+17
19236.0	7.129468022467241e+17
19237.0	7.128079431019177e+17
19238.0	7.126685554748074e+17
19239.0	7.125305802096637e+17
19240.0	7.123888426538323e+17
19241.0	7.122521234429268e+17
19242.0	7.121140753367037e+17
19243.0	7.119735886621353e+17
19244.0	7.118362078696787e+17
19245.0	7.116972688932863e+17
19246.0	7.115581449480872e+17
19247.0	7.114191426377044e+17
19248.0	7.112801694078291e+17
19249.0	7.111410397304147e+17
19250.0	7.110018332972372e+17
19251.0	7.108618984532649e+17
19252.0	7.107203232169983e+17
19253.0	7.105840500004182e+17
19254.0	7.104443275280383e+17
19255.0	7.103035329915561e+17
19256.0	7.10165787714082e+17
19257.0	7.100264230158335e+17
19258.0	7.098868154673834e+17
19259.0	7.097465285814953e+17
19260.0	7.096072592337577e+17
19261.0	7.094678078532265e+17
19262.0	7.093279977198931e+17
19263.0	7.091879471131305e+17
19264.0	7.090441975496701e+17
19265.0	7.089066180870143e+17
19266.0	7.087670141736275e+17
19267.0	7.086279207070377e+17
19268.0	7.084876742262783e+17
19269.0	7.083473417622867e+17
19270.0	7.082069195401897e+17
19271.0	7.080637921318228e+17
19272.0	7.079255267606527e+17
19273.0	7.077099393952425e+17
19274.0	7.076081191703892e+17
19275.0	7.075034828898301e+17
19276.0	7.073625147091625e+17
19277.0	7.072214285287423e+17
19278.0	7.070802318983168e+17
19279.0	7.069386691051519e+17
19280.0	7.067968381561514e+17
19281.0	7.066559366649174e+17
19282.0	7.065142760046591e+17
19283.0	7.063720753976659e+17
19284.0	7.062297949590867e+17
19285.0	7.060866395886932e+17
19286.0	7.059462552551424e+17
19287.0	7.058039051911165e+17
19288.0	7.056559670558719e+17
19289.0	7.0550184525824e+17
19290.0	7.053759409203881e+17
19291.0	7.052306190521684e+17
19292.0	7.05089789702963e+17
19293.0	7.049463893852159e+17
19294.0	7.048029513187327e+17
19295.0	7.046592484518569e+17
19296.0	7.04515349291554e+17
19297.0	7.043712420937727e+17
19298.0	7.042269486688938e+17
19299.0	7.040822369320959e+17
19300.0	7.039321447421267e+17
19301.0	7.037871206694911e+17
19302.0	7.036419240711507e+17
19303.0	7.03495659393297e+17
19304.0	7.033502574837759e+17
19305.0	7.032049152731818e+17
19306.0	7.030587285394772e+17
19307.0	7.029120315686911e+17
19308.0	7.027654474945875e+17
19309.0	7.026176128887465e+17
19310.0	7.024696902724265e+17
19311.0	7.023229443680938e+17
19312.0	7.021751815547561e+17
19313.0	7.020254478379689e+17
19314.0	7.018701309433171e+17
19315.0	7.017216461504511e+17
19316.0	7.015797162158761e+17
19317.0	7.014299473368404e+17
19318.0	7.012797137289213e+17
19319.0	7.011290876739583e+17
19320.0	7.009733140895059e+17
19321.0	7.008199899785898e+17
19322.0	7.006667232597331e+17
19323.0	7.005151889981439e+17
19324.0	7.003626707528362e+17
19325.0	7.002086561196714e+17
19326.0	7.000552805586259e+17
19327.0	6.999006739693568e+17
19328.0	6.997458401886207e+17
19329.0	6.995901832058195e+17
19330.0	6.994335676148393e+17
19331.0	6.992769793567402e+17
19332.0	6.991194781384704e+17
19333.0	6.989612546610516e+17
19334.0	6.988025507960148e+17
19335.0	6.986438612615168e+17
19336.0	6.984774307195561e+17
19337.0	6.98316183638289e+17
19338.0	6.981524699567444e+17
19339.0	6.979914316120063e+17
19340.0	6.978273418412031e+17
19341.0	6.976630137640275e+17
19342.0	6.974942447577769e+17
19343.0	6.973309063266303e+17
19344.0	6.971633190655316e+17
19345.0	6.969775465605801e+17
19346.0	6.968205723566077e+17
19347.0	6.966534004015103e+17
19348.0	6.964818357518336e+17
19349.0	6.963084577647274e+17
19350.0	6.96133770945058e+17
19351.0	6.959577505464319e+17
19352.0	6.95778058104559e+17
19353.0	6.955918525377194e+17
19354.0	6.954114235760639e+17
19355.0	6.952287568833193e+17
19356.0	6.950457728215721e+17
19357.0	6.948601914370729e+17
19358.0	6.946723609968639e+17
19359.0	6.944799756124159e+17
19360.0	6.942925906771967e+17
19361.0	6.940991783873193e+17
19362.0	6.939043603764563e+17
19363.0	6.936971704270847e+17
19364.0	6.93484117889297e+17
19365.0	6.93281862189056e+17
19366.0	6.93077015667234e+17
19367.0	6.928694563394899e+17
19368.0	6.926590708897108e+17
19369.0	6.924443432867156e+17
19370.0	6.922145384191316e+17
19371.0	6.919946494454441e+17
19372.0	6.917716843692031e+17
19373.0	6.915451347009535e+17
19374.0	6.913148411969536e+17
19375.0	6.910805847048192e+17
19376.0	6.9082596011322e+17
19377.0	6.905815036329981e+17
19378.0	6.903337535755604e+17
19379.0	6.900666536558591e+17
19380.0	6.897973714397865e+17
19381.0	6.895262833661268e+17
19382.0	6.892580695790931e+17
19383.0	6.889837882419881e+17
19384.0	6.886932653015037e+17
19385.0	6.884074306142207e+17
19386.0	6.881147798334121e+17
19387.0	6.877997513921876e+17
19388.0	6.874849885902164e+17
19389.0	6.87169437119283e+17
19390.0	6.868453343013544e+17
19391.0	6.864851761277609e+17
19392.0	6.861574016161108e+17
19393.0	6.857768992505855e+17
19394.0	6.854135174747476e+17
19395.0	6.850387976563369e+17
19396.0	6.846506516611072e+17
19397.0	6.842136807516841e+17
19398.0	6.83800913702639e+17
19399.0	6.833683677839359e+17
19400.0	6.828886650257407e+17
19401.0	6.824255756260691e+17
19402.0	6.819283917777578e+17
19403.0	6.813987382842708e+17
19404.0	6.808624456968873e+17
19405.0	6.802638077165567e+17
19406.0	6.796682952616617e+17
19407.0	6.790508366703274e+17
19408.0	6.783522822597289e+17
19409.0	6.776598332178431e+17
19410.0	6.769347311697919e+17
19411.0	6.761922489745407e+17
19412.0	6.754778735094442e+17
19413.0	6.747285384506025e+17
19414.0	6.73925577327684e+17
19415.0	6.730724218503167e+17
19416.0	6.722007945183232e+17
19417.0	6.712404312326143e+17
19418.0	6.702651260185258e+17
19419.0	6.691792442709332e+17
19420.0	6.68061538661171e+17
19421.0	6.668595538952192e+17
19422.0	6.655493354640724e+17
19423.0	6.641499352246953e+17
19424.0	6.626117176437417e+17
19425.0	6.609640820659539e+17
19426.0	6.590871426301947e+17
19427.0	6.571604164564308e+17
19428.0	6.554003135528959e+17
19429.0	6.535216714394281e+17
19430.0	6.515453546113708e+17
19431.0	6.49381960360482e+17
19432.0	6.470644772372476e+17
19433.0	6.445517216503126e+17
19434.0	6.417642544605865e+17
19435.0	6.386634178166779e+17
19436.0	6.351423929319423e+17
19437.0	6.311369182456484e+17
19438.0	6.272659169301842e+17
19439.0	6.233399338816854e+17
19440.0	6.189479675035647e+17
19441.0	6.140369075612329e+17
19442.0	6.084281986187267e+17
19443.0	6.01924145512448e+17
19444.0	5.952700883664892e+17
19445.0	5.878743816645294e+17
19446.0	5.791612081449641e+17
19447.0	5.694904307722918e+17
19448.0	5.581535440098649e+17
19449.0	5.4355703753605114e+17
19450.0	5.1758973663750483e+17
19451.0	5.090763715816106e+17
19452.0	5.316604209747289e+17
19453.0	5.514461064462341e+17
19454.0	5.6364339378694765e+17
19455.0	5.7376946453654176e+17
19456.0	5.828041920653997e+17
19457.0	5.905582629672274e+17
19458.0	5.97223183080926e+17
19459.0	6.036572147286016e+17
19460.0	6.094789105680381e+17
19461.0	6.144538068385791e+17
19462.0	6.188430578941953e+17
19463.0	6.227630582573737e+17
19464.0	6.262972098456234e+17
19465.0	6.300959093992106e+17
19466.0	6.336118760232274e+17
19467.0	6.36645049316147e+17
19468.0	6.393296230984364e+17
19469.0	6.416924091787945e+17
19470.0	6.438662232692052e+17
19471.0	6.458382548467711e+17
19472.0	6.476484164889257e+17
19473.0	6.49319217766946e+17
19474.0	6.508585548775424e+17
19475.0	6.524302896310952e+17
19476.0	6.541060510231209e+17
19477.0	6.556208893438634e+17
19478.0	6.569309037920255e+17
19479.0	6.581278382664362e+17
19480.0	6.592116068537683e+17
19481.0	6.601915255226365e+17
19482.0	6.611056132620287e+17
19483.0	6.619434196140032e+17
19484.0	6.626965557608447e+17
19485.0	6.634117665215828e+17
19486.0	6.64058122539281e+17
19487.0	6.646470408492372e+17
19488.0	6.652290888193363e+17
19489.0	6.657332575819092e+17
19490.0	6.661922362840404e+17
19491.0	6.666478131260074e+17
19492.0	6.671289028706303e+17
19493.0	6.675975694363304e+17
19494.0	6.680064417944916e+17
19495.0	6.683785552723965e+17
19496.0	6.687508684690772e+17
19497.0	6.690506730547881e+17
19498.0	6.693837340671999e+17
19499.0	6.695901891745108e+17
19500.0	6.699003529221459e+17
19501.0	6.701042353132884e+17
19502.0	6.703113284441428e+17
19503.0	6.705080917032959e+17
19504.0	6.706648104741546e+17
19505.0	6.708164693065727e+17
19506.0	6.709743346603348e+17
19507.0	6.710922708691626e+17
19508.0	6.71199282733602e+17
19509.0	6.71296428057122e+17
19510.0	6.714062735234388e+17
19511.0	6.714594762424319e+17
19512.0	6.715548951205203e+17
19513.0	6.716045828729513e+17
19514.0	6.716594380778153e+17
19515.0	6.717086050374996e+17
19516.0	6.717625820250111e+17
19517.0	6.717894805159936e+17
19518.0	6.718106834217641e+17
19519.0	6.718362435802452e+17
19520.0	6.718458055447892e+17
19521.0	6.718490143271593e+17
19522.0	6.718512363995133e+17
19523.0	6.718598989654698e+17
19524.0	6.718524449183059e+17
19525.0	6.718456598626303e+17
19526.0	6.718251830607872e+17
19527.0	6.718114488822441e+17
19528.0	6.717883427411284e+17
19529.0	6.717557913070249e+17
19530.0	6.717196087241385e+17
19531.0	6.716800052669097e+17
19532.0	6.716371486375933e+17
19533.0	6.716012098136746e+17
19534.0	6.715561783678292e+17
19535.0	6.715045359299242e+17
19536.0	6.714501474811903e+17
19537.0	6.713932908942676e+17
19538.0	6.713336306248361e+17
19539.0	6.712675741117098e+17
19540.0	6.712082083523242e+17
19541.0	6.711524518614356e+17
19542.0	6.710946323322195e+17
19543.0	6.710245660644692e+17
19544.0	6.709526150862163e+17
19545.0	6.708760719742292e+17
19546.0	6.707957019792723e+17
19547.0	6.707260621324287e+17
19548.0	6.706472887691945e+17
19549.0	6.705662402057556e+17
19550.0	6.704856155466409e+17
19551.0	6.704025572125353e+17
19552.0	6.703181296478889e+17
19553.0	6.702363217756159e+17
19554.0	6.701537323646975e+17
19555.0	6.700659600523261e+17
19556.0	6.699767345534291e+17
19557.0	6.69886381695522e+17
19558.0	6.697950280766803e+17
19559.0	6.697023977816063e+17
19560.0	6.696093204436308e+17
19561.0	6.695150454221481e+17
19562.0	6.694198598172672e+17
19563.0	6.693237487392084e+17
19564.0	6.692269672016553e+17
19565.0	6.691293075166548e+17
19566.0	6.690307120125268e+17
19567.0	6.689316316468563e+17
19568.0	6.688318175576063e+17
19569.0	6.687311806857216e+17
19570.0	6.686300096692221e+17
19571.0	6.685281314231636e+17
19572.0	6.684256501060948e+17
19573.0	6.683224341566803e+17
19574.0	6.682183127968425e+17
19575.0	6.681172087493972e+17
19576.0	6.680163829940223e+17
19577.0	6.679105010750804e+17
19578.0	6.678050836054015e+17
19579.0	6.676989822544553e+17
19580.0	6.675923724140543e+17
19581.0	6.674852960971434e+17
19582.0	6.673778949313876e+17
19583.0	6.672699482963967e+17
19584.0	6.671615862854995e+17
19585.0	6.670521637448361e+17
19586.0	6.669424126503593e+17
19587.0	6.668338657405609e+17
19588.0	6.667203395627689e+17
19589.0	6.666139434221567e+17
19590.0	6.665031725525674e+17
19591.0	6.663929702208852e+17
19592.0	6.662818522027348e+17
19593.0	6.661704724600148e+17
19594.0	6.660566921074004e+17
19595.0	6.659467805108906e+17
19596.0	6.658287929218388e+17
19597.0	6.657220792025087e+17
19598.0	6.656074385981439e+17
19599.0	6.654963933511679e+17
19600.0	6.653831806975997e+17
19601.0	6.652694136968532e+17
19602.0	6.651557440039593e+17
19603.0	6.650387289341951e+17
19604.0	6.649277304537087e+17
19605.0	6.648112995805866e+17
19606.0	6.646992951661907e+17
19607.0	6.645847856338262e+17
19608.0	6.644699267858431e+17
19609.0	6.643547508484778e+17
19610.0	6.642398009840979e+17
19611.0	6.641267492519936e+17
19612.0	6.640144424282793e+17
19613.0	6.638987974978217e+17
19614.0	6.637826351300608e+17
19615.0	6.636670754837843e+17
19616.0	6.635508231482026e+17
19617.0	6.634347901747199e+17
19618.0	6.633144601367892e+17
19619.0	6.631964526247935e+17
19620.0	6.630802520189609e+17
19621.0	6.629687131723091e+17
19622.0	6.628518996388522e+17
19623.0	6.627349768437759e+17
19624.0	6.626179439482196e+17
19625.0	6.6250080256e+17
19626.0	6.623835679883261e+17
19627.0	6.622662384156671e+17
19628.0	6.62148249288704e+17
19629.0	6.620305483104255e+17
19630.0	6.619132613099519e+17
19631.0	6.617698511355904e+17
19632.0	6.6167820007069e+17
19633.0	6.615603490761385e+17
19634.0	6.614424351670271e+17
19635.0	6.613240511463423e+17
19636.0	6.612063560400895e+17
19637.0	6.610846155276287e+17
19638.0	6.609699329802239e+17
19639.0	6.608516139712511e+17
19640.0	6.607329428504575e+17
19641.0	6.606105481663828e+17
19642.0	6.604965175536298e+17
19643.0	6.603778168629929e+17
19644.0	6.602591692303017e+17
19645.0	6.601386591169193e+17
19646.0	6.600221303067988e+17
19647.0	6.599034059882495e+17
19648.0	6.597846325963433e+17
19649.0	6.596657849652566e+17
19650.0	6.595469549502463e+17
19651.0	6.594280519543465e+17
19652.0	6.593094853416276e+17
19653.0	6.591945547710463e+17
19654.0	6.590755473369769e+17
19655.0	6.589564513331882e+17
19656.0	6.58837331841297e+17
19657.0	6.587182580673194e+17
19658.0	6.585991029937494e+17
19659.0	6.584798963302399e+17
19660.0	6.583606890375849e+17
19661.0	6.582414403611306e+17
19662.0	6.581221642119849e+17
19663.0	6.580025141406377e+17
19664.0	6.578834314188116e+17
19665.0	6.577641800859647e+17
