# Flux units: erg / (cm m2 s)
# Wavelength units: Angstrom
wave	flux
19000.0	4.837126858342398e+17
19001.0	4.836185230103893e+17
19002.0	4.8353350894223354e+17
19003.0	4.834437605534377e+17
19004.0	4.833540390081875e+17
19005.0	4.8326434808135674e+17
19006.0	4.831749723564714e+17
19007.0	4.830830548833621e+17
19008.0	4.829929278188203e+17
19009.0	4.829055064997888e+17
19010.0	4.827913287368703e+17
19011.0	4.827259719035562e+17
19012.0	4.826285340972372e+17
19013.0	4.8254812006208845e+17
19014.0	4.824562397085695e+17
19015.0	4.8236753591118496e+17
19016.0	4.8227740248528205e+17
19017.0	4.8218964995604474e+17
19018.0	4.8210021194574496e+17
19019.0	4.8201137980265805e+17
19020.0	4.819208889521493e+17
19021.0	4.8183249714107725e+17
19022.0	4.817435569247572e+17
19023.0	4.8165268257505274e+17
19024.0	4.81563857981713e+17
19025.0	4.8147553516694176e+17
19026.0	4.8138475889404576e+17
19027.0	4.8129233593739936e+17
19028.0	4.8120794849826125e+17
19029.0	4.811179529950549e+17
19030.0	4.810299936167253e+17
19031.0	4.809410594821462e+17
19032.0	4.808516831281151e+17
19033.0	4.807584048130729e+17
19034.0	4.8067278949143885e+17
19035.0	4.805828963991551e+17
19036.0	4.8008574288964224e+17
19037.0	4.8040580994826234e+17
19038.0	4.8031614956994554e+17
19039.0	4.802278934446079e+17
19040.0	4.801391230276948e+17
19041.0	4.8004977204920314e+17
19042.0	4.799567361649323e+17
19043.0	4.798721788564821e+17
19044.0	4.797826522764629e+17
19045.0	4.796940230677845e+17
19046.0	4.7960220884445856e+17
19047.0	4.795162846123349e+17
19048.0	4.7941659614248954e+17
19049.0	4.793352273439402e+17
19050.0	4.7924732549748045e+17
19051.0	4.790962758877183e+17
19052.0	4.7906914587115514e+17
19053.0	4.78982516506624e+17
19054.0	4.7889427527106554e+17
19055.0	4.787939110988458e+17
19056.0	4.787154782431915e+17
19057.0	4.786277627636393e+17
19058.0	4.7853809078108154e+17
19059.0	4.7845042136896845e+17
19060.0	4.7836082257701536e+17
19061.0	4.782733402308608e+17
19062.0	4.781844439848277e+17
19063.0	4.7809594682682016e+17
19064.0	4.7800127935829325e+17
19065.0	4.779108386996224e+17
19066.0	4.778274174184106e+17
19067.0	4.777409851162623e+17
19068.0	4.7765299980315296e+17
19069.0	4.7756453172565325e+17
19070.0	4.7747457068564474e+17
19071.0	4.773870178751828e+17
19072.0	4.772989235800745e+17
19073.0	4.772101321217364e+17
19074.0	4.7712209465944736e+17
19075.0	4.77033662513152e+17
19076.0	4.76944149844241e+17
19077.0	4.7685631846208845e+17
19078.0	4.767662796177408e+17
19079.0	4.766800017358846e+17
19080.0	4.7659117022194336e+17
19081.0	4.7650125007639885e+17
19082.0	4.7641264239848096e+17
19083.0	4.763225469310292e+17
19084.0	4.762283559354366e+17
19085.0	4.7614960689916576e+17
19086.0	4.760451023197524e+17
19087.0	4.759627835113471e+17
19088.0	4.758824007936682e+17
19089.0	4.757836545043113e+17
19090.0	4.757078497995434e+17
19091.0	4.7562018374287354e+17
19092.0	4.755277110837247e+17
19093.0	4.754448266035198e+17
19094.0	4.7535649078640634e+17
19095.0	4.7526847583354874e+17
19096.0	4.751795347783679e+17
19097.0	4.7509250359951354e+17
19098.0	4.7500423600974496e+17
19099.0	4.7491613115897165e+17
19100.0	4.748275093602302e+17
19101.0	4.7474030446728525e+17
19102.0	4.7464724369681043e+17
19103.0	4.7456431140154035e+17
19104.0	4.7447671490041165e+17
19105.0	4.743885014171647e+17
19106.0	4.742989681262592e+17
19107.0	4.7421211177997645e+17
19108.0	4.741251354765994e+17
19109.0	4.7400612860177056e+17
19110.0	4.7394949004875085e+17
19111.0	4.738615756193792e+17
19112.0	4.7377392242524154e+17
19113.0	4.736860790893226e+17
19114.0	4.735982789547348e+17
19115.0	4.7350775301188256e+17
19116.0	4.734220468835668e+17
19117.0	4.733345818738688e+17
19118.0	4.7324250110252365e+17
19119.0	4.7290495064692006e+17
19120.0	4.730684853015892e+17
19121.0	4.729826967552e+17
19122.0	4.728971656691711e+17
19123.0	4.7280950115041274e+17
19124.0	4.7272009326919674e+17
19125.0	4.7263424390539936e+17
19126.0	4.725464622257493e+17
19127.0	4.7237632972117306e+17
19128.0	4.723550407622655e+17
19129.0	4.7228041221024416e+17
19130.0	4.7219639729520634e+17
19131.0	4.72108877549841e+17
19132.0	4.7202191501776205e+17
19133.0	4.719226575825578e+17
19134.0	4.7183877373951994e+17
19135.0	4.717596103759189e+17
19136.0	4.7167260422307834e+17
19137.0	4.715775203300692e+17
19138.0	4.714964527524521e+17
19139.0	4.7141062841466874e+17
19140.0	4.713233626344106e+17
19141.0	4.7123609979016525e+17
19142.0	4.7114767812962976e+17
19143.0	4.7105845703475194e+17
19144.0	4.709729460114772e+17
19145.0	4.7088697564200954e+17
19146.0	4.707719236463274e+17
19147.0	4.7070832485553485e+17
19148.0	4.7062532964570445e+17
19149.0	4.704356017722709e+17
19150.0	4.702520667886934e+17
19151.0	4.7016523071487994e+17
19152.0	4.7007786399170554e+17
19153.0	4.699903016042495e+17
19154.0	4.6989856273858554e+17
19155.0	4.69817436999953e+17
19156.0	4.6973048767993165e+17
19157.0	4.69643382681327e+17
19158.0	4.695357107033427e+17
19159.0	4.694688321066325e+17
19160.0	4.6938197911579296e+17
19161.0	4.692945460527104e+17
19162.0	4.6916086701315405e+17
19163.0	4.6912223565578234e+17
19164.0	4.6903568325672954e+17
19165.0	4.6894739001180154e+17
19166.0	4.6885540081609376e+17
19167.0	4.687708208584021e+17
19168.0	4.686860334923774e+17
19169.0	4.6859970765564576e+17
19170.0	4.685151330806442e+17
19171.0	4.684252722145962e+17
19172.0	4.683416068248917e+17
19173.0	4.682550252754261e+17
19174.0	4.6816562725082445e+17
19175.0	4.6808180191832736e+17
19176.0	4.6799505273651194e+17
19177.0	4.679017283540308e+17
19178.0	4.6782170606687565e+17
19179.0	4.677308451389439e+17
19180.0	4.676468802759338e+17
19181.0	4.675561613251924e+17
19182.0	4.6747482013914445e+17
19183.0	4.673892947154261e+17
19184.0	4.6730062216560634e+17
19185.0	4.6721580718708045e+17
19186.0	4.671299857853098e+17
19187.0	4.670404607432021e+17
19188.0	4.669568857407487e+17
19189.0	4.6687020967963296e+17
19190.0	4.6678364504719354e+17
19191.0	4.666961973739519e+17
19192.0	4.666117633081344e+17
19193.0	4.665245749826899e+17
19194.0	4.664380041986047e+17
19195.0	4.6635261998312096e+17
19196.0	4.6626564416907936e+17
19197.0	4.661797766299647e+17
19198.0	4.66093855613474e+17
19199.0	4.6572109726132896e+17
19200.0	4.657469108955819e+17
19201.0	4.65835221127441e+17
19202.0	4.6574912926296736e+17
19203.0	4.656622374748159e+17
19204.0	4.6557538280625485e+17
19205.0	4.654901446224553e+17
19206.0	4.6540361578141005e+17
19207.0	4.6531438874460154e+17
19208.0	4.6522053560019616e+17
19209.0	4.6514544385720314e+17
19210.0	4.6505945027925325e+17
19211.0	4.649740139844949e+17
19212.0	4.648878452244479e+17
19213.0	4.6479570272692896e+17
19214.0	4.6470856997601274e+17
19215.0	4.6462899948530336e+17
19216.0	4.645435833931092e+17
19217.0	4.6445766803892896e+17
19218.0	4.643337376803497e+17
19219.0	4.6427930693905056e+17
19220.0	4.641987888152575e+17
19221.0	4.640984275091456e+17
19222.0	4.640282331054079e+17
19223.0	4.63941094342656e+17
19224.0	4.638538915468628e+17
19225.0	4.6376337588005536e+17
19226.0	4.63683384840465e+17
19227.0	4.6359763823711565e+17
19228.0	4.6351300983521274e+17
19229.0	4.6342716012189005e+17
19230.0	4.6334032691418445e+17
19231.0	4.632544728667477e+17
19232.0	4.6316902280069114e+17
19233.0	4.6308062134271994e+17
19234.0	4.6299675917025274e+17
19235.0	4.629107780354047e+17
19236.0	4.628265925520042e+17
19237.0	4.627399525619027e+17
19238.0	4.626505792137898e+17
19239.0	4.6256951310417914e+17
19240.0	4.624789814990164e+17
19241.0	4.623959586067796e+17
19242.0	4.6231159486545914e+17
19243.0	4.622191101127338e+17
19244.0	4.6214097575171405e+17
19245.0	4.620551091213653e+17
19246.0	4.6196915587863885e+17
19247.0	4.61884228772386e+17
19248.0	4.6179902092738554e+17
19249.0	4.6171317009558176e+17
19250.0	4.616268035041961e+17
19251.0	4.615385630375934e+17
19252.0	4.614419958289749e+17
19253.0	4.6136970427323725e+17
19254.0	4.6128466622764365e+17
19255.0	4.611904567072084e+17
19256.0	4.611132407589545e+17
19257.0	4.6102849142128634e+17
19258.0	4.609430336656725e+17
19259.0	4.6085403696605856e+17
19260.0	4.6076418274099194e+17
19261.0	4.606858500592981e+17
19262.0	4.605981935097172e+17
19263.0	4.6051287227869856e+17
19264.0	4.6040465874616314e+17
19265.0	4.6033443554153805e+17
19266.0	4.602478175715327e+17
19267.0	4.6017326158097056e+17
19268.0	4.6008740711410336e+17
19269.0	4.6000204442938016e+17
19270.0	4.5991666517715616e+17
19271.0	4.598150531295914e+17
19272.0	4.5974389816033274e+17
19273.0	4.5952053022119226e+17
19274.0	4.595014472564734e+17
19275.0	4.594891167716692e+17
19276.0	4.5940266811173536e+17
19277.0	4.593173811341994e+17
19278.0	4.59232049836851e+17
19279.0	4.591451003770197e+17
19280.0	4.590569428178261e+17
19281.0	4.589752000970751e+17
19282.0	4.5889033807243936e+17
19283.0	4.588004948923732e+17
19284.0	4.5871327196392096e+17
19285.0	4.5862481632952314e+17
19286.0	4.5854666064745805e+17
19287.0	4.5846265027624954e+17
19288.0	4.5829291315473056e+17
19289.0	4.5799569414771974e+17
19290.0	4.5820592070328314e+17
19291.0	4.581087177779882e+17
19292.0	4.5803470117492045e+17
19293.0	4.5794869277709645e+17
19294.0	4.5786291863115085e+17
19295.0	4.5777776880735565e+17
19296.0	4.5769171462171296e+17
19297.0	4.576051927711744e+17
19298.0	4.575192046458197e+17
19299.0	4.5743487865323514e+17
19300.0	4.5734900999563936e+17
19301.0	4.572630310278484e+17
19302.0	4.5717730134152525e+17
19303.0	4.5708754470393165e+17
19304.0	4.5700382982143994e+17
19305.0	4.5691911781307725e+17
19306.0	4.5683351325682336e+17
19307.0	4.56745405190417e+17
19308.0	4.5666082781921274e+17
19309.0	4.5656583116772685e+17
19310.0	4.564751125665108e+17
19311.0	4.564019385292117e+17
19312.0	4.5631733753009485e+17
19313.0	4.5623091151940256e+17
19314.0	4.557016626364401e+17
19315.0	4.5566702789154234e+17
19316.0	4.559726512351914e+17
19317.0	4.558726488915966e+17
19318.0	4.5558781804107085e+17
19319.0	4.555021358901929e+17
19320.0	4.5541546206603936e+17
19321.0	4.553292234009257e+17
19322.0	4.552382656544768e+17
19323.0	4.551509008886442e+17
19324.0	4.5506890629993805e+17
19325.0	4.549730489772713e+17
19326.0	4.5489557885419514e+17
19327.0	4.54807908393506e+17
19328.0	4.547216201657001e+17
19329.0	4.546346687485268e+17
19330.0	4.5454549288222714e+17
19331.0	4.544581522336425e+17
19332.0	4.543728490381311e+17
19333.0	4.5428463730251085e+17
19334.0	4.541975109129557e+17
19335.0	4.541099361523029e+17
19336.0	4.540221369963861e+17
19337.0	4.539342146677418e+17
19338.0	4.5383681859474765e+17
19339.0	4.537580523618304e+17
19340.0	4.53663702122496e+17
19341.0	4.5358097353058976e+17
19342.0	4.534744334554453e+17
19343.0	4.5340429231936845e+17
19344.0	4.533149966357845e+17
19345.0	4.531164525450578e+17
19346.0	4.5311355784615264e+17
19347.0	4.5304473379143674e+17
19348.0	4.5295842640964256e+17
19349.0	4.5286705126004045e+17
19350.0	4.527774128319145e+17
19351.0	4.526865926586366e+17
19352.0	4.5259493865772365e+17
19353.0	4.525078187693396e+17
19354.0	4.5241698713163085e+17
19355.0	4.5211644651547296e+17
19356.0	4.519971370216106e+17
19357.0	4.519051246873257e+17
19358.0	4.5181196688861856e+17
19359.0	4.517130107442516e+17
19360.0	4.516256795328511e+17
19361.0	4.515323004147029e+17
19362.0	4.5144095923896314e+17
19363.0	4.5134687687584403e+17
19364.0	4.512520967203498e+17
19365.0	4.5115742946153805e+17
19366.0	4.5106239058739194e+17
19367.0	4.509666818129919e+17
19368.0	4.508705045348351e+17
19369.0	4.507701711208447e+17
19370.0	4.506606136634026e+17
19371.0	4.5046411338711014e+17
19372.0	4.503473717859668e+17
19373.0	4.502467876924074e+17
19374.0	4.5014750544090445e+17
19375.0	4.500467920928766e+17
19376.0	4.499453128649387e+17
19377.0	4.4984234948253005e+17
19378.0	4.497392636264447e+17
19379.0	4.496351651255636e+17
19380.0	4.495301109525162e+17
19381.0	4.4942367874088954e+17
19382.0	4.4931285984651936e+17
19383.0	4.492034526150654e+17
19384.0	4.490987086107987e+17
19385.0	4.4898786462050976e+17
19386.0	4.4887590110057805e+17
19387.0	4.487623032700927e+17
19388.0	4.486472029700095e+17
19389.0	4.4853047206434125e+17
19390.0	4.484119621446315e+17
19391.0	4.479171619192825e+17
19392.0	4.48169085309201e+17
19393.0	4.480453953541461e+17
19394.0	4.47918577357073e+17
19395.0	4.477892939481087e+17
19396.0	4.4765840999273805e+17
19397.0	4.475254571270144e+17
19398.0	4.473875033926314e+17
19399.0	4.472128796972372e+17
19400.0	4.4710396298963616e+17
19401.0	4.469596021063679e+17
19402.0	4.468099230553429e+17
19403.0	4.46578199293679e+17
19404.0	4.464142711433898e+17
19405.0	4.462503333462015e+17
19406.0	4.460827021148159e+17
19407.0	4.4591010014385485e+17
19408.0	4.456941603170987e+17
19409.0	4.455448756005547e+17
19410.0	4.4535546523593376e+17
19411.0	4.4515736930658976e+17
19412.0	4.449516019253247e+17
19413.0	4.447383448453119e+17
19414.0	4.4451453699358714e+17
19415.0	4.4428432618728096e+17
19416.0	4.440354389841236e+17
19417.0	4.4374130761400314e+17
19418.0	4.434062828284587e+17
19419.0	4.4312833748718925e+17
19420.0	4.428390029328383e+17
19421.0	4.425358573043712e+17
19422.0	4.421876159873024e+17
19423.0	4.417195614404607e+17
19424.0	4.413625234795178e+17
19425.0	4.4093048709884595e+17
19426.0	4.403807587576489e+17
19427.0	4.3986438422091104e+17
19428.0	4.3924888262191776e+17
19429.0	4.384762202423296e+17
19430.0	4.376380279444824e+17
19431.0	4.364756744579757e+17
19432.0	4.3522013360291866e+17
19433.0	4.3335566530095776e+17
19434.0	4.313648597390674e+17
19435.0	4.301802780491774e+17
19436.0	4.289485819521707e+17
19437.0	4.2764140131560096e+17
19438.0	4.255600486296231e+17
19439.0	4.2464752277913594e+17
19440.0	4.229308501458944e+17
19441.0	4.2104681345843194e+17
19442.0	4.188841945945429e+17
19443.0	4.161031579719003e+17
19444.0	4.1148900770665946e+17
19445.0	4.043220562477062e+17
19446.0	3.9922405289055565e+17
19447.0	3.933638977301156e+17
19448.0	3.834006450383524e+17
19449.0	3.666213663845033e+17
19450.0	3.215978512689828e+17
19451.0	3.078395611403598e+17
19452.0	3.47623336741002e+17
19453.0	3.758458282530139e+17
19454.0	3.8923354547159014e+17
19455.0	3.959752895758336e+17
19456.0	4.011803090616322e+17
19457.0	4.070226975697597e+17
19458.0	4.1204233126543597e+17
19459.0	4.1648371849844077e+17
19460.0	4.1871185385881594e+17
19461.0	4.205245134886227e+17
19462.0	4.222022140471979e+17
19463.0	4.2365552591284883e+17
19464.0	4.249896724987904e+17
19465.0	4.2621701532767565e+17
19466.0	4.2731298283847674e+17
19467.0	4.283115707039743e+17
19468.0	4.296604850847742e+17
19469.0	4.3156470839814835e+17
19470.0	4.330078322294783e+17
19471.0	4.3400511958111584e+17
19472.0	4.347877861446992e+17
19473.0	4.354066742946474e+17
19474.0	4.3589170647531514e+17
19475.0	4.363361613512702e+17
19476.0	4.366640932891304e+17
19477.0	4.3705303704098125e+17
19478.0	4.372566647679659e+17
19479.0	4.374745367008597e+17
19480.0	4.377610178002943e+17
19481.0	4.379063444220586e+17
19482.0	4.3803971965419514e+17
19483.0	4.3816066611500365e+17
19484.0	4.3826696089326925e+17
19485.0	4.3846208921272314e+17
19486.0	4.38560033411345e+17
19487.0	4.3863337892577274e+17
19488.0	4.386965966640468e+17
19489.0	4.387495607970474e+17
19490.0	4.38723083973427e+17
19491.0	4.388314969451178e+17
19492.0	4.3886397749548365e+17
19493.0	4.3888794780303354e+17
19494.0	4.389054787354623e+17
19495.0	4.389169346379775e+17
19496.0	4.3890426224749216e+17
19497.0	4.3892438749675514e+17
19498.0	4.389128799343957e+17
19499.0	4.3828332252364704e+17
19500.0	4.3890399905491616e+17
19501.0	4.3896149443433805e+17
19502.0	4.3894884923692365e+17
19503.0	4.389270102649513e+17
19504.0	4.389010866700287e+17
19505.0	4.3887321433156256e+17
19506.0	4.3884257584960845e+17
19507.0	4.388078657470463e+17
19508.0	4.387731790626815e+17
19509.0	4.387350305396053e+17
19510.0	4.3868551167781536e+17
19511.0	4.3781862251123955e+17
19512.0	4.3854356678355584e+17
19513.0	4.383791153938428e+17
19514.0	4.38405631923541e+17
19515.0	4.384396728249004e+17
19516.0	4.384166242156543e+17
19517.0	4.3836164457977165e+17
19518.0	4.38312424771857e+17
19519.0	4.3825796837539834e+17
19520.0	4.382014346799785e+17
19521.0	4.3814678143085216e+17
19522.0	4.380877025618602e+17
19523.0	4.380311813794475e+17
19524.0	4.3797189887699616e+17
19525.0	4.3791062617729696e+17
19526.0	4.378509454256811e+17
19527.0	4.37788797374737e+17
19528.0	4.377265635502761e+17
19529.0	4.3766344277032954e+17
19530.0	4.376002452346197e+17
19531.0	4.3753607147465376e+17
19532.0	4.3747105116433056e+17
19533.0	4.374057043973461e+17
19534.0	4.373396399849472e+17
19535.0	4.3727219033374714e+17
19536.0	4.3720435753287674e+17
19537.0	4.3725544457502714e+17
19538.0	4.371927748225706e+17
19539.0	4.3709600419020806e+17
19540.0	4.3705539486897485e+17
19541.0	4.3698730369897805e+17
19542.0	4.369173624913919e+17
19543.0	4.368473483029162e+17
19544.0	4.367772975540907e+17
19545.0	4.3669119038040736e+17
19546.0	4.365871630428842e+17
19547.0	4.365647922331647e+17
19548.0	4.364935085686783e+17
19549.0	4.3641715839467514e+17
19550.0	4.3634985743155194e+17
19551.0	4.36277843468834e+17
19552.0	4.362054364998313e+17
19553.0	4.3613206106603514e+17
19554.0	4.36057894167074e+17
19555.0	4.3598654919584416e+17
19556.0	4.3591411755035296e+17
19557.0	4.358405979723093e+17
19558.0	4.357671207567359e+17
19559.0	4.356931988051285e+17
19560.0	4.3561864526124365e+17
19561.0	4.3554468269479245e+17
19562.0	4.3547156912537594e+17
19563.0	4.355096571106644e+17
19564.0	4.3554061331114656e+17
19565.0	4.3546579923107846e+17
19566.0	4.3538968848192845e+17
19567.0	4.353162002213546e+17
19568.0	4.352401118418261e+17
19569.0	4.3516510167804576e+17
19570.0	4.3509085949132794e+17
19571.0	4.35015581241617e+17
19572.0	4.3493862485087565e+17
19573.0	4.3486423872962554e+17
19574.0	4.3478482230968314e+17
19575.0	4.347135908642815e+17
19576.0	4.3463785662382086e+17
19577.0	4.345591470140074e+17
19578.0	4.344843743177386e+17
19579.0	4.3440925789825696e+17
19580.0	4.343336054467242e+17
19581.0	4.342577917941076e+17
19582.0	4.341826647490559e+17
19583.0	4.3410656280794445e+17
19584.0	4.340302651326464e+17
19585.0	4.339489764453034e+17
19586.0	4.3387147850001056e+17
19587.0	4.337995942111913e+17
19588.0	4.3370288677300896e+17
19589.0	4.336478280744959e+17
19590.0	4.3356752183296e+17
19591.0	4.334957008781312e+17
19592.0	4.334194345203029e+17
19593.0	4.3334211175710714e+17
19594.0	4.3325436405131936e+17
19595.0	4.3318881665679354e+17
19596.0	4.330782585782272e+17
19597.0	4.330358671671296e+17
19598.0	4.329410017973589e+17
19599.0	4.328829346643968e+17
19600.0	4.328065455532714e+17
19601.0	4.3272679219090765e+17
19602.0	4.326512686443178e+17
19603.0	4.3255245014302714e+17
19604.0	4.3249769685975034e+17
19605.0	4.3240851672924166e+17
19606.0	4.3234544677027834e+17
19607.0	4.322689669223765e+17
19608.0	4.321914446501204e+17
19609.0	4.3211263598482765e+17
19610.0	4.320384005789012e+17
19611.0	4.319609039618047e+17
19612.0	4.3188464424495776e+17
19613.0	4.3180710484596045e+17
19614.0	4.3172894636769274e+17
19615.0	4.3165373040339616e+17
19616.0	4.31573588648482e+17
19617.0	4.3149947893186554e+17
19618.0	4.3139833671625376e+17
19619.0	4.3131052777362765e+17
19620.0	4.312372574071465e+17
19621.0	4.3119165854187514e+17
19622.0	4.3111490585449805e+17
19623.0	4.310380192989183e+17
19624.0	4.3096058979068576e+17
19625.0	4.308839697831252e+17
19626.0	4.3080653020856314e+17
19627.0	4.3073000100768416e+17
19628.0	4.306459482740053e+17
19629.0	4.305717592850432e+17
19630.0	4.30496717803793e+17
19631.0	4.300989822315176e+17
19632.0	4.303447818676906e+17
19633.0	4.302658326932137e+17
19634.0	4.301909071145642e+17
19635.0	4.301122381894998e+17
19636.0	4.300363213570046e+17
19637.0	4.2994377068380154e+17
19638.0	4.298822858921302e+17
19639.0	4.298055671786155e+17
19640.0	4.2972626162810874e+17
19641.0	4.2960503631598944e+17
19642.0	4.295745107307178e+17
19643.0	4.2949712756954445e+17
19644.0	4.2941811429212154e+17
19645.0	4.293309227510442e+17
19646.0	4.292669267596628e+17
19647.0	4.291900850831359e+17
19648.0	4.2911293072124576e+17
19649.0	4.290358357786623e+17
19650.0	4.2895917033280845e+17
19651.0	4.288819722103466e+17
19652.0	4.28805016658466e+17
19653.0	4.2872820455178234e+17
19654.0	4.286511282039465e+17
