# Flux units: erg / (cm m2 s)
# Wavelength units: Angstrom
wave	flux
19000.0	6.785643986987689e+17
19001.0	6.784300051595264e+17
19002.0	6.783130553810943e+17
19003.0	6.781871176286207e+17
19004.0	6.780611989602304e+17
19005.0	6.779356315647999e+17
19006.0	6.778097495965693e+17
19007.0	6.776823778115583e+17
19008.0	6.77552662459187e+17
19009.0	6.774252862701567e+17
19010.0	6.772643743836841e+17
19011.0	6.771769426487977e+17
19012.0	6.770379421559466e+17
19013.0	6.769268284020052e+17
19014.0	6.767958895012521e+17
19015.0	6.766754401353728e+17
19016.0	6.765566965929299e+17
19017.0	6.764351122483881e+17
19018.0	6.763075401154559e+17
19019.0	6.761820454212948e+17
19020.0	6.760543541701289e+17
19021.0	6.759299267166207e+17
19022.0	6.758040547448148e+17
19023.0	6.756740144037888e+17
19024.0	6.75549629452561e+17
19025.0	6.754245311201279e+17
19026.0	6.752955959782057e+17
19027.0	6.751624686294358e+17
19028.0	6.750456740402516e+17
19029.0	6.749190212987562e+17
19030.0	6.747941217763327e+17
19031.0	6.746677455093759e+17
19032.0	6.7454102929408e+17
19033.0	6.744069218762751e+17
19034.0	6.742869688363689e+17
19035.0	6.741561375894185e+17
19036.0	6.733357701048998e+17
19037.0	6.739062272557056e+17
19038.0	6.737804763594751e+17
19039.0	6.736564770045951e+17
19040.0	6.735301382766591e+17
19041.0	6.734029817992531e+17
19042.0	6.732680725703338e+17
19043.0	6.731509037094227e+17
19044.0	6.730233726107647e+17
19045.0	6.728979617327785e+17
19046.0	6.727670750511103e+17
19047.0	6.72643774816802e+17
19048.0	6.725001093491369e+17
19049.0	6.723837790694057e+17
19050.0	6.722614333887827e+17
19051.0	6.720255919390717e+17
19052.0	6.719949603078143e+17
19053.0	6.718859321016319e+17
19054.0	6.717596269281279e+17
19055.0	6.716107533931862e+17
19056.0	6.715041009106943e+17
19057.0	6.713794989042345e+17
19058.0	6.712516335894527e+17
19059.0	6.711267706972842e+17
19060.0	6.709987801126228e+17
19061.0	6.708743389577215e+17
19062.0	6.707474224644095e+17
19063.0	6.706210904473599e+17
19064.0	6.704840589705215e+17
19065.0	6.703527594295295e+17
19066.0	6.702365228924927e+17
19067.0	6.701153140080639e+17
19068.0	6.699888604261033e+17
19069.0	6.698624676615507e+17
19070.0	6.697338470924287e+17
19071.0	6.696095426019327e+17
19072.0	6.694826567270399e+17
19073.0	6.693561518347604e+17
19074.0	6.692301501890559e+17
19075.0	6.691036842338985e+17
19076.0	6.689754100443817e+17
19077.0	6.688495879148884e+17
19078.0	6.687219980959743e+17
19079.0	6.685977354087081e+17
19080.0	6.684700343009279e+17
19081.0	6.683410906305875e+17
19082.0	6.682146358602409e+17
19083.0	6.680825182901588e+17
19084.0	6.679452287238143e+17
19085.0	6.678390564192255e+17
19086.0	6.676789240441514e+17
19087.0	6.675668298716502e+17
19088.0	6.674510656132435e+17
19089.0	6.673075990953983e+17
19090.0	6.672036617956009e+17
19091.0	6.670780339322879e+17
19092.0	6.669449580336468e+17
19093.0	6.668277884037802e+17
19094.0	6.667014235313491e+17
19095.0	6.665750434196138e+17
19096.0	6.664474312310784e+17
19097.0	6.663223331083603e+17
19098.0	6.661957109852842e+17
19099.0	6.660692641841151e+17
19100.0	6.659418229134676e+17
19101.0	6.658169677108564e+17
19102.0	6.656819960567124e+17
19103.0	6.655644817948671e+17
19104.0	6.654381384531967e+17
19105.0	6.6531058778112e+17
19106.0	6.651819843387391e+17
19107.0	6.650573259887955e+17
19108.0	6.649317662829225e+17
19109.0	6.647517446580905e+17
19110.0	6.646769009382739e+17
19111.0	6.645534471225343e+17
19112.0	6.644273017520127e+17
19113.0	6.643014592102399e+17
19114.0	6.641750460334079e+17
19115.0	6.64043705807667e+17
19116.0	6.639206214402047e+17
19117.0	6.637944599216127e+17
19118.0	6.636600082213546e+17
19119.0	6.631631808189774e+17
19120.0	6.634101459124223e+17
19121.0	6.632868990156797e+17
19122.0	6.631651979296767e+17
19123.0	6.630389562998783e+17
19124.0	6.629089817395199e+17
19125.0	6.627860935955795e+17
19126.0	6.626591646591657e+17
19127.0	6.623831999381501e+17
19128.0	6.623968932921343e+17
19129.0	6.622741557936127e+17
19130.0	6.621539557791059e+17
19131.0	6.620290924675071e+17
19132.0	6.619027575843497e+17
19133.0	6.617674584249684e+17
19134.0	6.616454515742036e+17
19135.0	6.61524000468719e+17
19136.0	6.613984369180671e+17
19137.0	6.612583922532351e+17
19138.0	6.611447301799936e+17
19139.0	6.610199360045056e+17
19140.0	6.608939277178196e+17
19141.0	6.607677793413802e+17
19142.0	6.60639416721954e+17
19143.0	6.605107416268797e+17
19144.0	6.603860628646569e+17
19145.0	6.602631646543871e+17
19146.0	6.600853971184298e+17
19147.0	6.600027750618452e+17
19148.0	6.59884006982724e+17
19149.0	6.59757901877521e+17
19150.0	6.596317034490538e+17
19151.0	6.595062530048e+17
19152.0	6.593790824764756e+17
19153.0	6.592513018866346e+17
19154.0	6.59116760637986e+17
19155.0	6.590014673300138e+17
19156.0	6.588749435633663e+17
19157.0	6.587463543816191e+17
19158.0	6.585870710734847e+17
19159.0	6.584940399427583e+17
19160.0	6.583688289233577e+17
19161.0	6.582425580732415e+17
19162.0	6.580331204662612e+17
19163.0	6.579875023071913e+17
19164.0	6.578658184178345e+17
19165.0	6.577373848447657e+17
19166.0	6.576020678595923e+17
19167.0	6.574795639138985e+17
19168.0	6.573599714443263e+17
19169.0	6.572330297851904e+17
19170.0	6.571089407421097e+17
19171.0	6.569781900957012e+17
19172.0	6.568564523794431e+17
19173.0	6.567071143952383e+17
19174.0	6.565298190680063e+17
19175.0	6.564085648850943e+17
19176.0	6.562823616331776e+17
19177.0	6.561428066533375e+17
19178.0	6.560271612335444e+17
19179.0	6.55896615199266e+17
19180.0	6.557757047395668e+17
19181.0	6.556407745391274e+17
19182.0	6.555233236112723e+17
19183.0	6.553984414253055e+17
19184.0	6.552711359102973e+17
19185.0	6.551453573316608e+17
19186.0	6.550193277239295e+17
19187.0	6.548867822649343e+17
19188.0	6.547664468443133e+17
19189.0	6.545954155003901e+17
19190.0	6.543380918741674e+17
19191.0	6.542089936437247e+17
19192.0	6.5408612710045e+17
19193.0	6.539593286068906e+17
19194.0	6.538318409192788e+17
19195.0	6.537062597525503e+17
19196.0	6.535782110767785e+17
19197.0	6.534502151793321e+17
19198.0	6.533165580200617e+17
19199.0	6.526829368879784e+17
19200.0	6.527046923933014e+17
19201.0	6.529384374599679e+17
19202.0	6.528187776019113e+17
19203.0	6.526925274436948e+17
19204.0	6.525657540460543e+17
19205.0	6.52440625165107e+17
19206.0	6.523141073403903e+17
19207.0	6.521801398026239e+17
19208.0	6.520433253111123e+17
19209.0	6.519342833336319e+17
19210.0	6.518079404812969e+17
19211.0	6.516819558924287e+17
19212.0	6.515550563161427e+17
19213.0	6.514174432291498e+17
19214.0	6.512877482191529e+17
19215.0	6.511722310052521e+17
19216.0	6.510472933845674e+17
19217.0	6.509200675613353e+17
19218.0	6.50723734078532e+17
19219.0	6.506523820468905e+17
19220.0	6.505370529475241e+17
19221.0	6.503847776223231e+17
19222.0	6.502840444212564e+17
19223.0	6.501556917982548e+17
19224.0	6.500262165697876e+17
19225.0	6.49890845827618e+17
19226.0	6.497735718294868e+17
19227.0	6.496459579632298e+17
19228.0	6.495209353379839e+17
19229.0	6.493933099373908e+17
19230.0	6.492653896772266e+17
19231.0	6.491368620818432e+17
19232.0	6.490095899115519e+17
19233.0	6.488763887430314e+17
19234.0	6.487526786553172e+17
19235.0	6.486248545845247e+17
19236.0	6.484987998109695e+17
19237.0	6.483694256652287e+17
19238.0	6.482342143765161e+17
19239.0	6.481146791591936e+17
19240.0	6.479843534656852e+17
19241.0	6.478555323389268e+17
19242.0	6.477282809304404e+17
19243.0	6.475867298813268e+17
19244.0	6.474728481663657e+17
19245.0	6.473036013589844e+17
19246.0	6.469973501280255e+17
19247.0	6.468701487016618e+17
19248.0	6.467414640295935e+17
19249.0	6.466123968370004e+17
19250.0	6.464818167589546e+17
19251.0	6.463449234145279e+17
19252.0	6.462002519430484e+17
19253.0	6.460940246231722e+17
19254.0	6.459665144960339e+17
19255.0	6.458208021381119e+17
19256.0	6.457051561590781e+17
19257.0	6.455781622808576e+17
19258.0	6.454483108233215e+17
19259.0	6.45312004821265e+17
19260.0	6.451744896013651e+17
19261.0	6.450570550312959e+17
19262.0	6.449227820782932e+17
19263.0	6.447921587290111e+17
19264.0	6.446210001578665e+17
19265.0	6.445194364846077e+17
19266.0	6.443883461694804e+17
19267.0	6.442746991258281e+17
19268.0	6.441436288734547e+17
19269.0	6.440123760989526e+17
19270.0	6.438805793232211e+17
19271.0	6.437208117826902e+17
19272.0	6.436143743980883e+17
19273.0	6.432872008602963e+17
19274.0	6.430296829678931e+17
19275.0	6.429562573422591e+17
19276.0	6.428224016525993e+17
19277.0	6.426903658015401e+17
19278.0	6.425580025850537e+17
19279.0	6.424241902365354e+17
19280.0	6.422856655874729e+17
19281.0	6.42158182933026e+17
19282.0	6.420260768972799e+17
19283.0	6.418856067902121e+17
19284.0	6.41753174577425e+17
19285.0	6.416088538196649e+17
19286.0	6.414685262490282e+17
19287.0	6.412506001397076e+17
19288.0	6.409309300719613e+17
19289.0	6.405225343964493e+17
19290.0	6.408447630595411e+17
19291.0	6.405601432524118e+17
19292.0	6.404137495997098e+17
19293.0	6.4027687911424e+17
19294.0	6.401399708800339e+17
19295.0	6.400041164647081e+17
19296.0	6.398663925781844e+17
19297.0	6.397282612150271e+17
19298.0	6.395891854344191e+17
19299.0	6.394528739797674e+17
19300.0	6.393145792484691e+17
19301.0	6.391755561762815e+17
19302.0	6.390357043096233e+17
19303.0	6.388907832071507e+17
19304.0	6.387544072301225e+17
19305.0	6.386153765382825e+17
19306.0	6.384752937052841e+17
19307.0	6.383302750153385e+17
19308.0	6.381905071745706e+17
19309.0	6.380328720181929e+17
19310.0	6.378828321172137e+17
19311.0	6.377613095687507e+17
19312.0	6.376220056879103e+17
19313.0	6.374790900219904e+17
19314.0	6.366996877453993e+17
19315.0	6.36603864536406e+17
19316.0	6.370423753146367e+17
19317.0	6.368990449019561e+17
19318.0	6.366507350447444e+17
19319.0	6.364561071756628e+17
19320.0	6.363076542595071e+17
19321.0	6.361586476952233e+17
19322.0	6.360022504876714e+17
19323.0	6.358523642380287e+17
19324.0	6.357084567590227e+17
19325.0	6.355425548391764e+17
19326.0	6.354054498222079e+17
19327.0	6.352524179843754e+17
19328.0	6.350996006152874e+17
19329.0	6.349466138662228e+17
19330.0	6.347885023068159e+17
19331.0	6.346322695858857e+17
19332.0	6.344796875172521e+17
19333.0	6.343220506831529e+17
19334.0	6.341347896896169e+17
19335.0	6.337975600982698e+17
19336.0	6.336378368076458e+17
19337.0	6.334752530016938e+17
19338.0	6.33294535332113e+17
19339.0	6.33147731546385e+17
19340.0	6.32974981656303e+17
19341.0	6.328130844579155e+17
19342.0	6.3261617174173e+17
19343.0	6.32479223521826e+17
19344.0	6.323083937841151e+17
19345.0	6.318217398758053e+17
19346.0	6.31624666587682e+17
19347.0	6.315106073837567e+17
19348.0	6.313398885853865e+17
19349.0	6.311584180382377e+17
19350.0	6.309787323771561e+17
19351.0	6.307963896244905e+17
19352.0	6.306088022441983e+17
19353.0	6.300982473741652e+17
19354.0	6.298958306126505e+17
19355.0	6.296952934585686e+17
19356.0	6.295088038674431e+17
19357.0	6.293124857637544e+17
19358.0	6.290390270694743e+17
19359.0	6.284799162799444e+17
19360.0	6.282721419941204e+17
19361.0	6.280593820789418e+17
19362.0	6.278479688149674e+17
19363.0	6.273299456371373e+17
19364.0	6.268906172492457e+17
19365.0	6.266610733372756e+17
19366.0	6.264284260597759e+17
19367.0	6.256785428753071e+17
19368.0	6.253279050727424e+17
19369.0	6.250697183286611e+17
19370.0	6.245749574598659e+17
19371.0	6.241890556269908e+17
19372.0	6.239230829963945e+17
19373.0	6.236467028994729e+17
19374.0	6.233686064234495e+17
19375.0	6.23083683717666e+17
19376.0	6.227938229179732e+17
19377.0	6.224981277016064e+17
19378.0	6.221975729646249e+17
19379.0	6.218913009718612e+17
19380.0	6.215790757238099e+17
19381.0	6.212602572395862e+17
19382.0	6.20930119377442e+17
19383.0	6.205968057281193e+17
19384.0	6.202678568812543e+17
19385.0	6.199238713846441e+17
19386.0	6.195720892361385e+17
19387.0	6.192068834273961e+17
19388.0	6.188347978416128e+17
19389.0	6.184570730141012e+17
19390.0	6.180732022729385e+17
19391.0	6.171236193970849e+17
19392.0	6.172833044496383e+17
19393.0	6.168939957933398e+17
19394.0	6.164910590743892e+17
19395.0	6.160840703781545e+17
19396.0	6.156730153041919e+17
19397.0	6.152595018088447e+17
19398.0	6.148394272336553e+17
19399.0	6.143622839096659e+17
19400.0	6.139662303232e+17
19401.0	6.135137107793236e+17
19402.0	6.130501058996906e+17
19403.0	6.125760978179412e+17
19404.0	6.120755680335188e+17
19405.0	6.115869941126484e+17
19406.0	6.110940022614697e+17
19407.0	6.105930153678166e+17
19408.0	6.100268705906688e+17
19409.0	6.095646777234771e+17
19410.0	6.090402036361897e+17
19411.0	6.085039127265279e+17
19412.0	6.079248973081257e+17
19413.0	6.073456382006612e+17
19414.0	6.06775930991411e+17
19415.0	6.062009137233919e+17
19416.0	6.055731195281407e+17
19417.0	6.049017324634111e+17
19418.0	6.042903758853459e+17
19419.0	6.03569613893359e+17
19420.0	6.028319759095124e+17
19421.0	6.020339314895526e+17
19422.0	6.011921144042838e+17
19423.0	6.001464505794557e+17
19424.0	5.990229817163779e+17
19425.0	5.977093268919634e+17
19426.0	5.96125734841002e+17
19427.0	5.941771534772905e+17
19428.0	5.919019953553412e+17
19429.0	5.88946998855817e+17
19430.0	5.871595493698218e+17
19431.0	5.854892978951508e+17
19432.0	5.83928908034867e+17
19433.0	5.821989645538644e+17
19434.0	5.80382114325026e+17
19435.0	5.784069215704403e+17
19436.0	5.763407185007956e+17
19437.0	5.7419252545617894e+17
19438.0	5.7096278834326195e+17
19439.0	5.689508703327574e+17
19440.0	5.655019292459009e+17
19441.0	5.608890178382505e+17
19442.0	5.546498373364384e+17
19443.0	5.485205652155051e+17
19444.0	5.433227567868584e+17
19445.0	5.3701966403993606e+17
19446.0	5.2907731586471194e+17
19447.0	5.183144119151268e+17
19448.0	5.037437129239217e+17
19449.0	4.8304729802233165e+17
19450.0	4.468338803605494e+17
19451.0	4.302635664408563e+17
19452.0	4.672477254909957e+17
19453.0	4.9445777734369344e+17
19454.0	5.112801035026425e+17
19455.0	5.2357330590760966e+17
19456.0	5.324836553359361e+17
19457.0	5.393040019554301e+17
19458.0	5.435777083943613e+17
19459.0	5.4981880010069344e+17
19460.0	5.563347116927651e+17
19461.0	5.614662738859346e+17
19462.0	5.6517625349406726e+17
19463.0	5.6807529699956045e+17
19464.0	5.7041625242664966e+17
19465.0	5.72473972166929e+17
19466.0	5.743720862668115e+17
19467.0	5.7615713884788045e+17
19468.0	5.778188967171412e+17
19469.0	5.793523450948265e+17
19470.0	5.808355523515731e+17
19471.0	5.822409571565568e+17
19472.0	5.835667848298492e+17
19473.0	5.858261490903716e+17
19474.0	5.883613085521242e+17
19475.0	5.900914314794326e+17
19476.0	5.916077569605632e+17
19477.0	5.928208103549609e+17
19478.0	5.938242378181286e+17
19479.0	5.946387510329345e+17
19480.0	5.953025857639763e+17
19481.0	5.959962333282301e+17
19482.0	5.964430634385408e+17
19483.0	5.970229918171136e+17
19484.0	5.974243521768106e+17
19485.0	5.978266870131369e+17
19486.0	5.982725830519466e+17
19487.0	5.986293109839188e+17
19488.0	5.989742954938368e+17
19489.0	5.99301270081809e+17
19490.0	5.995736100853075e+17
19491.0	5.999931480692052e+17
19492.0	6.002983705072979e+17
19493.0	6.005901216098986e+17
19494.0	6.008731754037247e+17
19495.0	6.01147595432482e+17
19496.0	6.013840548429823e+17
19497.0	6.016699015539369e+17
19498.0	6.01875759112738e+17
19499.0	6.012864607289335e+17
19500.0	6.024245111597738e+17
19501.0	6.026540682138964e+17
19502.0	6.028729673318399e+17
19503.0	6.030746711315795e+17
19504.0	6.03261617901841e+17
19505.0	6.034452971694761e+17
19506.0	6.036247434057044e+17
19507.0	6.037980493905919e+17
19508.0	6.039702095615315e+17
19509.0	6.041359360895657e+17
19510.0	6.042805124202495e+17
19511.0	6.033073711174988e+17
19512.0	6.044680691821222e+17
19513.0	6.044738520088571e+17
19514.0	6.047019490257576e+17
19515.0	6.04978451176926e+17
19516.0	6.051419050912425e+17
19517.0	6.052502130655231e+17
19518.0	6.053604849527465e+17
19519.0	6.05458585808623e+17
19520.0	6.055476471005183e+17
19521.0	6.056361720807423e+17
19522.0	6.057131270733823e+17
19523.0	6.05788955475968e+17
19524.0	6.058562622412116e+17
19525.0	6.059180855831209e+17
19526.0	6.05975968026897e+17
19527.0	6.060273260210857e+17
19528.0	6.060731504700073e+17
19529.0	6.061151718036822e+17
19530.0	6.061524911128575e+17
19531.0	6.061849081195178e+17
19532.0	6.064430535497042e+17
19533.0	6.065693230017193e+17
19534.0	6.065853967630335e+17
19535.0	6.068520302761299e+17
19536.0	6.071693588736681e+17
19537.0	6.071684956159999e+17
19538.0	6.071530067503786e+17
19539.0	6.07381730466202e+17
19540.0	6.076093525480788e+17
19541.0	6.075887064361642e+17
19542.0	6.075631427824297e+17
19543.0	6.075351038601898e+17
19544.0	6.078343193559036e+17
19545.0	6.078250085602643e+17
19546.0	6.077494533466793e+17
19547.0	6.077862463406079e+17
19548.0	6.077432033443839e+17
19549.0	6.076900329914367e+17
19550.0	6.078964268619091e+17
19551.0	6.079161196784297e+17
19552.0	6.078624564248575e+17
19553.0	6.078055575453695e+17
19554.0	6.077480358117375e+17
19555.0	6.076925952917503e+17
19556.0	6.076350611150163e+17
19557.0	6.075745336732329e+17
19558.0	6.076944971988992e+17
19559.0	6.076951949912746e+17
19560.0	6.076267396158803e+17
19561.0	6.075593363816447e+17
19562.0	6.074934630197929e+17
19563.0	6.074239964676096e+17
19564.0	6.073535314613588e+17
19565.0	6.072820498257236e+17
19566.0	6.072069866739028e+17
19567.0	6.071361245369684e+17
19568.0	6.070596917351764e+17
19569.0	6.070259126981972e+17
19570.0	6.070956755080531e+17
19571.0	6.070172224498346e+17
19572.0	6.069359399840425e+17
19573.0	6.068572726667946e+17
19574.0	6.067704516924756e+17
19575.0	6.06697384190498e+17
19576.0	6.066155730326868e+17
19577.0	6.06531678703889e+17
19578.0	6.064464482096467e+17
19579.0	6.063635004653567e+17
19580.0	6.062792540946431e+17
19581.0	6.061952689591635e+17
19582.0	6.061112110525097e+17
19583.0	6.060251133160106e+17
19584.0	6.059381680504832e+17
19585.0	6.058416478180692e+17
19586.0	6.05751307473169e+17
19587.0	6.056720135968084e+17
19588.0	6.056054840360959e+17
19589.0	6.05627618356975e+17
19590.0	6.055314921095167e+17
19591.0	6.05448583581969e+17
19592.0	6.053571643222697e+17
19593.0	6.052638463710548e+17
19594.0	6.051529490431999e+17
19595.0	6.05078284280354e+17
19596.0	6.049629360969044e+17
19597.0	6.048932068414804e+17
19598.0	6.047704767528959e+17
19599.0	6.047065244521812e+17
19600.0	6.04612928278801e+17
19601.0	6.045123625003689e+17
19602.0	6.044187101233151e+17
19603.0	6.042863967491412e+17
19604.0	6.042270842574166e+17
19605.0	6.041105599911252e+17
19606.0	6.040396936598867e+17
19607.0	6.039434379482452e+17
19608.0	6.03845022449664e+17
19609.0	6.037448359062186e+17
19610.0	6.03651680763904e+17
19611.0	6.035533631324159e+17
19612.0	6.034565088935935e+17
19613.0	6.033574093040297e+17
19614.0	6.032563818725376e+17
19615.0	6.031611589383508e+17
19616.0	6.030936523844266e+17
19617.0	6.031014331678719e+17
19618.0	6.029552318240084e+17
19619.0	6.028518666272767e+17
19620.0	6.027606505117011e+17
19621.0	6.027164324113066e+17
19622.0	6.026171208695807e+17
19623.0	6.025167518739113e+17
19624.0	6.024153150084436e+17
19625.0	6.023153341956095e+17
19626.0	6.022142978162687e+17
19627.0	6.021127732199424e+17
19628.0	6.019991990872746e+17
19629.0	6.01984953483264e+17
19630.0	6.018560454645076e+17
19631.0	6.012381970825215e+17
19632.0	6.016894047180116e+17
19633.0	6.015866127428265e+17
19634.0	6.01488420381218e+17
19635.0	6.013826843541503e+17
19636.0	6.012828597791401e+17
19637.0	6.013100725633024e+17
19638.0	6.013034475203242e+17
19639.0	6.011999231497556e+17
19640.0	6.010903006806015e+17
19641.0	6.00922511044335e+17
19642.0	6.00890076631313e+17
19643.0	6.007862621547178e+17
19644.0	6.006780424006314e+17
19645.0	6.005563901782697e+17
19646.0	6.00475060666368e+17
19647.0	6.003719100082857e+17
19648.0	6.00267828634146e+17
19649.0	6.001633826351786e+17
19650.0	6.000592974861652e+17
19651.0	5.999543342596095e+17
19652.0	5.998501853571754e+17
19653.0	5.997456554022228e+17
19654.0	5.996403870400511e+17
19655.0	5.995360108762452e+17
19656.0	5.994309822884521e+17
19657.0	5.993266820415487e+17
19658.0	5.992217086088531e+17
19659.0	5.991165235036159e+17
19660.0	5.990115409832617e+17
19661.0	5.98906349167138e+17
19662.0	5.988010583654399e+17
19663.0	5.986919033514665e+17
19664.0	5.985883528364031e+17
19665.0	5.984849185734655e+17
