# Flux units: erg / (cm m2 s)
# Wavelength units: Angstrom
wave	flux
19000.0	7.330288668158633e+17
19001.0	7.328894295561556e+17
19002.0	7.327634983747583e+17
19003.0	7.326299494984361e+17
19004.0	7.324963363094527e+17
19005.0	7.323645487611903e+17
19006.0	7.322313758343168e+17
19007.0	7.320868812226557e+17
19008.0	7.319607298402985e+17
19009.0	7.318260388549972e+17
19010.0	7.31666952958771e+17
19011.0	7.315601746471593e+17
19012.0	7.313776853734738e+17
19013.0	7.31295869182498e+17
19014.0	7.311581480921769e+17
19015.0	7.310258443649023e+17
19016.0	7.308912730570752e+17
19017.0	7.307600380384595e+17
19018.0	7.306233063844521e+17
19019.0	7.304915637152425e+17
19020.0	7.303561601176916e+17
19021.0	7.302233607634943e+17
19022.0	7.300898845884415e+17
19023.0	7.299524376657919e+17
19024.0	7.298186536288255e+17
19025.0	7.296800764810582e+17
19026.0	7.295434232605353e+17
19027.0	7.293662459330557e+17
19028.0	7.292808989769727e+17
19029.0	7.291456012156925e+17
19030.0	7.290123330781183e+17
19031.0	7.288773398233087e+17
19032.0	7.287421006424745e+17
19033.0	7.286003137336662e+17
19034.0	7.28468562116608e+17
19035.0	7.283162154882386e+17
19036.0	7.250995959212708e+17
19037.0	7.280520768170664e+17
19038.0	7.279272856474964e+17
19039.0	7.278141219274751e+17
19040.0	7.276871048407722e+17
19041.0	7.275518356007593e+17
19042.0	7.27599585235217e+17
19043.0	7.275135260863144e+17
19044.0	7.273773992509439e+17
19045.0	7.272398606128467e+17
19046.0	7.271025765690025e+17
19047.0	7.269688460793172e+17
19048.0	7.268201075310591e+17
19049.0	7.26688188141841e+17
19050.0	7.265562314233172e+17
19051.0	7.259110714114039e+17
19052.0	7.261976814856874e+17
19053.0	7.261490026730835e+17
19054.0	7.26016952841011e+17
19055.0	7.258628946569898e+17
19056.0	7.257432205382996e+17
19057.0	7.256079142486015e+17
19058.0	7.254663868274004e+17
19059.0	7.253351539059369e+17
19060.0	7.251982590935039e+17
19061.0	7.250634179521194e+17
19062.0	7.249266607128575e+17
19063.0	7.247902973187411e+17
19064.0	7.246463824997033e+17
19065.0	7.245050266255357e+17
19066.0	7.243757113398611e+17
19067.0	7.242442716392104e+17
19068.0	7.24107685667362e+17
19069.0	7.239711068258301e+17
19070.0	7.238327831538345e+17
19071.0	7.236960401752063e+17
19072.0	7.2355965580957e+17
19073.0	7.234239576320684e+17
19074.0	7.232875313233919e+17
19075.0	7.231507300439382e+17
19076.0	7.230125267484671e+17
19077.0	7.228761681078952e+17
19078.0	7.227384295413076e+17
19079.0	7.226031310809769e+17
19080.0	7.22465159450897e+17
19081.0	7.223264018082474e+17
19082.0	7.221892461101055e+17
19083.0	7.220470347377321e+17
19084.0	7.219011244086612e+17
19085.0	7.217797549522944e+17
19086.0	7.216084609750356e+17
19087.0	7.214199720290985e+17
19088.0	7.213465798180863e+17
19089.0	7.211725259887956e+17
19090.0	7.210866074888874e+17
19091.0	7.209531405413033e+17
19092.0	7.207945390871891e+17
19093.0	7.206823731920896e+17
19094.0	7.20546110181649e+17
19095.0	7.204090807320573e+17
19096.0	7.20271308890658e+17
19097.0	7.201350918777514e+17
19098.0	7.199969467432957e+17
19099.0	7.198594483705171e+17
19100.0	7.197178236414633e+17
19101.0	7.195839427160745e+17
19102.0	7.194422054398633e+17
19103.0	7.193111221152425e+17
19104.0	7.191734671551145e+17
19105.0	7.190325486070441e+17
19106.0	7.188817354162173e+17
19107.0	7.187570615473492e+17
19108.0	7.186174123354793e+17
19109.0	7.182156016473425e+17
19110.0	7.183254616539135e+17
19111.0	7.182071544588969e+17
19112.0	7.180719883987625e+17
19113.0	7.179357692887037e+17
19114.0	7.17754124608034e+17
19115.0	7.17424892715554e+17
19116.0	7.172956937519104e+17
19117.0	7.171570248886953e+17
19118.0	7.170017569275904e+17
19119.0	7.166516952825852e+17
19120.0	7.167166872813565e+17
19121.0	7.165879874398889e+17
19122.0	7.16471115395891e+17
19123.0	7.1633340479133e+17
19124.0	7.16176654003951e+17
19125.0	7.160560185507837e+17
19126.0	7.159186176256681e+17
19127.0	7.156683539917481e+17
19128.0	7.15574202212898e+17
19129.0	7.154999813472255e+17
19130.0	7.15366831628834e+17
19131.0	7.152276960793939e+17
19132.0	7.150916743812436e+17
19133.0	7.149377404884308e+17
19134.0	7.147832528076799e+17
19135.0	7.146763587332777e+17
19136.0	7.145394240749568e+17
19137.0	7.143906652542292e+17
19138.0	7.142607526996649e+17
19139.0	7.141246802504361e+17
19140.0	7.139867154710527e+17
19141.0	7.138484612846932e+17
19142.0	7.137073555308543e+17
19143.0	7.135681773393236e+17
19144.0	7.13430775435537e+17
19145.0	7.132944956478804e+17
19146.0	7.13114409570577e+17
19147.0	7.130122712776704e+17
19148.0	7.128768376209407e+17
19149.0	7.127385498801492e+17
19150.0	7.126016206744233e+17
19151.0	7.124634386300927e+17
19152.0	7.123210158647978e+17
19153.0	7.121827723040083e+17
19154.0	7.120382744767145e+17
19155.0	7.119062113626794e+17
19156.0	7.117662717651625e+17
19157.0	7.116115099167402e+17
19158.0	7.113229314555901e+17
19159.0	7.11340650013218e+17
19160.0	7.112059580492457e+17
19161.0	7.110596738678783e+17
19162.0	7.105181201552728e+17
19163.0	7.107627778222761e+17
19164.0	7.106535153642153e+17
19165.0	7.105076458597033e+17
19166.0	7.103613163798527e+17
19167.0	7.101988957323264e+17
19168.0	7.100955115913215e+17
19169.0	7.099535019649705e+17
19170.0	7.098199090484564e+17
19171.0	7.096607346524159e+17
19172.0	7.095379293459798e+17
19173.0	7.094019184132093e+17
19174.0	7.092607359036074e+17
19175.0	7.091248667383123e+17
19176.0	7.089850071121919e+17
19177.0	7.088340619405994e+17
19178.0	7.086915678721364e+17
19179.0	7.085351210319871e+17
19180.0	7.084213063559849e+17
19181.0	7.082780265545725e+17
19182.0	7.081438134403071e+17
19183.0	7.080055536615424e+17
19184.0	7.078638373568511e+17
19185.0	7.077253185099092e+17
19186.0	7.075852741946024e+17
19187.0	7.074389663853225e+17
19188.0	7.073032517102249e+17
19189.0	7.071605753293481e+17
19190.0	7.070175635439615e+17
19191.0	7.068747975447892e+17
19192.0	7.067400640572074e+17
19193.0	7.065966408105981e+17
19194.0	7.064544827058857e+17
19195.0	7.063122683974995e+17
19196.0	7.061651680045738e+17
19197.0	7.060097978422612e+17
19198.0	7.058088846688255e+17
19199.0	7.032368162406394e+17
19200.0	7.037450524994226e+17
19201.0	7.053946876417363e+17
19202.0	7.053059747566931e+17
19203.0	7.051711487148032e+17
19204.0	7.050389147527849e+17
19205.0	7.049020163052884e+17
19206.0	7.04523596551509e+17
19207.0	7.0433293481629e+17
19208.0	7.041842197561343e+17
19209.0	7.040548569350143e+17
19210.0	7.039134950490111e+17
19211.0	7.037708467699711e+17
19212.0	7.036273773161129e+17
19213.0	7.034592872977748e+17
19214.0	7.033039239162537e+17
19215.0	7.031878423587497e+17
19216.0	7.030558010550954e+17
19217.0	7.029128574271487e+17
19218.0	7.027160778102099e+17
19219.0	7.026149813824169e+17
19220.0	7.024801689720148e+17
19221.0	7.023180511532372e+17
19222.0	7.021945844749652e+17
19223.0	7.020505260709203e+17
19224.0	7.019038402150397e+17
19225.0	7.017536286272169e+17
19226.0	7.016167198337705e+17
19227.0	7.014718970877268e+17
19228.0	7.013291551358975e+17
19229.0	7.01184138682914e+17
19230.0	7.01036251718178e+17
19231.0	7.008910174410068e+17
19232.0	7.007473117779284e+17
19233.0	7.005972555191636e+17
19234.0	7.004553884292435e+17
19235.0	7.003094111311187e+17
19236.0	7.001647840493565e+17
19237.0	7.000173849520809e+17
19238.0	6.998620781936639e+17
19239.0	6.997252490919936e+17
19240.0	6.995290928185341e+17
19241.0	6.990777594238292e+17
19242.0	6.98930657632802e+17
19243.0	6.987718243734867e+17
19244.0	6.986349084497236e+17
19245.0	6.984860507133268e+17
19246.0	6.983359581738323e+17
19247.0	6.981875539815081e+17
19248.0	6.980373615476735e+17
19249.0	6.978868633490772e+17
19250.0	6.977367306141693e+17
19251.0	6.975802489612969e+17
19252.0	6.974172220970323e+17
19253.0	6.972847280881663e+17
19254.0	6.971348765114367e+17
19255.0	6.969706760110079e+17
19256.0	6.968281710373546e+17
19257.0	6.966798797417129e+17
19258.0	6.965276365728425e+17
19259.0	6.963697495485098e+17
19260.0	6.961653719498751e+17
19261.0	6.959975414191441e+17
19262.0	6.954808704150185e+17
19263.0	6.953254296485887e+17
19264.0	6.951401019495763e+17
19265.0	6.950055569959593e+17
19266.0	6.948504474397354e+17
19267.0	6.947049220778665e+17
19268.0	6.945477865330004e+17
19269.0	6.943901855602004e+17
19270.0	6.942318084314452e+17
19271.0	6.940526613889023e+17
19272.0	6.939122196632916e+17
19273.0	6.936852731439785e+17
19274.0	6.935424743593299e+17
19275.0	6.934353452640937e+17
19276.0	6.931689653665795e+17
19277.0	6.928535785220777e+17
19278.0	6.926909118087167e+17
19279.0	6.925243085313363e+17
19280.0	6.923584191244969e+17
19281.0	6.92197687173666e+17
19282.0	6.920316636889087e+17
19283.0	6.918364206552403e+17
19284.0	6.916740534151849e+17
19285.0	6.915224852496383e+17
19286.0	6.913636475163987e+17
19287.0	6.91195275780642e+17
19288.0	6.901978193286476e+17
19289.0	6.88837813180822e+17
19290.0	6.906861492109311e+17
19291.0	6.90501924683776e+17
19292.0	6.903486395798868e+17
19293.0	6.901762573205503e+17
19294.0	6.900030735297193e+17
19295.0	6.898301771885225e+17
19296.0	6.896544945711786e+17
19297.0	6.89477742825745e+17
19298.0	6.893029779920212e+17
19299.0	6.891258626703359e+17
19300.0	6.889492034792105e+17
19301.0	6.887702845369002e+17
19302.0	6.885909101630804e+17
19303.0	6.88406683398963e+17
19304.0	6.882294173619539e+17
19305.0	6.880487542882301e+17
19306.0	6.878650971105961e+17
19307.0	6.876778269594964e+17
19308.0	6.874933386805247e+17
19309.0	6.872290061626025e+17
19310.0	6.870094741241855e+17
19311.0	6.869249770739028e+17
19312.0	6.867505482738346e+17
19313.0	6.865604625563647e+17
19314.0	6.84196088931942e+17
19315.0	6.841634660548637e+17
19316.0	6.859727397628586e+17
19317.0	6.857916689328809e+17
19318.0	6.85588639453457e+17
19319.0	6.853938047352832e+17
19320.0	6.85195436106274e+17
19321.0	6.849954589616809e+17
19322.0	6.847832970843475e+17
19323.0	6.845583692835497e+17
19324.0	6.843828505935871e+17
19325.0	6.841158932802217e+17
19326.0	6.839738803683328e+17
19327.0	6.837710076859731e+17
19328.0	6.8356175560704e+17
19329.0	6.833534375996074e+17
19330.0	6.831388172309842e+17
19331.0	6.829243504437929e+17
19332.0	6.827100260532223e+17
19333.0	6.824897121965395e+17
19334.0	6.822692949502633e+17
19335.0	6.820423969450666e+17
19336.0	6.818202091432617e+17
19337.0	6.815952941350911e+17
19338.0	6.813546162334377e+17
19339.0	6.811381533070676e+17
19340.0	6.809039591003476e+17
19341.0	6.806732872701268e+17
19342.0	6.804153679828308e+17
19343.0	6.802073135874047e+17
19344.0	6.799691770145449e+17
19345.0	6.796125268170067e+17
19346.0	6.794429965445802e+17
19347.0	6.792471650500607e+17
19348.0	6.79011589169698e+17
19349.0	6.787654277748052e+17
19350.0	6.785208920921428e+17
19351.0	6.78275220382242e+17
19352.0	6.780224704348159e+17
19353.0	6.777801805922303e+17
19354.0	6.775298357985279e+17
19355.0	6.772719049069908e+17
19356.0	6.770224904798207e+17
19357.0	6.767597784312489e+17
19358.0	6.764920138541738e+17
19359.0	6.762205377374889e+17
19360.0	6.759499944340138e+17
19361.0	6.756786380647081e+17
19362.0	6.754053479115433e+17
19363.0	6.751271275637417e+17
19364.0	6.748462817214463e+17
19365.0	6.745628789615273e+17
19366.0	6.742769153693012e+17
19367.0	6.739713845799594e+17
19368.0	6.73668851180066e+17
19369.0	6.733707610161151e+17
19370.0	6.730706633883647e+17
19371.0	6.727759596355583e+17
19372.0	6.724770406072319e+17
19373.0	6.721705316362921e+17
19374.0	6.718633225661097e+17
19375.0	6.715515469474473e+17
19376.0	6.712364877479936e+17
19377.0	6.709170590624425e+17
19378.0	6.70594434736674e+17
19379.0	6.702680857291433e+17
19380.0	6.699380587364351e+17
19381.0	6.695978590885203e+17
19382.0	6.692003940488532e+17
19383.0	6.688559703872852e+17
19384.0	6.685155533346132e+17
19385.0	6.68164973203729e+17
19386.0	6.678105097764863e+17
19387.0	6.674507822880084e+17
19388.0	6.670856828048723e+17
19389.0	6.666855764022612e+17
19390.0	6.662270332786004e+17
19391.0	6.633526576633135e+17
19392.0	6.654087105172819e+17
19393.0	6.65058278515234e+17
19394.0	6.646254612949674e+17
19395.0	6.64074225590818e+17
19396.0	6.636509576822783e+17
19397.0	6.632254617594538e+17
19398.0	6.626703075966973e+17
19399.0	6.620568844850516e+17
19400.0	6.616241972882089e+17
19401.0	6.609081697566719e+17
19402.0	6.603449101014355e+17
19403.0	6.596350523910822e+17
19404.0	6.589100775702527e+17
19405.0	6.58106959720175e+17
19406.0	6.57304958603537e+17
19407.0	6.562877728445778e+17
19408.0	6.554119487619066e+17
19409.0	6.541513917988863e+17
19410.0	6.52867369592422e+17
19411.0	6.513863033880571e+17
19412.0	6.499285150815571e+17
19413.0	6.488088684877139e+17
19414.0	6.479338169259348e+17
19415.0	6.470357861007359e+17
19416.0	6.46088959861282e+17
19417.0	6.451219237874345e+17
19418.0	6.44170993771042e+17
19419.0	6.431235877721428e+17
19420.0	6.420661074744659e+17
19421.0	6.409792041342292e+17
19422.0	6.398480732564138e+17
19423.0	6.386366002757631e+17
19424.0	6.374215812207956e+17
19425.0	6.361692516646912e+17
19426.0	6.347812323895977e+17
19427.0	6.334191773242708e+17
19428.0	6.31841616962082e+17
19429.0	6.301557405865298e+17
19430.0	6.282588447921492e+17
19431.0	6.258067765198853e+17
19432.0	6.238297911896748e+17
19433.0	6.209583219474431e+17
19434.0	6.1767207106205e+17
19435.0	6.136912121866924e+17
19436.0	6.099122766129837e+17
19437.0	6.07129119629858e+17
19438.0	6.0116675550249e+17
19439.0	6.004475718270979e+17
19440.0	5.966083713750356e+17
19441.0	5.922167013943977e+17
19442.0	5.871817366787416e+17
19443.0	5.811408204376745e+17
19444.0	5.7400218458521606e+17
19445.0	5.657473829218988e+17
19446.0	5.559471338859175e+17
19447.0	5.443148415937189e+17
19448.0	5.2979255025336384e+17
19449.0	5.1034281622896634e+17
19450.0	4.8249206074245005e+17
19451.0	4.693589642007893e+17
19452.0	4.975676776688293e+17
19453.0	5.208170639130631e+17
19454.0	5.3719181267653914e+17
19455.0	5.4982149291376646e+17
19456.0	5.602062652582572e+17
19457.0	5.6898688828921094e+17
19458.0	5.7329536068485664e+17
19459.0	5.827079000730295e+17
19460.0	5.880081466873169e+17
19461.0	5.924472965387603e+17
19462.0	5.963988965086551e+17
19463.0	5.998295537156092e+17
19464.0	6.028614423631187e+17
19465.0	6.056461764045484e+17
19466.0	6.08595740791057e+17
19467.0	6.123403859023185e+17
19468.0	6.157455474032645e+17
19469.0	6.184903411848531e+17
19470.0	6.208513242038277e+17
19471.0	6.22873187048926e+17
19472.0	6.246191557072214e+17
19473.0	6.261273457765034e+17
19474.0	6.274631629537279e+17
19475.0	6.286713422173522e+17
19476.0	6.298162886432083e+17
19477.0	6.309126237148499e+17
19478.0	6.318821073048916e+17
19479.0	6.328738605520212e+17
19480.0	6.337875861132628e+17
19481.0	6.346523774986921e+17
19482.0	6.354764340832937e+17
19483.0	6.36291913945361e+17
19484.0	6.370570139948371e+17
19485.0	6.377767358693376e+17
19486.0	6.384680348330665e+17
19487.0	6.391349610457769e+17
19488.0	6.397725687939071e+17
19489.0	6.40419122363324e+17
19490.0	6.413994607422117e+17
19491.0	6.428822038293157e+17
19492.0	6.440127516289711e+17
19493.0	6.449009781287597e+17
19494.0	6.456445057542825e+17
19495.0	6.464710464154286e+17
19496.0	6.468932951080956e+17
19497.0	6.476764050795177e+17
19498.0	6.47732826507401e+17
19499.0	6.447130526176571e+17
19500.0	6.48868670804241e+17
19501.0	6.493324963741696e+17
19502.0	6.496341884665855e+17
19503.0	6.498521839217324e+17
19504.0	6.502690804028756e+17
19505.0	6.504568128361812e+17
19506.0	6.506342302176598e+17
19507.0	6.508501666190678e+17
19508.0	6.511152392918356e+17
19509.0	6.512644692028073e+17
19510.0	6.513907659177983e+17
19511.0	6.472328925937637e+17
19512.0	6.510719903552841e+17
19513.0	6.507786568116888e+17
19514.0	6.511928200746313e+17
19515.0	6.520596456275968e+17
19516.0	6.522276357515945e+17
19517.0	6.523266108402346e+17
19518.0	6.524270175147348e+17
19519.0	6.525179985395711e+17
19520.0	6.52613731221504e+17
19521.0	6.527491516661759e+17
19522.0	6.528265604825088e+17
19523.0	6.529036657011369e+17
19524.0	6.529744178074964e+17
19525.0	6.530426780778496e+17
19526.0	6.531074977606313e+17
19527.0	6.531675311833087e+17
19528.0	6.53223459430946e+17
19529.0	6.532771212165119e+17
19530.0	6.533275758275241e+17
19531.0	6.53374581252642e+17
19532.0	6.534185440597332e+17
19533.0	6.534595466668713e+17
19534.0	6.534974687674368e+17
19535.0	6.53534706008064e+17
19536.0	6.535898970368682e+17
19537.0	6.536224574887252e+17
19538.0	6.536424947275091e+17
19539.0	6.536418139919702e+17
19540.0	6.536947769365844e+17
19541.0	6.537160237427369e+17
19542.0	6.537327753734826e+17
19543.0	6.537459828173481e+17
19544.0	6.537594265403391e+17
19545.0	6.537415542614696e+17
19546.0	6.537195954722132e+17
19547.0	6.537716067991551e+17
19548.0	6.537679997676202e+17
19549.0	6.537564929742166e+17
19550.0	6.537561609251498e+17
19551.0	6.537481361730217e+17
19552.0	6.537383709944489e+17
19553.0	6.537258073063423e+17
19554.0	6.537121969296724e+17
19555.0	6.536993473997482e+17
19556.0	6.536845867352063e+17
19557.0	6.536672323829759e+17
19558.0	6.536487235485695e+17
19559.0	6.536286078763007e+17
19560.0	6.536045594847913e+17
19561.0	6.53581902553634e+17
19562.0	6.535584389879124e+17
19563.0	6.535327386697727e+17
19564.0	6.535049206475434e+17
19565.0	6.53475565412898e+17
19566.0	6.534427476404905e+17
19567.0	6.534122587553791e+17
19568.0	6.533766557554004e+17
19569.0	6.533425854240084e+17
19570.0	6.533052122879315e+17
19571.0	6.532638451957759e+17
19572.0	6.532191844564991e+17
19573.0	6.531756014436352e+17
19574.0	6.531246221950975e+17
19575.0	6.530833503136426e+17
19576.0	6.530343674139988e+17
19577.0	6.529833684522324e+17
19578.0	6.529294406079828e+17
19579.0	6.528765969913172e+17
19580.0	6.528220196590932e+17
19581.0	6.5276676683421e+17
19582.0	6.52710460400162e+17
19583.0	6.526518024295764e+17
19584.0	6.525905135119017e+17
19585.0	6.525233752178687e+17
19586.0	6.524574040588287e+17
19587.0	6.52391766696482e+17
19588.0	6.523116793277098e+17
19589.0	6.5227337498624e+17
19590.0	6.522019574535508e+17
19591.0	6.521404523195049e+17
19592.0	6.520718079208105e+17
19593.0	6.520007336219988e+17
19594.0	6.519144342093823e+17
19595.0	6.518637753357652e+17
19596.0	6.51646090678545e+17
19597.0	6.517180650749951e+17
19598.0	6.516261188709033e+17
19599.0	6.515707251174058e+17
19600.0	6.514950695201449e+17
19601.0	6.51413944410658e+17
19602.0	6.513374464573439e+17
19603.0	6.511998282672809e+17
19604.0	6.511752518828031e+17
19605.0	6.510853476756138e+17
19606.0	6.510245167060308e+17
19607.0	6.50943746085137e+17
19608.0	6.50861370024482e+17
19609.0	6.507759610626047e+17
19610.0	6.506954065182719e+17
19611.0	6.506108394231123e+17
19612.0	6.505277057313449e+17
19613.0	6.504417065609898e+17
19614.0	6.503537303355392e+17
19615.0	6.502692376892756e+17
19616.0	6.501581525265066e+17
19617.0	6.500934497249961e+17
19618.0	6.499713032039081e+17
19619.0	6.498731206290089e+17
19620.0	6.497861494287017e+17
19621.0	6.497364328753834e+17
19622.0	6.496475157277354e+17
19623.0	6.495563561653588e+17
19624.0	6.494639058059263e+17
19625.0	6.493720823551316e+17
19626.0	6.492788120092672e+17
19627.0	6.491829168679593e+17
19628.0	6.490294124019712e+17
19629.0	6.491836104660307e+17
19630.0	6.488794038184618e+17
19631.0	6.463934835283284e+17
19632.0	6.4890608826013e+17
19633.0	6.488264327648595e+17
19634.0	6.487383791545002e+17
19635.0	6.486395973533695e+17
19636.0	6.48543855583778e+17
19637.0	6.484203702408532e+17
19638.0	6.483486860203348e+17
19639.0	6.482496624874836e+17
19640.0	6.481460009631744e+17
19641.0	6.48005914005777e+17
19642.0	6.479520178984275e+17
19643.0	6.478599587277482e+17
19644.0	6.480211331776513e+17
19645.0	6.480288747443539e+17
19646.0	6.47942002250001e+17
19647.0	6.478411627233279e+17
19648.0	6.477382960895316e+17
19649.0	6.47634912088337e+17
19650.0	6.475316199424e+17
19651.0	6.474279075272019e+17
19652.0	6.473239471587327e+17
19653.0	6.47218411409681e+17
19654.0	6.471153077278036e+17
19655.0	6.470103385593172e+17
19656.0	6.469053043092137e+17
19657.0	6.468006429327359e+17
19658.0	6.46695315710498e+17
19659.0	6.465896743348906e+17
19660.0	6.464840289746943e+17
19661.0	6.463780625405268e+17
19662.0	6.462718271116628e+17
19663.0	6.461610607859028e+17
19664.0	6.460484764390739e+17
19665.0	6.459522159738877e+17
19666.0	6.458444754889385e+17
