# Flux units: erg / (cm m2 s)
# Wavelength units: Angstrom
wave	flux
19000.0	5.7218316282538656e+17
19001.0	5.7207216462452045e+17
19002.0	5.7197859165962234e+17
19003.0	5.718757935327913e+17
19004.0	5.717738797749588e+17
19005.0	5.716694971798868e+17
19006.0	5.7156691729667405e+17
19007.0	5.714643225935871e+17
19008.0	5.7135931029367456e+17
19009.0	5.7125063049434445e+17
19010.0	5.711475849734826e+17
19011.0	5.7105038722116256e+17
19012.0	5.70943309156625e+17
19013.0	5.708503899439103e+17
19014.0	5.707450761434451e+17
19015.0	5.7064389541014176e+17
19016.0	5.7054518589085e+17
19017.0	5.7044341369077754e+17
19018.0	5.7034044171004576e+17
19019.0	5.702385401855998e+17
19020.0	5.701358048335187e+17
19021.0	5.700349042797225e+17
19022.0	5.699322122687828e+17
19023.0	5.6982639892671136e+17
19024.0	5.697241482264575e+17
19025.0	5.696241971232766e+17
19026.0	5.695212517763753e+17
19027.0	5.694196116968789e+17
19028.0	5.6931744998577485e+17
19029.0	5.692143301558271e+17
19030.0	5.6911358157564576e+17
19031.0	5.690106071482368e+17
19032.0	5.6890544217565856e+17
19033.0	5.687909392143699e+17
19034.0	5.686799628937898e+17
19035.0	5.685258513022975e+17
19036.0	5.6831696000341325e+17
19037.0	5.6833201902277965e+17
19038.0	5.6827383577750176e+17
19039.0	5.681868991102975e+17
19040.0	5.6809068659998714e+17
19041.0	5.6799067796493645e+17
19042.0	5.6782600972970656e+17
19043.0	5.6779011305854285e+17
19044.0	5.6768763516682234e+17
19045.0	5.675851673414313e+17
19046.0	5.6748190078074874e+17
19047.0	5.6737894914239136e+17
19048.0	5.6726576046626125e+17
19049.0	5.6704702513588883e+17
19050.0	5.6706133344474445e+17
19051.0	5.6694683761377274e+17
19052.0	5.668537895660202e+17
19053.0	5.6676428717315405e+17
19054.0	5.666683375058943e+17
19055.0	5.665327785792854e+17
19056.0	5.6646207512685216e+17
19057.0	5.663684177166335e+17
19058.0	5.66205718147891e+17
19059.0	5.661435877130239e+17
19060.0	5.660654241316863e+17
19061.0	5.659642078167039e+17
19062.0	5.6586268965164365e+17
19063.0	5.657609452038826e+17
19064.0	5.656569617667413e+17
19065.0	5.65548962353425e+17
19066.0	5.6543103858769914e+17
19067.0	5.6535557774595405e+17
19068.0	5.652556007778985e+17
19069.0	5.651544942837758e+17
19070.0	5.650516538643796e+17
19071.0	5.649513074480468e+17
19072.0	5.6482843090834765e+17
19073.0	5.6474984957433165e+17
19074.0	5.646486675128319e+17
19075.0	5.645474017749674e+17
19076.0	5.6444595337516365e+17
19077.0	5.643442585599999e+17
19078.0	5.64242011984145e+17
19079.0	5.641425201572521e+17
19080.0	5.6404071314445645e+17
19081.0	5.6393675529256954e+17
19082.0	5.6383915530649594e+17
19083.0	5.6373163159715834e+17
19084.0	5.6362013734993914e+17
19085.0	5.6353484526933325e+17
19086.0	5.633743242919935e+17
19087.0	5.6328103884663443e+17
19088.0	5.6319550608288403e+17
19089.0	5.631181417261738e+17
19090.0	5.6302924492090003e+17
19091.0	5.629260314880683e+17
19092.0	5.6277794263749984e+17
19093.0	5.6272964340940794e+17
19094.0	5.6262905120686074e+17
19095.0	5.6252838203883514e+17
19096.0	5.624276122075135e+17
19097.0	5.6232699022540794e+17
19098.0	5.622008690420393e+17
19099.0	5.620944304690518e+17
19100.0	5.62022495219439e+17
19101.0	5.619221292296874e+17
19102.0	5.6182034493603834e+17
19103.0	5.61721857085713e+17
19104.0	5.616219479954772e+17
19105.0	5.614652014723073e+17
19106.0	5.6141974738042874e+17
19107.0	5.613047821369342e+17
19108.0	5.61196059276083e+17
19109.0	5.6111610633475405e+17
19110.0	5.610162759576234e+17
19111.0	5.609006343127039e+17
19112.0	5.607969527955455e+17
19113.0	5.607157228983636e+17
19114.0	5.606033523911337e+17
19115.0	5.6050904220740256e+17
19116.0	5.604081705943039e+17
19117.0	5.602990791939411e+17
19118.0	5.601363209748479e+17
19119.0	5.5975851967119334e+17
19120.0	5.599645031989247e+17
19121.0	5.599003407635797e+17
19122.0	5.598076179141973e+17
19123.0	5.5970936256812365e+17
19124.0	5.5960455467062605e+17
19125.0	5.595046271953577e+17
19126.0	5.5939507169525754e+17
19127.0	5.5927880929334605e+17
19128.0	5.5919395943219194e+17
19129.0	5.590987129399977e+17
19130.0	5.5900873470334285e+17
19131.0	5.5891198909699405e+17
19132.0	5.588131178173781e+17
19133.0	5.587110078360234e+17
19134.0	5.586136290994858e+17
19135.0	5.58513956917521e+17
19136.0	5.5841390396265805e+17
19137.0	5.5831286555607034e+17
19138.0	5.5821387376011936e+17
19139.0	5.5811510943525536e+17
19140.0	5.580157936293205e+17
19141.0	5.579161200492543e+17
19142.0	5.578142798315519e+17
19143.0	5.5771548817380685e+17
19144.0	5.5761381964294816e+17
19145.0	5.5751630598963194e+17
19146.0	5.5736828921118714e+17
19147.0	5.573158528614399e+17
19148.0	5.571979325909674e+17
19149.0	5.570945408303103e+17
19150.0	5.5701855276455245e+17
19151.0	5.5691831491078816e+17
19152.0	5.568179322137257e+17
19153.0	5.5667519207942803e+17
19154.0	5.5661443660731725e+17
19155.0	5.565186860995924e+17
19156.0	5.5641919427269965e+17
19157.0	5.563060377529002e+17
19158.0	5.5618949999493114e+17
19159.0	5.5611921324660045e+17
19160.0	5.560186529906688e+17
19161.0	5.559187477452117e+17
19162.0	5.558173906414249e+17
19163.0	5.5571927860073805e+17
19164.0	5.5562114943330976e+17
19165.0	5.554765048053758e+17
19166.0	5.55421404303633e+17
19167.0	5.553241318927018e+17
19168.0	5.5522635406813856e+17
19169.0	5.55127733887522e+17
19170.0	5.550288494657535e+17
19171.0	5.5492933212351136e+17
19172.0	5.548301357853353e+17
19173.0	5.547311709028351e+17
19174.0	5.546312553813332e+17
19175.0	5.5453247693564576e+17
19176.0	5.544334826231124e+17
19177.0	5.543229298573311e+17
19178.0	5.54235173343505e+17
19179.0	5.5413582510161914e+17
19180.0	5.540352921785685e+17
19181.0	5.5393396142899194e+17
19182.0	5.53835721601843e+17
19183.0	5.537388143050751e+17
19184.0	5.536399946153983e+17
19185.0	5.535402319063721e+17
19186.0	5.534413372085589e+17
19187.0	5.533370600303273e+17
19188.0	5.532419400663039e+17
19189.0	5.5314175359276365e+17
19190.0	5.5304171720540154e+17
19191.0	5.529387449450494e+17
19192.0	5.528395475582975e+17
19193.0	5.527313847768405e+17
19194.0	5.52624254423313e+17
19195.0	5.525301943599103e+17
19196.0	5.524233448150355e+17
19197.0	5.523155249878356e+17
19198.0	5.522037335741779e+17
19199.0	5.520840082849791e+17
19200.0	5.5198919093998925e+17
19201.0	5.5190821563706016e+17
19202.0	5.5182274501891405e+17
19203.0	5.517325271476906e+17
19204.0	5.516423096958975e+17
19205.0	5.515477940611754e+17
19206.0	5.514533644795902e+17
19207.0	5.5134864522171725e+17
19208.0	5.5125771459843405e+17
19209.0	5.511641324759722e+17
19210.0	5.510680801181694e+17
19211.0	5.5097207012283725e+17
19212.0	5.508739552859476e+17
19213.0	5.5076904336971085e+17
19214.0	5.5067589479847245e+17
19215.0	5.5057874884580685e+17
19216.0	5.504795042731347e+17
19217.0	5.503777052295168e+17
19218.0	5.502746354515967e+17
19219.0	5.5016959644794874e+17
19220.0	5.500832522261844e+17
19221.0	5.499866943848447e+17
19222.0	5.498911412890281e+17
19223.0	5.497935754865322e+17
19224.0	5.4969436446829216e+17
19225.0	5.495993087470251e+17
19226.0	5.495009500812628e+17
19227.0	5.4940357029614925e+17
19228.0	5.493080177595732e+17
19229.0	5.4921026656884045e+17
19230.0	5.491120349205844e+17
19231.0	5.4901335490123085e+17
19232.0	5.48916399579682e+17
19233.0	5.488146303156223e+17
19234.0	5.4872050454145696e+17
19235.0	5.4862003697964365e+17
19236.0	5.485248092919124e+17
19237.0	5.484265537361236e+17
19238.0	5.483241827991551e+17
19239.0	5.482312661030228e+17
19240.0	5.481333107894953e+17
19241.0	5.4803438253725005e+17
19242.0	5.4793686420029434e+17
19243.0	5.478277513390762e+17
19244.0	5.4774266575803725e+17
19245.0	5.476443339358207e+17
19246.0	5.4754684139383456e+17
19247.0	5.4744855675753805e+17
19248.0	5.473515343970304e+17
19249.0	5.4725185767123616e+17
19250.0	5.4714549697249274e+17
19251.0	5.4704307311738854e+17
19252.0	5.469361143807999e+17
19253.0	5.4686154126349645e+17
19254.0	5.4676515035545594e+17
19255.0	5.4665159887202976e+17
19256.0	5.4656886923154765e+17
19257.0	5.4647157515004576e+17
19258.0	5.4637355042078714e+17
19259.0	5.462679493804031e+17
19260.0	5.461691561148415e+17
19261.0	5.460765731454975e+17
19262.0	5.4597388281227936e+17
19263.0	5.458745220573866e+17
19264.0	5.457719291718315e+17
19265.0	5.4567638949778765e+17
19266.0	5.455787769987071e+17
19267.0	5.454921292491434e+17
19268.0	5.4539586612756474e+17
19269.0	5.4529842517551776e+17
19270.0	5.4519888078001485e+17
19271.0	5.45098833207842e+17
19272.0	5.450049824402089e+17
19273.0	5.4489703168081914e+17
19274.0	5.4478248377057254e+17
19275.0	5.447161665814526e+17
19276.0	5.446174672683007e+17
19277.0	5.4452055025472845e+17
19278.0	5.44421689041442e+17
19279.0	5.4432393093010765e+17
19280.0	5.4422668018974714e+17
19281.0	5.441294563628372e+17
19282.0	5.4403288894450336e+17
19283.0	5.4393434342249805e+17
19284.0	5.4383388473862816e+17
19285.0	5.4373265136680954e+17
19286.0	5.436270250207913e+17
19287.0	5.4351128494953805e+17
19288.0	5.4332927089049594e+17
19289.0	5.432130607775743e+17
19290.0	5.4321498120956576e+17
19291.0	5.431234921846101e+17
19292.0	5.430546454107477e+17
19293.0	5.4296130404133536e+17
19294.0	5.4286463113625594e+17
19295.0	5.427700778227028e+17
19296.0	5.4264499542862496e+17
19297.0	5.425706534174719e+17
19298.0	5.4247733350891514e+17
19299.0	5.423510251896832e+17
19300.0	5.422847172280319e+17
19301.0	5.4218820335697914e+17
19302.0	5.420899761127423e+17
19303.0	5.419893769895934e+17
19304.0	5.418956615581696e+17
19305.0	5.4179681376665594e+17
19306.0	5.4169937022812154e+17
19307.0	5.415985096600234e+17
19308.0	5.4150082082461005e+17
19309.0	5.4140200728657914e+17
19310.0	5.4130060006085965e+17
19311.0	5.411967630049279e+17
19312.0	5.410859808107177e+17
19313.0	5.409288170242048e+17
19314.0	5.399402467644759e+17
19315.0	5.398797268724395e+17
19316.0	5.4060363067774285e+17
19317.0	5.406006279755092e+17
19318.0	5.405204500796757e+17
19319.0	5.4043120745403725e+17
19320.0	5.403260363298132e+17
19321.0	5.402162179167572e+17
19322.0	5.401450731536383e+17
19323.0	5.400483264987134e+17
19324.0	5.399507594379264e+17
19325.0	5.398544255025151e+17
19326.0	5.397577238664531e+17
19327.0	5.3966056505125536e+17
19328.0	5.395137612655275e+17
19329.0	5.3946666370553165e+17
19330.0	5.3936934166200314e+17
19331.0	5.392690747976362e+17
19332.0	5.391751735585449e+17
19333.0	5.390765667297962e+17
19334.0	5.38979416023586e+17
19335.0	5.3878161299647155e+17
19336.0	5.387840517046271e+17
19337.0	5.386869605575338e+17
19338.0	5.385733179179007e+17
19339.0	5.384891337626964e+17
19340.0	5.3838272657708365e+17
19341.0	5.382479821843115e+17
19342.0	5.3817459563560954e+17
19343.0	5.380870542196735e+17
19344.0	5.379411970883584e+17
19345.0	5.3783540961116154e+17
19346.0	5.3775713019712845e+17
19347.0	5.3764022592689485e+17
19348.0	5.3760077786862925e+17
19349.0	5.37505225052433e+17
19350.0	5.3739085120580256e+17
19351.0	5.3731149350611616e+17
19352.0	5.371625157427198e+17
19353.0	5.3711999214114125e+17
19354.0	5.3702100230253216e+17
19355.0	5.3691470060366496e+17
19356.0	5.368238163274411e+17
19357.0	5.367249423215273e+17
19358.0	5.366257186504702e+17
19359.0	5.365143693164542e+17
19360.0	5.363862230532094e+17
19361.0	5.3632778241747616e+17
19362.0	5.3622868373667834e+17
19363.0	5.361292528670037e+17
19364.0	5.360295428663978e+17
19365.0	5.3592959791486285e+17
19366.0	5.35829442409267e+17
19367.0	5.357290456612864e+17
19368.0	5.356283693629439e+17
19369.0	5.355263385141247e+17
19370.0	5.3542533855532365e+17
19371.0	5.353210442503509e+17
19372.0	5.352225924011349e+17
19373.0	5.3512026480530765e+17
19374.0	5.3501911874491725e+17
19375.0	5.349171845748053e+17
19376.0	5.348145389808298e+17
19377.0	5.3471089031905274e+17
19378.0	5.346075065275732e+17
19379.0	5.3450336755165856e+17
19380.0	5.3439866304375456e+17
19381.0	5.342934959041194e+17
19382.0	5.341817685934079e+17
19383.0	5.340791664104788e+17
19384.0	5.3397513879333536e+17
19385.0	5.3386804625844896e+17
19386.0	5.3376039699961165e+17
19387.0	5.3365060319313914e+17
19388.0	5.335379413914964e+17
19389.0	5.334185005460138e+17
19390.0	5.3327614160404474e+17
19391.0	5.3305294094772896e+17
19392.0	5.3301520332663456e+17
19393.0	5.329650725857961e+17
19394.0	5.3286907349565434e+17
19395.0	5.3274655410094074e+17
19396.0	5.3264463167488e+17
19397.0	5.32531451457263e+17
19398.0	5.3239550057294496e+17
19399.0	5.322655508987904e+17
19400.0	5.321519832672938e+17
19401.0	5.3204917989758285e+17
19402.0	5.319285505261566e+17
19403.0	5.318028807198036e+17
19404.0	5.3167656226433696e+17
19405.0	5.3154490907361274e+17
19406.0	5.314122377155923e+17
19407.0	5.3125816268445e+17
19408.0	5.3112992750196045e+17
19409.0	5.30996477890833e+17
19410.0	5.308609874012842e+17
19411.0	5.307164407802538e+17
19412.0	5.3056644380098554e+17
19413.0	5.303937817116671e+17
19414.0	5.30251478414131e+17
19415.0	5.3008747560523085e+17
19416.0	5.299107087603028e+17
19417.0	5.297465231496533e+17
19418.0	5.295658372868777e+17
19419.0	5.2937874602284365e+17
19420.0	5.291855962963968e+17
19421.0	5.2898468731726496e+17
19422.0	5.287694853384874e+17
19423.0	5.2854896624052896e+17
19424.0	5.2831506493603834e+17
19425.0	5.2807300228491936e+17
19426.0	5.2781408524260685e+17
19427.0	5.2753582917331616e+17
19428.0	5.27239313690897e+17
19429.0	5.269228918319785e+17
19430.0	5.2658326051225594e+17
19431.0	5.2621761751722656e+17
19432.0	5.2584931051001165e+17
19433.0	5.254505276200277e+17
19434.0	5.2499505318898336e+17
19435.0	5.2449272733368314e+17
19436.0	5.2393841692508154e+17
19437.0	5.2329552288590496e+17
19438.0	5.224498279568725e+17
19439.0	5.218777143356074e+17
19440.0	5.2121277209859405e+17
19441.0	5.20353982133043e+17
19442.0	5.1939373866461856e+17
19443.0	5.1825277158468256e+17
19444.0	5.1692327767026336e+17
19445.0	5.154243795921578e+17
19446.0	5.135653760488789e+17
19447.0	5.1132604413378554e+17
19448.0	5.08430147055343e+17
19449.0	5.044320805584894e+17
19450.0	4.973277882264228e+17
19451.0	4.9103837058826246e+17
19452.0	5.014650771647147e+17
19453.0	5.063000903210327e+17
19454.0	5.09442076582434e+17
19455.0	5.1176693084542285e+17
19456.0	5.1357445461988685e+17
19457.0	5.1489256344562336e+17
19458.0	5.136367453470731e+17
19459.0	5.164965171647833e+17
19460.0	5.181273558832468e+17
19461.0	5.1895844750404256e+17
19462.0	5.1963945623224314e+17
19463.0	5.202200897432234e+17
19464.0	5.2069362736387405e+17
19465.0	5.2111705060147194e+17
19466.0	5.214851608259242e+17
19467.0	5.218106069396138e+17
19468.0	5.2209146529491616e+17
19469.0	5.2229489057682765e+17
19470.0	5.225255562554026e+17
19471.0	5.227109182078975e+17
19472.0	5.228634419058004e+17
19473.0	5.229933943761578e+17
19474.0	5.230685587505151e+17
19475.0	5.2318042615098016e+17
19476.0	5.2327755742358176e+17
19477.0	5.233413368490666e+17
19478.0	5.233967875751936e+17
19479.0	5.234037564811945e+17
19480.0	5.2346550362658125e+17
19481.0	5.2348337206067194e+17
19482.0	5.234951319803221e+17
19483.0	5.234974429719211e+17
19484.0	5.2349238673844896e+17
19485.0	5.2348118326312954e+17
19486.0	5.2342757537437005e+17
19487.0	5.2343763562222925e+17
19488.0	5.234071235286355e+17
19489.0	5.233618990749012e+17
19490.0	5.233195860972885e+17
19491.0	5.232950239734442e+17
19492.0	5.232618605903871e+17
19493.0	5.232155591791957e+17
19494.0	5.2316261713619616e+17
19495.0	5.231021131825151e+17
19496.0	5.230274148652372e+17
19497.0	5.229453422624768e+17
19498.0	5.2277567749270176e+17
19499.0	5.2262261000328525e+17
19500.0	5.2274206594826234e+17
19501.0	5.227283506440873e+17
19502.0	5.226796726004394e+17
19503.0	5.2261973613608954e+17
19504.0	5.225537101714772e+17
19505.0	5.224829444336298e+17
19506.0	5.2241155696011936e+17
19507.0	5.2233326314564256e+17
19508.0	5.22249655497523e+17
19509.0	5.221456474537983e+17
19510.0	5.219322957922302e+17
19511.0	5.2078355841460883e+17
19512.0	5.216496175983273e+17
19513.0	5.2171079110273696e+17
19514.0	5.2167635041430176e+17
19515.0	5.2168106739848525e+17
19516.0	5.2162389868543994e+17
19517.0	5.215603642772138e+17
19518.0	5.214765572598442e+17
19519.0	5.21398372077841e+17
19520.0	5.212923786603178e+17
19521.0	5.2125085882559136e+17
19522.0	5.211606573820585e+17
19523.0	5.21077053788433e+17
19524.0	5.2097570842869766e+17
19525.0	5.2091997046265165e+17
19526.0	5.208379523858432e+17
19527.0	5.2075611053970765e+17
19528.0	5.2066954590726816e+17
19529.0	5.205826630669653e+17
19530.0	5.20503266779682e+17
19531.0	5.204176717305172e+17
19532.0	5.203320699005611e+17
19533.0	5.202461329457151e+17
19534.0	5.2015967631660365e+17
19535.0	5.200710438223871e+17
19536.0	5.1998189431029754e+17
19537.0	5.1989507955752954e+17
19538.0	5.197680319223125e+17
19539.0	5.197136685694974e+17
19540.0	5.196310358174379e+17
19541.0	5.195386666177877e+17
19542.0	5.194559654985726e+17
19543.0	5.1933287826500256e+17
19544.0	5.1927572793698976e+17
19545.0	5.191774237272745e+17
19546.0	5.190893957720746e+17
19547.0	5.190146534845098e+17
19548.0	5.1893211790049274e+17
19549.0	5.188383413720404e+17
19550.0	5.18759348506897e+17
19551.0	5.186715645203796e+17
19552.0	5.1858346491248634e+17
19553.0	5.184954186421588e+17
19554.0	5.184068757662378e+17
19555.0	5.183129534857215e+17
19556.0	5.182271654985727e+17
19557.0	5.1814110033783443e+17
19558.0	5.1805269202916685e+17
19559.0	5.1796397984317434e+17
19560.0	5.1785947785024845e+17
19561.0	5.177839161354921e+17
19562.0	5.176829105143806e+17
19563.0	5.1760796431373645e+17
19564.0	5.175185007880873e+17
19565.0	5.1742943586112845e+17
19566.0	5.173391753478143e+17
19567.0	5.172507481647785e+17
19568.0	5.17159604331042e+17
19569.0	5.1707100692916896e+17
19570.0	5.1698229418393594e+17
19571.0	5.1689294411421005e+17
19572.0	5.1680113562309965e+17
19573.0	5.167091845256532e+17
19574.0	5.1661558275986765e+17
19575.0	5.165355064360959e+17
19576.0	5.164428497169066e+17
19577.0	5.163470213349375e+17
19578.0	5.162657912280404e+17
19579.0	5.161744578816681e+17
19580.0	5.160853744298666e+17
19581.0	5.1599754905954976e+17
19582.0	5.1590806253513376e+17
19583.0	5.1581833966168736e+17
19584.0	5.157283654795262e+17
19585.0	5.156289836832085e+17
19586.0	5.155367973552127e+17
19587.0	5.154548474358442e+17
19588.0	5.153606811866453e+17
19589.0	5.1527321345064954e+17
19590.0	5.151823237218302e+17
19591.0	5.150984137342975e+17
19592.0	5.150105304126804e+17
19593.0	5.1491650739896314e+17
19594.0	5.14808644440337e+17
19595.0	5.1474065400354125e+17
19596.0	5.146501370784425e+17
19597.0	5.145583566192638e+17
19598.0	5.144516740775934e+17
19599.0	5.1437749885992954e+17
19600.0	5.142914548105215e+17
19601.0	5.141983490211839e+17
19602.0	5.1410778365187405e+17
19603.0	5.140156500322985e+17
19604.0	5.139267256145236e+17
19605.0	5.1382809257137485e+17
19606.0	5.137534471722324e+17
19607.0	5.136654173995007e+17
19608.0	5.1357530564416845e+17
19609.0	5.134844152162987e+17
19610.0	5.133795934775978e+17
19611.0	5.1328115945417376e+17
19612.0	5.132176144902825e+17
19613.0	5.1312672483136845e+17
19614.0	5.130338855201451e+17
19615.0	5.129453889912832e+17
19616.0	5.128351324132692e+17
19617.0	5.12730680402466e+17
19618.0	5.126508621682004e+17
19619.0	5.125532567295317e+17
19620.0	5.1246723532936525e+17
19621.0	5.123614520464724e+17
19622.0	5.1231480998789114e+17
19623.0	5.1222494926165325e+17
19624.0	5.121308281711274e+17
19625.0	5.120472411450026e+17
19626.0	5.119552103557802e+17
19627.0	5.118622092143274e+17
19628.0	5.1176566710162765e+17
19629.0	5.115724781584383e+17
19630.0	5.1156191760001696e+17
19631.0	5.114595024131413e+17
19632.0	5.113939777377621e+17
19633.0	5.1131351987213645e+17
19634.0	5.112353441972224e+17
19635.0	5.111439662514175e+17
19636.0	5.110222666334207e+17
19637.0	5.1090975533738656e+17
19638.0	5.108845108002815e+17
19639.0	5.107954476209492e+17
19640.0	5.1068467612221434e+17
19641.0	5.1057847802265594e+17
19642.0	5.1052260024647686e+17
19643.0	5.104376411237034e+17
19644.0	5.103493051667796e+17
19645.0	5.1026171747368954e+17
19646.0	5.101319181653332e+17
19647.0	5.100874528107177e+17
19648.0	5.09999968157696e+17
19649.0	5.099112479326207e+17
19650.0	5.0982279991787514e+17
19651.0	5.0973334338273274e+17
19652.0	5.0964433053504845e+17
19653.0	5.095559100628991e+17
19654.0	5.094662684191402e+17
19655.0	5.093772752147796e+17
